Time,Net Activation,Desired Angle
0.0,2.2906762136488607e-05,-0.10311177012896335
0.0005,2.2858510033117144e-05,-0.10248961792281852
0.001,2.2809786364079377e-05,-0.10186743835234208
0.0015,2.276059721605464e-05,-0.10124523388712697
0.002,2.271094864017208e-05,-0.10062300698649451
0.0025,2.2660846652087295e-05,-0.10000076009956758
0.003,2.261029723205974e-05,-0.09937849566534367
0.0035,2.2559306325030783e-05,-0.09875621611276764
0.004,2.2507879840702505e-05,-0.09813392386080433
0.0045000000000000005,2.2456023653617154e-05,-0.09751162131851082
0.005,2.2403743603237303e-05,-0.09688931088510853
0.0055,2.235104549402665e-05,-0.09626699495005495
0.006,2.2297935095531518e-05,-0.09564467589311515
0.006500000000000001,2.2244418142462965e-05,-0.095022356084433
0.007,2.2190500334779568e-05,-0.09440003788460206
0.0075,2.2136187337770818e-05,-0.09377772364473608
0.008,2.2081484782141162e-05,-0.09315541570653926
0.0085,2.202639826409464e-05,-0.09253311640237616
0.009000000000000001,2.197093334542014e-05,-0.09191082805534113
0.0095,2.1915095553577254e-05,-0.09128855297932757
0.01,2.1858890381782707e-05,-0.09066629347909658
0.0105,2.1802323289097396e-05,-0.09004405185034536
0.011,2.1745399700513968e-05,-0.08942183037977522
0.0115,2.1688125007045e-05,-0.08879963134515902
0.012,2.1630504565811697e-05,-0.08817745701540836
0.0125,2.157254370013316e-05,-0.0875553096506402
0.013000000000000001,2.1514247699616184e-05,-0.08693319150224313
0.0135,2.1455621820245604e-05,-0.08631110481294305
0.014,2.1396671284475123e-05,-0.08568905181686849
0.0145,2.1337401281318706e-05,-0.08506703473961545
0.015,2.127781696644244e-05,-0.08444505579831163
0.0155,2.1217923462256903e-05,-0.08382311720168027
0.016,2.1157725858010044e-05,-0.08320122115010345
0.0165,2.109722920988051e-05,-0.08257936983568485
0.017,2.1036438541071468e-05,-0.081957565442312
0.0175,2.0975358841904896e-05,-0.08133581014571795
0.018000000000000002,2.091399506991632e-05,-0.0807141061135424
0.0185,2.0852352149949994e-05,-0.08009245550539239
0.019,2.0790434974254568e-05,-0.0794708604729022
0.0195,2.072824840257912e-05,-0.07884932315979287
0.02,2.0665797262269688e-05,-0.07822784570193106
0.0205,2.060308634836617e-05,-0.0776064302273873
0.021,2.0540120423699658e-05,-0.07698507885649365
0.021500000000000002,2.0476904218990168e-05,-0.07636379370190086
0.022,2.0413442432944782e-05,-0.0757425768686347
0.0225,2.0349739732356168e-05,-0.0751214304541519
0.023,2.0285800752201485e-05,-0.07450035654839529
0.0235,2.0221630095741667e-05,-0.07387935723384842
0.024,2.0157232334621065e-05,-0.07325843458558945
0.0245,2.009261200896747e-05,-0.0726375906713445
0.025,2.0027773627492464e-05,-0.07201682755154022
0.025500000000000002,1.996272166759214e-05,-0.07139614727935584
0.026000000000000002,1.9897460575448144e-05,-0.07077555190077439
0.0265,1.983199476612908e-05,-0.07015504345463347
0.027,1.9766328623692193e-05,-0.0695346239726751
0.0275,1.970046650128542e-05,-0.0689142954795951
0.028,1.9634412721249726e-05,-0.0682940599930917
0.0285,1.9568171575221742e-05,-0.0676739195239134
0.029,1.950174732423672e-05,-0.06705387607590627
0.029500000000000002,1.9435144198831765e-05,-0.06643393164606048
0.03,1.9368366399149368e-05,-0.06581408822455614
0.0305,1.93014180950412e-05,-0.06519434779480841
0.031,1.9234303426172188e-05,-0.06457471233351199
0.0315,1.9167026502124847e-05,-0.06395518381068478
0.032,1.90995914025039e-05,-0.06333576418971099
0.0325,1.9032002177041116e-05,-0.06271645542738333
0.033,1.896426284570041e-05,-0.06209725947394471
0.0335,1.8896377398783174e-05,-0.06147817827312905
0.034,1.882834979703387e-05,-0.06085921376220143
0.0345,1.8760183971745823e-05,-0.06024036787199756
0.035,1.869188382486723e-05,-0.05962164252696247
0.035500000000000004,1.8623453229107413e-05,-0.05900303964518848
0.036000000000000004,1.855489602804326e-05,-0.05838456113845251
0.0365,1.8486216036225878e-05,-0.057766208912252565
0.037,1.8417417039287442e-05,-0.057147984865843604
0.0375,1.8348502794048232e-05,-0.05652989089227258
0.038,1.827947702862386e-05,-0.05591192887841284
0.0385,1.8210343442532667e-05,-0.055294100704997746
0.039,1.8141105706803314e-05,-0.054676408246653596
0.0395,1.807176746408252e-05,-0.0540588533719318
0.04,1.8002332328742966e-05,-0.05344143794334037
0.0405,1.7932803886991378e-05,-0.052824163817374654
0.041,1.7863185696976718e-05,-0.052207032844547335
0.0415,1.779348128889857e-05,-0.051590046869417774
0.042,1.7723694165115637e-05,-0.050973207730620564
0.0425,1.7653827800254364e-05,-0.05035651726089341
0.043000000000000003,1.758388564131771e-05,-0.04973997728710428
0.043500000000000004,1.7513871107794035e-05,-0.04912358963027786
0.044,1.7443787591766123e-05,-0.04850735610562125
0.0445,1.737363845802028e-05,-0.04789127852254901
0.045,1.7303427044155568e-05,-0.047275358684707496
0.0455,1.723315666069314e-05,-0.04665959838999843
0.046,1.7162830591185656e-05,-0.04604399943060186
0.0465,1.7092452092326816e-05,-0.04542856359299835
0.047,1.702202439406095e-05,-0.04481329265799053
0.0475,1.6951550699692717e-05,-0.04419818840072392
0.048,1.6881034185996857e-05,-0.0435832525907071
0.0485,1.6810478003328044e-05,-0.042968486991831166
0.049,1.6739885275730774e-05,-0.04235389336238853
0.0495,1.6669259101049327e-05,-0.041739473455091054
0.05,1.6598602551037798e-05,-0.04112522901708748
0.0505,1.6527918671470167e-05,-0.04051116178998025
0.051000000000000004,1.645721048225042e-05,-0.03989727350984159
0.051500000000000004,1.6386480977522705e-05,-0.03928356590722902
0.052000000000000005,1.6315733125781537e-05,-0.03867004070720017
0.0525,1.624496986998204e-05,-0.03805669962932694
0.053,1.6174194127650205e-05,-0.03744354438770905
0.0535,1.610340879099317e-05,-0.03683057669098694
0.054,1.6032616727009527e-05,-0.03621779824235404
0.0545,1.596182077759966e-05,-0.03560521073956842
0.055,1.589102375967606e-05,-0.0349928158749638
0.0555,1.582022846527367e-05,-0.034380615335459996
0.056,1.5749437661660224e-05,-0.03376861080257271
0.0565,1.5678654091446572e-05,-0.03315680395242272
0.057,1.5607880472697035e-05,-0.032545196455744545
0.0575,1.5537119499039703e-05,-0.031933789977894395
0.058,1.5466373839776742e-05,-0.03132258617885767
0.0585,1.5395646139994686e-05,-0.030711586713255787
0.059000000000000004,1.5324939020674685e-05,-0.03010079323035248
0.059500000000000004,1.5254255078802746e-05,-0.029490207374059538
0.06,1.5183596887479931e-05,-0.028879830782941963
0.0605,1.511296699603252e-05,-0.028269665090222593
0.061,1.5042367930122133e-05,-0.02765971192378618
0.0615,1.4971802191855807e-05,-0.02704997290618292
0.062,1.4901272259896033e-05,-0.02644044965463146
0.0625,1.4830780589570733e-05,-0.0258311437810214
0.063,1.4760329612983181e-05,-0.025222056891915232
0.0635,1.4689921739121872e-05,-0.024613190588549813
0.064,1.461955935397032e-05,-0.024004546466837317
0.0645,1.4549244820616786e-05,-0.02339612611736569
0.065,1.4478980479363955e-05,-0.022787931125398623
0.0655,1.4408768647838505e-05,-0.02217996307087504
0.066,1.4338611621100634e-05,-0.021572223528408107
0.0665,1.426851167175348e-05,-0.02096471406728379
0.067,1.4198471050052461e-05,-0.02035743625145893
0.0675,1.4128491984014537e-05,-0.019750391639558895
0.068,1.4058576679527365e-05,-0.019143581784874762
0.0685,1.3988727320458364e-05,-0.018537008235360072
0.069,1.3918946068763682e-05,-0.01793067253362716
0.0695,1.3849235064597062e-05,-0.01732457621694305
0.07,1.3779596426418593e-05,-0.01671872081722495
0.07050000000000001,1.3710032251103366e-05,-0.01611310786103532
0.07100000000000001,1.3640544614050002e-05,-0.015507738869576574
0.07150000000000001,1.3571135569289072e-05,-0.014902615358685343
0.07200000000000001,1.3501807149591396e-05,-0.014297738838826396
0.0725,1.3432561366576224e-05,-0.013693110815086161
0.073,1.3363400210819282e-05,-0.013088732787165878
0.0735,1.3294325651960696e-05,-0.012484606249374398
0.074,1.3225339638812786e-05,-0.011880732690620621
0.0745,1.315644409946772e-05,-0.011277113594405586
0.075,1.308764094140503e-05,-0.010673750438814229
0.0755,1.3018932051598988e-05,-0.010070644696506804
0.076,1.2950319296625848e-05,-0.009467797834709975
0.0765,1.2881804522770919e-05,-0.008865211315207604
0.077,1.2813389556135506e-05,-0.008262886594331215
0.0775,1.2745076202743696e-05,-0.007660825122950166
0.078,1.2676866248648982e-05,-0.0070590283464615254
0.0785,1.2608761460040738e-05,-0.006457497704779658
0.079,1.2540763583350521e-05,-0.0058562346323255314
0.0795,1.2472874345358217e-05,-0.005255240558015759
0.08,1.2405095453298026e-05,-0.004654516905251365
0.0805,1.2337428594964256e-05,-0.004054065091906304
0.081,1.2269875438816976e-05,-0.0034538865303157217
0.0815,1.2202437634087468e-05,-0.0028539826272639818
0.082,1.213511681088351e-05,-0.0022543547839724495
0.0825,1.2067914580294486e-05,-0.0016550043960870534
0.083,1.2000832534496312e-05,-0.0010559328536656214
0.0835,1.1933872246856166e-05,-0.0004571415411650067
0.084,1.1867035272037043e-05,0.00014136816257199363
0.0845,1.1800323146102113e-05,0.0007395948843299196
0.085,1.1733737386618894e-05,0.0013375372565341214
0.0855,1.166727949276322e-05,0.0019351939172644176
0.08600000000000001,1.1600950945423025e-05,0.0025325635102689315
0.08650000000000001,1.1534753207301917e-05,0.003129644684978098
0.08700000000000001,1.146868772302255e-05,0.0037264360965188364
0.08750000000000001,1.140275591922981e-05,0.004322936405728878
0.088,1.1336959204693763e-05,0.004919144279171246
0.0885,1.127129897041243e-05,0.00551505838914888
0.089,1.120577658971432e-05,0.006110677413719396
0.0895,1.1140393418360777e-05,0.006706000036709973
0.09,1.1075150794648093e-05,0.007301024947732374
0.0905,1.1010050039509414e-05,0.007895750842198073
0.091,1.0945092456616422e-05,0.008490176421333498
0.0915,1.0880279332480794e-05,0.009084300392195373
0.092,1.0815611936555448e-05,0.00967812146768617
0.0925,1.0751091521335558e-05,0.010271638366569635
0.093,1.0686719322459337e-05,0.01086484981348641
0.0935,1.0622496558808595e-05,0.01145775453896973
0.094,1.0558424432609072e-05,0.0120503512794612
0.0945,1.0494504129530526e-05,0.01264263877732662
0.095,1.04307368187866e-05,0.013234615780871888
0.0955,1.0367123653234437e-05,0.013826281044358952
0.096,1.0303665769474067e-05,0.0144176333280218
0.0965,1.0240364287947557e-05,0.015008671398082507
0.097,1.0177220313037908e-05,0.015599394026767311
0.0975,1.0114234933167713e-05,0.016189799992322715
0.098,1.0051409220897575e-05,0.01677988807903162
0.0985,9.98874423302427e-06,0.017369657077229476
0.099,9.926241010678662e-06,0.01795910578332044
0.0995,9.863900579423373e-06,0.018548232999793544
0.1,9.801723949350197e-06,0.019137037535238884
0.1005,9.73971211517726e-06,0.01972551820436376
0.101,9.677866056345929e-06,0.020313673828008857
0.1015,9.616186737117454e-06,0.02090150323316438
0.10200000000000001,9.554675106669366e-06,0.021489005252986176
0.10250000000000001,9.493332099191606e-06,0.02207617872681185
0.10300000000000001,9.432158633982385e-06,0.022663022500176808
0.10350000000000001,9.371155615543803e-06,0.02324953542483031
0.10400000000000001,9.310323933677182e-06,0.023835716358751466
0.1045,9.249664463578151e-06,0.024421564166165165
0.105,9.189178065931449e-06,0.02500707771755799
0.1055,9.128865587005465e-06,0.025592255889694056
0.106,9.068727858746514e-06,0.026177097565630785
0.1065,9.008765698872836e-06,0.026761601634734632
0.107,8.948979910968323e-06,0.027345766992696727
0.1075,8.889371284575976e-06,0.027929592541548455
0.108,8.829940595291077e-06,0.02851307718967694
0.1085,8.770688604854103e-06,0.02909621985184046
0.109,8.711616061243344e-06,0.029679019449183778
0.1095,8.652723698767256e-06,0.030261474909253364
0.11,8.594012238156526e-06,0.03084358516601253
0.1105,8.535482386655859e-06,0.03142534915985647
0.111,8.477134838115481e-06,0.03200676583762717
0.1115,8.41897027308237e-06,0.032587834152628246
0.112,8.36098935889118e-06,0.03316855306463965
0.1125,8.303192749754905e-06,0.033748921539932246
0.113,8.245581086855239e-06,0.03432893855128227
0.1135,8.188154998432663e-06,0.0349086030779857
0.114,8.13091509987623e-06,0.035487914105872424
0.1145,8.073861993813065e-06,0.03606687062732038
0.115,8.016996270197581e-06,0.036645471641269425
0.1155,7.960318506400402e-06,0.0372237161532352
0.116,7.903829267296984e-06,0.037801603175322745
0.1165,7.847529105355955e-06,0.03837913172624003
0.117,7.79141856072716e-06,0.03895630083131132
0.11750000000000001,7.7354981613294e-06,0.039533109522490346
0.11800000000000001,7.679768422937892e-06,0.040109556838373396
0.11850000000000001,7.624229849271416e-06,0.040685641824212165
0.11900000000000001,7.5688829320791815e-06,0.04126136353192649
0.11950000000000001,7.513728151227379e-06,0.04183672102011691
0.12,7.4587659747854495e-06,0.04241171335407703
0.1205,7.403996859112041e-06,0.042986339605805744
0.121,7.349421248940673e-06,0.04356059885401927
0.1215,7.295039577465097e-06,0.04413449018416299
0.122,7.2408522664243566e-06,0.04470801268842312
0.1225,7.186859726187542e-06,0.04528116546573822
0.123,7.133062355838246e-06,0.04585394762181044
0.1235,7.079460543258713e-06,0.04642635826911669
0.124,7.026054665213688e-06,0.04699839652691948
0.1245,6.972845087433959e-06,0.047570061521277705
0.125,6.919832164699588e-06,0.048141352385057117
0.1255,6.867016240922847e-06,0.04871226825794066
0.126,6.814397649230837e-06,0.04928280828643857
0.1265,6.761976712047811e-06,0.04985297162389831
0.127,6.709753741177176e-06,0.050422757430514234
0.1275,6.657729037883201e-06,0.05099216487333711
0.128,6.605902892972405e-06,0.05156119312628338
0.1285,6.554275586874644e-06,0.05212984137014422
0.129,6.502847389723881e-06,0.0526981087925944
0.1295,6.451618561438654e-06,0.05326599458820092
0.13,6.400589351802231e-06,0.0538334979584314
0.1305,6.349760000542449e-06,0.054400618111662274
0.131,6.2991307374112484e-06,0.05496735426318677
0.1315,6.248701782263897e-06,0.055533705635222634
0.132,6.198473345137893e-06,0.05609967145691965
0.1325,6.148445626331564e-06,0.056665250964366934
0.133,6.098618816482352e-06,0.05723044340059997
0.1335,6.0489930966447864e-06,0.057795248015607446
0.134,5.9995686383681375e-06,0.058359664066337864
0.1345,5.9503456037737646e-06,0.05892369081670588
0.135,5.901324145632148e-06,0.05948732753759842
0.1355,5.852504407439604e-06,0.06005057350688059
0.136,5.8038865234946875e-06,0.06061342800940133
0.1365,5.755470618974283e-06,0.06117589033699882
0.137,5.7072568100093786e-06,0.06173795978850566
0.1375,5.659245203760523e-06,0.0622996356697538
0.138,5.6114358984929695e-06,0.06286091729357926
0.1385,5.56382898365151e-06,0.06342180397982655
0.139,5.516424539934985e-06,0.06398229505535294
0.1395,5.469222639370481e-06,0.06454238985403236
0.14,5.422223345387216e-06,0.06510208771675922
0.1405,5.375426712890107e-06,0.06566138799145184
0.14100000000000001,5.328832788333018e-06,0.06622029003305568
0.14150000000000001,5.282441609791701e-06,0.06677879320354642
0.14200000000000002,5.236253207036409e-06,0.06733689687193263
0.14250000000000002,5.190267601604206e-06,0.06789460041425836
0.14300000000000002,5.144484806870951e-06,0.06845190321360539
0.14350000000000002,5.09890482812297e-06,0.06900880466009524
0.14400000000000002,5.053527662628413e-06,0.06956530415089097
0.1445,5.00835329970829e-06,0.07012140109019876
0.145,4.963381720807201e-06,0.07067709488926915
0.1455,4.918612899563735e-06,0.07123238496639814
0.146,4.874046801880567e-06,0.071787270746928
0.1465,4.829683385994231e-06,0.07234175166324788
0.147,4.78552260254458e-06,0.07289582715479409
0.1475,4.7415643946439295e-06,0.07344949666805023
0.148,4.697808697945882e-06,0.07400275965654705
0.1485,4.654255440713844e-06,0.0745556155808621
0.149,4.61090454388922e-06,0.07510806390861906
0.1495,4.567755921159288e-06,0.07566010411448691
0.15,4.524809479024774e-06,0.07621173568017889
0.1505,4.482065116867096e-06,0.0767629580944511
0.151,4.4395227270152995e-06,0.07731377085310105
0.1515,4.39718219481268e-06,0.0778641734589658
0.152,4.355043398683088e-06,0.07841416542191998
0.1525,4.313106210196914e-06,0.07896374625887356
0.153,4.2713704941367715e-06,0.0795129154937694
0.1535,4.2298361085628575e-06,0.08006167265758053
0.154,4.188502904877998e-06,0.08061001728830726
0.1545,4.147370727892384e-06,0.08115794893097407
0.155,4.106439415887991e-06,0.08170546713762625
0.1555,4.065708800682689e-06,0.08225257146732631
0.156,4.025178707694032e-06,0.08279926148615027
0.1565,3.984848956002745e-06,0.08334553676718363
0.157,3.944719358415889e-06,0.08389139689051718
0.1575,3.904789721529719e-06,0.0844368414432426
0.158,3.8650598457922295e-06,0.08498187001944783
0.1585,3.825529525565386e-06,0.08552648222021236
0.159,3.786198549187051e-06,0.08607067765360212
0.1595,3.747066699032588e-06,0.08661445593466428
0.16,3.708133751576166e-06,0.08715781668542195
0.1605,3.669399477451748e-06,0.08770075953486853
0.161,3.6308636415137725e-06,0.08824328411896193
0.1615,3.5925260028975203e-06,0.08878539008061866
0.162,3.5543863150791788e-06,0.08932707706970767
0.1625,3.5164443259355916e-06,0.08986834474304407
0.163,3.478699777803703e-06,0.0904091927643826
0.1635,3.4411524075396934e-06,0.09094962080441103
0.164,3.403801946577805e-06,0.09148962854074331
0.1645,3.3666481209888654e-06,0.09202921565791262
0.165,3.3296906515384975e-06,0.09256838184736421
0.1655,3.29292925374503e-06,0.09310712680744812
0.166,3.256363637937094e-06,0.09364545024341173
0.1665,3.2199935093109222e-06,0.09418335186739218
0.167,3.1838185679873368e-06,0.09472083139840867
0.1675,3.1478385090684356e-06,0.09525788856235452
0.168,3.112053022693973e-06,0.09579452309198927
0.1685,3.076461794097438e-06,0.09633073472693045
0.169,3.041064503661828e-06,0.09686652321364542
0.1695,3.0058608269751216e-06,0.09740188830544293
0.17,2.970850434885446e-06,0.09793682976246469
0.1705,2.9360329935559463e-06,0.09847134735167674
0.171,2.901408164519349e-06,0.09900544084686078
0.1715,2.866975604732232e-06,0.0995391100286053
0.17200000000000001,2.8327349666289842e-06,0.10007235468429679
0.17250000000000001,2.7986858981754767e-06,0.10060517460811069
0.17300000000000001,2.7648280429224274e-06,0.10113756960100234
0.17350000000000002,2.731161040058467e-06,0.10166953947069783
0.17400000000000002,2.6976845244629113e-06,0.10220108403168478
0.17450000000000002,2.6643981267582326e-06,0.10273220310520305
0.17500000000000002,2.6313014733622365e-06,0.10326289651923541
0.17550000000000002,2.5983941865399397e-06,0.1037931641084981
0.176,2.5656758844551545e-06,0.10432300571443141
0.1765,2.533146181221778e-06,0.10485242118519014
0.177,2.500804686954784e-06,0.10538141037563407
0.1775,2.4686510078209257e-06,0.10590997314731841
0.178,2.4366847460891395e-06,0.10643810936848416
0.1785,2.4049055001806604e-06,0.10696581891404851
0.179,2.373312864718845e-06,0.10749310166559517
0.1795,2.3419064305787e-06,0.10801995751136477
0.18,2.310685784936121e-06,0.10854638634624517
0.1805,2.2796505113168455e-06,0.10907238807176181
0.181,2.248800189645108e-06,0.1095979625960681
0.1815,2.2181343962920144e-06,0.1101231098339358
0.182,2.1876527041236234e-06,0.11064782970674539
0.1825,2.157354682548741e-06,0.1111721221424765
0.183,2.1272398975664303e-06,0.11169598707569843
0.1835,2.0973079118132302e-06,0.11221942444756061
0.184,2.0675582846100943e-06,0.11274243420578321
0.1845,2.037990572009042e-06,0.11326501630464769
0.185,2.0086043268395235e-06,0.11378717070498753
0.1855,1.9793990987545064e-06,0.114308897374179
0.186,1.9503744342762736e-06,0.11483019628613192
0.1865,1.9215298768419437e-06,0.11535106742128062
0.187,1.8928649668487078e-06,0.11587151076657497
0.1875,1.8643792416987862e-06,0.11639152631547141
0.188,1.8360722358441042e-06,0.1169111140679242
0.1885,1.80794348083069e-06,0.11743027403037677
0.189,1.7799925053427929e-06,0.11794900621575309
0.1895,1.7522188352467248e-06,0.1184673106434493
0.19,1.7246219936344239e-06,0.11898518733932535
0.1905,1.6972015008667417e-06,0.11950263633569691
0.191,1.669956874616455e-06,0.1200196576713273
0.1915,1.642887629911003e-06,0.12053625139141969
0.192,1.6159932791749506e-06,0.12105241754760934
0.1925,1.589273332272177e-06,0.12156815619795618
0.193,1.5627272965477944e-06,0.12208346740693733
0.1935,1.5363546768697916e-06,0.1225983512454401
