t_s,q_rad,q_des_rad,K,B,Kff,jerk,tau_Nm,reward
0.005732297897338867,0.0,0.7746357917785645,9.825212432529046,0.9781515540661307,1.9737818648793566,0.0,5.9399999999999995,0.5
0.0616300106048584,0.0035171769012600643,0.7746357917785645,9.650424865058092,0.9563031081322615,1.9475637297587132,5.0,5.9994,0.4817320621239355
0.12545251846313477,0.028528212643553853,0.7746357917785645,9.475637297587138,0.9344546621983922,1.92134559463807,5.0,5.999993999999999,0.4817320621239355
0.18962359428405762,0.054320843252794335,0.7746357917785645,9.300849730116184,0.9126062162645229,1.8951274595174268,5.0,5.9999999399999995,0.4817320621239355
0.2540566921234131,0.08011347386203481,0.7746357917785645,9.12606216264523,0.8907577703306536,1.8689093243967834,5.0,5.999999999399999,0.4817320621239355
0.3174765110015869,0.10571070575453859,0.7747012972831726,8.951274595174274,0.8689093243967844,1.84269118927614,5.0,5.9999999999939995,0.4817320621239355
0.38146305084228516,0.1313079376470424,0.7770222425460815,8.77648702770332,0.847060878462915,1.8164730541554968,4.988001548471552,-5.880000000000059,0.48181801982054234
0.44671177864074707,0.1522156003378661,0.7917813062667847,8.601699460232366,0.8252124325290457,1.7902549190348536,-5.0,-5.9988,0.4817320621239355
0.5095491409301758,0.12837695689599235,0.8218854665756226,8.426911892761412,0.8033639865951765,1.7640367839142101,-5.0,-5.999987999999999,0.4817320621239355
0.5736443996429443,0.1023889275700152,0.8720415830612183,8.252124325290458,0.7815155406613071,1.7378186487935667,-5.0,-5.99999988,0.4817320621239355
0.6374695301055908,0.07659629696077475,0.9332072734832764,8.077336757819502,0.7596670947274378,1.7116005136729235,-5.0,-3.0299999987999997,0.4817320621239355
0.7014796733856201,0.050803666351534264,0.9994437098503113,7.902549190348549,0.7378186487935685,1.6853823785522803,-5.0,-3.0002999999879996,0.4817320621239355
0.7655124664306641,0.02501103574229379,1.0699001550674438,7.727761622877595,0.7159702028596993,1.659164243431637,-5.0,-3.0000029999998796,0.4817320621239355
0.8296957015991211,-0.0007815948669466809,1.1443158388137817,7.55297405540664,0.6941217569258299,1.6329461083109935,-5.0,2.939999970000001,0.4817320621239355
0.8936195373535156,-0.0236432447251371,1.2237027883529663,7.378186487935686,0.6722733109919605,1.6067279731903503,4.37772195616827,2.9993999996999996,0.4859355711896751
0.9574384689331055,-0.002344784600840043,1.3045217990875244,7.203398920464732,0.6504248650580913,1.5805098380697071,5.0,2.999993999997,0.4817320621239355
1.0217294692993164,0.023447846008400428,1.4019850492477417,7.028611352993777,0.6285764191242219,1.5542917029490637,5.0,2.9999999399999697,0.4817320621239355
1.085472822189331,0.04943587533437757,1.4994069337844849,6.853823785522822,0.6067279731903527,1.5280735678284203,5.0,2.9999999993999995,0.4817320621239355
1.1495299339294434,0.07503310722688138,1.6182177066802979,6.679036218051868,0.5848795272564833,1.501855432707777,5.0,2.999999999994,0.4817320621239355
1.2144393920898438,0.10141193398633185,1.7295547723770142,6.504248650580913,0.563031081322614,1.475637297587134,5.0,2.9999999999999396,0.4817320621239355
1.2774074077606201,0.12720456459557233,1.8317673206329346,6.329461083109958,0.5411826353887447,1.4494191624664907,5.0,2.999999999999999,0.4817320621239355
1.3414316177368164,0.1529971952048128,1.9462705850601196,6.154673515639004,0.5193341894548753,1.4232010273458477,3.9416754227896345,2.9999999999999996,0.48856713178630273
1.4065849781036377,0.17937602196426328,2.070908784866333,5.97988594816805,0.5,1.3969828922252046,0.7808995838131594,2.9999999999999996,0.499546267456197
1.4694311618804932,0.20458245642329373,2.178046464920044,5.805098380697095,0.5,1.3707647571045614,-2.4656889470522003,2.9999999999999996,0.4954947462232645
1.534627914428711,0.23076588446600757,2.240116834640503,5.63031081322614,0.5,1.3445466219839184,-5.0,2.9999999999999996,0.4817320621239355
1.5974364280700684,0.2561677176417747,2.2730965614318848,5.455523245755186,0.5,1.3183284868632752,-5.0,2.9999999999999996,0.4817320621239355
1.6621692180633545,0.2825465444012252,2.296592950820923,5.280735678284231,0.5,1.292110351742632,-5.0,-2.94,0.4817320621239355
1.7270410060882568,0.3054081942594156,2.309502124786377,5.105948110813277,0.5,1.2658922166219888,-5.0,-2.9993999999999996,0.4817320621239355
1.7894608974456787,0.2837189367016452,2.3192591667175293,5.0,0.5,1.2396740815013456,-5.0,-2.9999939999999996,0.4817320621239355
1.8534951210021973,0.25773090737566806,2.326350450515747,5.0,0.5,1.2134559463807026,-5.0,-2.99999994,0.4817320621239355
1.9194378852844238,0.23096128318274423,2.33136248588562,5.0,0.5,1.1872378112600595,-5.0,-2.9999999994,0.4817320621239355
1.981557846069336,0.2061456461571871,2.335659980773926,5.0,0.5,1.1610196761394163,-5.0,-2.999999999994,0.4817320621239355
2.0454580783843994,0.18035301554794664,2.339113473892212,5.0,0.5,1.1348015410187733,-5.0,-2.9999999999999396,0.4817320621239355
2.10939359664917,0.15456038493870616,2.3419384956359863,5.0,0.5,1.10858340589813,-5.0,-2.999999999999999,0.4817320621239355
2.1735596656799316,0.128572355612729,2.3441355228424072,5.0,0.5,1.082365270777487,-1.7357688605995714,-2.9999999999999996,0.49776222308241197
2.239091634750366,0.1018027314198052,2.346327543258667,5.0,0.5,1.0561471356568437,2.5063433798541657,-2.9999999999999996,0.4953456549483525
2.3014426231384277,0.0767916956775114,2.3479692935943604,5.0,0.5,1.0299290005362005,5.0,-2.9999999999999996,0.4817320621239355
2.36541485786438,0.05099906506827094,2.3495564460754395,5.0,0.5,1.0037108654155575,5.0,-2.9999999999999996,0.4817320621239355
2.43053936958313,0.024229440875347112,2.3509747982025146,5.0,0.5,0.9774927302949143,5.0,-2.9999999999999996,0.4817320621239355
2.493830919265747,-0.0011723923004200215,2.3522422313690186,5.0,0.5,0.9512745951742712,5.0,-2.9999999999999996,0.4817320621239355
2.5576059818267822,-0.026769624192923825,2.3532156944274902,5.0,0.5,0.9250564600536281,5.0,-2.9999999999999996,0.4817320621239355
2.6215381622314453,-0.044746306132697485,2.354278326034546,5.0,0.5,0.898838324932985,5.0,-2.9999999999999996,0.4817320621239355
2.6867282390594482,-0.05412544453605766,2.3553338050842285,5.0,0.5,0.8726201898123418,5.0,-2.9999999999999996,0.4817320621239355
2.7510383129119873,-0.05764262143731772,2.356243133544922,5.0,0.5,0.8464020546916986,5.0,-2.9999999999999996,0.4817320621239355
2.814997673034668,-0.0578380201540544,2.3570756912231445,5.0,0.5,0.8201839195710555,5.0,-2.9999999999999996,0.4817320621239355
2.878864049911499,-0.0578380201540544,2.3577911853790283,5.0,0.5,0.7939657844504124,5.0,-2.9999999999999996,0.4817320621239355
2.943279504776001,-0.0578380201540544,2.3585147857666016,5.0,0.5,0.7677476493297692,5.0,-1.0932854326746957,0.4817320621239355
3.0064849853515625,-0.0578380201540544,2.359201192855835,5.0,0.5,0.741529514209126,5.0,2.0301594869936084,0.4817320621239355
3.0703608989715576,-0.05588403298668769,2.359861135482788,5.0,0.5,0.715311379088483,5.0,4.400216366977826,0.4817320621239355
3.133509635925293,-0.031459193394603915,2.3604817390441895,5.0,0.5,0.6890932439678399,5.0,5.9840021636697776,0.4817320621239355
3.1974594593048096,-0.005275765351890096,2.360954999923706,5.0,0.5,0.6628751088471967,5.0,5.999840021636698,0.4817320621239355
3.2616066932678223,0.020712263974087045,2.361530065536499,5.0,0.5,0.6366569737265535,5.0,5.999998400216366,0.4817320621239355
3.325418472290039,0.046700293300064186,2.362103223800659,5.0,0.5,0.6104388386059104,5.0,5.999999984002163,0.4817320621239355
3.389390707015991,0.07268832262604133,2.362673044204712,5.0,0.5,0.5842207034852673,3.8291780132902886,5.999999999840021,0.48920342136120015
3.453352451324463,0.0984809532352818,2.3632123470306396,5.0,0.5,0.5580025683646241,0.11733765016773035,5.9999999999983995,0.4999897511060895
3.5190589427948,0.1252505774282056,2.3637354373931885,5.0,0.5,0.531784433243981,-3.708869012968483,5.999999999999983,0.4898643831295104
3.581825017929077,0.15065241060397278,2.3641953468322754,5.0,0.5,0.5055662981233379,-5.0,5.999999999999999,0.4817320621239355
3.645768404006958,0.1768358386466866,2.364699602127075,5.0,0.5,0.4793481630026947,-5.0,5.999999999999999,0.4817320621239355
3.709552764892578,0.20223767182245372,2.3651044368743896,5.0,0.5,0.4531300278820516,-5.0,3.03,0.4817320621239355
3.774275302886963,0.2280303024316942,2.365525960922241,5.0,0.5,0.42691189276140845,-5.0,3.0002999999999997,0.4817320621239355
3.837388515472412,0.253627534324198,2.3658578395843506,5.0,0.5,0.4006937576407653,-5.0,3.0000029999999995,0.4817320621239355
3.9013962745666504,0.28000636108364846,2.3662469387054443,5.0,0.5,0.3744756225201221,-5.0,3.00000003,0.4817320621239355
3.9662744998931885,0.306385187843099,2.366577625274658,5.0,0.5,0.3482574873994789,-5.0,3.0000000002999996,0.4817320621239355
4.030719757080078,0.33295941331928613,2.3668925762176514,5.0,0.5,0.3220393522788358,-5.0,3.000000000003,0.4817320621239355
4.093366384506226,0.3579704490615799,2.367203950881958,5.0,0.5,0.2958212171581926,-5.0,3.0000000000000298,0.4817320621239355
4.159294366836548,0.3849354719712404,2.3675191402435303,5.0,0.5,0.2696030820375494,-5.0,3.0,0.4817320621239355
4.22139310836792,0.4101419064302709,2.3677892684936523,5.0,0.5,0.24338494691690624,-5.0,2.9999999999999996,0.4817320621239355
4.285842418670654,0.43652073318972134,2.368126630783081,5.0,0.5,0.21716681179626307,-5.0,2.9999999999999996,0.4817320621239355
4.349335432052612,0.46192256636548845,2.368422508239746,5.0,0.5,0.19094867667561988,-5.0,2.9999999999999996,0.4817320621239355
4.414362192153931,0.4888875892751489,2.368703842163086,5.0,0.5,0.16473054155497668,-5.0,2.9999999999999996,0.4817320621239355
4.478578805923462,0.514289422450916,2.3689794540405273,5.0,0.5,0.13851240643433352,-5.0,2.9999999999999996,0.4817320621239355
4.541684627532959,0.5398866543434199,2.3692269325256348,5.0,0.5,0.11229427131369034,-4.8234581696975285,2.9999999999999996,0.4829774798227293
4.6054158210754395,0.5662654811028704,2.3694968223571777,5.0,0.5,0.08607613619304716,-4.661607764528771,2.9999999999999996,0.48408261166550337
4.669580698013306,0.5920581117121109,2.369741678237915,5.0,0.5,0.05985800107240398,-4.203261922382133,2.9999999999999996,0.4870198287688392
4.733345031738281,0.6178507423213512,2.3700101375579834,5.0,0.5,0.0336398659517608,-4.238167835825248,2.9999999999999996,0.48680622786915545
4.797343969345093,0.6438387716473285,2.370283603668213,5.0,0.5,0.0074217308311176206,-4.098372317305492,2.9999999999999996,0.4876516015277845
4.861307859420776,0.6700221996900422,2.3705060482025146,5.0,0.5,0.0,-3.879703618404736,2.9999999999999996,0.48891982337426004
4.925325155258179,0.6958148302992828,2.370737314224243,5.0,0.5,0.0,-3.6306283647916917,2.9999999999999996,0.4902833666633517
4.989362001419067,0.7219982583419965,2.3709728717803955,5.0,0.5,0.0,-3.6515573180488636,2.9999999999999996,0.4901721310596708
5.053344488143921,0.7477908889512369,2.3712213039398193,5.0,0.5,0.0,-3.4355940773041596,2.9999999999999996,0.4912903626096094
5.1173131465911865,0.7737789182772141,2.3714590072631836,5.0,0.5,0.0,-3.143157436904672,2.9999999999999996,0.4926995615201059
5.182046890258789,0.8001577450366647,2.371724843978882,5.0,0.5,0.0,-2.8439414342494125,2.9999999999999996,0.4940153902784209
5.2453389167785645,0.8255595782124316,2.371992826461792,5.0,0.5,0.0,-2.841304579919936,2.9999999999999996,0.49402641626341437
5.309360980987549,0.8515476075384089,2.3722569942474365,5.0,0.5,0.0,-2.3484948393576186,2.9999999999999996,0.49591112307592194
5.3748719692230225,0.8779264342978594,2.3725059032440186,5.0,0.5,0.0,-2.0393397017414774,2.9999999999999996,0.496913672642412
5.439308404922485,0.9041098623405732,2.3727378845214844,5.0,0.5,0.0,-1.547550386321535,2.9999999999999996,0.4982204005922127
5.501368999481201,0.929120898082867,2.372941017150879,5.0,0.5,0.0,-1.3478605906213645,2.9999999999999996,0.49864945384690945
5.565436601638794,0.9553043261255808,2.373141050338745,5.0,0.5,0.0,-1.2639935743665847,2.9999999999999996,0.49881209968438434
5.629558324813843,0.9810969567348212,2.3733808994293213,5.0,0.5,0.0,-1.2181883032892014,2.9999999999999996,0.4988965418701368
5.695191144943237,1.0076711822110085,2.3736162185668945,5.0,0.5,0.0,-1.1787236560242103,2.9999999999999996,0.49896680670884824
5.757300853729248,1.0324868192365655,2.37384295463562,5.0,0.5,0.0,-1.1346542887348234,2.9999999999999996,0.4990425466027014
5.821851491928101,1.058865645996016,2.374086618423462,5.0,0.5,0.0,-1.3598978895964526,2.9999999999999996,0.4986252569065802
5.8853089809417725,1.0840720804550465,2.3743197917938232,5.0,0.5,0.0,-1.3367068476851465,2.9999999999999996,0.4986716837028446
5.949470043182373,1.1100601097810237,2.3745386600494385,5.0,0.5,0.0,-1.2218856665918976,2.9999999999999996,0.49888984087401805
6.013994216918945,1.1364389365404741,2.374748468399048,5.0,0.5,0.0,-1.360751336769261,2.9999999999999996,0.49862353321567854
6.077293157577515,1.1618407697162412,2.374953508377075,5.0,0.5,0.0,-1.538590679680928,2.9999999999999996,0.49824091111266255
6.141357660293579,1.1882195964756916,2.3751485347747803,5.0,0.5,0.0,-1.1246502625462536,2.9999999999999996,0.4990593397133228
6.205543041229248,1.2140122270849323,2.3753511905670166,5.0,0.5,0.0,-1.1373863581390729,2.9999999999999996,0.499037934700786
6.269340515136719,1.2400002564109094,2.3755786418914795,5.0,0.5,0.0,-0.9954054366911979,2.9999999999999996,0.49926296789430374
6.333264112472534,1.2654020895866764,2.375819444656372,5.0,0.5,0.0,-0.8186371455909243,2.9999999999999996,0.49950137628574665
6.398751974105835,1.2919763150628636,2.376033067703247,5.0,0.5,0.0,-0.3783912913459595,2.9999999999999996,0.4998934281136866
6.461458683013916,1.3165965533716841,2.3762223720550537,5.0,0.5,0.0,-0.20845003825739244,2.9999999999999996,0.4999676557871449
6.525467395782471,1.3423891839809245,2.3764193058013916,5.0,0.5,0.0,-0.15533430436896778,2.9999999999999996,0.499982038871145
6.590810537338257,1.3689634094571117,2.3766043186187744,5.0,0.5,0.0,-0.14806436544936863,2.9999999999999996,0.49998368073152033
6.654035329818726,1.3939744451994056,2.3767783641815186,5.0,0.5,0.0,0.12087707115958699,2.9999999999999996,0.4999891234838566
6.717831134796143,1.4195716770919091,2.3769280910491943,5.0,0.5,0.0,-0.1305493871423341,2.9999999999999996,0.49998731323661016
6.781482934951782,1.4449735102676766,2.377082586288452,5.0,0.5,0.0,-0.22415832820391143,2.9999999999999996,0.499962597538115
6.8452537059783936,1.4703753434434434,2.3772284984588623,5.0,0.5,0.0,-0.5225127896526345,2.9999999999999996,0.4997968053521
6.909275054931641,1.4955817779024738,2.3773646354675293,5.0,0.5,0.0,-0.5477994478362196,2.9999999999999996,0.49977666702799317
6.974109649658203,1.5215698072284511,2.377484083175659,5.0,0.5,0.0,-0.4737802149395579,2.9999999999999996,0.4998329340476608
7.0372583866119385,1.5467762416874815,2.3775975704193115,5.0,0.5,0.0,-0.6522011364648042,4.119099185919078,0.49968345732450603
7.102921485900879,1.5727642710134586,2.3777191638946533,5.0,0.5,0.0,-0.594143039307804,4.001920532639581,0.4997372912219337
7.165691614151001,1.5977753067557523,2.3778512477874756,5.0,0.5,0.0,-0.46384002012333014,3.8776620001181104,0.4998398696857041
7.229806423187256,1.6233725386482565,2.377976655960083,5.0,0.5,0.0,-0.3294656294495165,3.7501721856077004,0.49991920363673664
7.293460130691528,1.6485789731072868,2.378099203109741,5.0,0.5,0.0,-0.21535780383079914,3.6245297543310175,0.49996547665175733
7.357741355895996,1.6735900088495805,2.3782248497009277,5.0,0.5,0.0,-0.12687200538144613,3.500039155444581,0.49998801789611563
7.422914028167725,1.6995780381755579,2.378357410430908,5.0,0.5,0.0,-0.06192633732132827,3.370978143953051,0.49999714532794415
7.485268831253052,1.7240028777676415,2.3784844875335693,5.0,0.5,0.0,-0.016157152130177238,3.249368023852585,0.4999998056716249
7.549342632293701,1.7490139135099352,2.3786098957061768,5.0,0.5,0.0,0.014934946216380002,3.124886292992373,0.4999998339595395
7.614018201828003,1.7750019428359125,2.378758192062378,5.0,0.5,0.0,0.3112526642373119,2.996215507035934,0.4999278890011629
7.677290678024292,1.7992313837112597,2.378877639770508,5.0,0.5,0.0,0.08086091404110153,2.8752339671002565,0.4999951327701707
7.741297006607056,1.8242424194535536,2.378998041152954,5.0,0.5,0.0,-0.00028882367346552695,2.750584344434824,0.4999999999379028
7.805314302444458,1.8492534551958473,2.3791158199310303,5.0,0.5,0.0,-0.29399907699775385,2.626011612017652,0.49993566153933683
7.869295597076416,1.8742644909381412,2.379213571548462,5.0,0.5,0.0,-0.5968208792928544,2.5008868610755433,0.49973491842471407
7.935138463973999,1.8998617228306447,2.3793044090270996,5.0,0.5,0.0,-0.5618402476902937,2.3727381926589373,0.4997650744121677
7.999414920806885,1.9248727585729384,2.3794102668762207,5.0,0.5,0.0,-0.6940298290835918,2.2482940820836532,0.49964156761924317
8.061276197433472,1.948320604581339,2.3795156478881836,5.0,0.5,0.0,-0.8466038406477605,2.1316755942201944,0.4994667443678803
8.126520872116089,1.973722437757106,2.379626750946045,5.0,0.5,0.0,-0.9665933304420373,2.005704237236036,0.499304988086875
8.189331293106079,1.9973656824822434,2.3797216415405273,5.0,0.5,0.0,-0.7656551215214888,1.8876144525253689,0.49956380211878415
8.253402471542358,2.022376718224537,2.3798108100891113,5.0,0.5,0.0,-0.49036859185145626,1.7626879431138422,0.49982103248356735
8.317299604415894,2.0462153616664107,2.3798725605010986,5.0,0.5,0.0,-0.2375619204351088,1.6426473216284179,0.4999579912388971
8.38126540184021,2.0712263974087044,2.3825387954711914,5.0,0.5,0.0,0.23886207177833402,1.6065797541876528,0.49995753378464824
8.445286989212036,2.097019028017945,2.382631778717041,5.0,0.5,0.0,1.7980573766211732,1.4558985735462044,0.4975992102253116
8.509242296218872,2.1228116586271857,2.381453514099121,5.0,0.5,0.0,2.5599661686551514,1.2666763456946597,0.4951468940456354
8.573243856430054,2.148799687953163,2.3813257217407227,5.0,0.5,0.0,2.6136280793756326,1.1286113574650465,0.49496085414197605
8.637784481048584,2.1755693121460866,2.381314516067505,5.0,0.5,0.0,2.3976751943238286,0.9932543250123916,0.49594927663185645
8.70173716545105,2.200775746605117,2.381309747695923,5.0,0.5,0.0,1.5550885715038425,0.8665273229655972,0.49967892634533867
8.766847372055054,2.227349972081304,2.381316900253296,5.0,0.5,0.0,1.20423299995772,0.7335699106958219,0.5076501409883197
8.829212665557861,2.2525564065403345,2.381335496902466,5.0,0.5,0.0,0.7878882298373515,0.6078055879790346,0.5358064271280908
8.895015716552734,2.2793260307332583,2.3813576698303223,5.0,0.5,0.0,0.14406842566213493,0.4745848246424374,0.6246537963298855
8.957284927368164,2.3045324651922887,2.3813819885253906,5.0,0.5,0.0,-0.17636303811463377,0.3489504913892221,0.8068963263375322
9.022027969360352,2.3311066906684763,2.381406307220459,5.0,0.5,0.0,-0.6057034813869407,0.21664892084376078,1.1026231420068249
9.085303783416748,2.356508523844243,2.38142466545105,5.0,0.5,0.0,-0.7052311303796495,0.08973090166348578,1.3828659271902521
9.149385690689087,2.3828873506036934,2.381439447402954,5.0,0.5,0.0,-0.6711860327411339,-0.042126053756158,1.4992455700731915
9.214879751205444,2.4075075889125137,2.3814539909362793,5.0,0.5,0.0,-3.352928443632603,-0.1638949812747284,1.3647548898643531
9.277251720428467,2.4241164798351313,2.3814656734466553,5.0,0.5,0.0,-5.0,-0.24185993227930064,1.176749559872623
9.34302830696106,2.4315416310711244,2.381481647491455,5.0,0.5,0.0,-5.0,-0.26939698015471625,1.0875350845825635
9.405489921569824,2.4293922451870213,2.3814971446990967,5.0,0.5,0.0,-5.0,-0.2474599249651371,1.1137812049957536
9.47103238105774,2.4192315119167143,2.38151478767395,5.0,0.5,0.0,-5.0,-0.1854947318958287,1.2341146999676833
9.533372402191162,2.404576608161464,2.3815348148345947,5.0,0.5,0.0,-5.0,-0.10234153157455217,1.380990468768379
9.598570585250854,2.3860137300714803,2.3815548419952393,5.0,0.5,0.0,-5.0,-0.0024202170448129907,1.4777636207068578
9.661221981048584,2.36784164941497,2.381572961807251,5.0,0.5,0.0,-5.0,0.09227455969128484,1.4447244344055727
9.725463151931763,2.3557269289772966,2.3815906047821045,5.0,0.5,0.0,4.226620020363239,0.15067730737889123,1.361654372762681
9.789196491241455,2.351428157209089,2.381603479385376,5.0,0.5,0.0,5.0,0.1658935831172836,1.315241700025797
9.853787183761597,2.3526005495095093,2.3816192150115967,5.0,0.5,0.0,5.0,0.15289213446998506,1.3267338046176014
9.91936731338501,2.358267112294873,2.381633996963501,5.0,0.5,0.0,5.0,0.11776555266009818,1.3782811254272498
9.983494758605957,2.3674508519814963,2.3816494941711426,5.0,0.5,0.0,5.0,0.06597201385799745,1.4422138212184294
10.047090530395508,2.3787839775522235,2.381664514541626,5.0,0.5,0.0,5.0,0.005245120321687284,1.480073939661013
10.109182834625244,2.389335508256004,2.381683826446533,5.0,0.5,0.0,5.0,-0.04960774739108518,1.4700907063217579
10.174594402313232,2.398128450509154,2.3817031383514404,5.0,0.5,0.0,5.0,-0.09305302049551165,1.4292037949536682
10.237295866012573,2.402036424843887,2.381723642349243,5.0,0.5,0.0,-0.6194145359934797,-0.10913921409653861,1.4205058141056295
10.301942110061646,2.4012548299769407,2.3817453384399414,5.0,0.5,0.0,-5.0,-0.10005863910539188,1.40843330240433
10.365272283554077,2.3969560582087337,2.381767511367798,5.0,0.5,0.0,-5.0,-0.07349299324789565,1.4366418642209493
10.43056321144104,2.3907032992731603,2.381789207458496,5.0,0.5,0.0,-5.0,-0.03805753119718972,1.4659654703503504
10.493239641189575,2.3836689454706406,2.3818109035491943,5.0,0.5,0.0,-5.0,0.00014273480010482342,1.4810418364829503
10.557755708694458,2.3764391929513833,2.381833791732788,5.0,0.5,0.0,-4.922569974547434,0.03764147660766155,1.476479974250413
10.621398687362671,2.3727266173333863,2.3818540573120117,5.0,0.5,0.0,2.0563994987490375,0.054473686237789455,1.4803379950628153
10.685304880142212,2.3727266173333863,2.381878614425659,5.0,0.5,0.0,5.0,0.05159596398392174,1.4651197833196052
10.749224662780762,2.3742898070672798,2.3819026947021484,5.0,0.5,0.0,5.0,0.04137449942634312,1.470207769781123
10.814428329467773,2.376829990384857,2.3819243907928467,5.0,0.5,0.0,5.0,0.02660522690846283,1.4765549268196603
10.878272294998169,2.3801517685693803,2.3819472789764404,5.0,0.5,0.0,5.0,0.008629911878105835,1.4810874984200546
10.941233396530151,2.3832781480371668,2.3819682598114014,5.0,0.5,0.0,5.0,-0.007866899886295402,1.4813889595642857
11.006104707717896,2.3860137300714803,2.3819966316223145,5.0,0.5,0.0,4.998662845026233,-0.02141048993160996,1.4785194375739192
11.069183826446533,2.3865999262216904,2.3820292949676514,5.0,0.5,0.0,0.9103031086812008,-0.022402159701902586,1.495214113788363
11.133898258209229,2.385622932638007,2.3820621967315674,5.0,0.5,0.0,-2.0719830281919096,-0.015558562616958002,1.4942818395899575
11.19718313217163,2.3838643441873772,2.382096290588379,5.0,0.5,0.0,-3.83057694401219,-0.004904500380071887,1.4885706097571143
11.26157259941101,2.381519559586537,2.3821351528167725,5.0,0.5,0.0,-3.9869271182834205,0.008316635304028307,1.4882304422376968
11.325212240219116,2.379174774985697,2.3821659088134766,5.0,0.5,0.0,-2.9977284298875517,0.020676476559945325,1.4915673107904566
11.389238834381104,2.3787839775522235,2.3822052478790283,5.0,0.5,0.0,0.6927072197586819,0.022125554252463497,1.4973046518719337
11.45437240600586,2.37897937626896,2.3822457790374756,5.0,0.5,0.0,2.6111773931068756,0.020764942130522532,1.4928185645328038
11.51723313331604,2.3795655724191698,2.3822810649871826,5.0,0.5,0.0,3.839269581112348,0.017174216892493054,1.4876733688238462
11.581905364990234,2.3805425660028536,2.3823132514953613,5.0,0.5,0.0,4.013574587785708,0.011796754345317828,1.4875243966584304
11.647226572036743,2.3817149583032733,2.3823444843292236,5.0,0.5,0.0,3.767279275748767,0.005569069199857328,1.4894667510506594
11.709209442138672,2.382691951886957,2.382371187210083,5.0,0.5,0.0,3.1111010593864594,0.00038457195412534644,1.492826070616125
11.773776531219482,2.383473546753904,2.3824031352996826,5.0,0.5,0.0,2.1342428365489017,-0.0033307800477351663,1.496391602449325
11.837180376052856,2.383473546753904,2.3824305534362793,5.0,0.5,0.0,0.3860027208908201,-0.00277185515284397,1.4996715546894919
11.901551961898804,2.3832781480371668,2.382457733154297,5.0,0.5,0.0,-0.4549736958950805,-0.0013246144164337369,1.4997113249838332
11.965261936187744,2.3828873506036934,2.382481336593628,5.0,0.5,0.0,-0.8385659981040765,0.0009279115942018736,1.499443847785876
12.030507564544678,2.3824965531702205,2.3825042247772217,5.0,0.5,0.0,-0.4398585666649884,0.0028932443286080072,1.4998559856610385
12.093159914016724,2.382301154453484,2.382524251937866,5.0,0.5,0.0,-0.13576508984334681,0.003813245648252424,1.4999763248308566
12.157130241394043,2.382105755736747,2.382544755935669,5.0,0.5,0.0,0.35775247375216745,0.004642994665716791,1.4998661921180487
12.221226930618286,2.382105755736747,2.382568836212158,5.0,0.5,0.0,0.5381648668420131,0.004729552713966152,1.4997415643463188
12.285791158676147,2.382105755736747,2.3825862407684326,5.0,0.5,0.0,0.5770210619398591,0.004602936921812762,1.4997060386942564
12.350294351577759,2.382105755736747,2.38260817527771,5.0,0.5,0.0,0.5559892314724132,0.004701881006286171,1.4997194570494545
12.413288593292236,2.382105755736747,2.38263201713562,5.0,0.5,0.0,0.5129976337840878,0.004874999673745771,1.4997487483577097
12.4785897731781,2.382105755736747,2.3826541900634766,5.0,0.5,0.0,0.4649474230060119,0.004976460037921519,1.4997789500515557
12.54235577583313,2.382105755736747,2.3826849460601807,5.0,0.5,0.0,0.4188185097847991,0.005378437534069507,1.4998023525012152
12.60531234741211,2.382105755736747,2.3827104568481445,5.0,0.5,0.0,0.3770469257715088,0.005527477471376965,1.4998210539425396
12.670029640197754,2.382105755736747,2.3827412128448486,5.0,0.5,0.0,0.34009043961643737,0.005850313641857377,1.4998331510388374
12.733194828033447,2.382105755736747,2.3827662467956543,5.0,0.5,0.0,0.30762506206577767,0.005925998105890277,1.4998423140918922
12.797522783279419,2.382105755736747,2.3827898502349854,5.0,0.5,0.0,0.27908274247557535,0.005965135838799812,1.4998484314288545
12.861214399337769,2.382105755736747,2.3828115463256836,5.0,0.5,0.0,0.2538776953610714,0.0059613830871027475,1.4998523996878383
12.925605535507202,2.382105755736747,2.382831335067749,5.0,0.5,0.0,0.23148967659116554,0.00592458822517462,1.4998548235197207
12.989986658096313,2.382105755736747,2.382855176925659,5.0,0.5,0.0,0.21148458839540832,0.006068319625044259,1.499854387135069
13.053263425827026,2.382105755736747,2.382875919342041,5.0,0.5,0.0,0.1935099555409755,0.006098641953806063,1.4998535025185706
13.11740756034851,2.382105755736747,2.3828976154327393,5.0,0.5,0.0,0.1772821900823,0.006183012750716917,1.4998512043093455
13.181196689605713,2.382105755736747,2.3829190731048584,5.0,0.5,0.0,0.16257280508121874,0.006266662247461187,1.4998480376654273
13.245158910751343,2.382105755736747,2.3829362392425537,5.0,0.5,0.0,0.14919624807671422,0.006208629391982717,1.499845499218364
13.309968948364258,2.382105755736747,2.3829567432403564,5.0,0.5,0.0,0.13700005254104247,0.0063079867572845725,1.499841203072847
13.373209953308105,2.382105755736747,2.3829715251922607,5.0,0.5,0.0,0.12585720991961974,0.006211120067549885,1.4998383086929605
13.438184022903442,2.382105755736747,2.3829891681671143,5.0,0.5,0.0,0.11566040051562054,0.006262732979714998,1.499833970684858
13.50174069404602,2.382105755736747,2.383005142211914,5.0,0.5,0.0,0.10631768278820361,0.006268428516140992,1.4998298196560471
13.565483093261719,2.382105755736747,2.3830244541168213,5.0,0.5,0.0,0.09774928675539737,0.006411487565745675,1.4998241002642065
13.629141569137573,2.382105755736747,2.3830440044403076,5.0,0.5,0.0,0.08988522611342407,0.006549958846154255,1.4998179391329225
13.693144798278809,2.382105755736747,2.3830645084381104,5.0,0.5,0.0,0.08266351027591273,0.00670934849294675,1.4998110888958287
13.757294416427612,2.382105755736747,2.383082628250122,5.0,0.5,0.0,0.07602879335125445,0.006769383673911428,1.4998048593328512
13.82233738899231,2.382105755736747,2.383100986480713,5.0,0.5,0.0,0.06993134077200472,0.006846061898863068,1.4997982823756653
13.88518238067627,2.382105755736747,2.383120536804199,5.0,0.5,0.0,0.06432622721277015,0.006968650478358762,1.4997909848662223
13.949151992797852,2.382105755736747,2.3831393718719482,5.0,0.5,0.0,0.05917270366768161,0.007059400666398214,1.499783743919518
14.013801336288452,2.382105755736747,2.383159875869751,5.0,0.5,0.0,0.05443368913670285,0.007208772659080708,1.499775585167502
14.07705545425415,2.382105755736747,2.3831787109375,5.0,0.5,0.0,0.050075354999512905,0.007286812562560627,1.499767913320638
14.142241477966309,2.382105755736747,2.383197546005249,5.0,0.5,0.0,0.04606677917519493,0.007369145362089211,1.499760047491515
14.205546379089355,2.382105755736747,2.383216142654419,5.0,0.5,0.0,0.04237965358413975,0.00744676438425574,1.499752101612225
14.269141435623169,2.382105755736747,2.383234739303589,5.0,0.5,0.0,0.03898803298748603,0.007528913581433054,1.499743980173508
14.33502197265625,2.382105755736747,2.3832569122314453,5.0,0.5,0.0,0.035868116516543966,0.007738228028064502,1.499734045176305
14.39708161354065,2.382105755736747,2.383275270462036,5.0,0.5,0.0,0.03299805550536152,0.007787016192043908,1.4997256739176679
14.461350202560425,2.382105755736747,2.383293867111206,5.0,0.5,0.0,0.030357782878281992,0.007855713592140358,1.4997170320860804
14.526449918746948,2.382105755736747,2.3833189010620117,5.0,0.5,0.0,0.02792886051548934,0.00815481145934003,1.4997051183510992
14.589365720748901,2.382105755736747,2.3833415508270264,5.0,0.5,0.0,0.025694341860541772,0.008321254908782477,1.4996941172879776
14.653209924697876,2.382105755736747,2.383363723754883,5.0,0.5,0.0,0.023638647641633884,0.008454448904580218,1.4996831374126969
14.717224597930908,2.382105755736747,2.383385181427002,5.0,0.5,0.0,0.021747453021023613,0.008555995280361734,1.499672315500195
14.7810378074646,2.382105755736747,2.383405923843384,5.0,0.5,0.0,0.0200075848127289,0.008634242430490845,1.499661671737996
14.8450927734375,2.382105755736747,2.383427858352661,5.0,0.5,0.0,0.018406927651023024,0.008761194672774584,1.4996502178204427
14.910300254821777,2.382105755736747,2.38344669342041,5.0,0.5,0.0,0.01693433817523058,0.00877596245170118,1.4996402284091832
14.97362732887268,2.382105755736747,2.383463144302368,5.0,0.5,0.0,0.015579566436600085,0.008730918418882306,1.499631386461428
15.038296461105347,2.382105755736747,2.3834826946258545,5.0,0.5,0.0,0.014333183842436328,0.0088306569061114,1.4996207268136459
15.102558851242065,2.382105755736747,2.3834996223449707,5.0,0.5,0.0,0.0131865170395727,0.00883994712853069,1.4996113732208405
15.165202856063843,2.382105755736747,2.383514642715454,5.0,0.5,0.0,0.012131587209576975,0.008804893997460277,1.4996029767299028
15.229153394699097,2.382105755736747,2.3835301399230957,5.0,0.5,0.0,0.011161054306028966,0.00881876852929885,1.499594215523776
15.293050765991211,2.382105755736747,2.38354754447937,5.0,0.5,0.0,0.01026816581279889,0.008917966855918998,1.4995842569707474
15.35914921760559,2.382105755736747,2.38356614112854,5.0,0.5,0.0,0.009446709643651331,0.009055451727850794,1.4995734794283755
15.421134233474731,2.382105755736747,2.3835830688476562,5.0,0.5,0.0,0.00869097083927254,0.009122160038323215,1.4995635482159368
15.4855637550354,2.382105755736747,2.383599281311035,5.0,0.5,0.0,0.007995691749110004,0.009168914942838679,1.4995539281798507
15.54953408241272,2.382105755736747,2.3836159706115723,5.0,0.5,0.0,0.007356035413066663,0.009242241642834308,1.4995439139464246
15.614209175109863,2.382105755736747,2.3836326599121094,5.0,0.5,0.0,0.006767551882741129,0.009318759925707892,1.4995337873295038
15.678383350372314,2.382105755736747,2.3836491107940674,5.0,0.5,0.0,0.006226147244025704,0.009389097138667903,1.499523695631997
15.741036653518677,2.382105755736747,2.3836710453033447,5.0,0.5,0.0,0.005728055122836346,0.009652935377543742,1.4995100693335723
15.805097579956055,2.382105755736747,2.3836894035339355,5.0,0.5,0.0,0.005269810473842323,0.009748424687432011,1.4994985170324835
15.869065046310425,2.382105755736747,2.383713483810425,5.0,0.5,0.0,0.00484822546851796,0.010039902570452947,1.49948315819059
15.9331636428833,2.382105755736747,2.3837335109710693,5.0,0.5,0.0,0.004460367313844643,0.010141504682662821,1.499470208151109
15.999145746231079,2.382105755736747,2.3837554454803467,5.0,0.5,0.0,0.004103537846702745,0.010307430484339377,1.499455840316783
16.061506748199463,2.382105755736747,2.383774518966675,5.0,0.5,0.0,0.003775254761542496,0.010357966870539321,1.4994431903170524
16.125208616256714,2.382105755736747,2.3837931156158447,5.0,0.5,0.0,0.0034732343404222828,0.010404488226450856,1.4994307164460055
16.18898606300354,2.382105755736747,2.3838095664978027,5.0,0.5,0.0,0.0031953755650507305,0.010390431095808178,1.4994195666896677
16.253828763961792,2.382105755736747,2.383824348449707,5.0,0.5,0.0,0.0029397455001502304,0.010346726782006559,1.4994094558202982
16.317094802856445,2.382105755736747,2.383836269378662,5.0,0.5,0.0,0.0027045658463507056,0.010238612977297517,1.4994012383880393
16.381149291992188,2.382105755736747,2.383847951889038,5.0,0.5,0.0,0.002488200568991396,0.010171599266175144,1.4993931301219603
16.44507622718811,2.382105755736747,2.3838603496551514,5.0,0.5,0.0,0.002289144516716202,0.010166908085830439,1.4993844656521436
16.509212255477905,2.382105755736747,2.3838717937469482,5.0,0.5,0.0,0.0021060129506497898,0.01014941255426465,1.4993764131567549
16.572996854782104,2.382105755736747,2.383882761001587,5.0,0.5,0.0,0.0019375319112874259,0.010137495711066436,1.4993686470486804
16.637094020843506,2.382105755736747,2.3838980197906494,5.0,0.5,0.0,0.0017825293560671663,0.010294144066924039,1.499357761868684
16.70098066329956,2.382105755736747,2.383910894393921,5.0,0.5,0.0,0.0016399270059597058,0.010345495755375016,1.4993485051973674
16.76499056816101,2.382105755736747,2.383925437927246,5.0,0.5,0.0,0.00150873284434747,0.010457805628586421,1.499337968888897
16.829017400741577,2.382105755736747,2.383939743041992,5.0,0.5,0.0,0.001388034216004847,0.010550522181881582,1.4993275228918357
16.893099308013916,2.382105755736747,2.383957862854004,5.0,0.5,0.0,0.0012769914781680836,0.010768985769616707,1.4993141739168
16.957763195037842,2.382105755736747,2.3839738368988037,5.0,0.5,0.0,0.0011748321595251754,0.010876003705269494,1.4993022970342171
17.02096724510193,2.382105755736747,2.3839871883392334,5.0,0.5,0.0,0.0010808455864905369,0.010883306409761888,1.4992922919457752
17.086795330047607,2.382105755736747,2.3840057849884033,5.0,0.5,0.0,0.0009943779393804587,0.011089313532775357,1.4992782376278453
17.149080753326416,2.382105755736747,2.3840229511260986,5.0,0.5,0.0,0.0009148277040964346,0.011213576785247346,1.4992651418849317
17.213127613067627,2.382105755736747,2.384042263031006,5.0,0.5,0.0,0.0008416414876752094,0.011400203156496886,1.4992502685613252
17.277070999145508,2.382105755736747,2.384060859680176,5.0,0.5,0.0,0.0007743101685957363,0.011535732887040628,1.4992358054129569
17.34162712097168,2.382105755736747,2.3840787410736084,5.0,0.5,0.0,0.0007123653550622573,0.011633485382169512,1.4992217683734896
17.40504026412964,2.382105755736747,2.3840911388397217,5.0,0.5,0.0,0.000655376126625203,0.011538489756211509,1.4992119611327492
17.4690203666687,2.382105755736747,2.384106397628784,5.0,0.5,0.0,0.0006029460364727346,0.011587902312036382,1.499199806458871
17.533033847808838,2.382105755736747,2.3845622539520264,5.0,0.5,0.0,0.0005547103535391996,0.026907018656745815,1.4987938510574
17.597031593322754,2.382105755736747,2.3839309215545654,5.0,0.5,0.0,0.0005103335252450636,0.0008004792115919305,1.4993339756462416
17.660986185073853,2.3824965531702205,2.3828113079071045,5.0,0.5,0.0,0.2765078665218988,-0.03766609544732225,1.4999232749925713
17.72493290901184,2.3824965531702205,2.381600856781006,5.0,0.5,0.0,0.03355654945719669,-0.0677876425956985,1.4998387202422183
17.7890202999115,2.3813241608698004,2.380537748336792,5.0,0.5,0.0,-1.4348916643931788,-0.07901378611605432,1.4983460086084315
17.85435652732849,2.378197781402014,2.380415201187134,5.0,0.5,0.0,-4.105879457118975,-0.043951663769543736,1.486623981169805
17.917757749557495,2.3735082122003335,2.3797616958618164,5.0,0.5,0.0,-5.0,-0.023992884841731125,1.4739413566350028
17.98099136352539,2.3682324468484435,2.379122495651245,5.0,0.5,0.0,-5.0,-0.0006505701003676958,1.4582925055165656
18.044976711273193,2.3633474789300264,2.378554105758667,5.0,0.5,0.0,-3.821654165833308,0.022583910848386592,1.4440502031300744
18.10907244682312,2.3619796879128696,2.3779993057250977,5.0,0.5,0.0,1.7059585206461125,0.026176660440309536,1.4478075426109405
18.17293906211853,2.3619796879128696,2.377535104751587,5.0,0.5,0.0,5.0,0.025345160596431812,1.434490199237168
18.239144563674927,2.3627612827798163,2.377337694168091,5.0,0.5,0.0,5.0,0.029308326641249067,1.4401279389320307
18.3009250164032,2.3639336750802364,2.3772974014282227,5.0,0.5,0.0,5.0,0.03419300410280098,1.446644580407682
18.365041494369507,2.36549686481413,2.3772928714752197,5.0,0.5,0.0,5.0,0.03508469817609687,1.454286571167701
18.42893695831299,2.3676462506982334,2.3772904872894287,5.0,0.5,0.0,4.8626684769412805,0.03027421557834272,1.4642741561521817
18.49413251876831,2.3701864340158103,2.3772876262664795,5.0,0.5,0.0,4.339919348563788,0.02159138798557095,1.476139346771032
18.55699110031128,2.3727266173333863,2.377283811569214,5.0,0.5,0.0,3.464270693803927,0.011649599694849605,1.487000669396715
18.620943069458008,2.375657598084437,2.3772106170654297,5.0,0.5,0.0,2.323752027948991,-0.003365080282325691,1.4955142254770475
18.684979677200317,2.3780023826852767,2.377155303955078,5.0,0.5,0.0,0.7346820213411276,-0.014562336738510186,1.4994548673195038
18.74918246269226,2.3783931801187506,2.377110719680786,5.0,0.5,0.0,-2.6379829177405454,-0.01467899965211906,1.4945176067122032
18.813019275665283,2.3776115852518034,2.3770737648010254,5.0,0.5,0.0,-4.808349852925655,-0.008823029825152047,1.4830242801876377
18.87689995765686,2.3762437942346466,2.377044439315796,5.0,0.5,0.0,-5.0,-0.00010184249012616847,1.481603863832845
18.9417462348938,2.3742898070672798,2.3770320415496826,5.0,0.5,0.0,-4.999633793839033,0.011414259794926062,1.4802318488820518
19.004977226257324,2.374094408350543,2.3770298957824707,5.0,0.5,0.0,-2.124723668565782,0.012911812725674396,1.4949287755566087
19.06915855407715,2.374094408350543,2.3770296573638916,5.0,0.5,0.0,-0.5011767991895903,0.01325973547657684,1.498091404176795
19.133040189743042,2.374094408350543,2.377030611038208,5.0,0.5,0.0,0.14093295851786625,0.013626574656276796,1.4982624432945695
19.196946382522583,2.3742898070672798,2.377028465270996,5.0,0.5,0.0,0.3433279168013589,0.012856064962557152,1.498413336947824
19.260906457901,2.3742898070672798,2.3770275115966797,5.0,0.5,0.0,0.3615597325948552,0.013043946984303887,1.4984048151107476
19.32498073577881,2.374485205784017,2.3770244121551514,5.0,0.5,0.0,0.31268825471467027,0.012150914119407686,1.4986385395872304
19.38896679878235,2.3746806045007536,2.3770205974578857,5.0,0.5,0.0,0.24774283801221902,0.011201576134391293,1.498859799387798
19.45306706428528,2.3748760032174903,2.3770182132720947,5.0,0.5,0.0,0.18698832812631716,0.010290324571200962,1.4990565812623255
19.51701259613037,2.3748760032174903,2.377016305923462,5.0,0.5,0.0,0.1368827871761497,0.01034141573805108,1.499070292867434
19.581384658813477,2.3750714019342265,2.3770155906677246,5.0,0.5,0.0,0.09808367355770678,0.009456017159830975,1.4992371503252089
19.645008325576782,2.375266800650963,2.377013921737671,5.0,0.5,0.0,0.06912005704489081,0.008503101478645846,1.4993861434684435
19.709347009658813,2.375266800650963,2.377014398574829,5.0,0.5,0.0,0.047997117052983075,0.008581832644822584,1.4993876519218057
19.77309513092041,2.3754621993677,2.37701416015625,5.0,0.5,0.0,0.032836268094634455,0.00765319028350593,1.499517596921633
19.836923360824585,2.3754621993677,2.377013921737671,5.0,0.5,0.0,0.0220817385340425,0.0076700492156044206,1.4995181845008545
19.900895595550537,2.375657598084437,2.377013921737671,5.0,0.5,0.0,0.014524423573632147,0.006729224870368255,1.49963198786694
19.966094732284546,2.375657598084437,2.377013921737671,5.0,0.5,0.0,0.009258208474074658,0.006738189032434277,1.4996320810989592
20.029996871948242,2.3758529968011737,2.377013921737671,5.0,0.5,0.0,0.005619209896938817,0.005783921163131078,1.4997304634786905
20.094706296920776,2.3758529968011737,2.3770151138305664,5.0,0.5,0.0,0.003128154250915283,0.005824693525603506,1.4997299259923649
20.15772557258606,2.375657598084437,2.377014398574829,5.0,0.5,0.0,0.0014424989504434127,0.006763227417001297,1.4996318847073995
20.220959901809692,2.375657598084437,2.3770124912261963,5.0,0.5,0.0,0.00031914708092350324,0.006709877028388646,1.4996329202293053
20.286501169204712,2.3758529968011737,2.377013683319092,5.0,0.5,0.0,-0.00041353599359217157,0.005802768443565097,1.4997305975294533
20.349251747131348,2.375657598084437,2.377013683319092,5.0,0.5,0.0,-0.000876251500035397,0.0067638394122819705,1.4996322736234204
20.41298532485962,2.375657598084437,2.377013683319092,5.0,0.5,0.0,-0.0011536064853346606,0.006775493091874965,1.4996322732043295
20.478816747665405,2.375657598084437,2.377013683319092,5.0,0.5,0.0,-0.0013047346577946912,0.006777039750206337,1.4996322729277662
20.540872812271118,2.375657598084437,2.377013683319092,5.0,0.5,0.0,-0.0013708466278595454,0.00677805632316512,1.499632272796091
20.60491704940796,2.375657598084437,2.377013683319092,5.0,0.5,0.0,-0.00138057194690651,0.006778767274007858,1.499632272776172
20.668899059295654,2.375657598084437,2.377013683319092,5.0,0.5,0.0,-0.0013537260903439187,0.0067792649384206495,1.4996322728308142
20.734493732452393,2.375657598084437,2.377013683319092,5.0,0.5,0.0,-0.0013039603148978169,0.006779613306160411,1.49963227292927
20.79692268371582,2.375657598084437,2.3770158290863037,5.0,0.5,0.0,-0.001240622299127208,0.006854207998346429,1.4996311086201142
20.86090350151062,2.375657598084437,2.377021551132202,5.0,0.5,0.0,-0.0011700607773789994,0.007034272294707395,1.4996279946083744
20.925009727478027,2.375657598084437,2.3770341873168945,5.0,0.5,0.0,-0.001096539246509612,0.007409667684314937,1.4996210713332199
20.988863945007324,2.375657598084437,2.3770461082458496,5.0,0.5,0.0,-0.0010228752126102757,0.0076689188227760255,1.4996144814585612
21.053032875061035,2.3758529968011737,2.3770601749420166,5.0,0.5,0.0,-0.0009508869566248459,0.006975188653084215,1.499708585983297
21.117217540740967,2.375657598084437,2.377073049545288,5.0,0.5,0.0,-0.0008817054262854277,0.008104688673599418,1.4995993791234454
21.181557178497314,2.375657598084437,2.3770828247070312,5.0,0.5,0.0,-0.0008159916872530887,0.008146156895484055,1.499593827829254
21.24489712715149,2.3758529968011737,2.3770906925201416,5.0,0.5,0.0,-0.0007540882871907361,0.007148895973417967,1.499693668367136
21.31007957458496,2.375657598084437,2.377098321914673,5.0,0.5,0.0,-0.0006961244028422784,0.008088253142169469,1.4995849487657242
21.37300968170166,2.375657598084437,2.377105236053467,5.0,0.5,0.0,-0.0006420886877457937,0.008071667110844874,1.49958095637841
21.43712568283081,2.375657598084437,2.3771140575408936,5.0,0.5,0.0,-0.0005918795647638272,0.00812967241997155,1.4995758348929147
21.50088095664978,2.375657598084437,2.377119302749634,5.0,0.5,0.0,-0.0005453397830321443,0.008060154530324857,1.499572774959491
21.564915657043457,2.3758529968011737,2.3771235942840576,5.0,0.5,0.0,-0.0005022800103156862,0.007017911487388403,1.499677168340794
21.630261182785034,2.375657598084437,2.3772804737091064,5.0,0.5,0.0,-0.0004624947971944683,0.013215973616630943,1.4994733934879656
21.69396996498108,2.3758529968011737,2.377286672592163,5.0,0.5,0.0,-0.00042577324518961585,0.010991830914921043,1.4995889990942852
21.75855326652527,2.3758529968011737,2.3772127628326416,5.0,0.5,0.0,-0.0003919060080028807,0.007279794748970477,1.4996302755185056
21.822208404541016,2.375657598084437,2.3771097660064697,5.0,0.5,0.0,-0.00036068976315702334,0.004509387624272338,1.4995783304959436
21.884899139404297,2.3758529968011737,2.3771166801452637,5.0,0.5,0.0,-0.00033192994720775707,0.004579509114338208,1.4996806717952393
21.948978662490845,2.375657598084437,2.37711501121521,5.0,0.5,0.0,-0.00030544230702706155,0.00600584769356691,1.4995752795430513
22.01372718811035,2.3758529968011737,2.377114772796631,5.0,0.5,0.0,-0.0002810536513938532,0.005420867629932552,1.4996816348975657
22.07691717147827,0.889454958585323,2.377114772796631,5.0,0.5,0.0,5.0,5.940054208676298,0.4817320621239355
