t_s,q_rad,q_des_rad,K,B,jerk,tau_Nm,ilc_ff_Nm
0.005243539810180664,-0.040056736931017405,[0.00051323],0.005,0.1,0.0,7.892863229015655,0
0.013312101364135742,-0.03986133821428073,[0.00248184],0.005,0.1,0.0,3.4324444848054934,0
0.02222752571105957,-0.03790735104691403,[0.00617501],0.005,0.1,0.276038359678681,1.538898058904865,0
0.030892133712768555,-0.03517176901260064,[0.01128775],0.005,0.1,2.5174698402695705,0.7129256061070277,0
0.040012359619140625,-0.03165459211134058,[0.01754356],0.005,0.1,5.0,0.3516273200864314,0
0.04789447784423828,-0.028332813926817187,[0.02469496],0.005,0.1,5.0,0.18280983103673545,0
0.05589699745178223,-0.025206434459030463,[0.03251953],0.005,0.1,5.0,0.19315493191655309,0
0.06389594078063965,-0.022080054991243738,[0.04081748],0.005,0.1,5.0,0.10585996788336596,0
0.07191181182861328,-0.018953675523457014,[0.04941626],0.005,0.1,5.0,0.059002835294311676,0
0.08173155784606934,-0.014850302471986938,[0.05816856],0.005,0.1,5.0,0.03312370569166451,0
0.09090065956115723,-0.011137726853990204,[0.06694761],0.005,0.1,5.0,0.019264520615744216,0
0.10094451904296875,-0.007425151235993469,[0.07564578],0.005,0.1,5.0,0.01171846596701886,0
0.10953998565673828,-0.004103373051470075,[0.08417306],0.005,0.1,5.0,0.007663745305022058,0
0.1179804801940918,-0.0005861961502100108,[0.09245575],0.005,0.1,4.087349826689454,0.005426081990315477,0
0.1289668083190918,0.0035171769012600643,[0.10043494],0.005,0.1,1.656362701160384,0.004215831805333792,0
0.1389460563659668,0.0072297525192568,[0.10806515],0.005,0.1,-1.0975560812251268,0.0036248132135582715,0
0.1468946933746338,0.009965334553570182,[0.11531141],0.005,0.1,-3.695081975169135,0.0026596179117888918,0
0.1564497947692871,0.012896315304620235,[0.12214814],0.005,0.1,-5.0,0.002870798132379479,0
0.16492843627929688,0.01582729605567029,[0.12856102],0.005,0.1,-5.0,0.003196589819524381,0
0.17501378059387207,0.019149074240193686,[0.13454569],0.005,0.1,-5.0,0.003584704661287246,0
0.18353009223937988,0.02188465627450707,[0.14010485],0.005,0.1,-5.0,0.0040835078024482885,0
0.19126176834106445,0.02442483959208378,[0.14524322],0.005,0.1,-5.0,0.004287981924604069,0
0.19924378395080566,0.026769624192923825,[0.14996694],0.005,0.1,-5.0,0.004902390272181982,0
0.20888423919677734,0.02950520622723721,[0.15429115],0.005,0.1,-5.0,0.005617479532998124,0
0.2190093994140625,0.03243618697828726,[0.15823866],0.005,0.1,-5.0,0.006419280101366965,0
0.22828102111816406,0.03517176901260064,[0.16183741],0.005,0.1,-5.0,0.010135504126061947,0
0.2369379997253418,0.03751655361344069,[0.16511678],0.005,0.1,-5.0,0.007731313460143408,0
0.24526715278625488,0.03966593949754405,[0.16810195],0.005,0.1,-5.0,0.009152217995625087,0
0.2529304027557373,0.04181532538164743,[0.17081938],0.005,0.1,-5.0,0.010731902366160203,0
0.26340627670288086,0.04435550869922414,[0.17329888],0.005,0.1,-5.0,0.012389563202433635,0
0.2728123664855957,0.046895692016800855,[0.17557021],0.005,0.1,-5.0,0.014184309864068175,0
0.28200721740722656,0.049045077900904226,[0.17765912],0.005,0.1,-5.0,0.011115200663811277,0
0.29182910919189453,0.05158526121848094,[0.17958752],0.005,0.1,-4.781832867537739,0.013949841123587537,0
0.3034093379974365,0.054320843252794335,[0.18138453],0.005,0.1,-4.4338864802084315,0.023686547064363028,0
0.31191372871398926,0.05627483042016103,[0.18308134],0.005,0.1,-4.057054348642054,0.017656460233195264,0
0.3199143409729004,0.05822881758752774,[0.18469923],0.005,0.1,-3.4177961005665476,0.020891691069028828,0
0.32924890518188477,0.06037820347163111,[0.18625875],0.005,0.1,-3.050520516581364,0.024094964160241563,0
0.33928370475769043,0.06272298807247115,[0.18778339],0.005,0.1,-2.5279611055127207,0.027143056632785798,0
0.3468973636627197,0.0642861778063645,[0.18929488],0.005,0.1,-2.02435105696018,0.03033054304711993,0
0.3589057922363281,0.06682636112394122,[0.19081321],0.005,0.1,-1.874274759357862,0.03326019837258944,0
0.36869287490844727,0.06917114572478127,[0.19235655],0.005,0.1,-1.5680211693150805,0.03621836442203811,0
0.3797128200531006,0.07151593032562131,[0.19394134],0.005,0.1,-1.5268887788614456,0.03917028524280688,0
0.38887858390808105,0.07366531620972468,[0.19558222],0.005,0.1,-1.2845795438367111,0.04215973006666325,0
0.3987104892730713,0.07561930337709137,[0.19729211],0.005,0.1,-1.008115164988707,0.045177348832633,0
0.40886616706848145,0.07776868926119475,[0.19908221],0.005,0.1,-0.48504532015220947,0.04805090717599819,0
0.4196324348449707,0.07991807514529814,[0.20096204],0.005,0.1,-0.25216960162319707,0.05082661059454393,0
0.42889881134033203,0.08187206231266483,[0.20293944],0.005,0.1,-0.15395674306619941,0.053571106457940304,0
0.4368894100189209,0.08363065076329486,[0.20501467],0.005,0.1,0.1601200720494177,0.03953500834192347,0
0.4462418556213379,0.08558463793066157,[0.20718138],0.005,0.1,0.20607068576165644,0.04608327438683586,0
0.4597282409667969,0.08832021996497495,[0.20944574],0.005,0.1,0.1544811977875597,0.07104119488737204,0
0.4699094295501709,0.09046960584907832,[0.21182449],0.005,0.1,0.35547038509078666,0.07057513106956011,0
0.47953009605407715,0.09242359301644502,[0.21432503],0.005,0.1,0.5953363156245729,0.07092194035313613,0
0.4868593215942383,0.09398678275033838,[0.21694028],0.005,0.1,0.7950019948896923,0.05149431297210987,0
0.4959268569946289,0.09574537120096842,[0.21965702],0.005,0.1,0.9342466902472778,0.05838566541602701,0
0.5075440406799316,0.09789475708507178,[0.22247651],0.005,0.1,1.01636837638573,0.08875577443728162,0
0.5172343254089355,0.10004414296917516,[0.22541251],0.005,0.1,1.052296912672674,0.08809196126861768,0
0.5249645709991455,0.10141193398633185,[0.22846283],0.005,0.1,1.0538972698608418,0.06379299532196529,0
0.5352747440338135,0.10356131987043524,[0.23161148],0.005,0.1,0.7554547585964433,0.07165618134723717,0
0.5449111461639404,0.10551530703780194,[0.23485137],0.005,0.1,0.6840754234060592,0.07914831894345442,0
0.5528614521026611,0.1070784967716953,[0.23817597],0.005,0.1,0.6911635995168306,0.060079448317977006,0
0.5617671012878418,0.10903248393906198,[0.24156503],0.005,0.1,0.989915957290005,0.04829386679056319,0
0.5759947299957275,0.11235426212358537,[0.24501638],0.005,0.1,1.0379038824153994,0.1255629105580273,0
0.5866680145263672,0.11450364800768877,[0.24855816],0.005,0.1,1.2596114675440566,0.12453813407330046,0
0.6001949310302734,0.11763002747547549,[0.25221486],0.005,0.1,1.2039786447301322,0.16653612724670844,0
0.6099231243133545,0.11997481207631551,[0.25600031],0.005,0.1,1.0551647031566047,0.15761372214966923,0
0.618889331817627,0.12173340052694555,[0.25991826],0.005,0.1,1.167997473482254,0.15418994279081696,0
0.6300070285797119,0.12446898256125893,[0.26396371],0.005,0.1,1.0535879293170962,0.15347978681664634,0
0.64141845703125,0.12720456459557233,[0.2681409],0.005,0.1,1.4271778374827861,0.20814371483479605,0
0.6489179134368896,0.12915855176293903,[0.27244426],0.005,0.1,1.5937569930190665,0.2118890920669785,0
0.6590161323547363,0.13169873508051574,[0.2768513],0.005,0.1,1.9189419224192745,0.2634933616726837,0
0.6685051918029785,0.13404351968135578,[0.28136068],0.005,0.1,2.210385471348582,0.2405908483198808,0
0.6759171485900879,0.13638830428219584,[0.28597071],0.005,0.1,2.4090653958134944,0.1676583191065588,0
0.686640739440918,0.13971008246671923,[0.29066163],0.005,0.1,2.7872558224814497,0.17619301909401128,0
0.6963071823120117,0.14264106321776926,[0.29542587],0.005,0.1,2.8419070202434353,0.1860212208594989,0
0.7039122581481934,0.14498584781860932,[0.30025679],0.005,0.1,3.0239303341586803,0.13812540355970493,0
0.7154173851013184,0.1485030247198694,[0.30514914],0.005,0.1,3.176095875821513,0.22505200870090517,0
0.7258732318878174,0.1516294041876561,[0.31011832],0.005,0.1,3.251622611393208,0.22934944892597386,0
0.7366631031036377,0.1549511823721795,[0.31517742],0.005,0.1,3.525140459986895,0.23403457416397913,0
0.7510733604431152,0.15983615029059628,[0.32033805],0.005,0.1,3.768141370221061,0.3201256927628153,0
0.7589011192321777,0.1627671310416463,[0.32562015],0.005,0.1,3.35785123755897,0.3048035607170329,0
0.7668366432189941,0.1655027130759597,[0.33101944],0.005,0.1,2.774862299439311,0.21540142887250177,0
0.7748346328735352,0.16862909254374644,[0.3365109],0.005,0.1,2.2137338966118296,0.2343489493193777,0
0.7828381061553955,0.17175547201153316,[0.34207279],0.005,0.1,2.0157325356049633,0.1751920032639602,0
0.7934830188751221,0.17624964249647657,[0.34769722],0.005,0.1,2.224127909907064,0.2911489114520764,0
0.8036339282989502,0.18015761683120995,[0.3533993],0.005,0.1,2.2210600172636736,0.2979354868434179,0
0.8122138977050781,0.18347939501573338,[0.35918069],0.005,0.1,2.1238311320589385,0.21678210820236912,0
0.8212454319000244,0.18699657191699343,[0.36502075],0.005,0.1,1.9892699218536696,0.24749016189814196,0
0.8288397789001465,0.19012295138478016,[0.37090186],0.005,0.1,1.844383093874932,0.18859971728147215,0
0.8378739356994629,0.19364012828604024,[0.37680905],0.005,0.1,1.4255289574839831,0.23055650986059525,0
0.8484137058258057,0.19813429877098362,[0.3827413],0.005,0.1,0.9809332862086648,0.26487434809045357,0
0.8560020923614502,0.20126067823877036,[0.38870939],0.005,0.1,0.32471245912978997,0.29506719643545504,0
0.8671853542327881,0.20575484872371377,[0.39473445],0.005,0.1,-0.2788662604823933,0.43591320343831846,0
0.8758656978607178,0.20946742434171048,[0.40083429],0.005,0.1,-1.0235062293169406,0.30779041971268895,0
0.8848671913146973,0.21298460124297056,[0.40700034],0.005,0.1,-1.3837658918920033,0.333771164156757,0
0.8933289051055908,0.21630637942749392,[0.41322518],0.005,0.1,-1.8112389289382334,0.35786649285179484,0
0.9008572101593018,0.21923736017854403,[0.41950218],0.005,0.1,-2.1573999283780636,0.2659834922737188,0
0.9108700752258301,0.22334073323001408,[0.42581359],0.005,0.1,-2.385719062674605,0.3102723743978782,0
0.9207465648651123,0.22744410628148415,[0.43215627],0.005,0.1,-2.5040838521266195,0.3470740277879918,0
0.931830883026123,0.2323290741999009,[0.43853947],0.005,0.1,-2.53450502631721,0.3749314689445033,0
0.9409322738647461,0.23584625110116098,[0.44497078],0.005,0.1,-2.500414272981634,0.3994729674928754,0
0.9498441219329834,0.23936342800242105,[0.45145624],0.005,0.1,-2.698061310519318,0.41992856606085766,0
0.9588656425476074,0.24288060490368113,[0.45798833],0.005,0.1,-2.62435988418111,0.3093232190836682,0
0.9709484577178955,0.24776557282209788,[0.46456033],0.005,0.1,-2.4457952048689697,0.4923010077436817,0
0.9793014526367188,0.2510873510066213,[0.47119061],0.005,0.1,-2.238042304710054,0.4948659494621113,0
0.9883859157562256,0.25460452790788135,[0.47789402],0.005,0.1,-2.033507340812108,0.49744765539028724,0
0.9958672523498535,0.25773090737566806,[0.48465787],0.005,0.1,-1.8444681074411164,0.3604147388637348,0
1.0058598518371582,0.26163888171040145,[0.49145847],0.005,0.1,-1.6742023363510135,0.402253669923314,0
1.0139110088348389,0.2653514573283982,[0.4982753],0.005,0.1,-1.5222416885862815,0.3044972712184384,0
1.022834300994873,0.26886863422965823,[0.50509085],0.005,0.1,-1.3867809133444888,0.3640428205065885,0
1.034747838973999,0.27375360214807504,[0.51191471],0.005,0.1,-1.265729273390926,0.5648003466166043,0
1.0438764095306396,0.2772707790493351,[0.51876703],0.005,0.1,-1.157128435310689,0.40561756868753956,0
1.0521607398986816,0.28059255723385845,[0.52564],0.005,0.1,-1.0592853734452226,0.44504043525048664,0
1.06093168258667,0.2845005315685919,[0.53252666],0.005,0.1,-0.9707850727939222,0.476289159367477,0
1.069516658782959,0.288017708469852,[0.53943307],0.005,0.1,-0.8904587775038634,0.5017816157210617,0
1.079077959060669,0.292121081521322,[0.54636406],0.005,0.1,-0.8173410027151453,0.5208881225992716,0
1.0879645347595215,0.29563825842258207,[0.55332333],0.005,0.1,-0.7506286567051101,0.5371813350125739,0
1.0958433151245117,0.2987646378903688,[0.5603014],0.005,0.1,-0.6896466606233234,0.39466791895005254,0
1.1069245338439941,0.3032588083753122,[0.56727783],0.005,0.1,-0.6338206565465118,0.44590375260370035,0
1.1156742572784424,0.306385187843099,[0.5742475],0.005,0.1,-0.582655974791249,0.4895669206751509,0
1.1255996227264404,0.310488560894569,[0.5812183],0.005,0.1,-0.5357216566595862,0.5221274123833051,0
1.1379423141479492,0.31576432624645917,[0.58820901],0.005,0.1,-0.49263837617978307,0.73306038830283,0
1.1458487510681152,0.3188907057142458,[0.59523522],0.005,0.1,-0.4530692926009476,0.5169506749269728,0
1.1589384078979492,0.3241664710661359,[0.60229751],0.005,0.1,-0.6927514344715743,0.7330566828064857,0
1.1688575744628906,0.3280744454008694,[0.60940806],0.005,0.1,-0.6924614870892398,0.7036969930221058,0
1.1778063774108887,0.3313962235853927,[0.61657653],0.005,0.1,-0.6066460791249849,0.6849465468660122,0
1.1868302822113037,0.33549959663686285,[0.623786],0.005,0.1,-0.5023166474170799,0.49019557473285413,0
1.199453353881836,0.34057996327201623,[0.63102147],0.005,0.1,-0.4058204923192199,0.7211906791458174,0
1.2098355293273926,0.3450741337569596,[0.63830599],0.005,0.1,-0.6013494355292937,0.9189355938712613,0
1.2183799743652344,0.34839591194148306,[0.64565822],0.005,0.1,-0.5705054082795302,0.6319963531191006,0
1.2258169651031494,0.35152229140926977,[0.65304465],0.005,0.1,-0.4657835848197598,0.46192525084096725,0
1.2348744869232178,0.35503946831052985,[0.66042421],0.005,0.1,-0.3515808544199497,0.5176844829927324,0
1.2435731887817383,0.3583612464950532,[0.66777412],0.005,0.1,0.024233539170371743,0.39607297014082726,0
1.2539091110229492,0.36266001826325994,[0.67507525],0.005,0.1,-0.13948536830163058,0.4686642994553706,0
1.2628319263458252,0.3659817964477834,[0.68232364],0.005,0.1,-0.16811522219761804,0.5274633493432692,0
1.271986484527588,0.3696943720657801,[0.68952816],0.005,0.1,0.13024901374311676,0.5705615691921238,0
1.2799205780029297,0.37301615025030344,[0.69669641],0.005,0.1,0.19961479393897927,0.602963460830724,0
1.2893710136413574,0.37711952330177356,[0.70383482],0.005,0.1,0.17966819562042807,0.625408767980102,0
1.2987346649169922,0.3808320989197703,[0.7109488],0.005,0.1,0.1325968467533985,0.6425198212430275,0
1.3098247051239014,0.3855216681214504,[0.71804282],0.005,0.1,0.08414372233340371,0.653151536595263,0
1.3178277015686035,0.38864804758923716,[0.72512059],0.005,0.1,0.04344203515718231,0.6645690530669425,0
1.326918125152588,0.3923606232072338,[0.73217366],0.005,0.1,0.012448326915048467,0.4881784503054375,0
1.3351099491119385,0.39548700267502057,[0.73918347],0.005,0.1,-0.009679987467300926,0.54572178348273,0
1.3434903621673584,0.39900417957628065,[0.74614632],0.005,0.1,-0.024633105444549136,0.5914863289981593,0
1.3534824848175049,0.4033029513444874,[0.75307114],0.005,0.1,-0.034139120498326334,0.6253738830050969,0
1.3618252277374268,0.4064293308122741,[0.75995448],0.005,0.1,-0.039675356104558274,0.47051200634971097,0
1.3728301525115967,0.41092350129721755,[0.76679413],0.005,0.1,-0.04240533369022184,0.737290958119968,0
1.3839292526245117,0.41522227306542425,[0.77361203],0.005,0.1,-0.04320413644772038,0.7401080629022394,0
1.3950269222259521,0.41932564611689427,[0.78042741],0.005,0.1,-0.04271087874930233,0.7446615757400823,0
1.4042088985443115,0.42342901916836445,[0.78724549],0.005,0.1,0.23465559367690947,0.7519910188417732,0
1.4138219356536865,0.4275323922198345,[0.79407118],0.005,0.1,0.26962138468178115,0.76218683705993,0
1.425105094909668,0.4322219614215146,[0.80090919],0.005,0.1,0.21665519936175442,0.7735434824220699,0
1.4331889152526855,0.435543739606038,[0.80776402],0.005,0.1,0.14283863048367773,0.7900476632842222,0
1.443511724472046,0.43984251137424474,[0.81464],0.005,0.1,0.07461932262087609,0.8058649425373615,0
1.4528086185455322,0.4433596882755048,[0.82154127],0.005,0.1,0.02026856942746813,0.8250148172700061,0
1.4618268013000488,0.4470722638935015,[0.8284595],0.005,0.1,-0.019533088888707167,0.612070488760772,0
1.4698266983032227,0.45019864336128823,[0.83537584],0.005,0.1,-0.3228915861863689,0.6926027620306681,0
1.4799506664276123,0.45469281384623167,[0.84229973],0.005,0.1,-0.37356421243662724,1.0254254793721482,0
1.4886012077331543,0.45820999074749164,[0.84925206],0.005,0.1,-0.3287614186728032,0.7438707626784159,0
1.4973604679107666,0.4617271676487517,[0.85621339],0.005,0.1,-0.25778293345551745,0.5738192117009385,0
1.5054566860198975,0.4646581483998018,[0.86315531],0.005,0.1,-0.1887683925800618,0.687363963177975,0
1.5128257274627686,0.46758912915085193,[0.87006704],0.005,0.1,-0.1312337838380613,0.5484316079338301,0
1.5210540294647217,0.47110630605211196,[0.87695336],0.005,0.1,-0.08675248349794337,0.9456493179420985,0
1.5293540954589844,0.47462348295337203,[0.88383221],0.005,0.1,0.22215359395275447,0.7143642822332623,0
1.538801670074463,0.4783360585713688,[0.8907067],0.005,0.1,0.2788080921113935,0.8216140302871959,0
1.5474870204925537,0.48165783675589213,[0.89758059],0.005,0.1,0.2401275299825148,0.9142364411021656,0
1.5552279949188232,0.4845888175069422,[0.90445767],0.005,0.1,0.1752168548856722,0.7061924143438231,0
1.5638923645019531,0.4884967918416756,[0.91132858],0.005,0.1,0.11209050942303389,0.8371842063026959,0
1.5768499374389648,0.49377255719356566,[0.91821343],0.005,0.1,0.06018763762732099,1.2872916989480927,0
1.5878510475158691,0.4980713289617725,[0.9251573],0.005,0.1,0.021038018342125517,1.2881800461232873,0
1.5983531475067139,0.5023701007299791,[0.93218516],0.005,0.1,-0.006819082190644926,1.2958832774438571,0
1.6069717407226562,0.5056918789145026,[0.93929041],0.005,0.1,-0.02566531359769037,0.9569184737210714,0
1.6187825202941895,0.5105768468329194,[0.94646739],0.005,0.1,0.2383170822630382,1.4477125508746898,0
1.6273248195648193,0.5140940237341795,[0.95373937],0.005,0.1,0.264315476224542,1.4413967535504841,0
1.636162519454956,0.5176112006354395,[0.96111116],0.005,0.1,0.20557154100715536,1.0561942305260028,0
1.6438031196594238,0.5205421813864896,[0.96855766],0.005,0.1,0.12823506499341014,1.1681071361216058,0
1.6539897918701172,0.5250363518714329,[0.97607137],0.005,0.1,0.058066900505904774,1.2574695178099005,0
1.6628072261810303,0.5283581300559563,[0.98364532],0.005,0.1,0.002842080776380592,0.9570713085245885,0
1.6707916259765625,0.5316799082404797,[0.99125858],0.005,0.1,-0.037112371161807226,1.1081412268787372,0
1.6795504093170166,0.5355878825752132,[0.99890742],0.005,0.1,-0.06411307034889085,1.2284605461749447,0
1.6892614364624023,0.5393004581932099,[1.00660254],0.005,0.1,-0.08104317146045645,1.3185427902672997,0
1.69712495803833,0.54281763509447,[1.01435206],0.005,0.1,-0.09054130272296547,1.385519427985165,0
1.7062745094299316,0.54633481199573,[1.02214739],0.005,0.1,-0.09475519912156263,1.042428708885285,0
1.715245246887207,0.5500473876137267,[1.02996585],0.005,0.1,-0.09532986918879131,1.1768719458004708,0
1.7257850170135498,0.5539553619484602,[1.03780137],0.005,0.1,-0.36951792231290675,1.2767028362166672,0
1.7373738288879395,0.5586449311501402,[1.04567537],0.005,0.1,-0.39924117994138,1.7707546916342978,0
1.7458174228668213,0.5619667093346636,[1.053604],0.005,0.1,-0.33980846031148654,1.2665743852039417,0
1.7548086643218994,0.5654838862359236,[1.06157117],0.005,0.1,0.017156328468348803,1.3130192078683913,0
1.7666590213775635,0.5699780567208671,[1.06956089],0.005,0.1,0.12585889802597675,1.3370317250282713,0
1.7808051109313965,0.576035416939704,[1.07758356],0.005,0.1,0.13245723800170967,1.7358192626414237,0
1.7908198833465576,0.5803341887079105,[1.08565769],0.005,0.1,0.10333484460080244,1.5936716189176026,0
1.800811529159546,0.584242163042644,[1.09378273],0.005,0.1,0.06700361166346663,1.4803899476853664,0
1.8104617595672607,0.5881501373773773,[1.10194226],0.005,0.1,0.034450023313583045,1.3890793316807495,0
1.8208708763122559,0.5922535104288476,[1.1101195],0.005,0.1,0.0088846180275938,1.3126214606994795,0
1.8308191299438477,0.5963568834803176,[1.11829767],0.005,0.1,-0.00967978072390449,1.247410431178596,0
1.8398189544677734,0.6000694590983143,[1.12646023],0.005,0.1,0.2536918974389546,1.1901300429352946,0
1.8505916595458984,0.6047590282999944,[1.13459113],0.005,0.1,0.2787237110693528,1.1376589405717594,0
1.8587987422943115,0.6078854077677811,[1.1426751],0.005,0.1,-0.05712900048111219,1.0966657953449563,0
1.8691661357879639,0.6121841795359879,[1.15069795],0.005,0.1,-0.16865060626069706,1.0558512930956192,0
1.8786427974700928,0.6158967551539846,[1.15864658],0.005,0.1,0.09131367606991411,1.0208323105014372,0
1.8877933025360107,0.6192185333385081,[1.16650923],0.005,0.1,0.14436907693763346,0.9921803526915793,0
1.898301601409912,0.6237127038234513,[1.1742757],0.005,0.1,0.11898686288616678,0.9645620802400151,0
1.9068145751953125,0.6272298807247115,[1.18192787],0.005,0.1,-0.20429584453284294,0.7290647936441347,0
1.9148263931274414,0.6307470576259715,[1.18944151],0.005,0.1,-0.28358888659346915,0.7749072127373664,0
1.9237861633300781,0.6344596332439683,[1.1968068],0.005,0.1,-0.26584851177807856,0.8086506935590453,0
1.9347927570343018,0.6385630062954383,[1.20402632],0.005,0.1,-0.21704386580214452,0.8319506181240465,0
1.944826602935791,0.6426663793469085,[1.21110378],0.005,0.1,-0.16490488085835056,0.849626038013706,0
1.952876329421997,0.6457927588146952,[1.21804401],0.005,0.1,-0.11961978733591969,0.8664292245730886,0
1.962207317352295,0.6497007331494286,[1.22485296],0.005,0.1,-0.0837103771723719,0.8804345298603057,0
1.9708843231201172,0.6534133087674253,[1.23152818],0.005,0.1,-0.05663820045545669,0.6884866390147777,0
1.978783130645752,0.6563442895184753,[1.23806977],0.005,0.1,-0.3129140277577753,0.9815515277337992,0
1.987440586090088,0.6598614664197354,[1.24448942],0.005,0.1,-0.33194217715502705,0.7573397283477461,0
1.9957971572875977,0.6631832446042588,[1.25077991],0.005,0.1,-0.2669779197555724,0.6225716927352127,0
2.0048348903656006,0.6667004215055189,[1.25692781],0.005,0.1,0.09193077844234199,0.7212262616649706,0
2.012885332107544,0.6700221996900422,[1.26293353],0.005,0.1,0.2001554048997587,0.607231700148201,0
2.0218541622161865,0.6735393765913023,[1.26880965],0.005,0.1,0.20469521637098897,0.943829069682607,0
2.030439853668213,0.6772519522092991,[1.27457897],0.005,0.1,0.17252961064068825,0.7504069556570361,0
2.037808656692505,0.6799875342436125,[1.28024282],0.005,0.1,0.1325859703326367,0.6335339556750517,0
2.0482325553894043,0.6852632995955026,[1.28580458],0.005,0.1,0.09613606290502093,0.9897772596829619,0
2.058789014816284,0.6889758752134992,[1.29129939],0.005,0.1,0.06658298712125224,1.0348832202241929,0
2.0681183338165283,0.6930792482649695,[1.29675868],0.005,0.1,0.04406677968032663,1.0704792020942575,0
2.0761032104492188,0.696205627732756,[1.30218969],0.005,0.1,0.02756572190339179,0.8408190590639602,0
2.084892749786377,0.6995274059172796,[1.30758909],0.005,0.1,-0.26023240504564754,0.9376286128243064,0
2.093780040740967,0.7032399815352761,[1.31295487],0.005,0.1,-0.3015453956085662,0.7653594914390746,0
2.102851152420044,0.7067571584365363,[1.31828616],0.005,0.1,-0.25202215930086325,0.8884569282178202,0
2.110790252685547,0.7098835379043231,[1.32359374],0.005,0.1,-0.17963480692775008,0.9888212934877932,0
2.119859218597412,0.7135961135223197,[1.32890884],0.005,0.1,-0.11148318844924329,1.3850008224658297,0
2.127781391143799,0.7169178917068433,[1.33425825],0.005,0.1,-0.05630648553435178,1.04635699302326,0
2.1397461891174316,0.7218028596252599,[1.33964307],0.005,0.1,-0.015115601158394911,1.1129324079633747,0
2.1507644653320312,0.7259062326767299,[1.34506419],0.005,0.1,0.013926968830497268,1.1700162907986085,0
2.1587791442871094,0.7290326121445166,[1.35053312],0.005,0.1,0.0333725696629458,1.2186321689618909,0
2.170778751373291,0.7341129787796701,[1.35605944],0.005,0.1,0.045632811432905505,1.2539139416192273,0
2.1807668209075928,0.7382163518311402,[1.36165102],0.005,0.1,0.05270232791122337,1.286692002400129,0
2.1893608570098877,0.741928927449137,[1.36731424],0.005,0.1,0.05612479477976419,1.3175259804196666,0
2.199249744415283,0.7460323005006069,[1.37305417],0.005,0.1,-0.21898921424694975,1.3459851647374348,0
2.2097818851470947,0.7503310722688137,[1.37887482],0.005,0.1,-0.2528540765473433,1.374662138456259,0
2.220782995223999,0.7546298440370205,[1.38477924],0.005,0.1,-0.19956814084615568,1.398350774796954,0
2.2307772636413574,0.7587332170884905,[1.39076952],0.005,0.1,-0.12594915828160058,1.4264951224622566,0
2.238879919052124,0.7618595965562772,[1.3968471],0.005,0.1,-0.05825915141486427,1.458182465073571,0
2.2477526664733887,0.7655721721742741,[1.40300118],0.005,0.1,-0.004640266210550258,1.1281608103833454,0
2.2589290142059326,0.7700663426592175,[1.40922242],0.005,0.1,0.03431581282413394,1.6354594166064262,0
2.2667768001556396,0.7731927221270041,[1.41551439],0.005,0.1,0.060737023501751114,1.2471342537318808,0
2.279689311981201,0.7784684874788942,[1.42187993],0.005,0.1,0.07737313225764779,1.7630820176977249,0
2.2891297340393066,0.7823764618136277,[1.42833333],0.005,0.1,0.08676909994402486,1.7408064071202916,0
2.2992260456085205,0.7864798348650976,[1.43488619],0.005,0.1,0.09100727914630675,1.730374136898565,0
2.306877374649048,0.7896062143328845,[1.44152345],0.005,0.1,0.3677256687370806,1.3184454135402426,0
2.315959930419922,0.7933187899508811,[1.44821949],0.005,0.1,0.3991551243472837,1.43771145965957,0
2.324251890182495,0.7964451694186679,[1.45496459],0.005,0.1,0.34084008515756364,1.539454314857567,0
2.331813097000122,0.7997669476031912,[1.46175019],0.005,0.1,0.26061709506650776,1.2182621969820429,0
2.3423612117767334,0.804065719371398,[1.46856899],0.005,0.1,0.18545470776168424,1.8187251411020473,0
2.3526647090911865,0.8083644911396048,[1.4754397],0.005,0.1,0.12397723164876052,1.8353007679383362,0
2.361764669418335,0.8120770667576015,[1.48236525],0.005,0.1,0.07709929062134552,1.405922509856926,0
2.3727567195892334,0.8161804398090716,[1.4893227],0.005,0.1,0.042904017199277035,1.5403844503290463,0
2.3820815086364746,0.820088414143805,[1.49631763],0.005,0.1,0.018774816489851825,2.1420063217739966,0
2.389880657196045,0.8232147936115918,[1.50336703],0.005,0.1,0.0022461415307870256,1.6048504786726678,0
2.3991878032684326,0.8271227679463251,[1.51044687],0.005,0.1,-0.008721669592762214,1.2788469706505081,0
2.408956289291382,0.8310307422810586,[1.51752395],0.005,0.1,-0.015710338412631322,1.4650752717113402,0
2.4202451705932617,0.835524912766002,[1.52460829],0.005,0.1,-0.019901352274062013,2.0999081063685816,0
2.4278078079223633,0.8382604948003154,[1.53172085],0.005,0.1,-0.022156412377941588,1.5943765769291234,0
2.4357800483703613,0.8415822729848388,[1.53885366],0.005,0.1,-0.023093757003550687,1.7125910045585928,0
2.445733070373535,0.8454902473195721,[1.54599962],0.005,0.1,-0.023151576682278314,1.804026127505615,0
2.455775499343872,0.8495936203710422,[1.55316508],0.005,0.1,-0.022637384668971184,1.8714984074149044,0
2.464754343032837,0.8533061959890389,[1.56035497],0.005,0.1,-0.29780341243596264,1.9233077684848814,0
2.474423408508301,0.8572141703237723,[1.5675729],0.005,0.1,-0.05380656538996413,1.960500172163399,0
2.484501600265503,0.8613175433752424,[1.57482131],0.005,0.1,0.03560864551309057,1.9860536034990806,0
2.4936413764953613,0.8650301189932391,[1.58210148],0.005,0.1,0.0578323757604465,2.005936317242222,0
2.5032238960266113,0.8687426946112359,[1.5894137],0.005,0.1,0.053503951980507794,2.0196310455751045,0
2.51086688041687,0.8718690740790227,[1.59674501],0.005,0.1,0.04080608769820249,1.5623476244619767,0
2.519758701324463,0.8755816496970192,[1.60407145],0.005,0.1,0.027336184735314774,1.695851406998356,0
2.530179738998413,0.8800758201819627,[1.61139678],0.005,0.1,0.015848932663544316,2.297110653228059,0
2.538771152496338,0.8832021996497494,[1.61873593],0.005,0.1,0.0069924848802841956,1.731729249805327,0
2.5496835708618164,0.8878917688514296,[1.62607632],0.005,0.1,0.000581971338237047,1.8067982438912242,0
2.5607759952545166,0.8923859393363729,[1.63341823],0.005,0.1,0.27220842221745034,2.3570763611488217,0
2.5714023113250732,0.8964893123878431,[1.64078472],0.005,0.1,0.30244888922795987,2.2400979203612694,0
2.5805134773254395,0.9002018880058399,[1.64817059],0.005,0.1,0.24558799403006104,1.6871061087279027,0
2.588831901550293,0.9033282674736265,[1.65554672],0.005,0.1,0.16853697436024154,1.7539858091185616,0
2.5976085662841797,0.9068454443748867,[1.66288789],0.005,0.1,0.09760198465539624,1.4022222900403307,0
2.6098341941833496,0.9121212097267768,[1.67018373],0.005,0.1,0.04094278082742857,1.948431470002907,0
2.618792772293091,0.9156383866280366,[1.67743647],0.005,0.1,-0.0008456845909398034,1.5157084386865274,0
2.627495050430298,0.9193509622460335,[1.68463645],0.005,0.1,-0.02989581559675921,1.6034235779279933,0
2.6377909183502197,0.9234543352975034,[1.69178549],0.005,0.1,-0.048965928243501045,2.079431891914649,0
2.645742177963257,0.9265807147652902,[1.69889562],0.005,0.1,-0.06061156243672711,1.5869073722966063,0
2.6547539234161377,0.930293290383287,[1.70595488],0.005,0.1,-0.06692650532204392,1.628930920156922,0
2.6644363403320312,0.9342012647180205,[1.71295243],0.005,0.1,-0.06952200839412263,1.6530269194629097,0
2.6717891693115234,0.9371322454690706,[1.71987908],0.005,0.1,-0.06959244216196084,1.3298354505580274,0
2.6817245483398438,0.9414310172372772,[1.72672662],0.005,0.1,-0.06800131189196419,1.766259556301485,0
2.6897504329681396,0.9447527954218007,[1.73348834],0.005,0.1,-0.06536145701041718,1.7836771998537353,0
2.7020726203918457,0.9496377633402174,[1.74014881],0.005,0.1,-0.06210114774723659,2.1183335691436063,0
2.7117276191711426,0.9533503389582141,[1.74671452],0.005,0.1,-0.058515297160267404,1.9488049198733528,0
2.721745729446411,0.9570629145762107,[1.75320079],0.005,0.1,-0.05480375031259595,1.8230693993297373,0
2.730363130569458,0.9605800914774709,[1.75961062],0.005,0.1,-0.0510992781663647,1.732190124914851,0
2.7377402782440186,0.963511072228521,[1.76594635],0.005,0.1,-0.04748774244373479,1.663284069722131,0
2.747939348220825,0.9676144452799911,[1.77220981],0.005,0.1,-0.04402247112744609,1.6104505330053933,0
2.7557425498962402,0.9709362234645145,[1.77838495],0.005,0.1,-0.04073442884657809,1.6201777338393597,0
2.767754316329956,0.9758211913829312,[1.78444974],0.005,0.1,-0.03763936920233486,1.8986512061850258,0
2.7770941257476807,0.9797291657176646,[1.79042146],0.005,0.1,-0.0347428388691296,2.1036122027410076,0
2.7877724170684814,0.9842233362026079,[1.79633267],0.005,0.1,-0.03204366167088475,1.8827497572983278,0
2.795759439468384,0.9871543169536582,[1.80218489],0.005,0.1,-0.029536351909696383,1.444522983886736,0
2.8062782287597656,0.9912576900051281,[1.80795409],0.005,0.1,-0.027212776094979636,1.1872862854689412,0
2.8155336380004883,0.9951656643398614,[1.81362072],0.005,0.1,-0.025063288702663188,1.2518201022331443,0
2.8288252353668213,1.0004414296917516,[1.81919463],0.005,0.1,-0.023077500922484444,1.5601686410561622,0
2.8372161388397217,1.0041540053097484,[1.82470181],0.005,0.1,-0.021244794084601504,1.5153204894636867,0
2.8467767238616943,1.0078665809277452,[1.83015627],0.005,0.1,-0.019554656080310366,1.481427854741122,0
2.85528564453125,1.0111883591122686,[1.83555359],0.005,0.1,-0.01799689558824742,1.2143806049873125,0
2.8640427589416504,1.0149009347302653,[1.8408823],0.005,0.1,-0.016561772401611552,1.2666578494209455,0
2.8737616539001465,1.0184181116315254,[1.84614158],0.005,0.1,-0.015240070563948032,1.3070213722210655,0
2.8837342262268066,1.022716883399732,[1.85133968],0.005,0.1,-0.014023132903068943,1.332719236350225,0
2.891812562942505,1.026234060300992,[1.85648411],0.005,0.1,-0.012902869867754714,1.352619298945379,0
2.8997550010681152,1.0295558384855157,[1.86158165],0.005,0.1,-0.011871751600245627,1.3672780101479445,0
2.910358428955078,1.034050008970459,[1.86663847],0.005,0.1,-0.010922789399546941,1.373752242513122,0
2.918973922729492,1.0373717871549823,[1.87166011],0.005,0.1,-0.010049510797719374,1.3816277826578778,0
2.928805112838745,1.0412797614897158,[1.87665129],0.005,0.1,-0.2852842907982459,1.3780269116374877,0
2.9397830963134766,1.0453831345411857,[1.88161623],0.005,0.1,-0.31766948630032854,1.3903522566316207,0
2.949767589569092,1.0494865075926558,[1.88655925],0.005,0.1,-0.2618918946129125,1.3915581181265257,0
2.959820032119751,1.0531990832106526,[1.89148418],0.005,0.1,-0.18518092513569862,1.3943049005524244,0
2.9689905643463135,1.0569116588286493,[1.89639426],0.005,0.1,-0.11408232110919553,1.3976820529417737,0
2.9773221015930176,1.060624234446646,[1.90129243],0.005,0.1,-0.0569306456695632,1.4017252443609138,0
2.9867448806762695,1.0645322087813796,[1.90617335],0.005,0.1,-0.014445531820458535,1.1786037674466658,0
2.9947502613067627,1.067853986965903,[1.91102472],0.005,0.1,0.015418123947041748,1.245367449529983,0
3.0043509006500244,1.0717619613006362,[1.9158446],0.005,0.1,0.3113969178078223,1.2963897529712787,0
3.0132739543914795,1.0752791382018962,[1.9206399],0.005,0.1,0.35705369260870046,1.336433037508605,0
3.0209131240844727,1.0782101189529465,[1.92540882],0.005,0.1,0.30914734574878217,1.1489709238003734,0
3.0295822620391846,1.0819226945709433,[1.93014224],0.005,0.1,0.23650611146848652,1.2299545927294797,0
3.0386641025543213,1.0858306689056765,[1.93484117],0.005,0.1,0.16686400461441037,1.2944850713862974,0
3.050852060317993,1.0907156368240933,[1.93951527],0.005,0.1,0.10941724903859504,1.3417217927112888,0
3.059767007827759,1.0946236111588266,[1.94418164],0.005,0.1,-0.21053908653352477,1.6527899884129458,0
3.0687317848205566,1.0981407880600869,[1.9488553],0.005,0.1,-0.27566697438849663,1.3462541840420836,0
3.076735734939575,1.1014625662446103,[1.95352436],0.005,0.1,-0.24305779969355357,1.1636717453604735,0
3.0867903232574463,1.1053705405793435,[1.95817088],0.005,0.1,-0.18225634045323436,1.2599382623283386,0
3.096331834793091,1.1088877174806036,[1.96279702],0.005,0.1,-0.1217421667594826,1.3409125511490119,0
3.1047379970550537,1.1124048943818636,[1.96740518],0.005,0.1,-0.34739564569104114,1.1696031654440644,0
3.1127071380615234,1.115726672566387,[1.9719893],0.005,0.1,-0.34211384034408093,1.2727764410256386,0
3.1217172145843506,1.119243849467647,[1.97655337],0.005,0.1,-0.25936905039123137,1.3641830464949396,0
3.129784107208252,1.1225656276521707,[1.98111022],0.005,0.1,-0.16429026088161205,1.4359817584923456,0
3.1396307945251465,1.1264736019869042,[1.9856626],0.005,0.1,-0.08133341039098778,1.233967184838538,0
3.149768114089966,1.1305769750383738,[1.9902042],0.005,0.1,-0.2931039846116233,1.3350593931806463,0
3.1597328186035156,1.1346803480898442,[1.99473859],0.005,0.1,-0.2799847729934609,1.4149273850164936,0
3.1691572666168213,1.1387837211413143,[1.99927762],0.005,0.1,0.08245447641208817,1.4737446942171868,0
3.1778059005737305,1.1421054993258377,[2.00382261],0.005,0.1,0.21148350720245973,1.2613676279463402,0
3.188833475112915,1.146599669810781,[2.00835718],0.005,0.1,-0.03773723001658216,1.1289558322629185,0
3.1978282928466797,1.1503122454287777,[2.01285886],0.005,0.1,-0.08491124602416866,1.0479157556402652,0
3.2086105346679688,1.1548064159137212,[2.01731755],0.005,0.1,-0.057044219807944906,1.1852769305285606,0
3.2201335430145264,1.1593005863986645,[2.02174219],0.005,0.1,0.2664141773397048,1.2920624395609173,0
3.2304346561431885,1.163208560733398,[2.02614881],0.005,0.1,0.06832221098376111,1.3693380337899705,0
3.24336314201355,1.1682889273685515,[2.03055041],0.005,0.1,0.015146994334154118,1.416164882958485,0
3.2529962062835693,1.172587699136758,[2.03495714],0.005,0.1,0.29459485800006624,1.4427011507154832,0
3.2646849155426025,1.1772772683384383,[2.03937648],0.005,0.1,0.3484787614564515,1.4509708863165425,0
3.2767415046691895,1.1823576349735918,[2.04381333],0.005,0.1,0.039273023252382216,1.4455172879300244,0
3.289313793182373,1.1874380016087451,[2.0482778],0.005,0.1,0.2235069537708606,1.6759139883136538,0
3.2994985580444336,1.191541374660215,[2.05278372],0.005,0.1,0.252903567695455,1.5650891852930562,0
3.31134295463562,1.1962309438618952,[2.05733286],0.005,0.1,0.22382236621891705,1.4883475107687172,0
3.321722984313965,1.2003343169133653,[2.0619173],0.005,0.1,-0.09728749160970668,1.4184880986709925,0
3.338864803314209,1.2073686707158855,[2.06653466],0.005,0.1,0.10182446546057905,1.55223095739434,0
3.350734233856201,1.2118628412008288,[2.07118691],0.005,0.1,0.153356321820676,1.426736566926351,0
3.3617208003997803,1.2161616129690356,[2.07586669],0.005,0.1,-0.13030230249691074,1.332687692552901,0
3.373241424560547,1.2206557834539788,[2.08056489],0.005,0.1,-0.19039513566365746,1.4279958791239402,0
3.381763219833374,1.2243683590719758,[2.08527195],0.005,0.1,0.11124095552849841,1.1595359532430394,0
3.390713930130005,1.2282763334067093,[2.08996628],0.005,0.1,0.19466965189264962,1.1242611969307594,0
3.400745391845703,1.232379706458179,[2.09462814],0.005,0.1,0.18964807899032943,1.092719734743642,0
3.4097535610198975,1.2358968833594395,[2.09924557],0.005,0.1,0.1548238412877157,1.0649883212194007,0
3.420565366744995,1.2401956551276458,[2.10381233],0.005,0.1,0.11516186458748812,1.1461020464606393,0
3.4327142238616943,1.245080623046063,[2.10832698],0.005,0.1,0.08009596912799226,1.0773788971687395,0
3.4417243003845215,1.2487931986640595,[2.11278219],0.005,0.1,0.05221138033578035,1.0261783850867447,0
3.4532291889190674,1.2534827678657396,[2.11717015],0.005,0.1,0.03131070759695805,1.0699061870506617,0
3.4617207050323486,1.2569999447669995,[2.12148364],0.005,0.1,0.0162542551565533,0.9296724514161939,0
3.4716880321502686,1.2611033178184698,[2.1257076],0.005,0.1,0.005745316553980624,0.9072742845963799,0
3.483354091644287,1.2655974883034131,[2.12983261],0.005,0.1,-0.0013715680569291256,0.9467239452460916,0
3.4937093257904053,1.2697008613548835,[2.13385799],0.005,0.1,-0.006027544389817355,0.9003096555702568,0
3.501741647720337,1.2728272408226697,[2.13777202],0.005,0.1,-0.008934142221249422,0.9020258442781185,0
3.5115883350372314,1.2767352151574034,[2.14154807],0.005,0.1,-0.010617976880492265,0.9016775075829966,0
3.523454427719116,1.2814247843590834,[2.14516532],0.005,0.1,-0.01146073749059803,0.8676926663069695,0
3.535752773284912,1.286505150994237,[2.14862155],0.005,0.1,-0.011735018890954471,0.8394356274633219,0
3.5450692176818848,1.2904131253289703,[2.15192295],0.005,0.1,-0.011633316293095719,0.8176820739235678,0
3.5553102493286133,1.2947118970971772,[2.15507551],0.005,0.1,-0.011290270545834404,0.79747534873208,0
3.5647144317626953,1.2982290739984372,[2.15808214],0.005,0.1,-0.010799207749978359,0.7531939328563354,0
3.5749340057373047,1.3021370483331705,[2.16094332],0.005,0.1,-0.010224194902617782,0.7478502706495196,0
3.585718870162964,1.306435820101377,[2.1636632],0.005,0.1,-0.009608712240819859,0.7399454324080166,0
3.5943312644958496,1.3099529970026373,[2.16624891],0.005,0.1,-0.008981835457658186,0.7328254668658771,0
3.6073074340820312,1.315619559788001,[2.16870955],0.005,0.1,-0.00836261433075618,0.7397142376625301,0
3.6186869144439697,1.3197229328394708,[2.1710557],0.005,0.1,-0.007763158967228824,0.7227346167477334,0
3.6297407150268555,1.3240217046076777,[2.17329453],0.005,0.1,-0.007190806791061485,0.70773402438742,0
3.640284538269043,1.3283204763758845,[2.17543038],0.005,0.1,-0.006649639073169823,0.6948678958737607,0
3.6493589878082275,1.3318376532771445,[2.1774676],0.005,0.1,-0.006141538948337662,0.6852385478837142,0
3.657313585281372,1.335550228895141,[2.17941051],0.005,0.1,-0.005666927144838689,0.6760516040851714,0
3.6668448448181152,1.3390674057964012,[2.1812634],0.005,0.1,-0.005225271697755734,0.6679597874206216,0
3.677443742752075,1.3437569749980813,[2.18303049],0.005,0.1,-0.004815439471948147,0.6576166389501652,0
3.686846971511841,1.347469550616078,[2.18471597],0.005,0.1,-0.004435937172717886,0.6499846855519783,0
3.695127248764038,1.3505959300838646,[2.18632399],0.005,0.1,-0.004085075300516751,0.6439315879689247,0
3.705986738204956,1.3545039044185982,[2.18785862],0.005,0.1,-0.0037610784979976173,0.6363008183434072,0
3.714869499206543,1.3580210813198583,[2.18932384],0.005,0.1,-0.003462158698418757,0.6297297723989068,0
3.7234621047973633,1.3615382582211184,[2.19072356],0.005,0.1,-0.0031865625513122966,0.6232742521223611,0
3.7343764305114746,1.3656416312725883,[2.19206158],0.005,0.1,-0.002932601137703043,0.6155183352803327,0
3.7428348064422607,1.3687680107403752,[2.19334156],0.005,0.1,-0.002698667563143269,0.6100178705932776,0
3.752025604248047,1.372285187641635,[2.19456701],0.005,0.1,-0.27852160599989917,0.6037936241687027,0
3.7616989612579346,1.376583959409842,[2.19574131],0.005,0.1,-0.3114478799705199,0.5958168214718612,0
3.7717199325561523,1.380687332461312,[2.19686769],0.005,0.1,0.019870298309625556,0.5882095952019567,0
3.779726028442383,1.3838137119290987,[2.19794921],0.005,0.1,0.12924793308291813,0.5828391733685148,0
3.7881455421447754,1.3871354901136221,[2.19898877],0.005,0.1,0.14482798704306676,0.5770529076511774,0
3.797067880630493,1.3904572682981455,[2.19998906],0.005,0.1,-0.15053128579431502,0.5713385359147564,0
3.8047003746032715,1.3935836477659322,[2.20095148],0.005,0.1,-0.21205002491310082,0.5635260789302381,0
3.8146958351135254,1.3976870208174021,[2.2018763],0.005,0.1,0.09199940823567751,0.5568691576733273,0
3.8226990699768066,1.4010087990019255,[2.20276513],0.005,0.1,0.17885004797887233,0.5516631422168261,0
3.8309526443481445,1.4041351784697123,[2.20362071],0.005,0.1,0.1771148541184625,0.5466985579401634,0
3.841688632965088,1.408433950237919,[2.20444548],0.005,0.1,-0.13097902925690477,0.539149387327369,0
3.852733612060547,1.4127327220061259,[2.20524152],0.005,0.1,-0.20157246478504598,0.5315112816221756,0
3.8642256259918213,1.4172268924910691,[2.2060115],0.005,0.1,-0.17985913377854634,0.5250111230608706,0
3.8747129440307617,1.4211348668258026,[2.20676686],0.005,0.1,-0.1303902472338047,0.551580152058872,0
3.886453151702881,1.4258244360274828,[2.2075279],0.005,0.1,-0.07981847728242447,0.5466741813436823,0
3.8969879150390625,1.4305140052291627,[2.20830901],0.005,0.1,-0.03754239343749975,0.5406856316521447,0
3.9078731536865234,1.4346173782806328,[2.2091143],0.005,0.1,-0.005519467728142699,0.5183177277627256,0
3.9174046516418457,1.4383299538986296,[2.209941],0.005,0.1,0.017183818789458145,0.5024458607853961,0
3.925203561782837,1.4412609346496796,[2.2107827],0.005,0.1,-0.24367200845516065,0.49129066992291365,0
3.9373269081115723,1.4459505038513598,[2.211632],0.005,0.1,-0.26730883937452826,0.4790476757395079,0
3.9469528198242188,1.4500538769028297,[2.21248051],0.005,0.1,-0.20686244953001737,0.46992917347269036,0
3.9553990364074707,1.4533756550873536,[2.21331895],0.005,0.1,-0.12834372727566784,0.4642789432122874,0
3.964116334915161,1.456697433271877,[2.21413729],0.005,0.1,-0.05738414648631213,0.4605990203633218,0
3.9747226238250732,1.4608008063233466,[2.21492503],0.005,0.1,-0.0016523198408361396,0.45746827334554097,0
3.984693765640259,1.4649041793748168,[2.21567126],0.005,0.1,0.31464531042442656,0.45637990827044467,0
3.9947755336761475,1.4686167549928135,[2.21636492],0.005,0.1,0.3749344763010545,0.4581088284287692,0
4.004687547683716,1.4725247293275467,[2.21699494],0.005,0.1,0.3368347614124133,0.4613693877214389,0
4.016991853713989,1.477214298529227,[2.2175483],0.005,0.1,0.2702507556092418,0.4793444096585229,0
4.026256084442139,1.481317671580697,[2.21801026],0.005,0.1,-0.07213559951183665,0.48526577892472567,0
4.037708282470703,1.4858118420656405,[2.21836868],0.005,0.1,-0.16137291676741444,0.4923999989574794,0
4.045694589614868,1.4889382215334273,[2.21861707],0.005,0.1,-0.1502046785505355,0.4771185822759374,0
4.053678274154663,1.4922599997179506,[2.21875831],0.005,0.1,-0.10702536059012945,0.47118290215555575,0
4.0616841316223145,1.4953863791857371,[2.21880428],0.005,0.1,-0.06045824103770987,0.46557918783796287,0
4.071055173873901,1.4990989548037343,[2.21876299],0.005,0.1,-0.020922503195169206,0.4806850145071344,0
4.0814666748046875,1.5030069291384676,[2.21862949],0.005,0.1,0.009088409585053072,0.49689377192744527,0
4.089700698852539,1.506133308606254,[2.21839661],0.005,0.1,0.03022119435193933,0.47599915674137716,0
4.098688364028931,1.5094550867907774,[2.21806108],0.005,0.1,-0.23192102121801678,0.5010601838410014,0
4.107674598693848,1.5129722636920375,[2.2176158],0.005,0.1,-0.2566493540048384,0.5273161121503845,0
4.119742155075073,1.518052630327191,[2.21704529],0.005,0.1,-0.19715224105804324,0.6232025685170998,0
4.130817651748657,1.5223514020953979,[2.21633024],0.005,0.1,-0.11947315915211482,0.6382765070029518,0
4.141186237335205,1.5260639777133946,[2.21545181],0.005,0.1,-0.04926483089371307,0.7651671607396557,0
4.149704694747925,1.5291903571811813,[2.21439777],0.005,0.1,-0.27024884938694305,0.655424864438351,0
4.15971302986145,1.5332937302326515,[2.21316851],0.005,0.1,-0.2637284941490951,0.6896997995876789,0
4.17006516456604,1.5377879007175947,[2.21175696],0.005,0.1,-0.18202585613519212,0.8693386190276159,0
4.17866849899292,1.5413050776188546,[2.21015089],0.005,0.1,-0.08945371401648491,0.7268599475636873,0
4.189774513244629,1.5456038493870616,[2.20834565],0.005,0.1,-0.009896854010304344,0.9422937064597059,0
4.200487852096558,1.5497072224385315,[2.20632929],0.005,0.1,0.05047204400254868,0.9525988435558198,0
4.210680723190308,1.5540059942067386,[2.20409162],0.005,0.1,0.09258666310303096,0.970577662738952,0
4.221677780151367,1.5583047659749452,[2.20162255],0.005,0.1,0.11971058680745193,1.2296887215536445,0
4.231685161590576,1.5618219428762052,[2.19890475],0.005,0.1,0.1354174340488316,1.20365020427303,0
4.2431652545928955,1.5663161133611485,[2.19592251],0.005,0.1,0.14283867248462379,1.4806730967461836,0
4.252288341522217,1.5700286889791455,[2.19266174],0.005,0.1,0.14446784551236774,1.412479091660373,0
4.260994911193848,1.5733504671636689,[2.18912032],0.005,0.1,0.14218881645736692,1.3727853473025717,0
4.272246837615967,1.5778446376486122,[2.18530689],0.005,0.1,0.13737809605470735,1.352482468195366,0
4.282680034637451,1.5815572132666087,[2.18123004],0.005,0.1,0.1310176707618439,1.3488751132373664,0
4.2943806648254395,1.5864421811850258,[2.17689827],0.005,0.1,0.12379450925094998,1.35023268804926,0
4.303652286529541,1.5899593580862856,[2.17231997],0.005,0.1,0.11618041325378879,1.3602963905544214,0
4.313976287841797,1.5940627311377558,[2.16750348],0.005,0.1,0.10849294963256796,1.371901982034024,0
4.323983669281006,1.597970705472489,[2.16245699],0.005,0.1,0.10094056432881443,1.3850544504235565,0
4.3349480628967285,1.6022694772406958,[2.15718857],0.005,0.1,0.09365534067906267,1.3965208014674733,0
4.344526767730713,1.606372850292166,[2.15170611],0.005,0.1,0.086716471487157,1.407998385296995,0
4.353685140609741,1.6096946284766893,[2.14602963],0.005,0.1,0.0801669159192806,1.0770776433351785,0
4.364654779434204,1.6137980015281594,[2.14018942],0.005,0.1,0.07402513190528343,1.1733895245040362,0
4.378739833831787,1.6192691655967864,[2.13418701],0.005,0.1,0.06829328771142815,1.6243422814538881,0
4.388643026351929,1.6231771399315198,[2.12799914],0.005,0.1,0.0629629750839072,1.5717695066535802,0
4.398159503936768,1.6268897155495166,[2.1216194],0.005,0.1,0.058019159318921425,1.5302936390177035,0
4.408531188964844,1.63079768988425,[2.11505611],0.005,0.1,0.05344289062725217,1.4986663291269877,0
4.4232330322265625,1.6366596513863498,[2.10829052],0.005,0.1,0.04921314845715087,2.359400445796403,0
4.434100389480591,1.6405676257210835,[2.10128107],0.005,0.1,0.045308081057754634,2.0516459191343963,0
4.443058729171753,1.6440848026223436,[2.09402099],0.005,0.1,0.04170582476772766,1.8373731969570948,0
4.4521918296813965,1.6476019795236037,[2.08653343],0.005,0.1,0.03838503245278999,1.6878915638731142,0
4.461496114730835,1.6511191564248633,[2.07883994],0.005,0.1,-0.24071315799046394,1.5806207629701015,0
4.4706103801727295,1.6548317320428605,[2.07096041],0.005,0.1,-0.2766560968722589,1.5001138018789373,0
4.480629205703735,1.6587397063775937,[2.06291309],0.005,0.1,0.05188434647751386,1.435540567456171,0
4.49010705947876,1.6624522819955905,[2.05471467],0.005,0.1,0.15870478283289807,1.3840583671420659,0
4.499090194702148,1.6659694588968506,[2.04638032],0.005,0.1,0.1719310366346346,1.3389087359487943,0
4.508634090423584,1.6694866357981104,[2.03793829],0.005,0.1,0.1504438029921544,0.9687159626563603,0
4.5176379680633545,1.6730038126993705,[2.02942773],0.005,0.1,0.12005607514873184,1.0258159423594309,0
4.526651620864868,1.6765209896006308,[2.02086751],0.005,0.1,0.09113538356111132,1.0594931984547786,0
4.5361011028289795,1.6802335652186273,[2.01225902],0.005,0.1,0.06708838444682691,1.0713803270846143,0
4.544773817062378,1.6835553434031507,[2.00360336],0.005,0.1,0.048374583527185606,1.0700722982892166,0
4.554219484329224,1.6870725203044108,[1.99490128],0.005,0.1,0.03435319959876156,1.057038962692617,0
4.56563401222229,1.6915666907893543,[1.98615331],0.005,0.1,0.024094598492608334,1.0323313419219327,0
4.573904991149902,1.6950838676906144,[1.97736003],0.005,0.1,0.016707612483564057,1.0001109667285144,0
4.583662509918213,1.6984056458751378,[1.96852187],0.005,0.1,0.011448322527694513,0.9758996883292704,0
4.5926291942596436,1.7017274240596612,[1.95963862],0.005,0.1,0.007736035922186815,0.9414129799366333,0
4.604712247848511,1.706026195827868,[1.95069464],0.005,0.1,0.00513438641946919,1.1704536836373107,0
4.614152908325195,1.7099341701626012,[1.94166176],0.005,0.1,0.003323062832422615,1.0382744991542487,0
4.622693061828613,1.7136467457805982,[1.93254747],0.005,0.1,0.0020704989177152758,0.7060456366370913,0
4.631661653518677,1.7169685239651216,[1.92338951],0.005,0.1,0.0012109967742063754,0.6979272046256113,0
4.641627788543701,1.720876498299855,[1.91420435],0.005,0.1,0.0006268339671261522,0.6779309686937482,0
4.651764631271362,1.7247844726345882,[1.90499029],0.005,0.1,0.00023479935202909416,0.6480595174228645,0
4.661709785461426,1.728497048252585,[1.89574573],0.005,0.1,-2.370100051869477e-05,0.6120566663581666,0
4.670648813247681,1.732014225153845,[1.8864692],0.005,0.1,-0.276228163520305,0.5721421173795751,0
4.679640054702759,1.7353360033383685,[1.87714347],0.005,0.1,-0.3094552803382726,0.6863394455785813,0
4.689837694168091,1.7396347751065753,[1.86773821],0.005,0.1,-0.25441707628068494,0.5781824636573748,0
4.698178052902222,1.742761154574362,[1.85824421],0.005,0.1,-0.1783616927568151,0.49324975925829306,0
4.70563530921936,1.7456921353254118,[1.84867026],0.005,0.1,-0.10784896000122936,0.4214273351413713,0
4.7147157192230225,1.7490139135099352,[1.83902446],0.005,0.1,-0.05122419249661411,0.3551581294153989,0
4.722641229629517,1.7517494955442485,[1.82933032],0.005,0.1,-0.009215365318679003,0.22338062976991446,0
4.734728574752808,1.756243666029192,[1.81960802],0.005,0.1,0.020216036294111558,0.24881099487578268,0
4.7439093589782715,1.7595654442137154,[1.8098262],0.005,0.1,0.039762948132906054,0.2280250411996437,0
4.752141714096069,1.7624964249647657,[1.79995878],0.005,0.1,-0.22410237404107194,0.11423795783940958,0
4.760474681854248,1.7654274057158155,[1.7900331],0.005,0.1,-0.5264027958657737,0.06084245046236249,0
4.770684719085693,1.768749183900339,[1.78007278],0.005,0.1,-1.0533637657594823,0.004919879680959296,0
4.780975818634033,1.7716801646513891,[1.77006543],0.005,0.1,-1.8159408423412624,-0.07474210105254357,0
4.789211750030518,1.7738295505354924,[1.75998461],0.005,0.1,-2.487705370617898,-0.13128314340756125,0
4.797163009643555,1.7757835377028592,[1.74984142],0.005,0.1,-3.2487788931990127,-0.1312296212544212,0
4.805272340774536,1.7773467274367525,[1.73967856],0.005,0.1,-3.855020595937326,-0.18410278004277741,0
4.814146280288696,1.7787145184539093,[1.72951586],0.005,0.1,-5.0,-0.23743677401483032,0
4.821611166000366,1.7796915120375927,[1.71937003],0.005,0.1,-5.0,-0.20476718878056713,0
4.831026315689087,1.7802777081878027,[1.70927134],0.005,0.1,-5.0,-0.2671392354402387,0
4.840641498565674,1.7802777081878027,[1.69922818],0.005,0.1,-5.0,-0.32651953679523965,0
4.848807334899902,1.780082309471066,[1.68923039],0.005,0.1,-5.0,-0.3820748021220455,0
4.858654260635376,1.7794961133208558,[1.6792687],0.005,0.1,-5.0,-0.43229292288771787,0
4.868700981140137,1.778323721020436,[1.66933475],0.005,0.1,-5.0,-0.4768086994507636,0
4.876611709594727,1.7771513287200158,[1.65943754],0.005,0.1,-5.0,-0.3700374891200604,0
4.884619474411011,1.7757835377028592,[1.64960061],0.005,0.1,-5.0,-0.4417085665246223,0
4.8956310749053955,1.7732433543852826,[1.63982653],0.005,0.1,-5.0,-0.5015211418605501,0
4.904661417007446,1.7707031710677057,[1.63010017],0.005,0.1,-5.0,-0.5526280077914245,0
4.91414999961853,1.767772190316656,[1.62040816],0.005,0.1,-5.0,-0.5956747320467176,0
4.921602249145508,1.7652320069990788,[1.61075521],0.005,0.1,-5.0,-0.45112081155737027,0
4.931325674057007,1.7613240326643456,[1.60116124],0.005,0.1,-5.0,-0.5257245727044315,0
4.938605070114136,1.7583930519132955,[1.59162579],0.005,0.1,-5.0,-0.5922500777133356,0
4.946643352508545,1.755071273728772,[1.58214767],0.005,0.1,-5.0,-0.4519816857427355,0
4.954608917236328,1.7517494955442485,[1.57274168],0.005,0.1,-5.0,-0.5418463538619258,0
4.966506719589233,1.7470599263425688,[1.56340286],0.005,0.1,-5.0,-0.6129543266269243,0
4.977313995361328,1.7429565532910987,[1.55409313],0.005,0.1,-3.972414649737086,-0.9183803341583406,0
4.98501181602478,1.7394393763898388,[1.54477991],0.005,0.1,-1.9876467833144273,-0.6567496907632534,0
4.99513840675354,1.7349452059048949,[1.53546874],0.005,0.1,-0.04792027990887737,-0.7120566509702438,0
5.003687381744385,1.731428029003635,[1.52616422],0.005,0.1,2.3374449913530757,-0.7638269603810295,0
5.0119407176971436,1.727910852102375,[1.51687015],0.005,0.1,4.66107556410748,-0.5697007423781972,0
5.02269172668457,1.7234166816174314,[1.50760614],0.005,0.1,5.0,-0.6634760931196401,0
5.031984090805054,1.719508707282698,[1.49838838],0.005,0.1,5.0,-0.511930407484802,0
5.04398250579834,1.7142329419308078,[1.48921336],0.005,0.1,5.0,-0.8851115189851663,0
5.052103757858276,1.7109111637462844,[1.48006092],0.005,0.1,5.0,-0.6556523269411317,0
5.061611890792847,1.7066123919780778,[1.47093023],0.005,0.1,5.0,-0.750739845634242,0
5.072136640548706,1.702313620209871,[1.4618036],0.005,0.1,5.0,-1.1364418986486118,0
5.0819618701934814,1.698210247158401,[1.45263276],0.005,0.1,5.0,-1.1178762488657803,0
5.092636585235596,1.6939114753901945,[1.44337735],0.005,0.1,5.0,-1.4680685236956539,0
5.100648403167725,1.690589697205671,[1.43402081],0.005,0.1,5.0,-1.0179213829941742,0
5.109699726104736,1.6866817228709376,[1.42458358],0.005,0.1,5.0,-1.0505902925954007,0
5.120677709579468,1.6819921536692575,[1.41508388],0.005,0.1,5.0,-1.0824280085389153,0
5.131916046142578,1.677302584467577,[1.4055211],0.005,0.1,5.0,-1.1123026645365777,0
5.140013217926025,1.6739808062830537,[1.39589542],0.005,0.1,5.0,-1.1461718131338114,0
5.148646831512451,1.6700728319483205,[1.38622437],0.005,0.1,5.0,-0.8419738894980242,0
5.160708665847778,1.6651878640299036,[1.37652331],0.005,0.1,5.0,-1.3121060790877799,0
5.168591499328613,1.6618660858453804,[1.36677209],0.005,0.1,5.0,-1.3148966625711345,0
5.178438901901245,1.6575673140771736,[1.35695424],0.005,0.1,5.0,-1.318811962610267,0
5.187643051147461,1.6538547384591769,[1.34709],0.005,0.1,4.852266069569669,-0.9606601591937386,0
5.197599649429321,1.6495559666909703,[1.33721373],0.005,0.1,4.584767908428052,-1.0735030169612958,0
5.206724405288696,1.6458433910729737,[1.32733776],0.005,0.1,4.274513100713224,-1.1704721566059608,0
5.215943336486816,1.6417400180215034,[1.3174556],0.005,0.1,4.234183268737697,-1.24864167031463,0
5.224983215332031,1.63841823983698,[1.30756178],0.005,0.1,3.9615833881220786,-1.315792664895344,0
5.234948396682739,1.6341194680687734,[1.29765176],0.005,0.1,3.6184475285038644,-1.369704229256396,0
5.244472503662109,1.63021149373404,[1.28772182],0.005,0.1,3.274373526632168,-1.417309455673914,0
5.252645969390869,1.6268897155495166,[1.27778579],0.005,0.1,2.9560790209909147,-1.0507670845352217,0
5.261606931686401,1.6231771399315198,[1.26788906],0.005,0.1,2.6710885209558333,-0.8236426093111626,0
5.272785425186157,1.6184875707298394,[1.25805269],0.005,0.1,2.4189170434811587,-1.4408195890010913,0
5.281602621078491,1.6145795963951064,[1.24825989],0.005,0.1,2.1961988674693083,-1.0770105229701246,0
5.289639472961426,1.6114532169273195,[1.23852955],0.005,0.1,1.9989267215611846,-0.8526435032804184,0
5.298675537109375,1.6077406413093227,[1.22889365],0.005,0.1,1.8233427844101442,-1.070146989695995,0
5.30962061882019,1.6028556733909058,[1.21934423],0.005,0.1,1.6662232851247496,-1.2459614709963458,0
5.318580150604248,1.5991430977729093,[1.20985651],0.005,0.1,1.5249073602747774,-1.3883626199927408,0
5.328697443008423,1.5946489272879658,[1.20040877],0.005,0.1,1.3972313237912455,-1.4977189085758718,0
5.337712049484253,1.5907409529532324,[1.19098205],0.005,0.1,1.2814390024080775,-1.5879149098167409,0
5.347680568695068,1.586832978618499,[1.18155995],0.005,0.1,1.1760965103210945,-1.6603168577981906,0
5.357701301574707,1.5825342068502923,[1.17212849],0.005,0.1,1.0800207786402,-1.7182819833422907,0
5.366874933242798,1.5786262325155591,[1.16265908],0.005,0.1,0.9922230834857803,-2.3510436436238216,0
5.376087188720703,1.5747182581808254,[1.15311114],0.005,0.1,0.9118658011703288,-2.224436264536829,0
5.386648416519165,1.5704194864126186,[1.14346828],0.005,0.1,0.8382298258149676,-2.1381649101899014,0
5.396503448486328,1.5663161133611485,[1.13373485],0.005,0.1,0.7706901887084705,-2.086905178902422,0
5.405679941177368,1.5624081390264153,[1.12391582],0.005,0.1,0.708697821303791,-2.060053920512301,0
5.415724277496338,1.5583047659749452,[1.11401659],0.005,0.1,0.6517658506943731,-2.0488061068601744,0
5.424149990081787,1.554787589073685,[1.10404288],0.005,0.1,0.5994592120604838,-2.050718287823232,0
5.4322509765625,1.5512704121724252,[1.09401751],0.005,0.1,0.8274250407972004,-1.5044121348367738,0
5.441492319107056,1.5473624378376918,[1.08397738],0.005,0.1,0.5403192767202704,-1.6660356324423442,0
5.452251434326172,1.5428682673527483,[1.07393719],0.005,0.1,0.41146508328995934,-1.7950578408992501,0
5.460355043411255,1.5393510904514882,[1.06389272],0.005,0.1,0.629150971038862,-1.9001460476382204,0
5.469710350036621,1.535247717400018,[1.05384064],0.005,0.1,0.6334742749240536,-1.9802847436161086,0
5.480502128601074,1.5303627494816012,[1.04377847],0.005,0.1,0.5606717077678791,-2.0407953768343914,0
5.489670515060425,1.5266501738636047,[1.03370442],0.005,0.1,0.1941006777240968,-2.0949108854751377,0
5.499216079711914,1.5229375982456077,[1.02361732],0.005,0.1,0.07629384988483735,-2.1413926805840244,0
5.506953001022339,1.5198112187778212,[1.01353319],0.005,0.1,0.33609522592497176,-1.594099766836974,0
5.516437768936157,1.515707845726351,[1.0034823],0.005,0.1,0.38805267977686614,-1.7847059555271034,0
5.527628183364868,1.5108228778079342,[0.99347336],0.005,0.1,0.35855584229494153,-1.9347418383093904,0
5.536715269088745,1.506914903473201,[0.98349667],0.005,0.1,0.30413245201756695,-2.0542266283042814,0
5.5466930866241455,1.503202327855204,[0.97354379],0.005,0.1,0.24837356646850783,-2.1494177832062134,0
5.556581974029541,1.4989035560869972,[0.9636074],0.005,0.1,0.19979835689867215,-2.2220789528380145,0
5.565651178359985,1.4953863791857371,[0.95368123],0.005,0.1,0.16036800052968767,-2.2853965185491867,0
5.573659896850586,1.4918692022844773,[0.94375999],0.005,0.1,-0.1465887210836183,-2.3381144311200615,0
5.58566689491272,1.486593436932587,[0.93383922],0.005,0.1,-0.20356973086737765,-2.3758748343493763,0
5.596146821975708,1.4820992664476438,[0.92391524],0.005,0.1,0.10924902686603942,-2.413511116571276,0
5.6053009033203125,1.4783866908296472,[0.91398504],0.005,0.1,0.20435839776958584,-2.4520815448203543,0
5.613583326339722,1.4746741152116503,[0.90406273],0.005,0.1,-0.06719609480974138,-1.8286737798808894,0
5.625218629837036,1.4699845460099703,[0.89416013],0.005,0.1,-0.128376285024075,-2.733823571969069,0
5.633582353591919,1.4664673691087102,[0.88427048],0.005,0.1,0.16738716136283793,-2.0152431067127745,0
5.644174575805664,1.4621685973405036,[0.87438788],0.005,0.1,0.24384439830677168,-2.924066058154566,0
5.652318716049194,1.4588468191559802,[0.86450725],0.005,0.1,-0.04380633166765896,-2.139196114301438,0
5.661630868911743,1.4549388448212468,[0.85464078],0.005,0.1,-0.11748215263597606,-2.3011085561984146,0
5.673702001571655,1.4500538769028297,[0.84478197],0.005,0.1,-0.10684986108864275,-3.2167109755800123,0
5.684878587722778,1.445168908984413,[0.83489213],0.005,0.1,-0.06980829437223277,-3.093032231595893,0
5.694368839263916,1.4412609346496796,[0.8249554],0.005,0.1,-0.030463139195057966,-3.015005474331107,0
5.704462766647339,1.4369621628814728,[0.81497542],0.005,0.1,0.00251374965321049,-2.9706374516566454,0
5.712696075439453,1.4336403846969494,[0.80497232],0.005,0.1,0.027144282866518345,-2.1994464775371134,0
5.720653057098389,1.4303186065124263,[0.79497986],0.005,0.1,0.044081756860452154,-2.4061005612802933,0
5.7296693325042725,1.4262152334609561,[0.78502641],0.005,0.1,-0.2212433950340053,-1.871645091044919,0
5.740528106689453,1.4213302655425393,[0.77511877],0.005,0.1,-0.24835205318558973,-2.9345101126543556,0
5.751579761505127,1.4170314937743325,[0.76522884],0.005,0.1,-0.1906241306649109,-2.977709674252965,0
5.761552095413208,1.4129281207228626,[0.75531583],0.005,0.1,0.16177871479986633,-3.931839974677201,0
5.7696685791015625,1.4096063425383392,[0.74537861],0.005,0.1,0.2641306405581574,-3.989842435317717,0
5.778580904006958,1.406089165637079,[0.73546642],0.005,0.1,0.2633497365901434,-3.7462305851014173,0
5.7876081466674805,1.4021811913023456,[0.72560381],0.005,0.1,0.22634823636514007,-3.5903122101919696,0
5.800415992736816,1.3969054259504556,[0.71576075],0.005,0.1,0.18199781035176849,-4.493334445509544,0
5.808565139770508,1.3931928503324589,[0.70591139],0.005,0.1,0.14152363745280838,-3.173356745987571,0
5.817564010620117,1.3894802747144621,[0.69606726],0.005,0.1,0.1082894272580542,-3.2192419227782656,0
5.828552722930908,1.3849861042295188,[0.68623788],0.005,0.1,0.0824015118640309,-3.2707555411716474,0
5.83758020401001,1.3812735286115219,[0.6764142],0.005,0.1,0.06280898917825903,-3.324143400693368,0
5.846583127975464,1.3775609529935253,[0.66658831],0.005,0.1,0.048212454384745,-3.3749210596769985,0
5.856167316436768,1.3732621812253185,[0.65675341],0.005,0.1,0.03741941985073202,-3.422826368467506,0
5.864755153656006,1.3697450043240584,[0.6469036],0.005,0.1,0.029452755923458772,-3.4752433395505062,0
5.873058557510376,1.366423226139535,[0.63703387],0.005,0.1,0.023556416406699435,-3.5294912399987752,0
5.883599758148193,1.3621244543713285,[0.62713999],0.005,0.1,0.01916434886137284,-3.576688324285228,0
5.895616054534912,1.3572394864529114,[0.61721851],0.005,0.1,0.015861177538143145,-3.621910485623985,0
5.905166387557983,1.3535269108349148,[0.60726657],0.005,0.1,0.013345899219384576,-3.675913983843267,0
5.912543058395386,1.3502051326503914,[0.59729893],0.005,0.1,0.011402074538027203,-2.789493984065974,0
5.922051906585693,1.3464925570323945,[0.58734509],0.005,0.1,0.009874759722917917,-3.090300168589377,0
5.930697202682495,1.3429753801311346,[0.57741259],0.005,0.1,0.008653253782899625,-3.3410990050403457,0
5.941470623016357,1.3380904122127177,[0.56749022],0.005,0.1,0.0076584653839026256,-3.5311835642493836,0
5.951836347579956,1.3337916404445112,[0.55756814],0.005,0.1,0.006833788244283771,-3.680552858380396,0
5.961544036865234,1.3296882673930412,[0.54763814],0.005,0.1,0.0061385701277941775,-3.793245940340699,0
5.969584703445435,1.3261710904917812,[0.53769387],0.005,0.1,0.005543466417368352,-3.875364917904892,0
5.979546546936035,1.3220677174403108,[0.52773099],0.005,0.1,0.0050271476537141774,-3.92347237787864,0
5.990586519241333,1.3175735469553675,[0.51774734],0.005,0.1,0.004573972436043633,-3.9405455557342135,0
6.001114368438721,1.313079376470424,[0.50774304],0.005,0.1,0.004172345062454576,-3.9281939056266904,0
6.00857949256897,1.3099529970026373,[0.49773654],0.005,0.1,0.2798519168334654,-2.974508326249041,0
6.017460823059082,1.306435820101377,[0.48776153],0.005,0.1,0.3126539334118773,-3.1972919441379806,0
6.02961277961731,1.301355453466224,[0.47783237],0.005,0.1,-0.01877321281123151,-3.3245126677187544,0
6.037553310394287,1.2980336752817005,[0.46794751],0.005,0.1,-0.1282473534416248,-3.384086078895992,0
6.047639608383179,1.2941257009469669,[0.45810852],0.005,0.1,0.13212478836861025,-3.3786684205280553,0
6.057581663131714,1.2896315304620236,[0.44832006],0.005,0.1,0.18449286904165657,-3.31740077732467,0
6.067888498306274,1.2849419612603434,[0.43857666],0.005,0.1,-0.11831856740658361,-4.006186112780004,0
6.07853364944458,1.2806431894921368,[0.42886515],0.005,0.1,-0.20050545295506705,-3.6010651420455786,0
6.0875608921051025,1.27693061387414,[0.41920433],0.005,0.1,0.08240870025452698,-2.6394113454190573,0
6.099704265594482,1.27224104467246,[0.4096275],0.005,0.1,0.152104434752585,-3.1859007290503065,0
6.109785318374634,1.2679422729042533,[0.40014252],0.005,0.1,0.1380763956539331,-2.895682742939523,0
6.118334770202637,1.2644250960029932,[0.39075913],0.005,0.1,0.09809771213798049,-2.657223708205871,0
6.127566576004028,1.2607125203849965,[0.38150018],0.005,0.1,0.05618169844212231,-2.4606464107776116,0
6.135555982589722,1.257390742200473,[0.37239647],0.005,0.1,0.020931726649182136,-1.9067898643146344,0
6.143680095672607,1.253873565299213,[0.36349365],0.005,0.1,-0.0057254657301432955,-1.5793414971711166,0
6.1528918743133545,1.2499655909644793,[0.35482961],0.005,0.1,-0.024482210997444555,-1.6625059864837723,0
6.16159987449646,1.2462530153464826,[0.34641671],0.005,0.1,-0.036837444161947425,-1.7047605284837648,0
6.171120882034302,1.242540439728486,[0.33825563],0.005,0.1,-0.04434184679816368,-1.7139835527982337,0
6.181295871734619,1.2382416679602795,[0.33034653],0.005,0.1,-0.04832634334171933,-1.6989797787032794,0
6.189569473266602,1.2347244910590192,[0.32269662],0.005,0.1,-0.049840459660141986,-1.4350104371426058,0
6.1998536586761475,1.2302303205740757,[0.31531126],0.005,0.1,-0.049673345929643106,-1.7063403608723036,0
6.2086780071258545,1.2265177449560791,[0.30818593],0.005,0.1,-0.04840054758103396,-1.4301358815420562,0
6.217664003372192,1.2226097706213457,[0.30132252],0.005,0.1,0.22960561577810645,-1.4422125761282227,0
6.228821039199829,1.2177248027029288,[0.29472167],0.005,0.1,0.2651051245642543,-1.4356009896031476,0
6.237584590911865,1.214207625801669,[0.28837553],0.005,0.1,0.21259132241385595,-1.4212332556214415,0
6.248583555221558,1.209908854033462,[0.28227639],0.005,0.1,0.1391637606815126,-1.3960820964902154,0
6.258558988571167,1.2060008796987287,[0.27641664],0.005,0.1,0.0712832399646699,-1.367910918158902,0
6.268573522567749,1.201702107930522,[0.27078883],0.005,0.1,0.01723076651149915,-1.336058522500904,0
6.279640197753906,1.1970125387288422,[0.26538046],0.005,0.1,-0.02230587496484124,-1.4353501162766165,0
6.2895729541778564,1.1929091656773718,[0.26017511],0.005,0.1,-0.04938878616458302,-1.3539933031560927,0
6.300572872161865,1.1884149951924285,[0.25515906],0.005,0.1,-0.06672317765326075,-1.4047853616088968,0
6.311570644378662,1.1837254259907481,[0.25032535],0.005,0.1,-0.07682433328034122,-1.2073796838017012,0
6.323857307434082,1.1786450593555948,[0.24567237],0.005,0.1,-0.08175527539145466,-1.2618677095133692,0
6.331549406051636,1.175127882454335,[0.24119796],0.005,0.1,-0.08310346644465436,-1.123233459376367,0
6.340544939041138,1.1712199081196015,[0.2369033],0.005,0.1,-0.08204461375971875,-1.1053718701593667,0
6.3500635623931885,1.167311933784868,[0.23278846],0.005,0.1,0.1966110200424951,-1.0882777533602273,0
6.3575966358184814,1.164380953033818,[0.22885195],0.005,0.1,0.2333105550228722,-1.0212520671419247,0
6.367609739303589,1.1604729786990846,[0.22509497],0.005,0.1,-0.09371077180247485,-1.0226252419340591,0
6.377696514129639,1.1563696056476145,[0.22151349],0.005,0.1,-0.1985532750922029,-1.0186219653536572,0
6.38554048538208,1.153047827463091,[0.21810253],0.005,0.1,0.0664868774012297,-0.974733843340909,0
6.3978235721588135,1.1481628595446745,[0.21485679],0.005,0.1,0.1234354138757166,-1.0141842876090734,0
6.405614137649536,1.144841081360151,[0.21176718],0.005,0.1,0.10107700309545181,-0.9665309068381717,0
6.417673349380493,1.1397607147249975,[0.20882502],0.005,0.1,0.05621692931019521,-0.9945711222279047,0
6.428223609924316,1.1352665442400542,[0.20601933],0.005,0.1,0.011960130904870987,-0.9757319505813745,0
6.438258409500122,1.1307723737551107,[0.20334],0.005,0.1,-0.02383714270196191,-0.9580678960726164,0
6.445520639419556,1.1280367917207974,[0.20078333],0.005,0.1,-0.04982292162595879,-0.922590037136098,0
6.458672285079956,1.1225656276521707,[0.19834545],0.005,0.1,-0.06711422620702488,-0.9368139623608651,0
6.467497110366821,1.119243849467647,[0.19601724],0.005,0.1,-0.07751519146486033,-0.9239120694317822,0
6.4760918617248535,1.1153358751329137,[0.19379031],0.005,0.1,0.19324725791477787,-0.9103718453188493,0
6.487566709518433,1.110450907214497,[0.19165745],0.005,0.1,-0.051296225026885495,-0.9147219727078851,0
6.496539115905762,1.1067383315965003,[0.18960998],0.005,0.1,-0.13865104203806616,-0.8960097238073074,0
6.504776239395142,1.1038073508454502,[0.18764444],0.005,0.1,-0.15712988088302032,-0.8682240917763862,0
6.5131988525390625,1.1002901739441902,[0.18576156],0.005,0.1,0.128004242871351,-0.8612669457868405,0
6.5212132930755615,1.0971637944764034,[0.18396125],0.005,0.1,0.17915184647617222,-0.8445065684350064,0
6.531811714172363,1.0928650227081966,[0.18224268],0.005,0.1,0.14308792375033452,-0.8382699580199846,0
6.539533615112305,1.0893478458069366,[0.18060266],0.005,0.1,-0.1919613798999063,-0.832913978483133,0
6.548177003860474,1.0858306689056765,[0.17903778],0.005,0.1,-0.2812827122766974,-0.8190894714441437,0
6.559189558029175,1.0811410997039963,[0.17754473],0.005,0.1,0.004905167474199473,-0.8192641634333643,0
6.568538427352905,1.0774285240859998,[0.1761185],0.005,0.1,0.08153409468918449,-0.803753596585834,0
6.577516078948975,1.073715948468003,[0.174756],0.005,0.1,-0.20089122579828436,-0.7974684362417155,0
6.585492372512817,1.0703941702834796,[0.17345429],0.005,0.1,-0.2668221487650352,-0.7916881607952332,0
6.594662666320801,1.0666815946654828,[0.17220899],0.005,0.1,0.028725225097418094,-0.7843708835010262,0
6.6037516593933105,1.0627736203307494,[0.17101612],0.005,0.1,0.10813154712523014,-0.7760742815196799,0
6.613380193710327,1.0586702472792793,[0.16987216],0.005,0.1,-0.17448268896727248,-0.7670149844865634,0
6.6235435009002686,1.054762272944546,[0.16877397],0.005,0.1,-0.2418386879706571,-0.7583836004412132,0
6.63684344291687,1.0494865075926558,[0.16771761],0.005,0.1,0.0518565291137382,-0.750062056373164,0
6.6455371379852295,1.045773931974659,[0.16669967],0.005,0.1,0.12934750850423565,-0.7371448595678062,0
6.653524398803711,1.0424521537901357,[0.16571952],0.005,0.1,-0.1550930925076638,-0.7302938626033442,0
6.663131952285767,1.0385441794554024,[0.16477658],0.005,0.1,-0.22413247142805573,-0.7219149033697594,0
6.67152214050293,1.0350270025541424,[0.16387014],0.005,0.1,-0.20800558518295448,-0.7129110533827031,0
6.679832696914673,1.0320960218030921,[0.16300044],0.005,0.1,-0.16502320291897152,-0.7076224379709708,0
6.690553426742554,1.0272110538846755,[0.16211082],0.005,0.1,-0.11957972513195447,-1.7604595382052173,0
6.701910972595215,1.0223260859662586,[0.16110281],0.005,0.1,-0.3565814383432399,-1.0932445863109088,0
6.7097883224487305,1.0190043077817355,[0.15995742],0.005,0.1,-0.3591828406069759,-0.8666431627909797,0
6.717498779296875,1.0162687257474219,[0.15871282],0.005,0.1,-0.005464522549590983,-0.7632765254899171,0
6.725550651550293,1.0127515488461618,[0.15739842],0.005,0.1,0.11980947961219703,-0.756666489000698,0
6.735030889511108,1.009038973228165,[0.15603555],0.005,0.1,0.14628463788958007,-0.7461797937794362,0
6.743618011474609,1.005521796326905,[0.15463586],0.005,0.1,0.13416087270882032,-0.7069153254932932,0
6.753607749938965,1.001418423275435,[0.15320962],0.005,0.1,0.1103018390863371,-0.6911398878854638,0
6.762590169906616,0.9977058476574382,[0.15176731],0.005,0.1,0.0858736433448214,-0.6749896906038644,0
6.7710280418396,0.9943840694729149,[0.15031903],0.005,0.1,0.06487305087175399,-0.6601209937832897,0
6.779239177703857,0.9908668925716548,[0.14887675],0.005,0.1,0.04818778261056203,-0.6467159961079483,0
6.786523103713989,0.9879359118206047,[0.14745384],0.005,0.1,0.03548399632389036,-0.6376550073201458,0
6.795541048049927,0.9846141336360814,[0.14606427],0.005,0.1,0.026050158671621804,-0.6312015631279086,0
6.803503513336182,0.981292355451558,[0.14472129],0.005,0.1,0.019149071729499277,-0.6270173122164135,0
6.814552307128906,0.976602786249878,[0.14343729],0.005,0.1,0.014144948174209799,-0.6221401860322593,0
6.823503494262695,0.9730856093486179,[0.14222479],0.005,0.1,0.010532690927004958,-0.6228897941933232,0
6.833225727081299,0.9689822362971477,[0.14109662],0.005,0.1,0.007928551216804929,-0.6253657432747971,0
6.843515634536743,0.9650742619624143,[0.1400654],0.005,0.1,0.006048669283783525,-0.6312591013043457,0
6.852985858917236,0.9609708889109442,[0.13914336],0.005,0.1,0.004686591890975558,-0.6395084835143893,0
6.861833810806274,0.9572583132929476,[0.13834211],0.005,0.1,0.0036938031620281503,-0.6509712731750521,0
6.871519565582275,0.9535457376749508,[0.13767247],0.005,0.1,0.0029642296033728665,-0.6644707536521784,0
6.881523609161377,0.949833162056954,[0.13714754],0.005,0.1,0.0024224595504989763,-0.7181095285041376,0
6.893524885177612,0.9449481941385374,[0.13678228],0.005,0.1,0.27805338870067653,-0.725490165401176,0
6.9025232791900635,0.9412356185205405,[0.1365831],0.005,0.1,0.3108670501124917,-0.6874559675163271,0
6.9116668701171875,0.9371322454690706,[0.13654835],0.005,0.1,-0.020509808635733706,-0.7078097005033713,0
6.919583082199097,0.9340058660012838,[0.13667554],0.005,0.1,-0.1299099343309308,-0.6750935877028543,0
6.927552938461304,0.9310748852502336,[0.13696139],0.005,0.1,0.1305497507897123,-0.704100290704969,0
6.93733286857605,0.9269715121987636,[0.13740617],0.005,0.1,0.18301199813190067,-0.7271244729823511,0
6.9468302726745605,0.9232589365807669,[0.13801319],0.005,0.1,0.15633509953684488,-0.746923988790605,0
6.954496622085571,0.9201325571129801,[0.1387798],0.005,0.1,-0.16867037419011163,-0.6935055494329524,0
6.964545726776123,0.9158337853447734,[0.13969804],0.005,0.1,-0.24992420493242395,-0.719582601852529,0
6.975352764129639,0.9113396148598301,[0.14076907],0.005,0.1,0.041785671345283965,-0.823187832621119,0
6.985501289367676,0.9070408430916233,[0.14200182],0.005,0.1,0.12162519705575078,-0.8152067556695273,0
6.993908166885376,0.9037190649070999,[0.14339794],0.005,0.1,0.11661345763399159,-0.8099696813897022,0
7.001531362533569,0.900592685439313,[0.14494779],0.005,0.1,-0.19220587984059118,-0.717820433519294,0
7.012967824935913,0.8962939136711063,[0.14664183],0.005,0.1,-0.2618307595311722,-0.8279796630458783,0
7.021499156951904,0.8927767367698464,[0.14847542],0.005,0.1,0.037974032118972906,-0.7216183059169906,0
7.029571533203125,0.8896503573020595,[0.1504383],0.005,0.1,0.12327821946316683,-0.7365442587392602,0
7.0385658740997314,0.8859377816840628,[0.15252063],0.005,0.1,0.12182607799196957,-0.7461821334906027,0
7.047488689422607,0.8822252060660662,[0.15471285],0.005,0.1,0.09125239258569356,-0.6605833660660668,0
7.0586912631988525,0.877535636864386,[0.15700606],0.005,0.1,0.056015541548563044,-0.78234375268716,0
7.0671656131744385,0.8742138586798627,[0.15939713],0.005,0.1,0.025299966376789274,-0.6771282585606311,0
7.076546907424927,0.8705012830618659,[0.16187729],0.005,0.1,0.00157260171978936,-0.6963842308368497,0
7.084617853164673,0.8669841061606058,[0.16443865],0.005,0.1,-0.015415231087357515,-0.7107498985304802,0
7.095109939575195,0.8626853343923993,[0.16707942],0.005,0.1,-0.026820263632378903,-0.7195679888921498,0
7.104591608047485,0.8589727587744024,[0.1697979],0.005,0.1,-0.03393883514584993,-0.7269154024320974,0
7.112889289855957,0.8556509805898791,[0.17259249],0.005,0.1,-0.037917371597855354,-0.732834689723642,0
7.12354302406311,0.8511568101049355,[0.17546169],0.005,0.1,-0.039673886375036924,-0.734594577125655,0
7.131494760513306,0.8480304306371489,[0.17839803],0.005,0.1,-0.039905085728693585,-0.6267055691514478,0
7.141540765762329,0.8439270575856788,[0.181389],0.005,0.1,-0.03912234461007281,-0.6549956270703958,0
7.15224027633667,0.839628285817472,[0.18442986],0.005,0.1,-0.03769236733662577,-0.6754948282186867,0
7.161546468734741,0.8359157101994752,[0.18752261],0.005,0.1,-0.03587336729523677,-0.6905991106389785,0
7.171433687210083,0.8320077358647419,[0.19066894],0.005,0.1,-0.03384423152285487,-0.6997367202327813,0
7.182540655136108,0.8275135653797985,[0.19387021],0.005,0.1,0.2443115226150782,-0.7031588460609984,0
7.191559314727783,0.8239963884785384,[0.19713386],0.005,0.1,0.2795603566304908,-0.8418327899172977,0
7.200624942779541,0.8202838128605418,[0.20046586],0.005,0.1,0.22654115962388083,-0.6679708079058524,0
7.209749460220337,0.8163758385258082,[0.2038578],0.005,0.1,0.15245481014398232,-0.6730062445021444,0
7.218562364578247,0.8130540603412848,[0.20730201],0.005,0.1,0.08383178624719431,-0.6753812312797258,0
7.228280305862427,0.8093414847232882,[0.21079792],0.005,0.1,0.029000346293551353,-0.6717942932323056,0
7.236553907394409,0.8060197065387646,[0.21433784],0.005,0.1,-0.011320234194729304,-0.5497400504347019,0
7.244493007659912,0.8025025296375047,[0.21789513],0.005,0.1,-0.03917156483205655,-0.536607941286581,0
7.256688117980957,0.7972267642856145,[0.22144689],0.005,0.1,-0.05724598541834326,-0.6736061720440388,0
7.266153573989868,0.7935141886676178,[0.22499952],0.005,0.1,-0.06805114923170705,-0.6506843571245748,0
7.276464223861694,0.7896062143328845,[0.22856454],0.005,0.1,-0.07364601744891006,-0.6268551025820925,0
7.285490989685059,0.7858936387148877,[0.23214458],0.005,0.1,-0.07561639331350703,-0.6046387140519036,0
7.296961545944214,0.7812040695132076,[0.23574733],0.005,0.1,-0.07513791450651605,-0.6964470642788938,0
7.304502725601196,0.7780776900454209,[0.23937845],0.005,0.1,-0.07306016049451387,-0.5315931597201076,0
7.316489219665527,0.7733881208437408,[0.24303558],0.005,0.1,0.20605286847576218,-0.6229953457768096,0
7.3245484828948975,0.7700663426592175,[0.2467159],0.005,0.1,0.24282878637798078,-0.47845485860994347,0
7.333510160446167,0.7663537670412206,[0.25041021],0.005,0.1,0.19167078467825444,-0.47098563257606957,0
7.345558404922485,0.7616641978395406,[0.25410997],0.005,0.1,-0.15642032790510232,-0.4606075050025875,0
7.354488849639893,0.7579516222215439,[0.25781346],0.005,0.1,-0.2560711871886693,-0.44968527313415435,0
7.363513946533203,0.7542390466035471,[0.26151877],0.005,0.1,-0.25371776739950225,-0.4373395269306072,0
7.375404357910156,0.7495494774018672,[0.26522954],0.005,0.1,-0.21592150630013918,-0.509071007708737,0
7.386473178863525,0.7450553069169236,[0.26895405],0.005,0.1,-0.1713028818321336,-0.4667418746448959,0
7.39456844329834,0.7417335287324003,[0.27269301],0.005,0.1,-0.13090936042635065,-0.4347993002469685,0
7.403487205505371,0.7376301556809302,[0.27643521],0.005,0.1,-0.09798017894861258,-0.3359813852919066,0
7.4145355224609375,0.7329405864792501,[0.28016528],0.005,0.1,-0.07253529726104523,-0.33587948025117376,0
7.423553228378296,0.7292280108612532,[0.28387586],0.005,0.1,-0.05346446405947804,-0.3343270106604259,0
7.433530807495117,0.7253200365265199,[0.28756637],0.005,0.1,-0.039427959209970276,-0.32983841147045456,0
7.442511320114136,0.7219982583419965,[0.29123093],0.005,0.1,-0.029206308500709162,-0.26328456616898116,0
7.45187520980835,0.7178948852905265,[0.29485925],0.005,0.1,-0.02180467875730194,-0.27362624663688645,0
7.459458827972412,0.7151593032562131,[0.29844307],0.005,0.1,-0.016455749271166005,-0.22551195876616215,0
7.4684576988220215,0.7112513289214797,[0.30197599],0.005,0.1,-0.012586616878870017,-0.2426774232357875,0
7.477452516555786,0.7077341520202196,[0.30545882],0.005,0.1,-0.009778074902880206,-0.2535445170246044,0
7.487719297409058,0.7036307789687495,[0.30889841],0.005,0.1,-0.007727329117524507,-0.2591327513289486,0
7.496993780136108,0.6999182033507527,[0.31230113],0.005,0.1,-0.00621750745526369,-0.26143461990640027,0
7.504542112350464,0.6969872225997028,[0.3156674],0.005,0.1,-0.005094119387139042,-0.20893519786741302,0
7.512900352478027,0.6936654444151793,[0.31899256],0.005,0.1,-0.004247477236517671,-0.22188226235279945,0
7.523007869720459,0.6895620713637093,[0.32227882],0.005,0.1,-0.0035998395531488445,-0.22934607044620797,0
7.532733678817749,0.6852632995955026,[0.32553408],0.005,0.1,-0.0030961343935175614,-0.23223946318117986,0
7.5414955615997314,0.681355325260769,[0.3287654],0.005,0.1,-0.0026973258740608987,-0.232343081994136,0
7.550468444824219,0.6778381483595091,[0.33197347],0.005,0.1,-0.0023756997809551575,-0.18250687227149853,0
7.559482097625732,0.6741255727415123,[0.33515349],0.005,0.1,-0.0021115269893830983,-0.1924814039943263,0
7.568587303161621,0.6706083958402522,[0.33830716],0.005,0.1,-0.001890708667560876,-0.19808382447084502,0
7.5792200565338135,0.6661142253553088,[0.34144698],0.005,0.1,-0.0017031174620170185,-0.24765311235337184,0
7.587465524673462,0.662987845887522,[0.34458879],0.005,0.1,-0.0015414303074838753,-0.23129365338514843,0
7.596454381942749,0.6594706689862622,[0.34774014],0.005,0.1,-0.2774386673317974,-0.21699851051289043,0
7.606761932373047,0.6551718972180554,[0.35090676],0.005,0.1,-0.3104387792203653,-0.2513830046036733,0
7.616985082626343,0.6510685241665852,[0.35409297],0.005,0.1,-0.2552307302057075,-0.1811613310787038,0
7.6254613399505615,0.6475513472653252,[0.35728612],0.005,0.1,-0.17904641393052098,-0.13813275951827525,0
7.634458780288696,0.6440341703640652,[0.36047],0.005,0.1,-0.10843420272264001,-0.14392274664619753,0
7.644481420516968,0.6397353985958584,[0.36364142],0.005,0.1,-0.05173131904320703,-0.1458893985238277,0
7.654482126235962,0.6358274242611249,[0.36680292],0.005,0.1,-0.009660010898461475,-0.1458351522708911,0
7.663495779037476,0.632310247359865,[0.3699567],0.005,0.1,0.019822301507317903,-0.14464765936568522,0
7.675561428070068,0.6270344820079748,[0.37310998],0.005,0.1,-0.2366269093686922,-0.1773858860787032,0
7.684468030929565,0.6233219063899781,[0.37626894],0.005,0.1,-0.2575428380839024,-0.12916781123299273,0
7.695976495742798,0.618632337188298,[0.37943371],0.005,0.1,-0.19555250943040497,-0.16171689440547285,0
7.705577611923218,0.6149197615703013,[0.38260978],0.005,0.1,-0.11629789823527997,-0.15004596334281006,0
7.714349746704102,0.6114025846690411,[0.38580187],0.005,0.1,-0.04514698940991803,-0.14093886237723957,0
7.7244932651519775,0.6074946103343077,[0.3890034],0.005,0.1,0.010417618448503897,-0.10368966898469478,0
7.734606742858887,0.6033912372828377,[0.39220898],0.005,0.1,0.05028115048108879,-0.13627010449715446,0
7.74326229095459,0.5994832629481043,[0.39541961],0.005,0.1,0.3529498508844098,-0.09944472107999863,0
7.752447128295898,0.5957706873301075,[0.39863089],0.005,0.1,0.40246100453721084,-0.10143062270384705,0
7.761600017547607,0.5920581117121109,[0.40183943],0.005,0.1,0.35621877688789566,-0.10218415507976931,0
7.77110743522644,0.5883455360941141,[0.40504822],0.005,0.1,0.2836553583900142,-0.10175762634131291,0
7.779790639877319,0.5850237579095907,[0.40826018],0.005,0.1,0.21299970165278842,-0.10083586945550636,0
7.788992881774902,0.581311182291594,[0.41147816],0.005,0.1,0.4298652822414396,-0.09895347601259633,0
7.797644376754761,0.5779894041070706,[0.41470496],0.005,0.1,0.41691149787153914,-0.09695529219823731,0
7.8077332973480225,0.5736906323388637,[0.41793745],0.005,0.1,0.6034525187194973,-0.0709902000645761,0
7.817492723464966,0.5699780567208671,[0.42116755],0.005,0.1,0.535508282983147,-0.07499279036413685,0
7.827800750732422,0.5660700823861337,[0.42439456],0.005,0.1,0.6681414596995643,-0.07649298330607451,0
7.836514234542847,0.562943702918347,[0.42762395],0.005,0.1,0.8321425621332388,-0.0768308331205306,0
7.84747576713562,0.5588403298668769,[0.43086062],0.005,0.1,0.6890598567611105,-0.07533427659807836,0
7.857388734817505,0.5551277542488802,[0.4341089],0.005,0.1,0.7420515206937939,-0.07307635402337567,0
7.868579626083374,0.5512197799141467,[0.4373725],0.005,0.1,0.8392060971470617,-0.06989441356533467,0
7.876444578170776,0.5482887991630967,[0.44065447],0.005,0.1,0.9220512887401651,-0.06675741705765605,0
7.887587308883667,0.5443808248283633,[0.44395719],0.005,0.1,0.9734836565405773,-0.06255336012540245,0
7.898455619812012,0.5400820530601566,[0.4472823],0.005,0.1,0.9933471413193339,-0.057703688537825794,0
7.906961679458618,0.5371510723091065,[0.45063079],0.005,0.1,0.9873512179612062,-0.053521317522416026,0
7.916738271713257,0.5332430979743731,[0.45400295],0.005,0.1,0.9623195760055804,-0.048593543844650484,0
7.925451993942261,0.530312117223323,[0.4573927],0.005,0.1,0.9243666097210255,-0.033479550105813924,0
7.937037229537964,0.5262087441718529,[0.46079443],0.005,0.1,0.8783716412799598,-0.04215666631097945,0
7.945462226867676,0.5232777634208029,[0.46420903],0.005,0.1,0.8279857324530322,-0.02814376828091205,0
7.95731258392334,0.5191743903693328,[0.46763698],0.005,0.1,1.0518617943880912,-0.03342984533091185,0
7.966770172119141,0.5160480109015461,[0.47108432],0.005,0.1,1.0328530579295814,-0.027872965856343312,0
7.976474761962891,0.5129216314337594,[0.47455605],0.005,0.1,0.926852839620357,-0.022835019880909038,0
7.985577583312988,0.5097952519659726,[0.4780505],0.005,0.1,0.8018591715584029,-0.018203203285652357,0
7.994493246078491,0.5068642712149226,[0.48156033],0.005,0.1,0.9609144592278976,-0.01065806479146144,0
8.003883838653564,0.5039332904638726,[0.48507966],0.005,0.1,0.8936436727962078,-0.010402251260151374,0
8.013805866241455,0.5010023097128224,[0.48861607],0.005,0.1,1.0315919755311795,-0.005788733310858897,0
8.021552324295044,0.49865752511198247,[0.49217017],0.005,0.1,0.9209931840730533,-0.0015390823635108091,0
8.03047776222229,0.49611734179440575,[0.49573063],0.005,0.1,1.016362440131704,0.0019027715452117277,0
8.042455673217773,0.49279556360988236,[0.49929474],0.005,0.1,1.1477368995578507,0.006381153185139909,0
8.05346417427063,0.4894737854253589,[0.50286729],0.005,0.1,1.5280094040614567,0.011388621301327792,0
8.063457012176514,0.48712900082451893,[0.50645324],0.005,0.1,1.8978391903755987,0.016184354932161825,0
8.078628540039062,0.4834164252065221,[0.5100716],0.005,0.1,2.7233414111058725,0.03938382034367428,0
8.086483716964722,0.4818532354726288,[0.51374623],0.005,0.1,2.953967917488803,0.03116852012909614,0
8.096515655517578,0.47989924830526204,[0.51748433],0.005,0.1,3.741892871665228,0.04813550797519593,0
8.108518600463867,0.47774986242115874,[0.5212929],0.005,0.1,4.238621110599043,0.0516485898315055,0
8.11854863166809,0.4761866726872654,[0.52517054],0.005,0.1,4.496342188500092,0.04071620565902332,0
8.128531694412231,0.4750142803868453,[0.52910134],0.005,0.1,4.850218209164087,0.04775555623493396,0
8.141416311264038,0.4732556919362153,[0.5330873],0.005,0.1,5.0,0.07475744875258772,0
8.149553537368774,0.4724740970692687,[0.53713778],0.005,0.1,4.897146184411603,0.057025343381420374,0
8.161264896392822,0.47110630605211196,[0.54125321],0.005,0.1,4.603126788332078,0.08875130584662458,0
8.16942572593689,0.47052010990190196,[0.54543397],0.005,0.1,3.9721398794508973,0.06728523596472002,0
8.180437088012695,0.4695431163182186,[0.54968036],0.005,0.1,3.5809096252603307,0.10397049219702674,0
8.189451932907104,0.46915231888474523,[0.55399253],0.005,0.1,3.0222054869944666,0.07816842857099446,0
8.198125839233398,0.46876152145127187,[0.55836205],0.005,0.1,2.4794620784829746,0.088314923719787,0
8.205434322357178,0.46837072401779856,[0.56277332],0.005,0.1,2.0152257276277616,0.06962967987842651,0
8.214454412460327,0.4681753253010619,[0.56721294],0.005,0.1,1.640290847268863,0.08467160242924239,0
8.223505973815918,0.4681753253010619,[0.57167804],0.005,0.1,1.3456651775107007,0.0982001860094007,0
8.231812953948975,0.4679799265843252,[0.57617472],0.005,0.1,0.8406916090112508,0.11044872336735041,0
8.2408447265625,0.4679799265843252,[0.58070824],0.005,0.1,0.6298810555025205,0.12132550036999497,0
8.249545574188232,0.4679799265843252,[0.58527435],0.005,0.1,0.5462864253214612,0.09357800642389243,0
8.2590651512146,0.4681753253010619,[0.58986948],0.005,0.1,0.2369445054037459,0.1529308917776555,0
8.267462253570557,0.46837072401779856,[0.59449919],0.005,0.1,-0.08915641108964739,0.11479165936614884,0
8.277868509292603,0.46876152145127187,[0.59916803],0.005,0.1,-0.35762467341356763,0.1774298491076225,0
8.28903079032898,0.46915231888474523,[0.60388839],0.005,0.1,-0.5522347551724192,0.17867484714689855,0
8.297521829605103,0.4695431163182186,[0.60867011],0.005,0.1,-0.6794597701930687,0.18054074952703136,0
8.305442094802856,0.47012931246842854,[0.61349442],0.005,0.1,-1.0286988833064723,0.18551434411794987,0
8.313401699066162,0.4709109073353753,[0.61832732],0.005,0.1,-0.8186499985571332,0.187431609977174,0
8.323506832122803,0.47169250220232195,[0.62315731],0.005,0.1,-0.7346342262943852,0.18971260130031206,0
8.332862615585327,0.4726694957860053,[0.62799208],0.005,0.1,-0.6983485022667109,0.19184426074338612,0
8.341870307922363,0.4736464893696886,[0.63283772],0.005,0.1,-0.39990759963008415,0.19385920638079712,0
8.349496126174927,0.4748188816701087,[0.63769037],0.005,0.1,-0.34499596946546435,0.14259403762530762,0
8.358452796936035,0.475795875253792,[0.64253768],0.005,0.1,-0.09875566345583933,0.15848695019781442,0
8.367523670196533,0.476968267554212,[0.64737759],0.005,0.1,0.16349188599551545,0.1708421626289601,0
8.376419305801392,0.47853145728810537,[0.65221661],0.005,0.1,0.10306647112872136,0.17973776748280446,0
8.38446044921875,0.47970384958852547,[0.65705142],0.005,0.1,0.22502275260131727,0.13453867719879847,0
8.396306037902832,0.4818532354726288,[0.66187892],0.005,0.1,0.3798339737841856,0.20823470899877405,0
8.40554428100586,0.4832210264897855,[0.66670467],0.005,0.1,0.23521398616491862,0.15205091058734693,0
8.418458223342896,0.48615200724083557,[0.67153306],0.005,0.1,0.5709090984824146,0.22300311953524493,0
8.427860498428345,0.48810599440820224,[0.6763756],0.005,0.1,0.4385559731000719,0.2172536968848745,0
8.435603618621826,0.48966918414209565,[0.68124153],0.005,0.1,0.17537573732382838,0.21332636741108404,0
8.44746446609497,0.49279556360988236,[0.6861297],0.005,0.1,0.1940072676290227,0.20910245154049822,0
8.458428859710693,0.495335746927459,[0.69103857],0.005,0.1,0.29751410864291394,0.20648670905468194,0
8.470696449279785,0.4982667276785091,[0.69597434],0.005,0.1,0.6811526902873224,0.2686809306426018,0
8.480367422103882,0.5010023097128224,[0.70094965],0.005,0.1,0.7978901699401959,0.24726900124318218,0
8.489495038986206,0.5035424930303992,[0.70595833],0.005,0.1,0.5208923318997858,0.1731028724529427,0
8.497438907623291,0.5058872776312392,[0.71097843],0.005,0.1,0.4395289624857106,0.1805755813260187,0
8.50835657119751,0.5092090558157627,[0.71599909],0.005,0.1,0.7073829442868259,0.18568797397195366,0
8.521258115768433,0.513117030150496,[0.72102687],0.005,0.1,0.7522657016268912,0.25082580104259666,0
8.530548095703125,0.5162434096182827,[0.72607486],0.005,0.1,0.7077968123763736,0.23432185328612082,0
8.53843641281128,0.5187835929358594,[0.7311378],0.005,0.1,0.3584738604541017,0.1649442674798033,0
8.546926259994507,0.5219099724036462,[0.73619495],0.005,0.1,-0.026942425108721857,0.1732647928594537,0
8.555961608886719,0.5250363518714329,[0.74123642],0.005,0.1,-0.3504283607455191,0.17928544727432008,0
8.563454389572144,0.5277719339057463,[0.74625375],0.005,0.1,-0.5883052556062278,0.13189342713566227,0
8.572463989257812,0.5310937120902697,[0.75123194],0.005,0.1,-0.7463597662462254,0.14752843479648278,0
8.582413673400879,0.5346108889915298,[0.75616605],0.005,0.1,-1.1157631546292546,0.15860775650127878,0
8.592262268066406,0.5385188633262632,[0.76105952],0.005,0.1,-1.1936067203186174,0.1651678903279893,0
8.602510213851929,0.5426222363777332,[0.76591506],0.005,0.1,-1.1484544649757393,0.16815208245900692,0
8.612452268600464,0.54633481199573,[0.77073465],0.005,0.1,-1.334533389874595,0.16935783711017804,0
8.621294021606445,0.5496565901802534,[0.77551966],0.005,0.1,-1.54369935840203,0.16935475076419867,0
8.630425453186035,0.5531737670815134,[0.78026389],0.005,0.1,-1.9780717883355177,0.12238972663437536,0
8.639875888824463,0.5566909439827735,[0.78496195],0.005,0.1,-2.102654716015648,0.18154525016790127,0
8.648245811462402,0.5598173234505602,[0.78961657],0.005,0.1,-2.078582811118833,0.12945763477316813,0
8.657000064849854,0.5633345003518203,[0.79422322],0.005,0.1,-2.262313078007849,0.13785784224646425,0
8.666617393493652,0.5670470759698171,[0.7987783],0.005,0.1,-2.174860776888276,0.14389950162839585,0
8.67793607711792,0.5717366451714971,[0.80329305],0.005,0.1,-2.2666436564386214,0.19684220089796595,0
8.687890529632568,0.5758400182229672,[0.8077842],0.005,0.1,-2.095463433494202,0.18449520737295,0
8.696192264556885,0.5791617964074907,[0.81225238],0.005,0.1,-2.1230261323826705,0.1299824525979711,0
8.705977201461792,0.5832651694589607,[0.81668462],0.005,0.1,-2.459909185402572,0.13752251266793555,0
8.713486194610596,0.5863915489267474,[0.8210705],0.005,0.1,-2.526828342475494,0.10288761804668865,0
8.723408222198486,0.5901041245447443,[0.82540191],0.005,0.1,-2.739820904778633,0.11850804575470593,0
8.731432437896729,0.5934259027292675,[0.82967987],0.005,0.1,-2.65046430619229,0.13138790335754438,0
8.740913152694702,0.597333877064001,[0.83391312],0.005,0.1,-2.724961819535304,0.1411808563342596,0
8.749411344528198,0.6010464526819976,[0.83810286],0.005,0.1,-2.8053662875499095,0.10585800412131545,0
8.758484125137329,0.6045636295832577,[0.84224394],0.005,0.1,-2.838731550595516,0.12298384406148039,0
8.77020525932312,0.6092531987849378,[0.84634716],0.005,0.1,-2.8165460110552583,0.18656745070184183,0
8.77859354019165,0.6125749769694612,[0.85043686],0.005,0.1,-2.7468898134622437,0.1842282721241826,0
8.786465883255005,0.6158967551539846,[0.85451981],0.005,0.1,-2.6422200637574496,0.1328179886791895,0
8.79445505142212,0.6188277359050346,[0.85858041],0.005,0.1,-2.5144565619515,0.10227912310404379,0
8.802592515945435,0.622149514089558,[0.86260598],0.005,0.1,-2.3733584585686804,0.12350387476711748,0
8.812235355377197,0.6260574884242914,[0.86660108],0.005,0.1,-2.226294951617949,0.14064691571910545,0
8.822375535964966,0.6305516589092349,[0.87057761],0.005,0.1,-2.0785371116196343,0.15352496864414927,0
8.830425262451172,0.6338734370937583,[0.87453875],0.005,0.1,-1.9336872406402867,0.11601024535947864,0
8.83965277671814,0.6377814114284917,[0.87848773],0.005,0.1,-1.794090964283364,0.18869118605908503,0
8.847922563552856,0.6407123921795417,[0.88243512],0.005,0.1,-1.6611805463312959,0.13799237203222472,0
8.856348514556885,0.6440341703640652,[0.88638255],0.005,0.1,-1.53574178764047,0.15379661265848296,0
8.866636514663696,0.6483329421322718,[0.89033161],0.005,0.1,-1.4181133659313818,0.16574367694542494,0
8.875245332717896,0.651850119033532,[0.89429128],0.005,0.1,-1.308331912463991,0.17512130624133998,0
8.8834388256073,0.6553672959347919,[0.89826158],0.005,0.1,-1.2062356759796091,0.1299686496658789,0
8.893433094024658,0.6594706689862622,[0.90223489],0.005,0.1,-1.1115375361840447,0.14817144972996119,0
8.904415130615234,0.6637694407544688,[0.90621232],0.005,0.1,-1.0238757796492244,0.16219398591308107,0
8.912877321243286,0.6670912189389921,[0.91020239],0.005,0.1,-0.6668106032314954,0.17314463853755718,0
8.92123556137085,0.6704129971235157,[0.91421219],0.005,0.1,-0.5588765415708064,0.1813619240990442,0
8.929377794265747,0.673734775308039,[0.91823989],0.005,0.1,-0.5449636520785126,0.13406287423966767,0
8.938422679901123,0.6774473509260357,[0.92227615],0.005,0.1,-0.8334678248817157,0.15233866967485438,0
8.94766092300415,0.6809645278272958,[0.92632056],0.005,0.1,-0.878494525334266,0.16671166290675654,0
8.957412004470825,0.6852632995955026,[0.93038028],0.005,0.1,-0.826024472299874,0.17672017684225474,0
8.966475009918213,0.689171273930236,[0.93446118],0.005,0.1,-0.7422174810515493,0.18419896833828855,0
8.977424621582031,0.6936654444151793,[0.93856793],0.005,0.1,-0.655336714263001,0.18898829449173032,0
8.987542390823364,0.6975734187499129,[0.9427041],0.005,0.1,-0.8521478565478355,0.1928481267169183,0
8.997414350509644,0.7014813930846462,[0.94687227],0.005,0.1,-0.8166495425629103,0.1954043068097275,0
9.00937533378601,0.7061709622863263,[0.95108165],0.005,0.1,-0.7032924688054367,0.26092967319831745,0
9.017411231994629,0.7092973417541131,[0.95533935],0.005,0.1,-0.8540015684681671,0.18120374333564135,0
9.027061700820923,0.7134007148055831,[0.9596355],0.005,0.1,-0.7748188685359965,0.18578015215625174,0
9.036381483078003,0.7171132904235799,[0.96396102],0.005,0.1,-0.6273578956989916,0.1895577821288752,0
9.045392274856567,0.7210212647583132,[0.96831517],0.005,0.1,-0.47840060907721316,0.19171245355429742,0
9.05446195602417,0.7243430429428366,[0.97268928],0.005,0.1,-0.07548422688737907,0.13993436965903425,0
9.063428401947021,0.7280556185608333,[0.97706813],0.005,0.1,-0.2185180371752773,0.1551239750439725,0
9.073399543762207,0.73176819417883,[0.98144598],0.005,0.1,-0.23151080936156823,0.16653782137087605,0
9.081402778625488,0.7352853710800901,[0.98582518],0.005,0.1,0.07865474882720232,0.17461164961759298,0
9.091029644012451,0.7393887441315602,[0.99020747],0.005,0.1,0.15696361667632666,0.17977593118981672,0
9.100055694580078,0.7432967184662935,[0.99459413],0.005,0.1,0.14385238194464536,0.18353697714303097,0
9.108474016189575,0.7468138953675537,[0.99898606],0.005,0.1,0.10206878019769162,0.18662890686161973,0
9.120084524154663,0.7513080658524971,[1.00338396],0.005,0.1,0.05776673524123592,0.18833587556316062,0
9.128356218338013,0.7546298440370205,[1.00778108],0.005,0.1,0.020377939290275527,0.13804352045811158,0
9.138732433319092,0.7587332170884905,[1.01217188],0.005,0.1,-0.007925454521779516,0.2100953932504058,0
9.147532939910889,0.7624457927064873,[1.01655928],0.005,0.1,-0.027830598566558503,0.15169567038627088,0
9.156298398971558,0.7659629696077473,[1.02093867],0.005,0.1,-0.040915561634937904,0.1658254876092487,0
9.166821002960205,0.7702617413759542,[1.02530666],0.005,0.1,-0.04882729670637534,0.17721631692961898,0
9.178470373153687,0.7751467092943709,[1.029676],0.005,0.1,-0.0529840951387011,0.25043212197035725,0
9.187146186828613,0.7784684874788942,[1.03405797],0.005,0.1,-0.05450620312939338,0.17758353113757905,0
9.197360515594482,0.7823764618136277,[1.03844728],0.005,0.1,-0.054236665842172,0.18892754694611433,0
9.205475568771362,0.7858936387148877,[1.04283995],0.005,0.1,-0.05279059086986182,0.19938723932847163,0
9.215949535369873,0.7901924104830944,[1.04724075],0.005,0.1,-0.050606937917256914,0.20764277685142785,0
9.224419593811035,0.7935141886676178,[1.05164625],0.005,0.1,-0.047993395660975,0.15431979893627587,0
9.23466682434082,0.7976175617190879,[1.05605403],0.005,0.1,-0.3212004410083308,0.24255753192205423,0
9.24240255355835,0.8009393399036113,[1.0604703],0.005,0.1,-0.3514196119773771,0.17668752320529924,0
9.252006769180298,0.8050427129550815,[1.06489257],0.005,0.1,-0.29343800956869714,0.19493841976653367,0
9.260852336883545,0.8083644911396048,[1.06931907],0.005,0.1,-0.21455100647520753,0.21055483787309173,0
9.268458843231201,0.8116862693241282,[1.07374844],0.005,0.1,-0.1413463828712997,0.1585458437381435,0
9.277785301208496,0.8150080475086516,[1.07817983],0.005,0.1,-0.08218420735329741,0.254577059925621,0
9.28708291053772,0.818916021843385,[1.08262085],0.005,0.1,-0.037798302979160925,0.1855792067822296,0
9.29567551612854,0.822433198744645,[1.0870698],0.005,0.1,-0.00615010010868864,0.2059595976318185,0
9.305440425872803,0.8263411730793784,[1.09151714],0.005,0.1,0.2914955652121416,0.1566828418597139,0
9.315405130386353,0.8304445461308485,[1.09596322],0.005,0.1,0.33870343056986707,0.2560969191669908,0
9.324843168258667,0.8339617230321086,[1.10042512],0.005,0.1,0.29223638875465324,0.26054949131059374,0
9.333692789077759,0.8380650960835787,[1.10491733],0.005,0.1,0.22092792810964768,0.26331227382869565,0
9.341399192810059,0.8406052794011555,[1.10943536],0.005,0.1,0.15251800298664453,0.19353013615483025,0
9.35162091255188,0.8449040511693621,[1.11396692],0.005,0.1,0.09620907603928035,0.215695975439985,0
9.360131740570068,0.8482258293538855,[1.11851007],0.005,0.1,0.05334085771192311,0.2345328196105191,0
9.369797468185425,0.8521338036886189,[1.12307163],0.005,0.1,0.02230541874994951,0.24868550197975384,0
9.37940263748169,0.856237176740089,[1.12765741],0.005,0.1,0.0007092031213350967,0.25958237917793725,0
9.389388084411621,0.8601451510748225,[1.13226374],0.005,0.1,-0.013752812061900297,0.192287024946958,0
9.39876914024353,0.8640531254095558,[1.13688744],0.005,0.1,-0.023004798072216108,0.3004431942868007,0
9.408831596374512,0.8679610997442891,[1.1415429],0.005,0.1,-0.02854521976999855,0.2994469866460399,0
9.418401956558228,0.8718690740790227,[1.14624207],0.005,0.1,-0.031495294999346585,0.2987595034103128,0
9.42705225944519,0.8755816496970192,[1.15097748],0.005,0.1,0.24336553884645262,0.2170003571364119,0
9.436638355255127,0.8794896240317529,[1.15573385],0.005,0.1,0.2764991808389101,0.23970063365827254,0
9.44441556930542,0.8824206047828028,[1.16049807],0.005,0.1,0.2221832849058778,0.18322565983546585,0
9.455284118652344,0.8869147752677462,[1.1652678],0.005,0.1,-0.12867590110939306,0.2987255999886351,0
9.466242551803589,0.8914089457526896,[1.17005842],0.005,0.1,-0.23077631069627075,0.30145429190104717,0
9.477399110794067,0.8959031162376331,[1.17488272],0.005,0.1,-0.23060800072337714,0.30377319569260536,0
9.485532999038696,0.8990294957054198,[1.17974262],0.005,0.1,-0.19477384593834313,0.3077146623174316,0
9.496473550796509,0.9033282674736265,[1.18463948],0.005,0.1,-0.15192649238170297,0.3101965599297824,0
9.504443883895874,0.9064546469414132,[1.18956536],0.005,0.1,-0.11313876808782342,0.22739263116891398,0
9.512903690338135,0.9097764251259366,[1.19450454],0.005,0.1,-0.08167024681523946,0.2539575186122136,0
9.522390365600586,0.9136843994606699,[1.19945248],0.005,0.1,0.2184808746831024,0.27450008649406754,0
9.532017707824707,0.9179831712288767,[1.20441413],0.005,0.1,0.26945895019453636,0.2898209704833407,0
9.541459083557129,0.9218911455636103,[1.20939365],0.005,0.1,0.22728396314873242,0.3020132643660109,0
9.549420356750488,0.9248221263146603,[1.21438562],0.005,0.1,0.16039952994037251,0.22504184401799995,0
9.557363510131836,0.9279485057824469,[1.21937659],0.005,0.1,0.0963419030180134,0.25632141716431917,0
9.566385269165039,0.9316610814004438,[1.22435533],0.005,0.1,0.044209353998748695,0.1981102833526895,0
9.576333045959473,0.9357644544519137,[1.22931261],0.005,0.1,0.005291352129945696,0.23661589050247142,0
9.587435245513916,0.9406494223703306,[1.23425903],0.005,0.1,-0.022040641426838703,0.3649669721992084,0
9.597357749938965,0.9445573967050639,[1.23921281],0.005,0.1,-0.040184373834278725,0.2648395106971709,0
9.6080641746521,0.9490515671900073,[1.24418071],0.005,0.1,-0.05143996450823484,0.39312344800303095,0
9.615922451019287,0.9517871492243207,[1.24916862],0.005,0.1,-0.05772173174180546,0.284061674598046,0
9.623373985290527,0.9547181299753709,[1.25416332],0.005,0.1,-0.060515731272355024,0.21812748965710343,0
9.633407354354858,0.9586261043101042,[1.25914472],0.005,0.1,-0.060929620916389315,0.2591901066902722,0
9.642484426498413,0.9625340786448376,[1.26411459],0.005,0.1,-0.05976732069367571,0.29298735519084496,0
9.652072429656982,0.966442052979571,[1.26908407],0.005,0.1,-0.05760111652780748,0.3197748999854526,0
9.660875797271729,0.9697638311640945,[1.27406307],0.005,0.1,-0.05483202068546803,0.3417538105708666,0
9.671358585357666,0.9740626029323012,[1.27906026],0.005,0.1,-0.05173693768510707,0.35828307893994865,0
9.679366111755371,0.9773843811168246,[1.28408316],0.005,0.1,-0.048504109337673816,0.3730148965032453,0
9.687666177749634,0.9809015580180845,[1.28913815],0.005,0.1,-0.045259115062490196,0.38514359903475015,0
9.695408582687378,0.9838325387691347,[1.29422106],0.005,0.1,-0.04208364289001268,0.2860984410200413,0
9.707246780395508,0.9885221079708147,[1.29932829],0.005,0.1,-0.03902889283280036,0.4395800675337231,0
9.7178955078125,0.9926254810222849,[1.3044757],0.005,0.1,-0.036125071093530206,0.43645758762330816,0
9.727222442626953,0.9965334553570182,[1.30967636],0.005,0.1,-0.03338807354998305,0.43422186683177294,0
9.73735761642456,1.000832227125225,[1.31493117],0.005,0.1,-0.030824166048169517,0.4328345291756066,0
9.746082544326782,1.004349404026485,[1.32024017],0.005,0.1,-0.028433245972534084,0.433154477125154,0
9.757056474685669,1.0088435745114284,[1.32560259],0.005,0.1,-0.02621110371080836,0.4320690213956851,0
9.766170024871826,1.0123607514126884,[1.33101688],0.005,0.1,-0.02415098169038303,0.4323070085670883,0
9.776976585388184,1.0164641244641586,[1.33648076],0.005,0.1,-0.022244641591282643,0.4313972886692378,0
9.786391019821167,1.0205674975156287,[1.3419913],0.005,0.1,-0.020483088190505955,0.4300801555986511,0
9.79917025566101,1.0258432628675187,[1.34755435],0.005,0.1,-0.29489541387319074,0.560766749291229,0
9.810363054275513,1.0309236295026722,[1.35318291],0.005,0.1,-0.05048192241717886,0.514877777772638,0
9.821411848068237,1.035222401270879,[1.35888642],0.005,0.1,0.0391223421711675,0.6231916721529189,0
9.829416751861572,1.0381533820219289,[1.36465291],0.005,0.1,0.06138375733028571,0.630278970218949,0
9.839407444000244,1.0420613563566625,[1.37044361],0.005,0.1,0.05699450100499326,0.5599048341145829,0
9.84988021850586,1.0461647294081324,[1.37624295],0.005,0.1,0.04417375315144623,0.6533657221874356,0
9.861199617385864,1.0508542986098126,[1.382073],0.005,0.1,0.03054392208018445,0.7174880377947043,0
9.870346546173096,1.0543714755110727,[1.38794217],0.005,0.1,0.01887670705142603,0.47582977480478883,0
9.879995346069336,1.0584748485625428,[1.39382967],0.005,0.1,0.00983170475913406,0.44556945988380503,0
9.88836121559143,1.0617966267470662,[1.39970832],0.005,0.1,-0.2728067347322096,0.31907330790869937,0
9.899801254272461,1.0666815946654828,[1.40556304],0.005,0.1,-0.03449055732412336,0.43963687808518653,0
9.911139965057373,1.0713711638671628,[1.41139732],0.005,0.1,0.0506684600271994,0.41386110183410973,0
9.92238163948059,1.0756699356353696,[1.41721321],0.005,0.1,0.06972263702311664,0.3922511918349458,0
9.932386875152588,1.0797733086868397,[1.42300296],0.005,0.1,0.06303409015118489,0.37425567992232583,0
9.941362857818604,1.0834858843048365,[1.4287591],0.005,0.1,0.04857080101758529,0.3587748421684202,0
9.950732469558716,1.08739385863957,[1.43447441],0.005,0.1,0.03376922019898815,0.34473534724816934,0
9.958608865737915,1.09091103554083,[1.440142],0.005,0.1,-0.2547725805078289,0.33212612506806033,0
9.967347145080566,1.09442821244209,[1.4457481],0.005,0.1,-0.2975401592395339,0.24247967845064639,0
9.977025270462036,1.0983361867768233,[1.45127342],0.005,0.1,-0.24947211662528448,0.2547709561730955,0
9.984326601028442,1.1010717688111367,[1.45670198],0.005,0.1,-0.1782942666348884,0.19613234479543679,0
9.993293523788452,1.104588945712397,[1.46202081],0.005,0.1,-0.11105931896798295,0.21742886293572364,0
10.00335144996643,1.1084969200471304,[1.46722636],0.005,0.1,-0.33257427375689413,0.23102535517849374,0
10.015342712402344,1.113381887965547,[1.47232965],0.005,0.1,-0.32494960476301293,0.30691790869167695,0
10.024338483810425,1.1170944635835438,[1.47734015],0.005,0.1,-0.24109126876276674,0.22231261320312598,0
10.035883903503418,1.1217840327852238,[1.48225928],0.005,0.1,-0.14572568060131488,0.2911718932699583,0
10.044309854507446,1.1251058109697472,[1.48708846],0.005,0.1,-0.06302551082742486,0.21181108989776506,0
10.053389549255371,1.1286229878710075,[1.49182315],0.005,0.1,0.0006396680985436137,0.2164036644265666,0
10.061382293701172,1.1319447660555308,[1.49646003],0.005,0.1,0.04607151995837818,0.21952274669786678,0
10.074251174926758,1.1374159301241575,[1.5010094],0.005,0.1,0.0764473304100119,0.27994630099024687,0
10.082418441772461,1.1409331070254176,[1.50548666],0.005,0.1,0.09528632357750769,0.2611623847062917,0
10.091298818588257,1.1446456826434142,[1.50989334],0.005,0.1,0.10568761699479334,0.19193445486655875,0
10.100017547607422,1.148358258261411,[1.5142193],0.005,0.1,0.11012747393920969,0.19862163327042395,0
10.10756516456604,1.1514846377291978,[1.51845695],0.005,0.1,0.11048264583272238,0.1560118843636803,0
10.115899562835693,1.1546110171969846,[1.52260094],0.005,0.1,0.3841676344086505,0.1724426253163458,0
10.124356985092163,1.1579327953815077,[1.52664785],0.005,0.1,0.41321630483539984,0.14025855596069017,0
10.133329629898071,1.1616453709995045,[1.53059596],0.005,0.1,0.07697587810030657,0.1599227890002927,0
10.142394542694092,1.164967149184028,[1.53445087],0.005,0.1,-0.03788730769969614,0.17509011932665985,0
10.151824951171875,1.1688751235187615,[1.5382243],0.005,0.1,-0.05918836892424625,0.1856295212421767,0
10.160792112350464,1.172587699136758,[1.54192693],0.005,0.1,-0.04560496397581169,0.19198693426629573,0
10.170663356781006,1.1768864709049651,[1.54556824],0.005,0.1,-0.02282234829205897,0.19489935359879104,0
10.180183410644531,1.1807944452396981,[1.54915649],0.005,0.1,-0.0011324155520586621,0.1958634783991405,0
10.188321113586426,1.183920824707485,[1.55269322],0.005,0.1,0.01609817504617126,0.15173321342695895,0
10.197306871414185,1.1876334003254816,[1.55617425],0.005,0.1,0.028425867160516708,0.1623114152436569,0
10.206371545791626,1.1913459759434786,[1.55960719],0.005,0.1,0.036491454055352895,0.2145540848034642,0
10.21531891822815,1.1948631528447384,[1.56300926],0.005,0.1,0.04121428411087394,0.2032729742171041,0
10.22333836555481,1.1979895323125254,[1.56637864],0.005,0.1,0.04346883734422937,0.20336221794672715,0
10.235375165939331,1.2030698989476787,[1.56970282],0.005,0.1,0.04397861427844248,0.23878520161708736,0
10.243338823318481,1.2061962784154654,[1.5729817],0.005,0.1,0.0433019722553834,0.17158054646777726,0
10.25360894203186,1.2102996514669355,[1.57622009],0.005,0.1,0.041852241645472535,0.2067506608149769,0
10.261388540267944,1.2132306322179853,[1.57942164],0.005,0.1,0.03992679842669619,0.15157162596678245,0
10.269498825073242,1.2163570116857723,[1.58258426],0.005,0.1,0.03773488837830895,0.14918716903444312,0
10.27833104133606,1.2196787898702957,[1.58570564],0.005,0.1,0.03542082025948084,0.14600465873471538,0
10.286479473114014,1.2231959667715557,[1.58878379],0.005,0.1,0.033082040341427706,0.11417644197692431,0
10.295349359512329,1.227103941106289,[1.59181226],0.005,0.1,0.030782686924370386,0.11794911505047549,0
10.304394721984863,1.2310119154410226,[1.59478566],0.005,0.1,0.02856351374671222,0.09641633561418715,0
10.313302993774414,1.2347244910590192,[1.59769955],0.005,0.1,0.0264490393450017,0.10243376833173574,0
10.32431936264038,1.2392186615439627,[1.60055437],0.005,0.1,0.3004909992919178,0.1052416093827174,0
10.33655309677124,1.244299028179116,[1.60335849],0.005,0.1,0.33174310703904814,0.12785591414122272,0
10.347367763519287,1.2484024012305863,[1.60612249],0.005,0.1,0.2748980646214541,0.11932299483607008,0
10.35696530342102,1.2525057742820562,[1.60885096],0.005,0.1,0.19718752113471413,0.1122190390911314,0
10.365342855453491,1.2560229511833163,[1.61154363],0.005,0.1,0.12515703931254002,0.10670496895380793,0
10.3743896484375,1.2595401280845764,[1.61419659],0.005,0.1,0.06713944442079536,0.08500844902554888,0
10.382395505905151,1.2628619062690998,[1.61680308],0.005,0.1,0.0238516688171408,0.08661628901056181,0
10.391761302947998,1.26637908317036,[1.61936125],0.005,0.1,-0.0067546476369533225,0.08753004128551303,0
10.40393614768982,1.2712640510887767,[1.62187695],0.005,0.1,-0.027381278346960997,0.10419231897056706,0
10.412636756896973,1.2749766267067733,[1.62435885],0.005,0.1,-0.040546815072307785,0.09830609191126985,0
10.421416521072388,1.27810300617456,[1.6268076],0.005,0.1,-0.04832186577588361,0.07866441918516746,0
10.431462526321411,1.28220637922603,[1.62921717],0.005,0.1,-0.3283424176361389,0.07971936165181198,0
10.44231653213501,1.2867005497109734,[1.63158624],0.005,0.1,-0.36284364732508634,0.08005362256658037,0
10.45229172706604,1.290608524045707,[1.63391757],0.005,0.1,-0.307378297866045,0.08020136154797412,0
10.462329149246216,1.2947118970971772,[1.63621388],0.005,0.1,-0.5058319464229196,0.07995518716197293,0
10.474502325057983,1.2992060675821204,[1.63848125],0.005,0.1,-0.742271335758048,0.09518776376102413,0
10.48785400390625,1.3042864342172737,[1.64073186],0.005,0.1,-0.6610730339423266,0.10675067055554756,0
10.497395515441895,1.307803611118534,[1.64297617],0.005,0.1,-0.7611285561923371,0.09697360509072309,0
10.50535798072815,1.3109299905863208,[1.64521292],0.005,0.1,-0.615365358211007,0.07521738799604197,0
10.514325857162476,1.3144471674875808,[1.64743445],0.005,0.1,-0.6867975153118356,0.0752328163394696,0
10.525307655334473,1.3185505405390507,[1.64963779],0.005,0.1,-0.5303145370375701,0.07480871846924142,0
10.537463188171387,1.323240109740731,[1.65182731],0.005,0.1,-0.5998492362787969,0.08909115093121443,0
10.546614646911621,1.3269526853587275,[1.65400681],0.005,0.1,-0.44571348431015734,0.06961018253658612,0
10.5563485622406,1.3304698622599875,[1.65617294],0.005,0.1,-0.24349307811429702,0.07001296538416733,0
10.565926313400269,1.3341824378779843,[1.65832296],0.005,0.1,-0.06128937349709339,0.07018373602894279,0
10.575223922729492,1.337895013495981,[1.66045807],0.005,0.1,-0.19545263786212363,0.07013130129180453,0
10.583292722702026,1.3408259942470313,[1.66257616],0.005,0.1,-0.1276112546771523,0.05814618289280793,0
10.592306852340698,1.3445385698650278,[1.6646724],0.005,0.1,-0.28212126240883245,0.061171457723611385,0
10.601771593093872,1.3480557467662881,[1.66674641],0.005,0.1,-0.19944770171899653,0.06361228546343173,0
10.613316059112549,1.3521591198177578,[1.66880166],0.005,0.1,-0.32975399578645603,0.06524207350585981,0
10.6223304271698,1.3552854992855448,[1.67084156],0.005,0.1,-0.22388619958489986,0.06680318746201186,0
10.631942749023438,1.3586072774700682,[1.67286951],0.005,0.1,-0.3354369528787442,0.06819158639293672,0
10.642424821853638,1.362319853088065,[1.67488879],0.005,0.1,-0.491776592549692,0.06893403568491942,0
10.651853799819946,1.3654462325558518,[1.67690276],0.005,0.1,-0.35089404330731766,0.07073510763749562,0
10.662370920181274,1.3689634094571117,[1.67891497],0.005,0.1,-0.68893962442853,0.07211786909630777,0
10.67244029045105,1.3724805863583718,[1.68092906],0.005,0.1,-0.8326657679420837,0.07356839957229809,0
10.681252717971802,1.3756069658261585,[1.68294855],0.005,0.1,-0.6004827363842792,0.07518087208147022,0
10.69175934791565,1.3795149401608922,[1.68497696],0.005,0.1,-0.5602042932915585,0.07664742599812696,0
10.70116114616394,1.3828367183454155,[1.68701777],0.005,0.1,-0.5826495803528122,0.07849630432386445,0
10.709310531616211,1.3855723003797287,[1.68907037],0.005,0.1,-0.33799714933903113,0.06339288558095091,0
10.718313455581665,1.3883078824140422,[1.69113063],0.005,0.1,-0.3258056088843359,0.06984180410108587,0
10.727213621139526,1.391434261881829,[1.69319956],0.005,0.1,-0.38687320056951247,0.07538988596481967,0
10.73704719543457,1.3947560400663521,[1.69528263],0.005,0.1,-0.1792465522979042,0.0801608868637707,0
10.74723768234253,1.398468615684349,[1.69738502],0.005,0.1,-0.19843682298289478,0.0843306766649956,0
10.757277250289917,1.4019857925856087,[1.6995116],0.005,0.1,-0.008596388587410464,0.08804063965181724,0
10.767309665679932,1.4053075707701321,[1.70166694],0.005,0.1,-0.06345295270675858,0.091745635404871,0
10.775387048721313,1.408043152804446,[1.70385058],0.005,0.1,0.09012059194599929,0.07284656665802335,0
10.78670334815979,1.4117557284224425,[1.70606258],0.005,0.1,0.28054821103597316,0.10646840819588213,0
10.796080112457275,1.4146867091734927,[1.7083128],0.005,0.1,0.1672566562565348,0.10826151087965988,0
10.804363489151001,1.4174222912078058,[1.7106049],0.005,0.1,0.2517242027028288,0.083744343715309,0
10.813170909881592,1.4205486706755925,[1.71293252],0.005,0.1,0.38080065548662057,0.0927615831148252,0
10.822350025177002,1.4236750501433795,[1.71529545],0.005,0.1,0.4951470422163093,0.10088816342469661,0
10.831268072128296,1.4266060308944293,[1.71769889],0.005,0.1,0.5770827696912505,0.10820759919177549,0
10.840917348861694,1.4301232077956894,[1.72014762],0.005,0.1,0.6260894834297093,0.114591202253311,0
10.849292278289795,1.4330541885467396,[1.72264053],0.005,0.1,0.6476687053335796,0.08955837811214694,0
10.85830545425415,1.4361805680145263,[1.72517138],0.005,0.1,0.648544198240911,0.10246926976804815,0
10.86739206314087,1.4393069474823132,[1.72774067],0.005,0.1,0.6348042163801431,0.11383037900382907,0
10.876295804977417,1.4420425295166264,[1.73035467],0.005,0.1,0.6113509976009354,0.1239437101083126,0
10.884262800216675,1.4449735102676766,[1.73301905],0.005,0.1,0.5818900161309408,0.13272409080787753,0
10.893044233322144,1.4480998897354633,[1.73573883],0.005,0.1,0.8251478010387938,0.140304986530456,0
10.902328729629517,1.4512262692032498,[1.73851846],0.005,0.1,0.8240619162968097,0.14734010280015797,0
10.910883903503418,1.4543526486710365,[1.74135549],0.005,0.1,1.0106533047115502,0.11259817602047824,0
10.920142650604248,1.45767442685556,[1.74424158],0.005,0.1,0.9340582119488463,0.12824566065645437,0
10.92837142944336,1.4604100088898735,[1.74716949],0.005,0.1,1.0520998010071096,0.1021010261218497,0
10.938531398773193,1.46412258450787,[1.75013948],0.005,0.1,1.1977613020787024,0.16636267182695413,0
10.947668313980103,1.4674443626923934,[1.7531582],0.005,0.1,1.31026759398992,0.12581518779265455,0
10.955339670181274,1.4701799447267068,[1.75622463],0.005,0.1,1.0989601422818267,0.14245356489887312,0
10.965717315673828,1.4740879190614404,[1.75933797],0.005,0.1,1.0863839189242177,0.1555987801687856,0
10.974319219589233,1.477214298529227,[1.76250403],0.005,0.1,1.1271520265062733,0.16655395954211363,0
10.984282732009888,1.4809268741472237,[1.76572756],0.005,0.1,1.1638252438922345,0.17499331267145443,0
10.992243528366089,1.483857854898274,[1.76900545],0.005,0.1,0.9022077327262714,0.13266338866168292,0
11.00229263305664,1.4879612279497438,[1.77232789],0.005,0.1,0.859459800974199,0.1502328710192072,0
11.0115065574646,1.491478404851004,[1.77569307],0.005,0.1,0.8849964632145828,0.16458183839583476,0
11.020386219024658,1.4953863791857371,[1.77910587],0.005,0.1,0.9170488413361858,0.17381806332315416,0
11.02925419807434,1.4987081573702605,[1.78256286],0.005,0.1,0.9341047420324632,0.13204979671212233,0
11.039532899856567,1.5028115304217309,[1.78606104],0.005,0.1,0.9318818989611803,0.20587661980655816,0
11.048254013061523,1.506133308606254,[1.78960462],0.005,0.1,0.9126910577926564,0.15129570202058804,0
11.05724835395813,1.5096504855075141,[1.7931895],0.005,0.1,0.8807304883653573,0.16515510492803565,0
11.065873622894287,1.5129722636920375,[1.79681153],0.005,0.1,0.8401618087696094,0.1758357311761434,0
11.075280904769897,1.5170756367435079,[1.80047362],0.005,0.1,0.7944474251175306,0.1828489891486283,0
11.083270072937012,1.5203974149280313,[1.80417072],0.005,0.1,0.7462284885517046,0.13705117241560824,0
11.092376947402954,1.5237191931125544,[1.80789111],0.005,0.1,0.6974099420326514,0.15404882240783158,0
11.100288391113281,1.5268455725803411,[1.81162449],0.005,0.1,0.373266565964148,0.11990280607852122,0
11.10835886001587,1.529971952048128,[1.81535502],0.005,0.1,0.01757663744220167,0.09877213492936233,0
11.121256589889526,1.5354431161167548,[1.81907609],0.005,0.1,-0.004862754521234219,0.1703615688034264,0
11.13224458694458,1.5403280840351714,[1.82280266],0.005,0.1,-0.19171199586419935,0.17673470814250888,0
11.141260147094727,1.5440406596531684,[1.82654708],0.005,0.1,-0.39369930890180427,0.18099344357317187,0
11.151511669158936,1.5481440327046383,[1.83031238],0.005,0.1,-0.5574590998411553,0.18318027334530776,0
11.159984350204468,1.5516612096058984,[1.83410059],0.005,0.1,-0.6711057591883361,0.18444248621329712,0
11.167250394821167,1.5545921903569486,[1.8379061],0.005,0.1,-0.4629314960979441,0.13618677151547526,0
11.176277160644531,1.5583047659749452,[1.84171699],0.005,0.1,-0.46116718769522635,0.14900795408644338,0
11.184436082839966,1.5614311454427319,[1.84552942],0.005,0.1,-0.520668097046151,0.15863327977950173,0
11.193629264831543,1.5651437210607286,[1.84935293],0.005,0.1,-0.8583815762512043,0.2171741757692197,0
11.203044652938843,1.5688562966787254,[1.85320135],0.005,0.1,-0.9351750033066566,0.2040546815341863,0
11.214263677597046,1.5735458658804056,[1.85707893],0.005,0.1,-0.9021393223896339,0.1927085647182053,0
11.222262859344482,1.576672245348192,[1.8609755],0.005,0.1,-0.8291897762111202,0.13874127874240233,0
11.231750726699829,1.5803848209661888,[1.86487549],0.005,0.1,-0.7472981018777942,0.14580929794836892,0
11.241108179092407,1.5840973965841858,[1.8687715],0.005,0.1,-0.6691189031793836,0.1502790651819941,0
11.250150918960571,1.5876145734854459,[1.87265699],0.005,0.1,-0.5989597425499744,0.11283249308608194,0
11.26129150390625,1.5923041426871256,[1.87651997],0.005,0.1,-0.5375257577878183,0.12386731614115709,0
11.270049333572388,1.595625920871649,[1.88035624],0.005,0.1,-0.484123427666187,0.13215766273182744,0
11.28026270866394,1.599924692639856,[1.8841679],0.005,0.1,-0.7136826116087134,0.1350170340250643,0
