t_s,q_rad,q_des_rad,K,B,Kff,jerk,tau_Nm,reward
0.005335330963134766,-0.011333125570726873,[-7.2139259e-06],9.825212432529046,0.9781515540661307,1.9737818648793566,0.0,-9.9,1.474671044745933
0.013200998306274414,-0.011333125570726873,[-3.48626749e-05],9.650424865058092,0.9563031081322615,1.9475637297587132,0.0,-9.999,1.4747929895934773
0.022705554962158203,-0.011333125570726873,[-8.66477912e-05],9.475637297587138,0.9344546621983922,1.92134559463807,0.0,-7.528954458103956,1.4750206268260642
0.031491756439208984,-0.011333125570726873,[-0.00015817],9.300849730116184,0.9126062162645229,1.8951274595174268,0.0,-5.174180011737921,1.4753334040450041
0.04002022743225098,-0.011333125570726873,[-0.00024546],9.12606216264523,0.8907577703306536,1.8689093243967834,0.0,-3.542164974625186,1.4757125581158035
0.04940915107727051,-0.011333125570726873,[-0.00034496],8.951274595174274,0.8689093243967844,1.84269118927614,0.0,0.01800021101931497,1.47614126372153
0.05839371681213379,-0.011528524287463544,[-0.00045348],8.77648702770332,0.847060878462915,1.8164730541554968,0.0,1.7457850892698004,1.475767131261889
0.06717824935913086,-0.011528524287463544,[-0.00056823],8.601699460232366,0.8252124325290457,1.7902549190348536,0.0,2.4075187782491265,1.4762607263056502
0.07622623443603516,-0.010551530703780192,[-0.00068677],8.426911892761412,0.8033639865951765,1.7640367839142101,0.0,2.4898388371045437,1.480725473359029
0.08726143836975098,-0.00781594866946681,[-0.00080697],8.252124325290458,0.7815155406613071,1.7378186487935667,1.3801917983934047,2.275872344123739,1.488806923846637
0.0959160327911377,-0.004689569201680086,[-0.00092701],8.077336757819502,0.7596670947274378,1.7116005136729235,4.030160051308741,1.9424950352068726,1.4852269588431353
0.10405707359313965,-0.0017585884506300322,[-0.00104538],7.902549190348549,0.7378186487935685,1.6853823785522803,5.0,1.5849116516739015,1.4816303333409022
0.11249780654907227,0.0017585884506300322,[-0.00116078],7.727761622877595,0.7159702028596993,1.659164243431637,5.0,1.2420360475780177,1.4800289661633759
0.12244749069213867,0.005861961502100107,[-0.0012722],7.55297405540664,0.6941217569258299,1.6329461083109935,5.0,0.9349203139232326,1.4716044529353938
0.13032174110412598,0.008988340969886831,[-0.00137879],7.378186487935686,0.6722733109919605,1.6067279731903503,5.0,0.6812401264894894,1.4604659758763785
0.13930392265319824,0.012310119154410226,[-0.00147992],7.203398920464732,0.6504248650580913,1.5805098380697071,5.0,0.47039341565715437,1.4444132072500808
0.14704608917236328,0.015045701188723608,[-0.00157512],7.028611352993777,0.6285764191242219,1.5542917029490637,5.0,0.30371843449503977,1.4279802695718926
0.15615534782409668,0.018562878089983675,[-0.00166409],6.853823785522822,0.6067279731903527,1.5280735678284203,5.0,0.1661728881599822,1.4031643242183214
0.16497087478637695,0.022275453707980408,[-0.00174661],6.679036218051868,0.5848795272564833,1.501855432707777,5.0,0.05581145470065878,1.372731086623645
0.17299532890319824,0.025401833175767132,[-0.00182263],6.504248650580913,0.563031081322614,1.475637297587134,5.0,-0.027360430580170247,1.3439611246427994
0.18308401107788086,0.02911440879376387,[-0.00189216],6.329461083109958,0.5411826353887447,1.4494191624664907,3.3363476898897493,-0.09579433051855776,1.3168567820781862
0.1913151741027832,0.03224078826155059,[-0.0019553],6.154673515639004,0.5193341894548753,1.4232010273458477,0.8017006971675833,-0.14619096299257311,1.2909828897256062
0.19895553588867188,0.03458557286239063,[-0.00201222],5.97988594816805,0.5,1.3969828922252046,-2.093520782461789,-0.18083316306114422,1.2617478011410088
0.20699357986450195,0.03712575617996735,[-0.00206315],5.805098380697095,0.5,1.3707647571045614,-4.8056712760348175,-0.2094610667607187,1.2186379348516216
0.21499943733215332,0.03927514206407072,[-0.00210834],5.63031081322614,0.5,1.3445466219839184,-5.0,-0.22928561569509115,1.191712029411264
0.22435998916625977,0.04142452794817409,[-0.0021481],5.455523245755186,0.5,1.3183284868632752,-5.0,-0.24398867072970407,1.1657885456079065
0.23198437690734863,0.04298771768206745,[-0.00218275],5.280735678284231,0.5,1.292110351742632,-5.0,-0.2514474984952637,1.1466615643877385
0.2409505844116211,0.04435550869922414,[-0.00221263],5.105948110813277,0.5,1.2658922166219888,-5.0,-0.25477340090467376,1.1298268136315885
0.25098752975463867,0.04572329971638084,[-0.0022381],5.0,0.5,1.2396740815013456,-5.0,-0.2586528404033931,1.1129784106179184
0.25915980339050293,0.04611409714985418,[-0.00225949],5.0,0.5,1.2134559463807026,-5.0,-0.26126757250783705,1.1079850980092563
0.2679622173309326,0.046700293300064186,[-0.00227717],5.0,0.5,1.1872378112600595,-5.0,-0.26348544667306945,1.1006650185477098
0.2790086269378662,0.046895692016800855,[-0.00229147],5.0,0.5,1.1610196761394163,-5.0,-0.2627548823286444,1.0981220486218115
0.2891976833343506,0.046895692016800855,[-0.00230274],5.0,0.5,1.1348015410187733,-5.0,-0.260241382874534,1.0979853957498462
0.29798221588134766,0.046504894583327516,[-0.00231129],5.0,0.5,1.10858340589813,-5.0,-0.2559937232389966,1.1026203819470648
0.30797386169433594,0.04591869843311751,[-0.00231744],5.0,0.5,1.082365270777487,-5.0,-0.25022861067934765,1.1096504705802386
0.3189876079559326,0.04533250228290749,[-0.00232148],5.0,0.5,1.0561471356568437,-5.0,-0.24427170010748872,1.1167002911965402
0.32764148712158203,0.04435550869922414,[-0.00232367],5.0,0.5,1.0299290005362005,-5.0,-0.23653679478590295,1.1284861635937546
0.33754992485046387,0.04318311639880412,[-0.00232428],5.0,0.5,1.0037108654155575,-5.0,-0.2284379231326135,1.1426110214642842
0.345123291015625,0.0420107240983841,[-0.00232354],5.0,0.5,0.9774927302949143,-5.0,-0.2203413926915798,1.1566896938148024
0.3544762134552002,0.04044753436449074,[-0.00232167],5.0,0.5,0.9512745951742712,-5.0,-0.2104414018638574,1.1753451791703053
0.3619692325592041,0.03927514206407072,[-0.00231887],5.0,0.5,0.9250564600536281,-5.0,-0.20265528722734996,1.189235829148817
0.3700370788574219,0.03771195233017736,[-0.00231531],5.0,0.5,0.898838324932985,-4.772890953167883,-0.19290072176953846,1.20915873340868
0.3802046775817871,0.035757965162810657,[-0.00231117],5.0,0.5,0.8726201898123418,-4.341608409433594,-0.18116257250550424,1.2345378604259705
0.38901376724243164,0.033999376712180625,[-0.00230659],5.0,0.5,0.8464020546916986,-3.3223496627357623,-0.17063832506313856,1.2601123491941326
0.39696574211120605,0.03224078826155059,[-0.00230168],5.0,0.5,0.8201839195710555,-2.267553544603437,-0.1602571204237382,1.2838882492551917
0.40497708320617676,0.030482199810920558,[-0.00229657],5.0,0.5,0.7939657844504124,-1.0984766531004204,-0.15008358262146473,1.3057330549689727
0.4133443832397461,0.028332813926817187,[-0.00229136],5.0,0.5,0.7677476493297692,-0.37758260179908054,-0.1379410411854187,1.3288666253971684
0.4219849109649658,0.026378826759450486,[-0.00228612],5.0,0.5,0.741529514209126,0.3425960561103312,-0.12686659957583168,1.3483696421185898
0.4309804439544678,0.024229440875347112,[-0.00228093],5.0,0.5,0.715311379088483,1.1976376193500993,-0.11503783980321598,1.3678049516064177
0.44020557403564453,0.02188465627450707,[-0.00227585],5.0,0.5,0.6890932439678399,1.6432371299798127,-0.10219303052925995,1.3878051124552102
0.4497222900390625,0.019539871673667025,[-0.00227093],5.0,0.5,0.6628751088471967,2.1286519067683582,-0.08945993046158403,1.4058819594263778
0.4580070972442627,0.01739048578956365,[-0.00226621],5.0,0.5,0.6366569737265535,2.785152928467702,-0.07789879284484653,1.4198921620194471
0.4683661460876465,0.014850302471986938,[-0.00226171],5.0,0.5,0.6104388386059104,3.062548332085145,-0.06437488657778931,1.436184344800484
0.4795708656311035,0.012114720437673556,[-0.00225746],5.0,0.5,0.5842207034852673,3.4044543796865607,-0.0499870086623071,1.4509759660906347
0.4870941638946533,0.010551530703780192,[-0.00225348],5.0,0.5,0.5580025683646241,3.937355612728982,-0.04159823061371921,1.4563301045947057
0.49604296684265137,0.00820674610294015,[-0.00224978],5.0,0.5,0.531784433243981,4.383257793852599,-0.029503407842341494,1.464270067712174
0.5056531429290771,0.005861961502100107,[-0.00224636],5.0,0.5,0.5055662981233379,4.663825772318651,-0.0174236303251315,1.4710048014265897
0.5162270069122314,0.0031263794677867237,[-0.00224322],5.0,0.5,0.4793481630026947,5.0,-0.0035786193221831026,1.4759821304604306
0.5239841938018799,0.0013677910171566918,[-0.00224018],5.0,0.5,0.4531300278820516,5.0,0.025972987271131235,1.4791319608113926
0.5349881649017334,-0.0007815948669466809,[-0.00222816],5.0,0.5,0.42691189276140845,5.0,0.9393888039335738,1.4813136398834017
0.5429763793945312,-0.0027355820343133836,[-0.00218283],5.0,0.5,0.4006937576407653,5.0,1.9913022947320067,1.4816709579440044
0.5509693622589111,-0.0037125756179967346,[-0.00207261],5.0,0.5,0.3744756225201221,5.0,3.2626897301401274,1.4811943063273958
0.5617172718048096,-0.003907974334733405,[-0.00183755],5.0,0.5,0.3482574873994789,5.0,6.460685267226401,1.4808751000529294
0.5709996223449707,-0.0019539871673667024,[-0.00134852],5.0,0.5,0.3220393522788358,5.0,9.964606852672265,1.4816587471695517
0.5790586471557617,0.0011723923004200215,[-0.00040535],5.0,0.5,0.2958212171581926,5.0,9.999646068526722,1.4812343319081722
0.5903129577636719,0.005666562785363437,[0.00123393],5.0,0.5,0.2696030820375494,5.0,9.999996460685267,1.4778101244472963
0.5984349250793457,0.008597543536413491,[0.00376203],5.0,0.5,0.24338494691690624,5.0,9.999999964606854,1.477066540506564
0.6070675849914551,0.011919321720936885,[0.00729689],5.0,0.5,0.21716681179626307,5.0,9.999999999646068,1.4774677986902844
0.6162374019622803,0.01563189733893362,[0.01199541],5.0,0.5,0.19094867667561988,5.0,9.999999999996461,1.4790907540300071
0.6260538101196289,0.019539871673667025,[0.01804303],5.0,0.5,0.16473054155497668,5.0,9.999999999999964,1.4812840550541786
0.6340148448944092,0.02247085242471708,[0.02550276],5.0,0.5,0.13851240643433352,5.0,10.0,1.4798952609598153
0.6437735557556152,0.026574225476187156,[0.0343826],5.0,0.5,0.11229427131369034,5.0,10.0,1.4696119817452016
0.6547074317932129,0.030677598527657227,[0.04478498],5.0,0.5,0.08607613619304716,5.0,8.100755678564907,1.4427101740851982
0.6631641387939453,0.033999376712180625,[0.05674226],5.0,0.5,0.05985800107240398,5.0,4.39956574220985,1.3834552099122752
0.6729648113250732,0.0381027497636507,[0.07021268],5.0,0.5,0.0336398659517608,2.8927884863878406,2.8921178600228283,1.3074718974508879
0.681610107421875,0.04161992666491077,[0.08519086],5.0,0.5,0.0074217308311176206,-0.2004200420517921,1.3892653144522038,1.1840467907910783
0.6903290748596191,0.04513710356617083,[0.1016028],5.0,0.5,0.0,-3.2970433080363994,1.12293307473833,1.0204928956138575
0.6979565620422363,0.04787268560048421,[0.11936873],5.0,0.5,0.0,-5.0,1.2215366669107386,0.8414853531351664
0.7059524059295654,0.05099906506827094,[0.13835355],5.0,0.5,0.0,-5.0,1.300971630513364,0.6991005597476452
0.7139706611633301,0.05412544453605766,[0.15837725],5.0,0.5,0.0,-5.0,1.5449772634989927,0.5954893881303435
0.7249481678009033,0.058619615021001076,[0.17942695],5.0,0.5,0.0,-5.0,1.6008768568441392,0.5357260668881016
0.7345008850097656,0.06252758935573448,[0.20152904],5.0,0.5,0.0,-5.0,1.6712862848148988,0.5027100677079145
0.7419476509094238,0.06545857010678453,[0.2245903],5.0,0.5,0.0,-5.0,1.6178206462547797,0.4880486142484058
0.7509982585906982,0.06917114572478127,[0.24846857],5.0,0.5,0.0,-5.0,1.7490190816124187,0.4833452981295341
0.7612869739532471,0.07327451877625135,[0.27308361],5.0,0.5,0.0,-5.0,1.8738808493234012,0.4820726849091137
0.7689385414123535,0.0762054995273014,[0.29835788],5.0,0.5,0.0,-5.0,1.8617279516139595,0.48178374746560354
0.7779371738433838,0.07952727771182479,[0.32421723],5.0,0.5,0.0,-5.0,2.1654556451581595,0.4817383641800082
0.7879006862640381,0.08363065076329486,[0.35064212],5.0,0.5,0.0,-5.0,2.134476681931511,0.48173270390094614
0.7973847389221191,0.08773402381476494,[0.37755798],5.0,0.5,0.0,-5.0,2.2855747569959526,0.48173211271025884
0.8059699535369873,0.09125120071602501,[0.40494626],5.0,0.5,0.0,-5.0,2.572049355075161,0.48173206495980114
0.8167972564697266,0.09554997248423175,[0.43288684],5.0,0.5,0.0,-5.0,2.668968273231807,0.48173206225448967
0.8252303600311279,0.0996533455357018,[0.46133864],5.0,0.5,0.0,-5.0,2.6348916273900227,0.481732062128275
0.835996150970459,0.10277972500348855,[0.49015897],5.0,0.5,0.0,-5.0,2.79276430189839,0.4817320621240279
0.8459475040435791,0.10668769933822195,[0.51932422],5.0,0.5,0.0,-4.872129166359244,3.0808147055596153,0.48263828019635396
0.8571662902832031,0.11118186982316537,[0.54891163],5.0,0.5,0.0,-4.612623128946801,3.1813091066088877,0.4844101339211386
0.865196943283081,0.1143082492909521,[0.57882863],5.0,0.5,0.0,-4.304685225480824,3.314927813248312,0.4863945597497053
0.8743381500244141,0.11782542619221216,[0.6088911],5.0,0.5,0.0,-3.988004240098463,3.5690080446488524,0.4882999855792658
0.8856241703033447,0.12231959667715558,[0.63909409],5.0,0.5,0.0,-3.680821318680432,3.6439315770150373,0.4900155661254987
0.8947927951812744,0.12642296972862566,[0.6694825],5.0,0.5,0.0,-3.3908916731041567,3.7362925494705954,0.491513617840777
0.9040346145629883,0.1299401466298857,[0.69999016],5.0,0.5,0.0,-3.1209135149312504,3.7039658016160746,0.49280178059003976
0.9153814315795898,0.13443431711482912,[0.73055954],5.0,0.5,0.0,-2.8712046235758346,3.9956805950172773,0.4939008044862477
0.9258811473846436,0.1385376901662992,[0.76124283],5.0,0.5,0.0,-2.6410126700103422,4.104301243552199,0.4948347104489138
0.9364569187164307,0.14283646193450597,[0.79208263],5.0,0.5,0.0,-2.4291494895504764,4.218590591242067,0.4956267037007268
0.9466564655303955,0.1471352337027127,[0.82306197],5.0,0.5,0.0,-2.234292384443439,4.3389502398366675,0.4962976812517163
0.9550309181213379,0.1504570118872361,[0.85416457],5.0,0.5,0.0,-2.0551225769569657,4.468670337265579,0.4968658669378388
0.9640271663665771,0.15416958750523282,[0.885375],5.0,0.5,0.0,-2.1664232314819407,4.59979804854501,0.4965184162572786
0.9721431732177734,0.15749136568975622,[0.91662799],5.0,0.5,0.0,-2.048072811958417,4.5951139902899625,0.4968872653734382
0.9819672107696533,0.16120394130775295,[0.9478677],5.0,0.5,0.0,-1.8536844525573049,4.909897656002387,0.4974486626004966
0.9899847507476807,0.16433032077553966,[0.9790979],5.0,0.5,0.0,-1.6495014513710435,4.897653190176536,0.49797869079541496
0.9979257583618164,0.1674567002433264,[1.01022031],5.0,0.5,0.0,-1.4611653283389479,4.927935494368068,0.4984132249924543
1.0061936378479004,0.17038768099437648,[1.04110241],5.0,0.5,0.0,-1.296181779508474,5.130637599511106,0.4987509050305501
1.014084815979004,0.1735140604621632,[1.07168605],5.0,0.5,0.0,-1.1545104524946574,5.173655764139264,0.4990087765340176
1.0240190029144287,0.17781283223036992,[1.10197676],5.0,0.5,0.0,-1.0334090876084634,5.515914671018391,0.499205660750388
1.034999132156372,0.18211160399857668,[1.13208462],5.0,0.5,0.0,-0.9295396008044663,5.656374531702836,0.4993572188052453
1.0458791255950928,0.1864103757667834,[1.16210163],5.0,0.5,0.0,-0.8397995060260054,5.782302973533428,0.4994752772171968
1.0543549060821533,0.1897321539513068,[1.19203975],5.0,0.5,0.0,-0.7615820994154332,5.887538813091392,0.4995684286222583
1.0640034675598145,0.19364012828604024,[1.22187722],5.0,0.5,0.0,-0.6927973204579077,5.9678479143986225,0.49964283909501306
1.0733258724212646,0.1975481026207736,[1.25155628],5.0,0.5,0.0,-0.6318053877610812,6.0351960687273305,0.4997029399280048
1.0810041427612305,0.20067448208856034,[1.28096286],5.0,0.5,0.0,-0.5773295541194645,6.021058778295134,0.4997519458457808
1.090031385421753,0.2043870577065571,[1.30994696],5.0,0.5,0.0,-0.5283743581160587,6.1186641171257605,0.49979222184320954
1.0989067554473877,0.20790423460781715,[1.33837317],5.0,0.5,0.0,-0.4841578023754547,6.13910687448938,0.4998255364256624
1.1089472770690918,0.21200760765928722,[1.36612416],5.0,0.5,0.0,-0.4440583407617053,6.251398374354123,0.49985323483338817
1.1179592609405518,0.2155247845605473,[1.3931464],5.0,0.5,0.0,-0.4075747810742316,6.416302410157355,0.49987635755616006
1.1261560916900635,0.218651164028334,[1.41941623],5.0,0.5,0.0,-0.374296520774811,6.429608744344011,0.4998957219348318
1.1369242668151855,0.22294993579654077,[1.44485929],5.0,0.5,0.0,-0.34388167808587944,6.507358463143938,0.4999119789550133
1.1460108757019043,0.22627171398106416,[1.46939901],5.0,0.5,0.0,-0.31604109584138484,6.573230543774064,0.4999256533331099
1.1549534797668457,0.22998428959906086,[1.49297391],5.0,0.5,0.0,-0.2905266429363934,6.618080190632526,0.49993717227707263
1.165022611618042,0.23408766265053094,[1.51550616],5.0,0.5,0.0,-0.26712263001539666,6.63974384255567,0.499946886493818
1.1741113662719727,0.23780023826852767,[1.53690114],5.0,0.5,0.0,-0.24563946966408082,6.709618899387221,0.49995508582045295
1.1849966049194336,0.2422944087534711,[1.55703586],5.0,0.5,0.0,-0.22590895067100997,6.6667002259103505,0.4999620110707237
1.1930043697357178,0.24542078822125782,[1.57576804],5.0,0.5,0.0,-0.20778067339591205,6.5347724000633605,0.49996786317136244
1.2010242938995361,0.2487425664057812,[1.5929512],5.0,0.5,0.0,-0.19111932255545577,6.4769678032279145,0.499972810322185
1.2101812362670898,0.25225974330704126,[1.60839622],5.0,0.5,0.0,-0.1758025468160719,6.435503102131751,0.49997699368783544
1.2189888954162598,0.25577692020830134,[1.62185818],5.0,0.5,0.0,-0.1617192810878368,6.300529117089255,0.4999805319781754
1.227696418762207,0.25909869839282473,[1.63312407],5.0,0.5,0.0,-0.14876839469854886,6.3252215904206865,0.4999835251725837
1.2380175590515137,0.2633974701610315,[1.64196004],5.0,0.5,0.0,-0.1368575821339174,5.950637413161613,0.4999860575740609
1.2470672130584717,0.2671100457790282,[1.64805666],5.0,0.5,0.0,-0.1259024367425983,5.947322015032031,0.49998820033107616
1.2549092769622803,0.2700410265300783,[1.65129502],5.0,0.5,0.0,-0.11582566456445187,6.090462894509132,0.4999900135314267
1.2660057544708252,0.27414439958154835,[1.65176637],5.0,0.5,0.0,-0.10655640730003148,6.032999834443413,0.49999154794833545
1.2759571075439453,0.2780523739162818,[1.6495361],5.0,0.5,0.0,-0.09802965183055364,5.972868612391746,0.49999284650152437
1.2852351665496826,0.28137415210080513,[1.64464313],5.0,0.5,0.0,-0.09018570965619477,5.911056289386232,0.4999939454830421
1.294039011001587,0.2854775251522752,[1.63715462],5.0,0.5,0.0,-0.08296975386016142,5.838681075992389,0.499994875587838
1.3059980869293213,0.29036249307069195,[1.62716092],5.0,0.5,0.0,-0.07633140423281007,5.754254459492282,0.49999566278155894
1.3161473274230957,0.2944658661221621,[1.61477089],5.0,0.5,0.0,-0.07022435337023723,5.664673066933054,0.4999963290321684
1.3240299224853516,0.29759224558994873,[1.60015848],5.0,0.5,0.0,-0.06460602813336239,5.711027781479669,0.499996892927334
1.3339300155639648,0.30169561864141886,[1.58349949],5.0,0.5,0.0,-0.05943728200529161,5.422987114449502,0.49999737019579094
1.344911813735962,0.3059943904096256,[1.56481701],5.0,0.5,0.0,-0.05468211473063227,5.178481606064184,0.49999777414785607
1.3541557788848877,0.309316168594149,[1.54415998],5.0,0.5,0.0,-0.050307416252102485,5.252569973053373,0.4999981160477855
1.3619351387023926,0.31283334549540903,[1.52180528],5.0,0.5,0.0,-0.046282732441878444,5.267838209462658,0.4999984054286209
1.3725407123565674,0.31693671854687916,[1.49803871],5.0,0.5,0.0,-0.04258005048946892,5.014882515966955,0.4999986503584705
1.3802111148834229,0.32006309801466587,[1.4730544],5.0,0.5,0.0,-0.03917360210036652,5.03539434357994,0.4999988576657592
1.3889381885528564,0.32358027491592595,[1.44710298],5.0,0.5,0.0,-0.03603968288740407,4.927188809544467,0.4999990331297947
1.3992595672607422,0.32729285053392265,[1.4204546],5.0,0.5,0.0,-0.03315648652491603,4.8369712409563155,0.4999991816420094
1.4072163105010986,0.33041923000170936,[1.39337525],5.0,0.5,0.0,-0.030503952390917792,4.814093165595207,0.49999930734240056
1.4159421920776367,0.33413180561970607,[1.36616043],5.0,0.5,0.0,-0.028063625551198654,4.724363135410553,0.49999941373499035
1.425985336303711,0.3378443812377029,[1.33908846],5.0,0.5,0.0,-0.025818528053179614,4.655699759531106,0.4999995037855377
1.4360878467559814,0.3417523555724363,[1.31243113],5.0,0.5,0.0,-0.023753040591256727,4.6136606624214,0.4999995800042316
1.4453251361846924,0.345464931190433,[1.28648066],5.0,0.5,0.0,-0.021852793691517165,4.408278778541604,0.4999996445156775
1.4529328346252441,0.3487867093749564,[1.26152304],5.0,0.5,0.0,-0.020104567639506223,4.434052563585929,0.4999996991181295
1.4626965522766113,0.35269468370968976,[1.23782699],5.0,0.5,0.0,-0.01849620043867858,4.668066897482906,0.49999974533362235
1.4730355739593506,0.3569934554778965,[1.21567618],5.0,0.5,0.0,0.259021856527918,4.533742238001463,0.49995005893390854
1.483003854751587,0.3607060310958933,[1.19536791],5.0,0.5,0.0,0.2935077808183807,4.551838217802569,0.4999358763754114
1.4912643432617188,0.36383241056368,[1.17718744],5.0,0.5,0.0,0.23966293940207323,4.576309329395699,0.4999572447087365
1.4999454021453857,0.36734958746494006,[1.16134583],5.0,0.5,0.0,0.16473015602456914,4.458488744471918,0.4999798003370853
1.5110225677490234,0.3718437579498835,[1.14802669],5.0,0.5,0.0,0.09526752230487084,4.644312945178334,0.4999932439402483
1.5208804607391357,0.37555633356788015,[1.13747588],5.0,0.5,0.0,0.039620966914126844,4.638811655826218,0.49999883142576235
1.5310521125793457,0.37965970661935033,[1.12987807],5.0,0.5,0.0,-0.0014794173333787589,4.627936608208125,0.49999999837074866
1.539088487625122,0.38278608608713705,[1.1252523],5.0,0.5,0.0,-0.03006910845779818,4.47409339274377,0.4999993269497558
1.5501747131347656,0.3872802565720805,[1.1235744],5.0,0.5,0.0,-0.04883748578143737,4.650213793678486,0.4999982245334283
1.5588364601135254,0.3906020347566038,[1.12483403],5.0,0.5,0.0,-0.06029135854034318,4.490789135545266,0.49999729407571736
1.5681159496307373,0.3945100090913372,[1.12892369],5.0,0.5,0.0,-0.06649022870276872,4.521877815704506,0.4999967090529127
1.577962875366211,0.3986133821428072,[1.13570521],5.0,0.5,0.0,-0.06902131995379346,4.550289720106732,0.4999964537311599
1.589052438735962,0.4033029513444874,[1.14506778],5.0,0.5,0.0,-0.06906222321822031,4.574058819927659,0.4999964495267652
1.5988359451293945,0.4072109256792208,[1.15687034],5.0,0.5,0.0,0.20857359202665354,4.6026637649496,0.4999676174345081
1.6099705696105957,0.41150969744742755,[1.17094601],5.0,0.5,0.0,0.24432926295189994,4.6318147020839335,0.49995556365336047
1.6179182529449463,0.41463607691521426,[1.18710635],5.0,0.5,0.0,0.1924739987750033,4.668742206088328,0.49997242351954074
1.628474473953247,0.41893484868342096,[1.20514428],5.0,0.5,0.0,-0.15608753397511282,4.701170489503767,0.4999818642618156
1.636983871459961,0.4220612281512078,[1.22480318],5.0,0.5,0.0,0.019987975781773984,4.647916072496983,0.499999702597801
1.645944595336914,0.42557840505246775,[1.24578919],5.0,0.5,0.0,0.05526405098401618,4.722325809486272,0.4999977265200887
1.654442310333252,0.42850938580351783,[1.26787894],5.0,0.5,0.0,0.03783708535945531,4.86991801104023,0.49999893428381365
1.6634061336517334,0.4322219614215146,[1.29088275],5.0,0.5,0.0,0.006296819033023652,4.8370648359984445,0.4999999704845719
1.6740524768829346,0.43632533447298466,[1.31455433],5.0,0.5,0.0,-0.023870841345824637,4.9114432994888375,0.49999957582805193
1.6839091777801514,0.4406241062411914,[1.33866615],5.0,0.5,0.0,-0.04757821704140019,4.994313325908003,0.4999983149132263
1.6922659873962402,0.4439458844257148,[1.36304759],5.0,0.5,0.0,-0.06413004108228229,5.095986892373592,0.4999969385414622
1.701002597808838,0.44746306132697483,[1.38753088],5.0,0.5,0.0,-0.07446337042958817,5.128428817750731,0.4999958724697739
1.7109007835388184,0.45117563694497165,[1.41199163],5.0,0.5,0.0,-0.07993745146444262,5.364610523774724,0.49999524330608963
1.7192833423614502,0.454497415129495,[1.43637191],5.0,0.5,0.0,-0.08184752972854539,5.396049992678338,0.4999950132722073
1.7289299964904785,0.45860078818096506,[1.46060616],5.0,0.5,0.0,-0.08126491387350403,5.547937276486258,0.4999950840133007
1.7389369010925293,0.4627041612324352,[1.48469869],5.0,0.5,0.0,-0.0790151685580108,5.8031048136066286,0.49999535243364873
1.748161792755127,0.4664167368504319,[1.50874371],5.0,0.5,0.0,-0.07570787714355298,5.917554216834408,0.4999957333505768
1.7570617198944092,0.46993391375169197,[1.53275439],5.0,0.5,0.0,-0.0717799467282329,5.919081369667531,0.49999616459462076
1.7679271697998047,0.47423268551989867,[1.55666903],5.0,0.5,0.0,-0.06753711797285047,6.058678708455643,0.499996604605439
1.7789065837860107,0.4783360585713688,[1.58051835],5.0,0.5,0.0,-0.06318858399976651,6.294777991369709,0.4999970277685096
1.7899072170257568,0.4824394316228388,[1.60440423],5.0,0.5,0.0,-0.05887397139349804,6.369718728392934,0.49999741980683887
1.7989635467529297,0.4863474059575722,[1.62835813],5.0,0.5,0.0,-0.05468357020587644,6.437995021727307,0.49999777402936363
1.8068933486938477,0.48966918414209565,[1.65231323],5.0,0.5,0.0,-0.050673138478116865,6.413115349300325,0.49999808855655786
1.8159174919128418,0.49338175976009235,[1.67612916],5.0,0.5,0.0,-0.046874561283032995,6.417365912713836,0.49999836438758993
1.82789945602417,0.4980713289617725,[1.69969449],5.0,0.5,0.0,-0.04330343617918694,6.576072856288753,0.49999860411131103
1.8379220962524414,0.5017839045797692,[1.72297076],5.0,0.5,0.0,-0.3160027828629098,6.606856688758667,0.4999256713564487
1.849921464920044,0.5066688724981859,[1.74588178],5.0,0.5,0.0,-0.3460179525193277,6.61360632765204,0.4999108820407255
1.859579086303711,0.5105768468329194,[1.76828792],5.0,0.5,0.0,-0.28803371950795215,6.611538721588968,0.49993824579717766
1.869682788848877,0.5148756186011261,[1.79002614],5.0,0.5,0.0,-0.20927427847564967,6.597486160038007,0.49996739950282937
1.8806025981903076,0.5189789916525962,[1.81091739],5.0,0.5,0.0,-0.13627822291500846,6.7149709019395205,0.4999861753675194
1.8906679153442383,0.5226915672705928,[1.83077484],5.0,0.5,0.0,-0.07737188935779389,6.596890508274468,0.49999554373361316
1.902047872543335,0.527381136472273,[1.84941159],5.0,0.5,0.0,-0.033266186989326485,6.370214695843019,0.4999991762178708
1.910391092300415,0.5305075159400596,[1.86664735],5.0,0.5,0.0,0.2741311826089937,6.416750460583452,0.49994406298844823
1.9210906028747559,0.5348062877082664,[1.8823145],5.0,0.5,0.0,0.32857503496162144,6.480719103484169,0.4999196398204198
1.9353818893432617,0.5402774517768932,[1.89623408],5.0,0.5,0.0,0.2872806223946007,6.368597909895771,0.4999385682820573
1.9449026584625244,0.5441854261116267,[1.90822033],5.0,0.5,0.0,0.21955705944251852,6.354849932563881,0.49996411723487655
1.9559595584869385,0.5488749953133067,[1.91810551],5.0,0.5,0.0,0.15355610231394204,6.230709609946603,0.4999824477331745
1.9659743309020996,0.5529783683647768,[1.92574226],5.0,0.5,0.0,-0.17723102679147312,6.222427829034878,0.49997661830302575
1.9757397174835205,0.5566909439827735,[1.93104896],5.0,0.5,0.0,-0.25226461674322403,6.203558420824914,0.49995263050210076
1.984879732131958,0.5604035196007703,[1.93404665],5.0,0.5,0.0,-0.22766200959572036,6.284714879725743,0.49996141921592174
1.9952888488769531,0.5645068926522403,[1.93477017],5.0,0.5,0.0,-0.17291909822518375,6.095137756416627,0.4999777421642753
2.0042576789855957,0.5678286708367637,[1.93318497],5.0,0.5,0.0,-0.11679713287649367,6.05290503253388,0.499989845310957
2.012958526611328,0.5713458477380239,[1.92932622],5.0,0.5,0.0,-0.34553107964726776,6.1215540947005564,0.4999111326331426
2.0228915214538574,0.5754492207894939,[1.9233309],5.0,0.5,0.0,-0.3423444475996019,6.021243602526321,0.49991276407637275
2.0318586826324463,0.5789663976907539,[1.91529274],5.0,0.5,0.0,-0.26097671589023974,5.923261037206965,0.4999493023089969
2.041990280151367,0.5830697707422241,[1.90526831],5.0,0.5,0.0,-0.16676281852390057,5.8224373490923265,0.4999792987705926
2.054023265838623,0.5877593399439041,[1.89332829],5.0,0.5,0.0,-0.08431194249335587,5.718310659019309,0.4999947084540978
2.067462205886841,0.5926443078623208,[1.87951291],5.0,0.5,0.0,-0.020302682468760234,5.489977038172658,0.49999969315900183
2.0756025314331055,0.5961614847635809,[1.86384076],5.0,0.5,0.0,0.025850249986768572,5.429265333862865,0.49999950256544146
2.083189010620117,0.5994832629481043,[1.84644778],5.0,0.5,0.0,0.05717418479872277,5.47473847326362,0.49999756664439327
2.0919642448425293,0.6030004398493644,[1.8275674],5.0,0.5,0.0,0.35312390421628304,5.355965918742458,0.4999071844808952
2.0999197959899902,0.6061268193171511,[1.80742239],5.0,0.5,0.0,0.12173847337953378,5.352259304259495,0.49998896791531866
2.1099796295166016,0.6104255910853578,[1.78618626],5.0,0.5,0.0,0.039091854017967956,5.094125475338933,0.4999988624284609
2.118446111679077,0.6137473692698813,[1.76398985],5.0,0.5,0.0,0.01957288738192975,5.093075788976148,0.4999997148217852
2.128981590270996,0.6180461410380881,[1.74100522],5.0,0.5,0.0,0.29989311361448523,4.952657629570213,0.4999330561651825
2.138702630996704,0.6217587166560847,[1.71740311],5.0,0.5,0.0,0.34386363992447877,4.823301902896073,0.4999119881881684
2.1494076251983643,0.6258620897075547,[1.69328311],5.0,0.5,0.0,0.023210439502705044,4.614913207045686,0.4999995989733545
2.1571907997131348,0.6291838678920781,[1.66875209],5.0,0.5,0.0,-0.07816765844186674,4.605732255607798,0.4999954515973362
2.167060375213623,0.6330918422268116,[1.64398177],5.0,0.5,0.0,0.18729903680067467,4.48088116836008,0.4999738864195624
2.1761634349823,0.6368044178448083,[1.61913375],5.0,0.5,0.0,0.24216513523301247,4.357565399843459,0.49995634731601085
2.186922311782837,0.6409077908962785,[1.59432579],5.0,0.5,0.0,0.21588730116760432,4.231676842150107,0.4999653066847716
2.196873903274536,0.6448157652310118,[1.56968959],5.0,0.5,0.0,0.165883261696265,4.174768636715218,0.49997951655917255
2.2048697471618652,0.6481375434155352,[1.54536397],5.0,0.5,0.0,0.11574955244348512,4.028507439905401,0.4999900266517311
2.214873790740967,0.6522409164670053,[1.52143937],5.0,0.5,0.0,0.07371049964977767,3.8839049582703336,0.4999959555112752
2.223351001739502,0.6553672959347919,[1.49796401],5.0,0.5,0.0,0.04138082027086204,3.7494765526441616,0.49999872531078243
2.231593132019043,0.6590798715527887,[1.47497519],5.0,0.5,0.0,0.017823628370262988,3.6161184503265025,0.4999997635176081
2.238882541656494,0.661815453587102,[1.45249908],5.0,0.5,0.0,0.001353160358385841,3.4887923405764165,0.49999999863697064
2.250899314880371,0.6668958202222556,[1.43054879],5.0,0.5,0.0,-0.009722231563400106,3.3478507614471806,0.49999992963793666
2.2588865756988525,0.6700221996900422,[1.40914889],5.0,0.5,0.0,-0.016839417740309892,3.288087557355923,0.4999997889133706
2.2682085037231445,0.673734775308039,[1.38832977],5.0,0.5,0.0,-0.02112772328082304,3.1270516790443246,0.49999966771408616
2.277229070663452,0.6770565534925623,[1.36806784],5.0,0.5,0.0,-0.0234368185243757,2.9655724921385986,0.49999959111252057
2.2851316928863525,0.6801829329603492,[1.34828739],5.0,0.5,0.0,-0.02438863813372294,2.8015918893002443,0.4999995572265383
2.2928624153137207,0.683309312428136,[1.32893075],5.0,0.5,0.0,-0.02442990560546872,2.7424936218278275,0.49999955572685706
2.303133249282837,0.6876080841963426,[1.30991424],5.0,0.5,0.0,-0.023876975602026132,2.425716730565317,0.4999995756100192
2.3112263679504395,0.6907344636641293,[1.29110032],5.0,0.5,0.0,-0.022951247004949396,2.3906581523998196,0.49999960787992326
2.320233106613159,0.6942516405653893,[1.27243946],5.0,0.5,0.0,-0.021805950730170935,2.3290478127577923,0.4999996460380536
2.3281562328338623,0.6973780200331761,[1.25391034],5.0,0.5,0.0,-0.02054588854662838,2.110424028259777,0.4999996857636695
2.337984561920166,0.7012859943679095,[1.23537965],5.0,0.5,0.0,-0.019241732892690717,1.9017785914249428,0.4999997243900331
2.349132537841797,0.7057801648528529,[1.21666389],5.0,0.5,0.0,-0.017940267920884965,1.7037699788078497,0.49999976041235406
2.3571255207061768,0.7089065443206396,[1.1976488],5.0,0.5,0.0,-0.01667166447837148,1.6877168044307813,0.49999979309808595
2.365865468978882,0.712228322505163,[1.1782987],5.0,0.5,0.0,-0.015454617128563917,1.5090377296208866,0.49999982220354444
2.3768739700317383,0.7167224929901064,[1.15849961],5.0,0.5,0.0,-0.01429995443147837,1.212087455701929,0.49999984777852835
2.3855626583099365,0.7202396698913666,[1.13811971],5.0,0.5,0.0,-0.013213166051901115,1.2451128569338201,0.49999987003679813
2.39383864402771,0.7233660493591532,[1.11720941],5.0,0.5,0.0,-0.012196165002085035,1.2341511593925036,0.4999998892731161
2.405158758163452,0.7280556185608333,[1.09581778],5.0,0.5,0.0,-0.011248511691798826,0.9031260182078351,0.4999999058135307
2.412860870361328,0.7309865993118833,[1.07389389],5.0,0.5,0.0,-0.01036826034238729,0.9186691411770745,0.499999920037524
2.421837568283081,0.7346991749298801,[1.0514639],5.0,0.5,0.0,-0.009552541056626965,0.7711928792744455,0.49999993399837733
2.4308624267578125,0.7382163518311402,[1.02858289],5.0,0.5,0.0,-0.008797957266963955,0.6508336883267855,0.499999989879961
2.439845561981201,0.7417335287324003,[1.00528788],5.0,0.5,0.0,-0.00810085453989333,0.5512788108251316,0.5000008773459812
2.447974443435669,0.7452507056336604,[0.98165323],5.0,0.5,0.0,-0.007457499978575538,0.46678491265451716,0.500013947720716
2.4558539390563965,0.7481816863847104,[0.95778532],5.0,0.5,0.0,-0.006864199693594258,0.39675521245847356,0.5001527105035113
2.4662837982177734,0.7522850594361805,[0.9338174],5.0,0.5,0.0,-0.006317373543446617,0.32971347382688726,0.5013729144300315
2.4748709201812744,0.7558022363374406,[0.90991929],5.0,0.5,0.0,-0.005813600550725434,0.3136866513075227,0.5086480974088411
2.484863519668579,0.7597102106721738,[0.88628463],5.0,0.5,0.0,-0.005349644336607301,0.23428828857025752,0.5405906633650321
2.493859052658081,0.763227387573434,[0.86308929],5.0,0.5,0.0,-0.0049224650739624135,0.1687403989992221,0.6360843959074649
2.503100872039795,0.7665491657579574,[0.84049577],5.0,0.5,0.0,-0.004529222468650269,0.11274265463703896,0.8350015734991832
2.5118677616119385,0.7700663426592175,[0.81867069],5.0,0.5,0.0,0.27187108678633165,0.008796011463067457,1.1234013081393805
2.5208730697631836,0.7741697157106875,[0.79777356],5.0,0.5,0.0,0.3053288000239216,-0.18365610634312485,1.394486136162467
2.528834342956543,0.7769052977450008,[0.77794799],5.0,0.5,0.0,0.2505380862285021,-0.18926649040211113,1.4997358575269502
2.536855697631836,0.779836278496051,[0.75932338],5.0,0.5,0.0,-0.10130320216395838,-0.12119747575194535,1.4192803711770559
2.5465962886810303,0.783353455397311,[0.7420131],5.0,0.5,0.0,-0.48072929235606443,-0.07479688802147347,1.2103146890909302
2.554319143295288,0.785698239998151,[0.72610798],5.0,0.5,0.0,-1.3432546994402295,-0.07784577705341138,0.9902046334039893
2.5639350414276123,0.7882384233157278,[0.71167279],5.0,0.5,0.0,-2.1813392028243004,-0.12895744804147546,0.8060750495200387
2.5719306468963623,0.7903878091998312,[0.69873533],5.0,0.5,0.0,-3.1021799688188123,-0.21061638751566705,0.6792546693975635
2.5798532962799072,0.7923417963671978,[0.68727991],5.0,0.5,0.0,-4.389559065566452,-0.2846762909924309,0.595824728180648
2.58996319770813,0.7942957835345645,[0.67727969],5.0,0.5,0.0,-5.0,-0.32891012769246875,0.5463958860477653
2.5996253490448,0.7960543719851946,[0.6687069],5.0,0.5,0.0,-5.0,-0.3776641521591767,0.5207600765030274
2.6145823001861572,0.7980083591525613,[0.66151384],5.0,0.5,0.0,-5.0,-0.4249131686476262,0.5058174240434147
2.6254489421844482,0.7987899540195079,[0.65563756],5.0,0.5,0.0,-5.0,-0.45357389900304196,0.4983292559121504
2.632870674133301,0.7989853527362445,[0.65098736],5.0,0.5,0.0,-5.0,-0.5103462893139908,0.49424889163258645
2.6430351734161377,0.7989853527362445,[0.64744738],5.0,0.5,0.0,-5.0,-0.5661320749700944,0.491857022282323
2.653866767883301,0.7985945553027713,[0.64489979],5.0,0.5,0.0,-5.0,-0.624821588341327,0.4906079559571813
2.6625375747680664,0.7976175617190879,[0.64322669],5.0,0.5,0.0,-5.0,-0.6804289080372712,0.49023529855489606
2.671879768371582,0.7964451694186679,[0.64231057],5.0,0.5,0.0,-5.0,-0.7261653719106714,0.4903708322060248
2.681330442428589,0.7944911822513011,[0.64203894],5.0,0.5,0.0,-5.0,-0.7467272774481849,0.49130957680734055
2.6911516189575195,0.7921463976504612,[0.64231078],5.0,0.5,0.0,-5.0,-0.729137262203066,0.4929511105578455
2.699845314025879,0.7898016130496212,[0.64304056],5.0,0.5,0.0,-5.0,-0.6972505965337218,0.4951957184563498
2.710418701171875,0.7862844361483611,[0.64416856],5.0,0.5,0.0,-5.0,-0.5472018818685883,0.49934037400259884
2.7183008193969727,0.7831580566805743,[0.64566041],5.0,0.5,0.0,-5.0,-0.4951884894862404,0.504529193628156
2.72688364982605,0.779836278496051,[0.6474961],5.0,0.5,0.0,-5.0,-0.38244318838233843,0.5118454764503396
2.737180709838867,0.7753421080111076,[0.64968239],5.0,0.5,0.0,-5.0,-0.36167453285957896,0.5242396461916988
2.746238946914673,0.7718249311098475,[0.65225473],5.0,0.5,0.0,-5.0,-0.3818864464662992,0.5390348044651486
2.7541544437408447,0.7683077542085874,[0.65524219],5.0,0.5,0.0,-5.0,-0.35497873234180294,0.5592873274292287
2.762281656265259,0.7651813747408006,[0.65866369],5.0,0.5,0.0,-4.467585096134683,-0.25792183314010214,0.5887553487918742
2.770164728164673,0.762054995273014,[0.66256807],5.0,0.5,0.0,-2.5333778480820235,-0.16344688512857022,0.6333793579772293
2.778884172439575,0.7587332170884905,[0.66700159],5.0,0.5,0.0,-0.7609306678327454,-0.1468746392520256,0.6853963282430303
2.788853168487549,0.7550206414704939,[0.67198478],5.0,0.5,0.0,1.7359494130651703,-0.03746345606701295,0.749594296797157
2.7972617149353027,0.7515034645692338,[0.67756901],5.0,0.5,0.0,4.522934999001974,0.06792778222930464,0.8201233628282878
2.8065171241760254,0.7475954902345003,[0.68383493],5.0,0.5,0.0,5.0,0.17655231457076173,0.9252212389837313
2.816497802734375,0.7440783133332403,[0.69086503],5.0,0.5,0.0,5.0,0.28912225129595,1.049336369181383
2.8251404762268066,0.7407565351487168,[0.69874713],5.0,0.5,0.0,5.0,0.409796874264008,1.184338745366168
2.833827257156372,0.7382163518311402,[0.70757697],5.0,0.5,0.0,5.0,0.5369077023137733,1.3105503410032977
2.8451027870178223,0.7350899723633534,[0.71745871],5.0,0.5,0.0,5.0,0.6764025071963847,1.4214530212966086
2.852837562561035,0.7333313839127235,[0.72839384],5.0,0.5,0.0,5.0,0.7403553588960752,1.476868062293088
2.862029552459717,0.7315727954620934,[0.74028734],5.0,0.5,0.0,5.0,0.8834258677547638,1.466658167572529
2.871832847595215,0.7305958018784101,[0.75317023],5.0,0.5,0.0,5.0,1.0230533435385667,1.3848330001212477
2.88519549369812,0.7300096057282001,[0.76727066],5.0,0.5,0.0,5.0,1.4014634488033388,1.2392733366271482
2.8946611881256104,0.7307912005951467,[0.78280073],5.0,0.5,0.0,5.0,1.2570930181897348,1.0638988468675667
2.9049954414367676,0.73235439032904,[0.79974992],5.0,0.5,0.0,5.0,1.3162622742020083,0.8848881287353939
2.9148449897766113,0.7352853710800901,[0.81798426],5.0,0.5,0.0,5.0,1.2414790839113787,0.7363932746870345
2.9240691661834717,0.7386071492646135,[0.8374249],5.0,0.5,0.0,5.0,1.4938613786957862,0.6235814310094481
2.931842803955078,0.7413427312989268,[0.8580405],5.0,0.5,0.0,5.0,1.4258777286619144,0.5473652569202027
2.9408206939697266,0.744859908200187,[0.87973842],5.0,0.5,0.0,5.0,1.5431873288444578,0.5080253248039378
2.9511122703552246,0.7491586799683937,[0.90247705],5.0,0.5,0.0,5.0,1.7944184032569912,0.4908154836941409
2.960826873779297,0.753066654303127,[0.92625843],5.0,0.5,0.0,5.0,1.7260547420753238,0.484213100905421
2.9702963829040527,0.7569746286378605,[0.95101469],5.0,0.5,0.0,5.0,1.9752685581068634,0.4822686345899719
2.980443239212036,0.7608826029725938,[0.97671106],5.0,0.5,0.0,5.0,2.033832228666482,0.4818220005982245
2.9909725189208984,0.7647905773073274,[1.00328416],5.0,0.5,0.0,5.0,2.0932378417802124,0.48174353141042703
2.9988479614257812,0.7677215580583774,[1.03055574],5.0,0.5,0.0,4.901264425551353,2.053613782437989,0.4824347146631172
3.0079843997955322,0.7716295323931107,[1.05834082],5.0,0.5,0.0,2.1910892954117345,2.253386617001229,0.49643904200000866
3.0172321796417236,0.7753421080111076,[1.08649586],5.0,0.5,0.0,-1.147367528157498,2.2219004235354416,0.4990209958531934
3.0258750915527344,0.7788592849123676,[1.11480998],5.0,0.5,0.0,-4.316094209873679,2.232534816010384,0.4863233423449362
3.0351357460021973,0.782767259247101,[1.14308267],5.0,0.5,0.0,-5.0,2.438875043895057,0.48173206212922426
3.0438315868377686,0.7862844361483611,[1.17120061],5.0,0.5,0.0,-5.0,2.45182240708019,0.48173206212407066
3.0535011291503906,0.7899970117663577,[1.19903611],5.0,0.5,0.0,-5.0,2.5784282475998324,0.48173206212393843
3.0638411045074463,0.794100384817828,[1.22648714],5.0,0.5,0.0,-5.0,2.7080416572270534,0.48173206212393554
3.0738325119018555,0.798203757869298,[1.25351395],5.0,0.5,0.0,-5.0,2.8455608246910025,0.4817320621239355
3.0843687057495117,0.8026979283542414,[1.2801496],5.0,0.5,0.0,-5.0,3.1054379263926917,0.4817320621239355
3.0924108028411865,0.8058243078220281,[1.30645553],5.0,0.5,0.0,-5.0,3.125391429432366,0.4817320621239355
3.101531982421875,0.8093414847232882,[1.33244123],5.0,0.5,0.0,-5.0,3.310324721419489,0.4817320621239355
3.111445188522339,0.8130540603412848,[1.35815901],5.0,0.5,0.0,-5.0,3.5012665769743427,0.4817320621239355
3.1190526485443115,0.815985041092335,[1.38367983],5.0,0.5,0.0,-5.0,3.535976987365416,0.4817320621239355
3.1269302368164062,0.8193068192768583,[1.40903731],5.0,0.5,0.0,-5.0,3.752047401455457,0.4817320621239355
3.1358492374420166,0.8228239961781183,[1.43426674],5.0,0.5,0.0,-5.0,3.7605880813567354,0.4817320621239355
3.146674156188965,0.8273181666630619,[1.45943094],5.0,0.5,0.0,-5.0,4.06792883162467,0.4817320621239355
3.1548244953155518,0.8304445461308485,[1.48461956],5.0,0.5,0.0,-5.0,4.046189076392468,0.4817320621239355
3.165914297103882,0.834938716615792,[1.50990811],5.0,0.5,0.0,-5.0,4.334365605576872,0.4817320621239355
3.1744210720062256,0.838455893517052,[1.53535958],5.0,0.5,0.0,-5.0,4.295751647905259,0.4817320621239355
3.1827499866485596,0.8419730704183122,[1.56096786],5.0,0.5,0.0,-5.0,4.422617921337193,0.4817320621239355
3.1908562183380127,0.8450994498860988,[1.58666082],5.0,0.5,0.0,-4.84636964316588,4.403480047181315,0.48281819892663547
3.2003207206726074,0.8488120255040955,[1.61234639],5.0,0.5,0.0,-4.584962485631415,4.503448129049639,0.4845936475222698
3.209019660949707,0.8523292024053557,[1.6379363],5.0,0.5,0.0,-4.283499008375415,4.555684195655309,0.48652633655502114
3.2178099155426025,0.8556509805898791,[1.66331479],5.0,0.5,0.0,-3.9750134687471497,4.528358947715106,0.4883751945155367
3.2282001972198486,0.8599497523580858,[1.68830189],5.0,0.5,0.0,-3.6751789159395134,4.546058187791898,0.49004584681652824
3.2359302043914795,0.8630761318258724,[1.71269634],5.0,0.5,0.0,-3.3909963989302927,4.516866280098338,0.4915130981124247
3.2467596530914307,0.8675703023108159,[1.73624103],5.0,0.5,0.0,-3.1251565588926566,4.500911796236428,0.4927823366284214
3.254962205886841,0.871087479212076,[1.75860162],5.0,0.5,0.0,-2.878230751740455,4.134669958571865,0.49387110119255806
3.2628684043884277,0.8738230612463893,[1.77946352],5.0,0.5,0.0,-2.649772397515284,4.3208556851548385,0.49480056816578477
3.272329568862915,0.877535636864386,[1.79855832],5.0,0.5,0.0,-2.4388703816652653,4.203635035034262,0.4955917868926561
3.2829062938690186,0.8816390099158562,[1.81557919],5.0,0.5,0.0,-2.2444264452035125,4.080009705516851,0.49626414600186236
3.2913801670074463,0.8851561868171162,[1.83018865],5.0,0.5,0.0,-2.0652932408901177,3.961367812364148,0.4968348675843798
3.3001301288604736,0.8890641611518495,[1.84208475],5.0,0.5,0.0,-1.9003418822573144,3.8809361055269966,0.49731896067006315
3.3077855110168457,0.8923859393363729,[1.8511063],5.0,0.5,0.0,-1.7484937334868915,4.025734175842299,0.49772936754296815
3.3157968521118164,0.8957077175208964,[1.85730175],5.0,0.5,0.0,-1.6087340417566542,4.126513533644014,0.49807717939461316
3.3248250484466553,0.898834096988683,[1.86077269],5.0,0.5,0.0,-1.7561547257995747,4.048477344602708,0.49770947223136613
3.3338124752044678,0.9025466726066799,[1.86153891],5.0,0.5,0.0,-1.670925344485176,3.975381174391529,0.4979259536357684
3.3458211421966553,0.9072362418083599,[1.85954936],5.0,0.5,0.0,-1.5069251204415406,3.761076312565779,0.4983124521533095
3.355790376663208,0.9111442161430933,[1.8547963],5.0,0.5,0.0,-1.3306376261621935,3.8702664356563155,0.49868370271317125
3.36492657661438,0.9146613930443533,[1.84741088],5.0,0.5,0.0,-1.1679206032659635,3.7847452997204187,0.4989856393086149
3.3800032138824463,0.9205233545464535,[1.83743607],5.0,0.5,0.0,-1.3025128189449617,3.4024475013430417,0.49873868857240483
3.3883280754089355,0.9240405314477135,[1.82484061],5.0,0.5,0.0,-0.9395592152814247,3.5296216319132183,0.4993432960488932
3.3968710899353027,0.9277531070657102,[1.80983913],5.0,0.5,0.0,-0.7501206915809671,3.5899039040967553,0.4995813153198762
3.407363176345825,0.9318564801171804,[1.79271593],5.0,0.5,0.0,-0.6435458948327752,3.35741761576389,0.4996918005635678
3.4160876274108887,0.9351782583017039,[1.77366395],5.0,0.5,0.0,-0.5761798788073333,3.412882851608827,0.49975293255219044
3.4249002933502197,0.9386954352029638,[1.75294123],5.0,0.5,0.0,-0.5273244746737865,3.3214364998516674,0.49979304656534335
3.433284044265747,0.9422126121042239,[1.73082585],5.0,0.5,0.0,-0.48738412065874503,3.2403517132180597,0.49982320391921287
3.442509412765503,0.9463159851556939,[1.70756818],5.0,0.5,0.0,-0.4520544705967746,3.1646935936411285,0.4998479024743322
3.4528205394744873,0.9502239594904275,[1.68345506],5.0,0.5,0.0,-0.41949744707227676,3.1507039357015003,0.49986901896158376
3.46179461479187,0.9541319338251608,[1.65879563],5.0,0.5,0.0,-0.665023434076415,3.0557272454826148,0.4996708926321777
3.470785617828369,0.9576491107264208,[1.63386797],5.0,0.5,0.0,-0.6694235720523245,2.972435033717788,0.4996665245937486
3.4801371097564697,0.9613616863444175,[1.60892293],5.0,0.5,0.0,-0.5873120775610438,2.8938500795739914,0.4997432957671478
3.489837169647217,0.9650742619624143,[1.58420691],5.0,0.5,0.0,-0.4858972764380351,2.8186300432719733,0.4998242807747476
3.497873544692993,0.9680052427134643,[1.55995815],5.0,0.5,0.0,-0.39170485547569867,2.754089187118705,0.49988579766513086
3.507826805114746,0.9719132170481978,[1.53640037],5.0,0.5,0.0,-0.5890725023208807,2.524281095915155,0.4997417549547318
3.517575979232788,0.9758211913829312,[1.51373588],5.0,0.5,0.0,-0.5597154083930254,2.435555099144448,0.4997668475817134
3.526923894882202,0.9797291657176646,[1.49214872],5.0,0.5,0.0,-0.4562142108817483,2.4770702716086044,0.4998450908721028
3.538702964782715,0.9844187349193447,[1.47181725],5.0,0.5,0.0,-0.3430292690132177,2.618634469101095,0.4999124147466636
3.5485575199127197,0.9881313105373414,[1.45290875],5.0,0.5,0.0,-0.24411494918847032,2.5772228114062306,0.49995564157052524
3.5581486225128174,0.9922346835888115,[1.43555327],5.0,0.5,0.0,-0.16566011103835815,2.454885601500932,0.49997957163073903
3.5660529136657715,0.9951656643398614,[1.41982717],5.0,0.5,0.0,-0.10671172390341628,2.371764949863685,0.49999152329116897
3.5756068229675293,0.9992690373913317,[1.40576537],5.0,0.5,0.0,0.2120742928144493,2.2094573294207462,0.49996652133048636
3.5847792625427246,1.0029816130093283,[1.3933909],5.0,0.5,0.0,0.275375431889172,2.145150480225394,0.49994355408178326
3.597804546356201,1.0084527770779552,[1.38272192],5.0,0.5,0.0,0.24107871875598194,2.101343184732991,0.49995673809604524
3.606304883956909,1.0117745552624784,[1.37374836],5.0,0.5,0.0,0.17897892808199167,2.0151145405191784,0.49997615485053587
3.6153368949890137,1.0154871308804754,[1.36640337],5.0,0.5,0.0,0.11757775953101465,1.9470149316357301,0.4999897091388874
3.624021053314209,1.0188089090649985,[1.36056776],5.0,0.5,0.0,0.06665683621397804,1.964909370991393,0.4999966926113679
3.632798433303833,1.0223260859662586,[1.35609109],5.0,0.5,0.0,0.027985645257829504,1.858037817367122,0.499999417199429
3.6428537368774414,1.026234060300992,[1.35278358],5.0,0.5,0.0,-0.27576779301816196,1.5062925604271433,0.49994339367222074
3.652803421020508,1.0301420346357255,[1.3504283],5.0,0.5,0.0,-0.3278169884637502,1.3737764434061492,0.49992001138612424
3.660879373550415,1.0336592115369856,[1.34880709],5.0,0.5,0.0,-0.28499426672178163,1.3064407270339928,0.4999395445170989
3.6687819957733154,1.0367855910047723,[1.34770536],5.0,0.5,0.0,0.05969918610296057,1.346181781952936,0.499997350979903
3.6769204139709473,1.0401073691892957,[1.34693923],5.0,0.5,0.0,0.15934850838777292,1.320953800999144,0.49998110522492
3.684816598892212,1.043429147373819,[1.34632499],5.0,0.5,0.0,0.1592480673039402,1.1907813967548628,0.49998113313955983
3.6956982612609863,1.0479233178587624,[1.34559121],5.0,0.5,0.0,0.12513630941365808,0.9693116367084572,0.4999883636228892
3.704860210418701,1.0514404947600227,[1.34445862],5.0,0.5,0.0,0.08505250579789893,0.9958231019619667,0.49999464994864273
3.712782144546509,1.0545668742278094,[1.34275425],5.0,0.5,0.0,0.04964099607595229,0.9095085535709457,0.4999982267524685
3.720782995223999,1.0576932536955959,[1.34037267],5.0,0.5,0.0,0.0218664598820651,0.9395563355678721,0.49999975870384994
3.7317662239074707,1.0623828228972763,[1.33721095],5.0,0.5,0.0,0.0015657935224568237,0.7744125458089998,0.5000002732836557
3.740959405899048,1.0660953985152728,[1.33317621],5.0,0.5,0.0,-0.012489949664377605,0.8345973393613635,0.5000005209155359
3.7491071224212646,1.0692217779830595,[1.32825994],5.0,0.5,0.0,-0.0217143569881644,0.816752274140478,0.5000011339193051
3.758793354034424,1.0729343536010563,[1.32252752],5.0,0.5,0.0,-0.02736986448874236,0.8617748495352057,0.5000033236254556
3.7687768936157227,1.076646929219053,[1.31607825],5.0,0.5,0.0,-0.030473201447122462,0.8630305394032831,0.5000097947186234
3.7767832279205322,1.0797733086868397,[1.30904102],5.0,0.5,0.0,-0.03179942705156374,0.8961296039112587,0.5000264351979281
3.7847650051116943,1.0830950868713631,[1.30157132],5.0,0.5,0.0,-0.03191984681059744,0.8157453682367792,0.5000707015257632
3.793790578842163,1.0870030612060964,[1.29386016],5.0,0.5,0.0,-0.031246079171389704,0.8568557216622212,0.5001912814890884
3.8017654418945312,1.09032483939062,[1.28613773],5.0,0.5,0.0,-0.030069646091367676,1.18843331926717,0.5004666277208312
3.8100831508636475,1.0936466175751434,[1.27867604],5.0,0.5,0.0,-0.02859404127153454,1.148528831991415,0.5010618419312541
3.8191466331481934,1.0975545919098768,[1.27178125],5.0,0.5,0.0,-0.026959339571905494,1.252331877421284,0.5023083559954786
3.8267781734466553,1.1004855726609268,[1.26573158],5.0,0.5,0.0,-0.025260489925138754,1.2264766028555962,0.5042477735827867
3.8358187675476074,1.104002749562187,[1.26076772],5.0,0.5,0.0,-0.02356064019316436,1.3714759853334857,0.5073349310805404
3.8477182388305664,1.1088877174806036,[1.25725648],5.0,0.5,0.0,-0.021900712200520263,1.693288262042654,0.5122443963774381
3.8559954166412354,1.1122094956651272,[1.25558034],5.0,0.5,0.0,-0.02030621678007006,1.5390910804472666,0.5163904135306058
3.8658032417297363,1.1161174699998604,[1.25588879],5.0,0.5,0.0,-0.01879207017642428,1.5548439268421788,0.5200963376302797
3.874793767929077,1.1200254443345938,[1.25823388],5.0,0.5,0.0,-0.017365978904358467,1.568040285377644,0.5219206882176644
3.885141134262085,1.1237380199525906,[1.26272806],5.0,0.5,0.0,-0.016030807043918266,1.7271217378252117,0.5209911319475845
3.8937904834747314,1.1270597981371138,[1.26943792],5.0,0.5,0.0,-0.014786224202988113,1.5748897391095436,0.5173473552371877
3.9027862548828125,1.1307723737551107,[1.27829002],5.0,0.5,0.0,-0.01362984707570772,1.6191762326501127,0.5128771328846636
3.912224769592285,1.1346803480898442,[1.28914386],5.0,0.5,0.0,-0.012558025677484014,1.5284601214257953,0.5084650516798906
3.9228310585021973,1.1385883224245774,[1.30185465],5.0,0.5,0.0,-0.011566380981515943,1.6230224826525252,0.5048382626553582
3.9328272342681885,1.1424962967593109,[1.3163267],5.0,0.5,0.0,-0.01065016910408996,1.712539381821724,0.5023733858906483
3.941797971725464,1.1462088723773076,[1.33255662],5.0,0.5,0.0,-0.009804524821749674,1.9372203089996591,0.5009632753430706
3.9507787227630615,1.1499214479953044,[1.35051556],5.0,0.5,0.0,-0.00902462142080399,1.8415890702460342,0.5003198082521979
3.9603517055511475,1.1540248210467743,[1.37004801],5.0,0.5,0.0,-0.008305772772837366,1.9270288863629368,0.500088387072132
3.969172239303589,1.1575419979480346,[1.39099117],5.0,0.5,0.0,0.2683948639535601,2.0168554463537522,0.49996484310194844
3.9791834354400635,1.1614499722827678,[1.41323129],5.0,0.5,0.0,0.3021294174171043,2.1072257885408208,0.4999351707150529
3.9867708683013916,1.164380953033818,[1.43660499],5.0,0.5,0.0,0.24759377390285114,2.080358028724297,0.49995473413494296
3.997443675994873,1.168484326085288,[1.46091093],5.0,0.5,0.0,-0.10401258573604197,2.2158450730859083,0.49999198403989525
4.00594162940979,1.1718061042698116,[1.48601254],5.0,0.5,0.0,0.06885436275057252,2.351926505329839,0.49999647352612137
4.017177581787109,1.1763002747547546,[1.51183323],5.0,0.5,0.0,0.1008923842093805,2.483299556547547,0.49999242276745504
4.029858827590942,1.1815760401066449,[1.5383567],5.0,0.5,0.0,0.08028555847764522,2.7527123742539663,0.49999520179651064
4.042502164840698,1.1866564067417984,[1.56567548],5.0,0.5,0.0,0.04567896213779635,2.9998125194523317,0.49999844676072547
4.052792072296143,1.1907597797932685,[1.59387476],5.0,0.5,0.0,0.012591545421039296,3.076775091943545,0.4999998819775383
4.062757968902588,1.1948631528447384,[1.62291807],5.0,0.5,0.0,-0.013871184825937442,3.1597151292730272,0.49999985677008646
4.071792840957642,1.1985757284627352,[1.65265582],5.0,0.5,0.0,-0.0330063930648014,3.1225912383909527,0.49999918903435286
4.084852457046509,1.2040468925313619,[1.68294588],5.0,0.5,0.0,-0.04575037293493464,3.3958072989195447,0.4999984419001856
4.094825983047485,1.2081502655828322,[1.71374764],5.0,0.5,0.0,0.2225723430589011,3.477666351160008,0.4999631249128279
4.102789640426636,1.211081246333882,[1.74495223],5.0,0.5,0.0,0.25170799128671933,3.444043250568648,0.4999528393045632
4.1127800941467285,1.2149892206686155,[1.77633477],5.0,0.5,0.0,-0.08076922504343917,3.5397443176028225,0.49999514380186005
4.122225761413574,1.2187017962866122,[1.80773085],5.0,0.5,0.0,-0.18950752227944834,3.7000692576495324,0.4999732669831574
4.131087303161621,1.2220235744711359,[1.83906731],5.0,0.5,0.0,-0.20326752082490301,3.855035134897926,0.49996924403921983
4.140828609466553,1.225931548805869,[1.87026859],5.0,0.5,0.0,0.09464746246019587,3.9136602581468356,0.49999333159867776
4.150784254074097,1.2296441244238658,[1.9011984],5.0,0.5,0.0,0.15914381384241205,3.9678688274711615,0.49998114710665065
4.160381555557251,1.233552098758599,[1.93167624],5.0,0.5,0.0,-0.1417230264554864,3.9952626903084516,0.4999850486290049
4.1707541942596436,1.2380462692435428,[1.96149508],5.0,0.5,0.0,0.050705280856911034,4.004191300776644,0.49999808613090563
4.1798505783081055,1.2417588448615395,[1.99042474],5.0,0.5,0.0,0.08876642426159204,4.007084440391177,0.49999413454672503
4.192825555801392,1.246839211496693,[2.01820904],5.0,0.5,0.0,0.06882452654996662,4.102810259571535,0.49999647392448454
4.201802968978882,1.250356388397953,[2.04458806],5.0,0.5,0.0,0.033168715845466414,4.036151175559102,0.4999991810382181
4.214517831802368,1.2554367550331063,[2.06930484],5.0,0.5,0.0,-0.0011703953989600467,3.832629373441974,0.49999999898030123
4.2237608432769775,1.2593447293678397,[2.09208074],5.0,0.5,0.0,-0.028547053536134133,3.8663469241741644,0.4999993933628664
4.233646392822266,1.2632527037025731,[2.11266163],5.0,0.5,0.0,-0.048137672084199654,3.8419109021688453,0.499998275051654
4.242692232131958,1.26696527932057,[2.13084097],5.0,0.5,0.0,-0.06092131629535606,3.8122561452107697,0.4999972372344488
4.252124309539795,1.2704824562218298,[2.14643944],5.0,0.5,0.0,-0.06835316657451698,3.7820136111178404,0.499996522057141
4.2640087604522705,1.2751720254235102,[2.1592688],5.0,0.5,0.0,-0.07182944965556735,3.630488632350863,0.49999615930265434
4.273766040802002,1.2790799997582434,[2.16919506],5.0,0.5,0.0,-0.07250959291755635,3.7717418329972467,0.4999960862245072
4.284145355224609,1.2829879740929768,[2.17623597],5.0,0.5,0.0,-0.07129003682298242,3.7594475212579472,0.4999962167703003
4.291733741760254,1.286505150994237,[2.18049872],5.0,0.5,0.0,-0.0688350127516951,3.862898364916024,0.4999964728499308
4.300752878189087,1.2904131253289703,[2.18213244],5.0,0.5,0.0,-0.065622602412467,3.852157853048577,0.49999679437894606
4.30875825881958,1.293539504796757,[2.1812998],5.0,0.5,0.0,-0.06198920043051562,3.8594702648474373,0.4999971395293086
4.317734003067017,1.2970566816980171,[2.17819293],5.0,0.5,0.0,-0.05816671511089869,3.9235401885104446,0.499997481426334
4.329395294189453,1.3015508521829606,[2.17304737],5.0,0.5,0.0,-0.05431161658605982,3.8811233807878542,0.499997804208087
4.336773872375488,1.3044818329340107,[2.16611451],5.0,0.5,0.0,-0.32656510560836927,3.9544350179100958,0.4999206198795926
4.3465094566345215,1.308389807268744,[2.15771428],5.0,0.5,0.0,-0.35604025596069155,4.036183358560063,0.49990564522061315
4.356517553329468,1.312493180320214,[2.14824046],5.0,0.5,0.0,-0.297468019622885,4.0073852364410625,0.49993413440292794
4.365874767303467,1.3162057559382108,[2.13811864],5.0,0.5,0.0,-0.21810363343948228,4.358106489450929,0.49996459071982946
4.373753547668457,1.3195275341227342,[2.12775315],5.0,0.5,0.0,-0.14450616477944028,4.245146872694135,0.49998445564613714
4.382816791534424,1.3228493123072576,[2.1175102],5.0,0.5,0.0,-0.08501508862994525,4.294121279828714,0.49999461982548965
4.391277551651001,1.3263664892085176,[2.10777578],5.0,0.5,0.0,-0.040349394273704306,4.3704406897727655,0.4999987880625998
4.40021014213562,1.3298836661097777,[2.09889444],5.0,0.5,0.0,0.26757859762734393,4.295711122337078,0.4999467050234848
4.4095258712768555,1.3334008430110378,[2.09112309],5.0,0.5,0.0,0.3225214280264797,4.360069553479333,0.49992257339881546
4.4178626537323,1.3369180199122979,[2.08467086],5.0,0.5,0.0,0.005655281831212944,4.2647797189346885,0.4999999761924245
4.427087306976318,1.3406305955302946,[2.07969118],5.0,0.5,0.0,-0.09475829075373211,4.302495579138208,0.4999933159727904
4.435061693191528,1.3437569749980813,[2.07628309],5.0,0.5,0.0,0.17077990332276383,4.198348524061383,0.4999782894526275
4.443979740142822,1.347469550616078,[2.07448833],5.0,0.5,0.0,0.22561459087112995,4.204302476005104,0.49996211000177354
4.4527812004089355,1.3511821262340749,[2.0742931],5.0,0.5,0.0,-0.07656157608590128,4.091249182975459,0.499995636585096
4.464800119400024,1.3562624928692282,[2.07565906],5.0,0.5,0.0,-0.1593246678800307,4.140504888318622,0.49998110423354464
4.4727630615234375,1.3591934736202782,[2.07853317],5.0,0.5,0.0,-0.15379986601633397,4.036759129498361,0.49998239196298844
4.483028173446655,1.363492245388485,[2.08282491],5.0,0.5,0.0,-0.11905047635678032,4.060795103980185,0.4999894497107062
4.490761756896973,1.3660324287060617,[2.08841447],5.0,0.5,0.0,-0.08006454774592454,3.9815157502524117,0.49999522816835834
4.500447988510132,1.3699404030407951,[2.09515215],5.0,0.5,0.0,-0.3221993651345674,3.9681925958809847,0.4999227279427094
4.509501695632935,1.373457579942055,[2.1028816],5.0,0.5,0.0,-0.32894469537090554,3.9623144523668854,0.49991945891627365
4.5187647342681885,1.3775609529935253,[2.11145105],5.0,0.5,0.0,-0.25466566165484633,3.9235780819143513,0.499951724532447
4.527706146240234,1.3810781298947854,[2.12069871],5.0,0.5,0.0,-0.16535381121229825,3.939338182000964,0.499979647102064
4.5391318798065186,1.385376901662992,[2.130493],5.0,0.5,0.0,-0.08618639963334412,3.9781832173023037,0.4999944705523401
4.548712491989136,1.3890894772809885,[2.14072782],5.0,0.5,0.0,-0.0242930687729149,3.982191629609741,0.4999995606898436
4.5567076206207275,1.3920204580320388,[2.15127853],5.0,0.5,0.0,0.02056979205795259,3.9729154030593907,0.49999968503206627
4.565698146820068,1.3959284323667722,[2.16200949],5.0,0.5,0.0,0.05117806047681429,4.031730418612186,0.4999980502744858
4.5747363567352295,1.3998364067015054,[2.17280612],5.0,0.5,0.0,0.0707666424136414,4.096194533302366,0.4999962721173087
4.582699537277222,1.4031581848860288,[2.18357322],5.0,0.5,0.0,0.0822358550263258,4.151545930539328,0.49999496584117104
4.591725587844849,1.4068707605040258,[2.19422485],5.0,0.5,0.0,0.08792465005983367,4.19274870679732,0.49999424526309844
4.601696014404297,1.410974133555496,[2.20468441],5.0,0.5,0.0,0.08961618377585545,4.221685118113277,0.49999402171010293
4.610766887664795,1.4146867091734927,[2.21488489],5.0,0.5,0.0,0.08862381373625901,4.244453101480922,0.4999941533781371
4.621904373168945,1.4189854809416993,[2.22476883],5.0,0.5,0.0,0.08589229122999173,4.258286087151278,0.4999945082258788
4.631717205047607,1.4228934552764325,[2.23429566],5.0,0.5,0.0,0.08208904341098731,4.3008455238318,0.4999949837995073
4.643705368041992,1.427583024478113,[2.24365219],5.0,0.5,0.0,0.07767824860587719,4.747056006395386,0.4999955083741273
4.652749061584473,1.4312956000961095,[2.25319285],5.0,0.5,0.0,0.07297773570092816,4.572529282301713,0.4999960355246476
4.665775537490845,1.436375966731263,[2.26302691],5.0,0.5,0.0,0.06820129819141676,4.582460131237366,0.49999653749463974
4.6759727001190186,1.4406747384994696,[2.27310776],5.0,0.5,0.0,0.06348952050771316,4.569464974085064,0.49999699939059256
4.683740139007568,1.4436057192505198,[2.28338729],5.0,0.5,0.0,0.058931926801774094,4.494555561890769,0.49999741472447873
4.692706346511841,1.4473182948685164,[2.29374664],5.0,0.5,0.0,0.05458274001917568,4.438254723975932,0.49999778223064273
4.701711416244507,1.4510308704865131,[2.30403532],5.0,0.5,0.0,0.3265103725530063,4.519037469451615,0.4999206464838292
4.7117390632629395,1.4549388448212468,[2.31408399],5.0,0.5,0.0,0.3557764065759934,4.297694788613572,0.49990578500189164
4.720499038696289,1.4584560217225064,[2.32369409],5.0,0.5,0.0,0.2970755425351895,4.028836468697961,0.4999343080820144
4.731763601303101,1.4633409896409235,[2.3326472],5.0,0.5,0.0,-0.05840076470346117,4.114385258094056,0.49999746111727617
4.739711284637451,1.4664673691087102,[2.34072315],5.0,0.5,0.0,0.11087926225731959,4.0405615772316645,0.49999084826668533
4.748632431030273,1.4701799447267068,[2.34771535],5.0,0.5,0.0,0.1395987128820046,3.970895464127529,0.4999854934812633
4.757816314697266,1.4738925203447035,[2.35347488],5.0,0.5,0.0,0.1159257777531493,4.005231612294772,0.4999899962606554
4.766710519790649,1.4770188998124902,[2.35790922],5.0,0.5,0.0,0.0784892427530954,3.924208576686036,0.4999954140959697
4.775717735290527,1.4807314754304872,[2.36090838],5.0,0.5,0.0,0.04279189933152194,3.8497967460062514,0.4999986368953172
4.784802198410034,1.4846394497652204,[2.36235308],5.0,0.5,0.0,0.013923568056389838,3.786880166194057,0.49999985568625516
4.792722463607788,1.4875704305162705,[2.36216003],5.0,0.5,0.0,-0.007427921182076231,3.739156003391764,0.49999995892843696
4.802733421325684,1.491478404851004,[2.36024797],5.0,0.5,0.0,-0.02221306927520255,3.5937973046606224,0.4999996326976915
4.811513900756836,1.4951909804690007,[2.35657729],5.0,0.5,0.0,-0.031808120550582915,3.677916829178395,0.499999246848465
4.819758176803589,1.4983173599367874,[2.35125151],5.0,0.5,0.0,-0.03752720346168653,3.723857090363611,0.4999989516685284
4.828877925872803,1.5020299355547841,[2.34442209],5.0,0.5,0.0,-0.040461272364829756,3.643500987966263,0.4999987813325333
4.837091684341431,1.5053517137393075,[2.33617598],5.0,0.5,0.0,-0.04145555839743791,3.5762721549089544,0.4999987207021839
4.848170757293701,1.5096504855075141,[2.32658352],5.0,0.5,0.0,-0.0411388532987723,3.508827070287115,0.49999874017421664
4.856716632843018,1.5129722636920375,[2.31576221],5.0,0.5,0.0,-0.03996651678498109,3.523501939002843,0.4999988109537205
4.867114543914795,1.517466434176981,[2.30382883],5.0,0.5,0.0,-0.038261812691766595,3.329879737270475,0.499998910223886
4.876441240310669,1.5211790097949778,[2.29086218],5.0,0.5,0.0,-0.03625043826335078,3.332581660538493,0.4999990217884789
4.884081840515137,1.524109990546028,[2.27696579],5.0,0.5,0.0,-0.03408747186920559,3.215320250205897,0.49999913504027726
4.893722295761108,1.5280179648807612,[2.26226296],5.0,0.5,0.0,-0.03187760681463259,3.187707171902633,0.4999992435542867
4.9055023193359375,1.5327075340824412,[2.24682881],5.0,0.5,0.0,-0.029689983469911856,2.940849932002872,0.49999934381499467
4.915532112121582,1.537201704567385,[2.23066379],5.0,0.5,0.0,-0.027568890589648197,2.830116232222609,0.49999943422336374
4.925868034362793,1.5411096789021181,[2.21378035],5.0,0.5,0.0,-0.02554140147912069,2.7282192788983246,0.4999995143807299
4.935728073120117,1.544822254520115,[2.19624238],5.0,0.5,0.0,-0.02362277889572565,2.6351833479192073,0.49999958459811294
4.943785667419434,1.5479486339879014,[2.17812944],5.0,0.5,0.0,-0.021820276278163624,2.5555444228432003,0.4999996455728262
4.953749895095825,1.5520520070393715,[2.15954049],5.0,0.5,0.0,-0.020135796471618613,2.481466628355173,0.49999969818267204
4.963488817214966,1.5561553800908419,[2.14059381],5.0,0.5,0.0,-0.018567741615711966,2.4139253270466368,0.4999997433597724
4.97557806968689,1.5606495505757851,[2.12140568],5.0,0.5,0.0,-0.01711229311720453,2.300623455556256,0.4999997820168109
4.983738660812378,1.5637759300435718,[2.10210065],5.0,0.5,0.0,-0.015764291563079624,2.2921840798233464,0.4999998150069076
4.994757652282715,1.5680747018117789,[2.08283452],5.0,0.5,0.0,-0.014517836721619286,2.21034458409244,0.49999984310452344
5.004050016403198,1.5721780748632488,[2.06374976],5.0,0.5,0.0,-0.013366692300768375,2.124932018787409,0.4999998669991186
5.014752626419067,1.576281447914719,[2.04495701],5.0,0.5,0.0,0.26373380471081376,2.0373821925370748,0.4999482255148176
5.02374529838562,1.5799940235327155,[2.02655397],5.0,0.5,0.0,0.021799373810714562,1.9507450100155321,0.4999996462515391
5.032882452011108,1.5839019978674491,[2.00861399],5.0,0.5,0.0,-0.06551999481306918,1.8310259368823796,0.49999680439570476
5.041776895523071,1.5872237760519723,[1.99119685],5.0,0.5,0.0,-0.08567639340758365,1.7796838219626703,0.4999945357991508
5.0497214794158936,1.5905455542364957,[1.97437945],5.0,0.5,0.0,0.19668987647977185,1.714522627517467,0.49997120227493475
5.058731317520142,1.5938673324210193,[1.95822467],5.0,0.5,0.0,0.24442021614338483,1.6008488812974089,0.49995553056816766
5.068734407424927,1.597970705472489,[1.94274146],5.0,0.5,0.0,-0.07144238053357083,1.4770770144213878,0.4999962006312443
5.078722238540649,1.6022694772406958,[1.92789844],5.0,0.5,0.0,-0.16747234109846207,1.3492225107510496,0.4999791228618612
5.087785959243774,1.6059820528586928,[1.91364201],5.0,0.5,0.0,0.10357752744377226,1.2268613870669816,0.49999201991187997
5.096753120422363,1.6094992297599529,[1.89992658],5.0,0.5,0.0,0.16404633592761794,1.1714932400119535,0.4999800148546782
5.107160329818726,1.6134072040946863,[1.88669737],5.0,0.5,0.0,0.1432504134295205,0.9850919673296583,0.49998505025792855
5.115431785583496,1.616533583562473,[1.87387527],5.0,0.5,0.0,0.09851946786880486,0.9526669163141201,0.4999945440972063
5.124223709106445,1.6202461591804695,[1.86140785],5.0,0.5,0.0,0.05339809092398986,0.8450622294654496,0.500006756717144
5.134689092636108,1.6243495322319397,[1.84924803],5.0,0.5,0.0,0.0160832796019585,0.7526659526355706,0.5000402403230426
5.1447038650512695,1.62845290528341,[1.83734272],5.0,0.5,0.0,-0.011821002793604115,0.6838566895013053,0.5001620456497826
5.155814170837402,1.6327516770516164,[1.82566265],5.0,0.5,0.0,-0.03125142918619693,0.6181248408440269,0.5005848409369331
5.166090965270996,1.6370504488198232,[1.81421809],5.0,0.5,0.0,-0.043886475781003104,0.6225821168702098,0.5018763286943155
5.176515102386475,1.64134922058803,[1.80308293],5.0,0.5,0.0,-0.05140611351847678,0.5376420721150342,0.505343221474791
5.187819242477417,1.6460387897897102,[1.79237958],5.0,0.5,0.0,-0.05523298507157434,0.5144949384124946,0.513797192368511
5.198967695236206,1.65014216284118,[1.7822526],5.0,0.5,0.0,-0.05648088449734545,0.747125729587082,0.5304791852743633
5.209955215454102,1.6546363333261238,[1.77288065],5.0,0.5,0.0,-0.05598348339328939,0.7743329315994779,0.5610304709587802
5.220399618148804,1.6587397063775937,[1.76446731],5.0,0.5,0.0,-0.05434679992767345,0.7903731850926135,0.6069187869833996
5.2281835079193115,1.6618660858453804,[1.75715912],5.0,0.5,0.0,-0.052002075800896955,0.7311545811791089,0.6626483279698704
5.235862970352173,1.6651878640299036,[1.75101059],5.0,0.5,0.0,-0.04925083525577678,0.6811840878431105,0.729210142838664
5.2449798583984375,1.6694866357981104,[1.74609192],5.0,0.5,0.0,-0.04630042210447341,0.7972886075340265,0.8092271477101938
5.254751205444336,1.6726130152658973,[1.74250904],5.0,0.5,0.0,-0.043290848807376464,0.7198625314374923,0.8764031535738479
5.267056465148926,1.6776933819010509,[1.74033407],5.0,0.5,0.0,-0.04031455468418714,0.8049348535229737,0.9562228387355556
5.276670217514038,1.681210558802311,[1.73962785],5.0,0.5,0.0,-0.037430697682165115,0.7716683702495767,1.0053429375593819
5.2856762409210205,1.6851185331370444,[1.74037858],5.0,0.5,0.0,-0.03467536989136387,0.6682646220355668,1.0429510202301793
5.29407525062561,1.6886357100383043,[1.74247628],5.0,0.5,0.0,-0.03206883634809826,0.6305806439530819,1.0600311853115474
5.301680088043213,1.6919574882228277,[1.74578299],5.0,0.5,0.0,-0.029620629889629053,0.5487320246473556,1.0602130054302814
5.311702489852905,1.695865462557561,[1.75013121],5.0,0.5,0.0,-0.027333116420884554,0.4860662093385536,1.0549067518132806
5.321737289428711,1.6995780381755579,[1.7553194],5.0,0.5,0.0,-0.0252039762568256,0.5340216477190208,1.0371806759858324
5.330763816833496,1.7030952150768177,[1.76110478],5.0,0.5,0.0,-0.2992662808915312,0.2574402599118771,1.010097927585273
5.342113256454468,1.707784784278498,[1.76715757],5.0,0.5,0.0,-0.33056083782161666,0.043388951788436936,0.9940145660017201
5.352009057998657,1.711888157329968,[1.77306351],5.0,0.5,0.0,-0.2737714841202221,-0.11578041326196832,0.973027034149184
5.3606858253479,1.7150145367977547,[1.77845534],5.0,0.5,0.0,-0.19612383058930666,-0.12662513496552252,0.9470829217365664
5.369694471359253,1.7183363149822781,[1.78303108],5.0,0.5,0.0,-0.1241593727170578,-0.32484847495967295,0.9329604450104747
5.381433486938477,1.7224396880337483,[1.7863701],5.0,0.5,0.0,-0.6182849577274883,-0.6729520085793906,0.9412851853847902
5.389684438705444,1.7251752700680614,[1.78806097],5.0,0.5,0.0,-1.1933882559013231,-0.5298334888465123,0.9523673659683088
5.399442195892334,1.7277154533856383,[1.78793905],5.0,0.5,0.0,-2.223052811347276,-0.5729756777128926,0.9804770504476429
5.408197641372681,1.7294740418362682,[1.78593011],5.0,0.5,0.0,-3.4528115520426725,-0.615388082184373,1.0198384108277914
5.4166858196258545,1.7308418328534252,[1.78199548],5.0,0.5,0.0,-5.0,-0.5182408186474339,1.0742707156738671
5.4246721267700195,1.7316234277203715,[1.77617748],5.0,0.5,0.0,-5.0,-0.603510047384638,1.1540575878844508
5.434431314468384,1.732014225153845,[1.76848508],5.0,0.5,0.0,-5.0,-0.6811615578461967,1.248152331258092
5.443718671798706,1.7322096238705815,[1.75889927],5.0,0.5,0.0,-5.0,-0.7558141220917579,1.3489478115911908
5.452678442001343,1.7316234277203715,[1.74742856],5.0,0.5,0.0,-5.0,-0.8277232473023856,1.4329991388863081
5.461074352264404,1.7308418328534252,[1.73410464],5.0,0.5,0.0,-5.0,-0.9021301526199074,1.4796051503632313
5.4700117111206055,1.7294740418362682,[1.71897857],5.0,0.5,0.0,-5.0,-0.9784776764482993,1.4599419786009522
5.479146957397461,1.7277154533856383,[1.70211704],5.0,0.5,0.0,-5.0,-1.058750641357338,1.3589009495868276
5.4878904819488525,1.7251752700680614,[1.68364995],5.0,0.5,0.0,-5.0,-1.0012143359777002,1.1900441509878634
5.4998955726623535,1.7204857008663814,[1.66375887],5.0,0.5,0.0,-5.0,-1.1191748353832773,1.0071366949503697
5.509773015975952,1.7167731252483849,[1.64256491],5.0,0.5,0.0,-5.0,-1.2367160160433712,0.8141467635656857
5.517916440963745,1.7134513470638615,[1.62013634],5.0,0.5,0.0,-5.0,-1.3531029862576731,0.6569826884368382
5.5256733894348145,1.7105203663128112,[1.59659776],5.0,0.5,0.0,-5.0,-1.3302525812035806,0.5563277746650697
5.534669876098633,1.7068077906948147,[1.57211978],5.0,0.5,0.0,-5.0,-1.4843282908049809,0.5082967573536638
5.5467071533203125,1.7021182214931343,[1.54675697],5.0,0.5,0.0,-5.0,-1.764133474432725,0.4897391849003909
5.556685924530029,1.6980148484416642,[1.52051597],5.0,0.5,0.0,-5.0,-1.7191202567758213,0.4835662187744925
5.565696477890015,1.6946930702571408,[1.49351578],5.0,0.5,0.0,-3.4098874118134592,-1.8654915643660783,0.49172431850653736
5.573887586593628,1.691175893355881,[1.46582923],5.0,0.5,0.0,-0.1519739297600342,-2.1117478391184648,0.500021641193055
5.583393096923828,1.6874633177378842,[1.43750108],5.0,0.5,0.0,3.0257915656855072,-2.045742900522532,0.4932346831752984
5.590807914733887,1.6841415395533608,[1.40874673],5.0,0.5,0.0,5.0,-2.023590499266418,0.4817323206007039
5.601882219314575,1.6796473690684175,[1.37983286],5.0,0.5,0.0,5.0,-2.1299883147844954,0.48173207769661974
5.610708236694336,1.676325590883894,[1.35098391],5.0,0.5,0.0,5.0,-2.092549019225552,0.4817320627640067
5.619729995727539,1.6726130152658973,[1.32247875],5.0,0.5,0.0,5.0,-2.0730783241313175,0.48173206214640635
5.629727363586426,1.6687050409311641,[1.29464929],5.0,0.5,0.0,5.0,-2.094319091035333,0.4817320621246384
5.640713930130005,1.6642108704462204,[1.26785068],5.0,0.5,0.0,5.0,-1.8782809485162428,0.4817320621239581
5.6507744789123535,1.6601074973947505,[1.24246399],5.0,0.5,0.0,5.0,-1.866484188704139,0.4817320621239362
5.660766124725342,1.6558087256265437,[1.21888026],5.0,0.5,0.0,5.0,-1.7758643536546381,0.4817320621239355
5.671194314956665,1.651509953858337,[1.19754373],5.0,0.5,0.0,5.0,-1.5212453886586732,0.4817320621239355
5.680681467056274,1.6477973782403401,[1.17893045],5.0,0.5,0.0,5.0,-1.4696858943624225,0.4817320621239355
5.691371917724609,1.6436940051888702,[1.16339726],5.0,0.5,0.0,5.0,-1.4487033832580787,0.4817320621239355
5.69870400428772,1.6407630244378202,[1.15108974],5.0,0.5,0.0,5.0,-1.6291519445555207,0.4817320621239355
5.707677125930786,1.6370504488198232,[1.14199795],5.0,0.5,0.0,5.0,-1.6174370062076826,0.4817320621239355
5.717117071151733,1.6331424744850898,[1.13610055],5.0,0.5,0.0,5.0,-1.60007422633993,0.4817320621239355
5.7272820472717285,1.6290391014336199,[1.13338308],5.0,0.5,0.0,5.0,-1.582553914256112,0.4817320621239355
5.735723495483398,1.6255219245323598,[1.1337758],5.0,0.5,0.0,5.0,-1.582527301152871,0.4817320621239355
5.745985507965088,1.6212231527641532,[1.13714425],5.0,0.5,0.0,5.0,-1.5929236669171063,0.4817320621239355
5.754661560058594,1.617705975862893,[1.14325799],5.0,0.5,0.0,5.0,-1.6980585975024967,0.4817320621239355
5.762718915939331,1.6147749951118429,[1.1518085],5.0,0.5,0.0,5.0,-1.69159425438079,0.4817320621239355
5.7727038860321045,1.6110624194938463,[1.16248537],5.0,0.5,0.0,4.89776475983286,-1.700466095978069,0.4824583472494558
5.78083872795105,1.6079360400260594,[1.17496892],5.0,0.5,0.0,4.660095433799151,-1.7272709371820474,0.48409277187725674
5.7886741161346436,1.604614261841536,[1.18889766],5.0,0.5,0.0,4.644090718535891,-1.7599242561117383,0.48420010648025047
5.799173355102539,1.6003154900733294,[1.20387874],5.0,0.5,0.0,4.370735455539602,-1.7497517707360968,0.48597979196031743
5.806684732437134,1.596993711888806,[1.21951586],5.0,0.5,0.0,3.737963630997431,-1.6142733933985458,0.4897063941678239
5.816380262374878,1.5932811362708093,[1.23542963],5.0,0.5,0.0,3.3408691164072213,-1.8715741335333689,0.4917600944258715
5.823663234710693,1.5901547568030223,[1.25126584],5.0,0.5,0.0,3.055020223996783,-1.9091102955914292,0.4931004456986116
5.832659959793091,1.5864421811850258,[1.26669716],5.0,0.5,0.0,2.822643468798277,-1.8009828983284564,0.4941041635309486
5.840870380401611,1.5833158017172388,[1.28138821],5.0,0.5,0.0,2.341726243965432,-1.8333210092609593,0.4959345743446735
5.85055947303772,1.579212428665769,[1.29499394],5.0,0.5,0.0,2.1200909053796964,-1.8676974364174028,0.49666534585045374
5.859081029891968,1.5754998530477722,[1.30723251],5.0,0.5,0.0,1.998613957632259,-1.7766746525623858,0.49703590862286534
5.870055198669434,1.5710056825628287,[1.31783594],5.0,0.5,0.0,1.908485264315206,-1.9813090273518474,0.49729870498675993
5.880646228790283,1.5665115120778854,[1.32646662],5.0,0.5,0.0,1.822673337483185,-1.9978520168156495,0.4975429911001628
5.888728141784668,1.5633851326100987,[1.33289781],5.0,0.5,0.0,1.7326835955075848,-1.8596115503554393,0.4977944571044037
5.89738392829895,1.560258753142312,[1.33706303],5.0,0.5,0.0,1.6376544448850607,-1.9021675676737124,0.4980546622552844
5.9059929847717285,1.556741576241052,[1.33889055],5.0,0.5,0.0,1.8154446496366088,-1.9148740262073194,0.4976280520447221
5.915193319320679,1.553029000623055,[1.33836393],5.0,0.5,0.0,1.749478852441479,-1.7788218671295069,0.497826227940336
5.922951698303223,1.5497072224385315,[1.33557535],5.0,0.5,0.0,1.5965633778572221,-1.7948978855338507,0.49821017340606977
5.93165922164917,1.5461900455372717,[1.33065695],5.0,0.5,0.0,1.1495069271117089,-1.6864063422894076,0.49910960088270045
5.939708709716797,1.5430636660694848,[1.32377747],5.0,0.5,0.0,0.9549220842373545,-1.6968422674815682,0.49938822737879934
5.948702096939087,1.5391556917347513,[1.31509481],5.0,0.5,0.0,1.143183513911409,-1.725662507165034,0.4990717033428482
5.956665277481079,1.5362247109837017,[1.3047997],5.0,0.5,0.0,1.1291952098623872,-1.7624198530441306,0.4990740157614843
5.9695117473602295,1.5307535469150746,[1.29317563],5.0,0.5,0.0,1.0391899268055174,-1.6947991155802702,0.4992092701817797
5.981882333755493,1.525868578996658,[1.28052417],5.0,0.5,0.0,0.9293379011671752,-1.5580957148584895,0.4993634080766948
5.990703344345093,1.5223514020953979,[1.26717691],5.0,0.5,0.0,0.822815054474979,-1.48698394705978,0.4994984857923905
5.999664068222046,1.5186388264774013,[1.25348917],5.0,0.5,0.0,0.7277297636212154,-1.4998999409288705,0.49960671026791864
6.008723020553589,1.5149262508594041,[1.2397958],5.0,0.5,0.0,0.6456608138461911,-1.124465495476033,0.49969003827099456
6.019773244857788,1.510432080374461,[1.22646646],5.0,0.5,0.0,0.5756282965895979,-1.1210784652606571,0.49975350433326043
6.027730941772461,1.5071103021899377,[1.21386223],5.0,0.5,0.0,0.5158701493236135,-1.166730394481472,0.49980197180491476
6.035775661468506,1.5039839227221508,[1.20221298],5.0,0.5,0.0,0.4645839553832691,-1.2071404418315999,0.4998393680090921
6.046691656112671,1.4996851509539442,[1.19171315],5.0,0.5,0.0,0.4201950997978867,-1.0599234194202536,0.49986858877308493
6.055785655975342,1.4959725753359474,[1.18257645],5.0,0.5,0.0,0.38141872852642034,-1.1394161372048512,0.4998917190982946
6.067232847213745,1.4903060125505836,[1.17495516],5.0,0.5,0.0,0.34724006300327304,-1.0363980170886167,0.49991025377178466
6.0780415534973145,1.4867888356493237,[1.16896611],5.0,0.5,0.0,0.3168689244245131,-1.070733575162326,0.49992526505301826
6.085838079452515,1.483662456181537,[1.16465838],5.0,0.5,0.0,0.2896918987585996,-1.1180592885198402,0.49993753421894815
6.0937278270721436,1.4803406779970136,[1.16197253],5.0,0.5,0.0,0.26523070954210637,-1.209411201178141,0.49994763772359685
6.103616714477539,1.476237304945544,[1.16078839],5.0,0.5,0.0,0.24310887709896473,-1.240815299448306,0.49995600870452495
6.111700057983398,1.4733063241944937,[1.16096013],5.0,0.5,0.0,0.22302615917591834,-1.301953636987024,0.499962977749073
6.120679140090942,1.4697891472932336,[1.16231986],5.0,0.5,0.0,0.2047394386235239,-1.3373497952836928,0.4999688031611135
6.130788326263428,1.4656857742417637,[1.16467723],5.0,0.5,0.0,0.1880486328659886,-1.202848467164855,0.49997369047785245
6.143121719360352,1.4602146101731368,[1.1678049],5.0,0.5,0.0,0.17278638117184114,-1.4710542068387464,0.4999778137505436
6.152716159820557,1.4561112371216667,[1.17143368],5.0,0.5,0.0,0.15881051513403044,-1.666283820029644,0.4999813173685041
6.161612033843994,1.4525940602204066,[1.17528977],5.0,0.5,0.0,0.1459985536431327,-1.5773492498277812,0.49998434221668026
6.173800230026245,1.447513693585253,[1.1791089],5.0,0.5,0.0,0.1342436594558438,-1.6205458569022284,0.4999871378938461
6.182305335998535,1.4441919154007297,[1.18263243],5.0,0.5,0.0,0.12345164692249165,-1.6724468004390574,0.4999897972995113
6.189656972885132,1.4410655359329432,[1.18564742],5.0,0.5,0.0,0.11353874489990423,-1.6253166770007126,0.4999925590694263
6.199472427368164,1.4373529603149464,[1.18798705],5.0,0.5,0.0,0.10442990290735908,-1.694783687665374,0.49999585221652754
6.20964503288269,1.4330541885467396,[1.18945742],5.0,0.5,0.0,0.09605748938814944,-1.7593526848270091,0.5000001435039351
6.218665599822998,1.4293416129287426,[1.18984104],5.0,0.5,0.0,0.08836027453330932,-1.8256557110345768,0.5000046047496982
6.2281653881073,1.4254336385940094,[1.18893717],5.0,0.5,0.0,0.08128262117647933,-1.89166068159295,0.5000089472433907
6.235661745071411,1.4223072591262227,[1.18661693],5.0,0.5,0.0,0.07477382930564862,-1.8165466376578567,0.5000108001356333
6.247042655944824,1.4178130886412792,[1.18276137],5.0,0.5,0.0,0.06878759533706641,-2.0760767312715394,0.5000123670410126
6.255250930786133,1.414491310456756,[1.17716154],5.0,0.5,0.0,0.06328155832304729,-2.1277280570590604,0.5000098315877162
6.2627410888671875,1.4113649309889693,[1.16971658],5.0,0.5,0.0,0.058216913061157935,-2.009249597821063,0.5000059487252879
6.270774602890015,1.4082385515211824,[1.1605409],5.0,0.5,0.0,0.05355807558650944,-1.9362332583838862,0.5000025512104522
6.279684782028198,1.4045259759031858,[1.14976687],5.0,0.5,0.0,0.04927239043243429,-2.0368122550779915,0.5000004977473442
6.290740013122559,1.3996410079847688,[1.13737697],5.0,0.5,0.0,0.045329871819758755,-2.2628965778199692,0.49999953121218976
6.303725242614746,1.3939744451994056,[1.12327472],5.0,0.5,0.0,0.31774133258659165,-2.300135449096943,0.49992528294426736
6.313664436340332,1.3900664708646722,[1.10744987],5.0,0.5,0.0,0.07149098181953602,-2.354776029506299,0.4999963108627951
6.323745965957642,1.3857676990964651,[1.08991534],5.0,0.5,0.0,-0.019800437718822485,-2.5577853740215195,0.49999973311906887
6.331653594970703,1.383032117062152,[1.07070402],5.0,0.5,0.0,-0.04361210643659655,-2.4570945093833707,0.4999985875056418
6.34272313117981,1.3785379465772085,[1.04996722],5.0,0.5,0.0,-0.040647733056536184,-2.547567150653904,0.4999987704941036
6.351255178451538,1.3750207696759482,[1.02785433],5.0,0.5,0.0,-0.02913693226653282,-2.6436934974494317,0.4999993680675028
6.358649969100952,1.371894390208162,[1.0045139],5.0,0.5,0.0,-0.016711590813490003,-2.6039387541093446,0.4999997921077879
6.367877006530762,1.368181814590165,[0.98014967],5.0,0.5,0.0,-0.006152043053144843,-2.7265890680902283,0.4999999718262856
6.378746747970581,1.3638830428219582,[0.95491863],5.0,0.5,0.0,0.0018742295802206045,-2.828922223610073,0.49999999738512
6.38695502281189,1.3607566633541714,[0.92893936],5.0,0.5,0.0,0.2835756647461562,-2.9259994044150703,0.49994014249701046
6.395662307739258,1.357044087736175,[0.90238089],5.0,0.5,0.0,0.32043596191044793,-2.913411878503615,0.49992357138650007
6.404313087463379,1.3535269108349148,[0.87544709],5.0,0.5,0.0,-0.00842963504475347,-3.0383038028753258,0.49999994710383366
6.4126296043396,1.3500097339336545,[0.84832343],5.0,0.5,0.0,-0.11643499118561662,-3.0591962626796736,0.49998990818404265
6.422634601593018,1.3457109621654482,[0.82117353],5.0,0.5,0.0,-0.13140511222330814,-3.2020833199169227,0.49998714637527797
6.430856227874756,1.3423891839809245,[0.79410218],5.0,0.5,0.0,-0.11199670321397058,-3.3433347662729926,0.49999066287661537
6.439733982086182,1.3384812096461913,[0.76715887],5.0,0.5,0.0,-0.08386204480263622,-3.4785345311235374,0.4999947647756596
6.449849367141724,1.3345732353114577,[0.74034147],5.0,0.5,0.0,-0.05725677464438408,-3.713576372667292,0.4999975596092207
6.460967302322388,1.3300790648265144,[0.71360622],5.0,0.5,0.0,-0.035511887537986384,-3.80416780148114,0.49999906124171917
6.468959808349609,1.3271480840754641,[0.68699154],5.0,0.5,0.0,-0.019037429674062196,-3.8021781767854606,0.4999997302116561
6.478120803833008,1.3230447110239942,[0.66061101],5.0,0.5,0.0,-0.007161747864228016,-3.9166386531878246,0.4999999618192273
6.490727186203003,1.3181597431055774,[0.63453677],5.0,0.5,0.0,0.0010626894866814294,-4.011326116179902,0.49999999915934185
6.5001444816589355,1.3144471674875808,[0.60880897],5.0,0.5,0.0,0.006536030751270813,-4.100047337754955,0.4999999681994351
6.509635925292969,1.3103437944361107,[0.5834758],5.0,0.5,0.0,0.01000515186681123,-4.180456492529364,0.49999992548323147
6.5198891162872314,1.3062404213846404,[0.55858856],5.0,0.5,0.0,0.012049719260036756,-4.257895267232843,0.49999989191622973
6.528743267059326,1.3025278457666438,[0.53419796],5.0,0.5,0.0,-0.26293584375989276,-4.3339372506868665,0.49994853832563885
6.539019346237183,1.2986198714319104,[0.51035394],5.0,0.5,0.0,-0.29568426199526643,-4.4030543240213795,0.49993492190526634
6.547599792480469,1.2949072958139138,[0.48710796],5.0,0.5,0.0,-0.24066190900135565,-4.465727572134566,0.49995688755375806
6.55570912361145,1.2915855176293904,[0.4645307],5.0,0.5,0.0,-0.16494367183239872,-4.479695231162439,0.4999797479404243
6.565613508224487,1.2872867458611836,[0.44270532],5.0,0.5,0.0,-0.37100686063788313,-4.549817974746721,0.49989754667489605
6.573662042617798,1.2837695689599238,[0.42168688],5.0,0.5,0.0,-0.3481612207277878,-4.617008907423723,0.49990977471119363
6.5846333503723145,1.2792753984749798,[0.40150513],5.0,0.5,0.0,-0.2517696749054372,-4.674910589928787,0.4999528161883999
6.594119310379028,1.2755628228569833,[0.38218384],5.0,0.5,0.0,-0.1469895049867216,-4.733444967177838,0.4999839168043508
6.601625680923462,1.272631842105933,[0.3637512],5.0,0.5,0.0,-0.05765255633366525,-4.760785988844492,0.49999752575478845
6.610644340515137,1.2689192664879365,[0.34623691],5.0,0.5,0.0,0.010429485503715374,-4.824480368715214,0.49999991902845803
6.620270252227783,1.265011292153203,[0.32964743],5.0,0.5,0.0,0.058606705571318335,-4.879377075610414,0.49999744317983086
6.63027286529541,1.2609079191017332,[0.31397079],5.0,0.5,0.0,0.09051762074935576,-4.92629317458957,0.4999939008363465
6.638374328613281,1.257390742200473,[0.2991923],5.0,0.5,0.0,0.11004150042012699,-4.969988679463838,0.49999098603707687
6.647361516952515,1.2536781665824763,[0.28529488],5.0,0.5,0.0,0.12054671951507054,-5.0308342561910635,0.4999891828520443
6.656067132949829,1.2501609896812165,[0.27225932],5.0,0.5,0.0,0.12470537764241724,-5.111905171306997,0.4999884236403322
6.6666483879089355,1.2458622179130094,[0.26006416],5.0,0.5,0.0,0.1245338335622464,-5.172316478415056,0.49998845546682164
6.676683187484741,1.241954243578276,[0.24869137],5.0,0.5,0.0,0.12150615174369386,-5.219754474845618,0.49998900998120277
6.686034440994263,1.237850870526806,[0.23811944],5.0,0.5,0.0,0.11667597929807286,-5.253764969999944,0.49998986636672
6.695083856582642,1.2339428961920726,[0.22831692],5.0,0.5,0.0,0.11078302588357039,-5.269994863944858,0.4999908641459283
6.703989267349243,1.2302303205740757,[0.21925512],5.0,0.5,0.0,0.1043381218352806,-5.290610013704973,0.4999918961912047
6.711685419082642,1.2272993398230259,[0.2109078],5.0,0.5,0.0,0.09768796399003636,-5.288211975872265,0.49999289628210114
6.719982862472534,1.2241729603552391,[0.20324514],5.0,0.5,0.0,0.09106298884496208,-5.308174319011938,0.49999382712055324
6.728970527648926,1.2204603847372424,[0.19623089],5.0,0.5,0.0,0.08461211194068707,-5.318927805345101,0.49999467070904435
6.7385478019714355,1.216552410402509,[0.18982397],5.0,0.5,0.0,0.07842761593848352,-5.323208182414873,0.4999954212944699
6.747594833374023,1.2130352335012489,[0.18398444],5.0,0.5,0.0,0.0725628174359438,-5.3247238961151835,0.4999960804767311
6.757882118225098,1.2089318604497787,[0.1786734],5.0,0.5,0.0,0.06704451943446708,-5.321166588533617,0.4999966539549296
6.765653371810913,1.2058054809819923,[0.17385576],5.0,0.5,0.0,0.06188173698148291,-5.297697326573914,0.4999971494384127
6.7736029624938965,1.202288304080732,[0.16949986],5.0,0.5,0.0,0.05707177835738922,-5.298904311144055,0.4999975753534817
6.78230619430542,1.1987711271794719,[0.16557114],5.0,0.5,0.0,0.05260445980440744,-5.297053120047626,0.49999794007735865
6.790963649749756,1.1950585515614751,[0.16203288],5.0,0.5,0.0,0.04846500836183395,-5.291505671745918,0.49999825151262833
6.802649974822998,1.1901735836430585,[0.15884993],5.0,0.5,0.0,0.04463604580252227,-5.277925939129129,0.49999851687600816
6.811341762542725,1.1866564067417984,[0.15599126],5.0,0.5,0.0,0.041098931000296435,-5.249818272436133,0.4999987426181678
6.81873345375061,1.1835300272740117,[0.15343183],5.0,0.5,0.0,0.037834655816205015,-5.228265079029549,0.4999989344206697
6.827586650848389,1.179817451656015,[0.15114717],5.0,0.5,0.0,0.03482443140432244,-5.22622171396536,0.4999990972357515
6.838003396987915,1.1757140786045446,[0.14910902],5.0,0.5,0.0,0.0320500608025369,-5.21776592347914,0.49999923534759505
6.849332094192505,1.1710245094028648,[0.14728692],5.0,0.5,0.0,0.3055325244909912,-5.218950795912407,0.49993051494692564
6.859750747680664,1.166725737634658,[0.1456532],5.0,0.5,0.0,0.33630327074749145,-5.182609741115337,0.49991581546950875
6.870346784591675,1.1624269658664512,[0.14418485],5.0,0.5,0.0,0.2790387629532908,-5.182059256070921,0.49994204237516626
6.882627964019775,1.1577373966647713,[0.14285749],5.0,0.5,0.0,0.20095869468009314,-5.172669989824707,0.499969938737093
6.891484975814819,1.1542202197635112,[0.14164747],5.0,0.5,0.0,0.12859972456848487,-5.150961186534405,0.4999876893380521
6.90058970451355,1.1499214479953044,[0.14053888],5.0,0.5,0.0,0.07028795569128876,-5.113110322299246,0.4999963223795775
6.9096479415893555,1.1460134736605712,[0.13952058],5.0,0.5,0.0,0.02673516622994193,-5.096609684198,0.49999946792577427
6.919241666793823,1.1421054993258377,[0.1385806],5.0,0.5,0.0,-0.0041110238565449896,-5.079643545025118,0.4999999874192462
6.928266286849976,1.1385883224245774,[0.13770656],5.0,0.5,0.0,-0.024955580541732462,-5.064160154583961,0.4999995364017065
6.937858819961548,1.1348757468065809,[0.13688743],5.0,0.5,0.0,-0.038319678534918536,-5.047329405769363,0.49999890692511756
6.9455790519714355,1.1317493673387942,[0.13611355],5.0,0.5,0.0,-0.04627605406820238,-5.033380365142144,0.49999840588876476
6.954965353012085,1.1278413930040605,[0.13537781],5.0,0.5,0.0,-0.05042411896921546,-5.0028513332416065,0.499998107296911
6.96385931968689,1.1243242161028004,[0.13467534],5.0,0.5,0.0,-0.05195268608789419,-4.990684011598046,0.49999799080626167
6.9725871086120605,1.1208070392015406,[0.13400172],5.0,0.5,0.0,-0.05172391493502422,-4.96528021776824,0.49999800846204334
6.9826085567474365,1.1165082674333338,[0.13335287],5.0,0.5,0.0,-0.050352060398507315,-4.951532980011093,0.499998112702569
6.993863105773926,1.1118186982316538,[0.13272235],5.0,0.5,0.0,-0.048268560649635486,-4.946462336465354,0.49999826565848815
7.002306938171387,1.1083015213303935,[0.13210176],5.0,0.5,0.0,-0.04577255336686209,-4.930426519289403,0.49999844038904384
7.010681629180908,1.10497974314587,[0.13148666],5.0,0.5,0.0,-0.04306868940149035,-4.903422235909675,0.4999986192044203
7.019214153289795,1.1014625662446103,[0.13087598],5.0,0.5,0.0,-0.040294805464937994,-4.891548092504165,0.4999987913396446
7.027754783630371,1.09794538934335,[0.13026743],5.0,0.5,0.0,-0.03754187538008111,-4.878859230352123,0.4999989508486419
7.035601615905762,1.0948190098755635,[0.12965906],5.0,0.5,0.0,-0.03486824664700207,-4.855368796887279,0.49999909496265293
7.045682191848755,1.09032483939062,[0.12904921],5.0,0.5,0.0,-0.03230972344867984,-4.852571504609774,0.4999992229073177
7.054709196090698,1.0866122637726232,[0.1284352],5.0,0.5,0.0,-0.029886666958839708,-4.824500881774627,0.4999993350923117
7.066003322601318,1.0815318971374697,[0.12781483],5.0,0.5,0.0,-0.027608971478691006,-4.817234251871524,0.4999994325770659
7.073721885681152,1.078405517669683,[0.1271864],5.0,0.5,0.0,-0.02547953672718689,-4.791325097101715,0.49999951673035176
7.084959030151367,1.0741067459014764,[0.12654864],5.0,0.5,0.0,-0.023496680092422492,-4.786925729401278,0.49999958902111946
7.094137668609619,1.0703941702834796,[0.12590069],5.0,0.5,0.0,-0.021655804210677823,-4.75770864602585,0.49999965089573356
7.105663061141968,1.0658999997985361,[0.12524342],5.0,0.5,0.0,-0.01995054289839556,-4.740011338939763,0.4999997037106895
7.115188837051392,1.0616012280303293,[0.12457786],5.0,0.5,0.0,-0.018373542612059715,-4.722247045172108,0.49999974870006975
7.125257253646851,1.0574978549788594,[0.12390393],5.0,0.5,0.0,-0.016916989919054437,-4.704847506531966,0.4999997869641154
7.135967493057251,1.0533944819273893,[0.12322081],5.0,0.5,0.0,-0.015572962483843867,-4.69711079440711,0.49999981947012906
7.146027088165283,1.0492911088759191,[0.12252711],5.0,0.5,0.0,0.2617047018342227,-4.6755687612736105,0.4999490190898769
7.1549108028411865,1.0453831345411857,[0.1218244],5.0,0.5,0.0,0.2959714249074057,-4.645936598639093,0.49993479544692454
7.163392782211304,1.0420613563566625,[0.12111665],5.0,0.5,0.0,0.24192629041689265,-4.632328638708392,0.4999564333781239
7.172611951828003,1.0379579833051924,[0.12040749],5.0,0.5,0.0,-0.10922816181953222,-4.605184613445648,0.4999911187914497
7.183447599411011,1.0336592115369856,[0.11969923],5.0,0.5,0.0,0.064054988853924,-4.597481736845537,0.4999969457029775
7.193671226501465,1.0289696423353054,[0.11899218],5.0,0.5,0.0,0.09647622949148499,-4.574924269545364,0.4999930714188151
7.201601505279541,1.0258432628675187,[0.11828783],5.0,0.5,0.0,-0.1998161750562131,-4.552042003667984,0.49997027957262347
7.210625171661377,1.0225214846829955,[0.1175896],5.0,0.5,0.0,-0.2672226627101643,-4.538615112370755,0.4999468467083494
7.218941926956177,1.0188089090649985,[0.11689977],5.0,0.5,0.0,-0.24491398051756302,-4.52215906808967,0.4999553507223271
7.229309797286987,1.0149009347302653,[0.11621975],5.0,0.5,0.0,0.08102166419403445,-4.504431089035843,0.4999951133990857
7.236685037612915,1.0115791565457417,[0.11555101],5.0,0.5,0.0,0.16578679869240373,-4.488820685865474,0.49997954037446646
7.247657299041748,1.0072803847775351,[0.11484674],5.0,0.5,0.0,0.15480021176320102,-4.7075776365193,0.4999821621696459
7.2557313442230225,1.0039586065930115,[0.11401974],5.0,0.5,0.0,0.11321141950966371,-4.6921901103923345,0.4999904592392897
7.264280557632446,1.000246030975015,[0.11304192],5.0,0.5,0.0,0.06831205063572676,-4.6546150861840365,0.49999652623998686
7.273616075515747,0.996142657923545,[0.1119339],5.0,0.5,0.0,0.03005781156847042,-4.599734717875387,0.49999932745538705
7.282461881637573,0.9924300823055481,[0.11072034],5.0,0.5,0.0,0.0008509159829056569,-4.5183032755436425,0.4999999994610108
7.291551351547241,0.9887175066875513,[0.10944022],5.0,0.5,0.0,-0.019903635832102008,-4.402817603609706,0.4999997051023028
7.300662040710449,0.9850049310695548,[0.10814821],5.0,0.5,0.0,-0.03375432447813359,-4.262077542470301,0.49999915186468125
7.308693885803223,0.9818785516017681,[0.10690377],5.0,0.5,0.0,-0.042345286447224635,-4.202352862512517,0.49999866519985336
7.317117929458618,0.9785567734172447,[0.10576796],5.0,0.5,0.0,-0.04710219021492347,-4.0820580531563575,0.49999834846355445
7.32659125328064,0.9746487990825112,[0.10482014],5.0,0.5,0.0,-0.049155489243268874,-4.053772469198786,0.4999982013364234
7.336562395095825,0.9703500273143044,[0.10415674],5.0,0.5,0.0,-0.04935823485931421,-4.123662559103063,0.49999818646839733
7.344549894332886,0.9670282491297811,[0.10385829],5.0,0.5,0.0,-0.04833428179115529,-4.115150257698582,0.4999982609324179
7.352745294570923,0.9639018696619943,[0.10398638],5.0,0.5,0.0,-0.046529871448178856,-4.040016605233016,0.49999838835390303
7.360613107681274,0.9607754901942076,[0.10459868],5.0,0.5,0.0,-0.04425863337048859,-4.032806988106199,0.4999985418505406
7.3731865882873535,0.9554997248423175,[0.10577222],5.0,0.5,0.0,-0.04173750839658237,-3.870605971611697,0.4999987032413577
7.383555889129639,0.9513963517908475,[0.10762525],5.0,0.5,0.0,-0.03911408348632455,-3.8062674719554037,0.49999886113434105
7.391556024551392,0.9478791748895873,[0.11023169],5.0,0.5,0.0,-0.036486799727694565,-3.822316948760439,0.4999990089905616
7.400563478469849,0.943971200554854,[0.11359941],5.0,0.5,0.0,-0.03391961573730946,-3.7444204350822026,0.4999991435378975
7.411634683609009,0.9392816313531739,[0.11775444],5.0,0.5,0.0,-0.031452513441601326,-3.6696496272827557,0.49999926359442315
7.423062562942505,0.9347874608682304,[0.12276259],5.0,0.5,0.0,-0.029108956726507793,-3.5286241877139353,0.4999993692464807
7.4312756061553955,0.9312702839669704,[0.12869264],5.0,0.5,0.0,-0.02690114998345191,-3.4936498338496103,0.4999994612985642
7.438650369644165,0.9283393032159203,[0.13553325],5.0,0.5,0.0,-0.024833724212774674,-3.5276651935080734,0.499999540918086
7.451427221298218,0.9226727404305568,[0.14322564],5.0,0.5,0.0,-0.02290630732112202,-3.3972510688567934,0.49999960941400057
7.462812900543213,0.9181785699456134,[0.15168709],5.0,0.5,0.0,-0.2971536664887922,-3.518594293321214,0.4999342735288516
7.471616744995117,0.9148567917610901,[0.16075122],5.0,0.5,0.0,-0.3286181016291352,-3.4854900577819325,0.49991961875495006
7.480625152587891,0.9111442161430933,[0.1702606],5.0,0.5,0.0,-0.271984775336384,-3.4387180649008036,0.49994493546841473
7.489665508270264,0.9074316405250966,[0.18011307],5.0,0.5,0.0,-0.19448048455383918,-3.386790660911456,0.49997184558528124
7.4993627071380615,0.9033282674736265,[0.19021294],5.0,0.5,0.0,-0.12264779263959502,-3.335456647710122,0.4999888024944844
7.510695934295654,0.8986386982719464,[0.20046375],5.0,0.5,0.0,-0.3408561531916581,-3.2892041602466024,0.49991352085405294
7.519852638244629,0.8953169200874231,[0.21076304],5.0,0.5,0.0,-0.330869510615977,-3.1491819747139354,0.4999185136655608
7.529102325439453,0.891213547035953,[0.22100324],5.0,0.5,0.0,-0.24533110499516336,-3.045147604720261,0.49995519851107795
7.53860878944397,0.8871101739844829,[0.23107521],5.0,0.5,0.0,-0.14877335548186288,-3.01409635244874,0.4999835240738548
7.549673557281494,0.8824206047828028,[0.24087116],5.0,0.5,0.0,-0.0652280693769031,-3.033284922208753,0.4999968328083137
7.5589258670806885,0.8785126304480694,[0.25028719],5.0,0.5,0.0,-0.0009636640168353278,-3.0826019356545507,0.4999999993087137
7.5683274269104,0.8748000548300726,[0.25922577],5.0,0.5,0.0,0.04489362469312985,-3.1336045074169605,0.4999984997094735
7.576662540435791,0.8714782766455493,[0.26760557],5.0,0.5,0.0,0.07557221349061438,-3.1090095957917736,0.49999574862793494
7.585627794265747,0.8677657010275525,[0.27536318],5.0,0.5,0.0,0.09462746248280396,-3.137607307560191,0.4999933344165641
7.5953052043914795,0.8636623279760824,[0.28243922],5.0,0.5,0.0,0.1051839691994122,-3.134771588707514,0.4999917642679373
7.608352184295654,0.8583865626241924,[0.28876969],5.0,0.5,0.0,0.10973593699678807,-3.0980536252131237,0.49999103602710027
7.616589069366455,0.8548693857229324,[0.29430534],5.0,0.5,0.0,0.11017273813658839,-3.0586511591220944,0.4999909645239818
7.625567674636841,0.8513522088216723,[0.29903096],5.0,0.5,0.0,0.10787939053849153,-3.0132568497250314,0.4999913367692658
7.635601997375488,0.8472488357702022,[0.30294433],5.0,0.5,0.0,0.1038481184040182,-2.966367169926746,0.49999197212774604
7.6447670459747314,0.8435362601522054,[0.30604872],5.0,0.5,0.0,0.09877699885347677,-2.932847239919433,0.4999927370145401
7.652553081512451,0.8404098806844187,[0.30837158],5.0,0.5,0.0,0.09314923716339579,-2.915011313694898,0.49999354104177685
7.661529779434204,0.8366973050664219,[0.30992985],5.0,0.5,0.0,0.08729372057946116,-2.8310388077962556,0.4999943275559612
7.670915603637695,0.8325939320149518,[0.31071636],5.0,0.5,0.0,0.08142989042375962,-2.8035279672286095,0.4999950640331712
7.680582523345947,0.8286859576802185,[0.31076808],5.0,0.5,0.0,0.07570035234239736,-2.8414950037319735,0.4999957341986776
7.691737174987793,0.8239963884785384,[0.3101733],5.0,0.5,0.0,0.07019426431634246,-2.8029714810892807,0.49999633217728473
7.7006096839904785,0.8202838128605418,[0.30903268],5.0,0.5,0.0,0.06496395276125745,-2.7279933590578125,0.49999685840501684
7.709657669067383,0.8165712372425449,[0.30745024],5.0,0.5,0.0,-0.2160017266866006,-2.6258647211597332,0.4999652698997017
7.719081401824951,0.8128586616245482,[0.30553214],5.0,0.5,0.0,-0.25374033510184957,-2.5058375584276447,0.49995207469571207
7.729618072509766,0.808755288573078,[0.30338891],5.0,0.5,0.0,-0.2029446070244989,-2.377846591597577,0.49996934167735907
7.741900682449341,0.8038703206546614,[0.30114708],5.0,0.5,0.0,0.14518168403179932,-2.214168821253576,0.49998430997915594
7.750365495681763,0.8001577450366647,[0.29895051],5.0,0.5,0.0,0.24512388117951392,-2.2201112124324087,0.49995527416067387
7.75956130027771,0.7964451694186679,[0.29692028],5.0,0.5,0.0,0.24322029605650797,-2.209310951826156,0.4999559660974943
7.768918752670288,0.7925371950839345,[0.29516933],5.0,0.5,0.0,0.20596540666297303,-2.221217044647497,0.4999684222248286
7.780600309371948,0.7876522271655179,[0.29384105],5.0,0.5,0.0,0.16193424139912713,-2.168132735921409,0.499980480190268
7.789621829986572,0.7841350502642577,[0.2930645],5.0,0.5,0.0,0.1221438258084089,-2.123292857740475,0.4999888943267898
7.799607992172241,0.779836278496051,[0.29293345],5.0,0.5,0.0,0.0898133846649567,-2.077516235198231,0.4999939953707954
7.810635328292847,0.7751467092943709,[0.29352369],5.0,0.5,0.0,0.0649500784947473,-2.032483838570613,0.499996859746762
7.820287466049194,0.7710433362429008,[0.29489184],5.0,0.5,0.0,0.04643581701640151,-1.9923850732238229,0.4999983948627975
7.830566167831421,0.766744564474694,[0.29707529],5.0,0.5,0.0,0.03292642780549804,-1.952665719342818,0.4999991929590756
7.842670679092407,0.7618595965562772,[0.30011299],5.0,0.5,0.0,0.023200274281149985,-1.8553242683596383,0.49999959932454396
7.8506247997283936,0.7589286158052272,[0.30402175],5.0,0.5,0.0,0.01626188852608847,-1.8977472263070654,0.4999998031440485
7.8618574142456055,0.7544344453202838,[0.30877043],5.0,0.5,0.0,0.011344314623929144,-1.817632706402785,0.4999999042005183
7.870566368103027,0.7509172684190237,[0.31430504],5.0,0.5,0.0,0.007875649404264162,-1.853784299443225,0.4999999538279237
7.879959344863892,0.7470092940842904,[0.32054048],5.0,0.5,0.0,0.005438071379310819,-1.8184509084643081,0.49999997798612633
7.888556718826294,0.7434921171830302,[0.32738529],5.0,0.5,0.0,0.00373038639920406,-1.784821881964027,0.49999998964108494
7.896559715270996,0.7401703389985068,[0.33474937],5.0,0.5,0.0,0.002537422488961076,-1.7846955129628999,0.49999999520717286
7.905579090118408,0.7364577633805102,[0.34252654],5.0,0.5,0.0,0.2777447725148994,-1.7401185337218132,0.4999425786334853
7.915705442428589,0.73235439032904,[0.35062204],5.0,0.5,0.0,0.31029233017462776,-1.6961942825001495,0.4999283332633507
7.924444675445557,0.7286418147110434,[0.35895197],5.0,0.5,0.0,-0.021242468903713813,-1.6490335959672267,0.49999966409631214
7.933589220046997,0.7249292390930466,[0.36743165],5.0,0.5,0.0,-0.13072690572133794,-1.526472092049898,0.49998727871907706
7.942190170288086,0.7214120621917866,[0.37597803],5.0,0.5,0.0,0.12969799965168333,-1.431173903459214,0.4999874782135086
7.950657367706299,0.7180902840072632,[0.38451157],5.0,0.5,0.0,0.18215824551474508,-1.3614651179213235,0.4999753004058908
7.959230184555054,0.7141823096725297,[0.39295483],5.0,0.5,0.0,0.1555005253554278,-1.3159195437496956,0.49998200150102273
7.971694231033325,0.7091019430373763,[0.40124081],5.0,0.5,0.0,0.106565780662873,-1.2439141259913418,0.49999155231790054
7.979591608047485,0.7059755635695895,[0.40931988],5.0,0.5,0.0,0.058476646194309964,-1.2093299970317843,0.4999974772149378
7.989660263061523,0.7020675892348561,[0.41715553],5.0,0.5,0.0,0.019095014012480937,-1.1333885790266203,0.4999998175461743
7.99959135055542,0.6979642161833861,[0.42473595],5.0,0.5,0.0,-0.010229432486565387,-1.0597920141996098,0.5000002499460491
8.009660720825195,0.693860843131916,[0.43208203],5.0,0.5,0.0,-0.03062106717110141,-1.0434446307381104,0.5000004181586581
8.019580125808716,0.6897574700804461,[0.43924229],5.0,0.5,0.0,-0.043894473055190106,-1.033211804681283,0.5000021050847487
8.029658555984497,0.6856540970289758,[0.44629019],5.0,0.5,0.0,-0.05182712847095226,-0.9241592041404861,0.5000085543923994
8.04264211654663,0.6803783316770857,[0.45334612],5.0,0.5,0.0,-0.055910932165307015,-0.7307850514513052,0.5000310138990939
8.052628517150879,0.6762749586256158,[0.46056951],5.0,0.5,0.0,-0.05730855171741084,-0.6302686846075276,0.5000884536011835
8.061674356460571,0.6723669842908824,[0.46809591],5.0,0.5,0.0,-0.05688796964021122,-0.5298403954816076,0.5002350929794201
8.071601629257202,0.6686544086728856,[0.47603141],5.0,0.5,0.0,-0.05527918159733129,-0.430644781726137,0.5005964406870285
8.081193923950195,0.6645510356214154,[0.48447591],5.0,0.5,0.0,-0.05293011078249485,-0.33072867134441847,0.5015234490750384
8.08969259262085,0.6610338587201554,[0.4934833],5.0,0.5,0.0,-0.05015383104056399,-0.3354339832012631,0.50364225631749
8.098980903625488,0.6569304856686854,[0.50306391],5.0,0.5,0.0,-0.04716563720255225,-0.213531933572446,0.5087809299016643
8.107448816299438,0.6534133087674253,[0.51325965],5.0,0.5,0.0,-0.04411097620842398,-0.10454673607365245,0.5196695549693584
8.118737936019897,0.6489191382824818,[0.52413568],5.0,0.5,0.0,-0.041085966664319594,-0.0011899277350613507,0.5444135558000646
8.129552125930786,0.6444249677975383,[0.53573557],5.0,0.5,0.0,-0.03815222510063078,0.09183717502488048,0.5941667052748069
8.140014171600342,0.6401261960293317,[0.54811002],5.0,0.5,0.0,-0.035347456022519125,0.2616287474540108,0.6838931617704611
8.147548913955688,0.6373906139950184,[0.56127795],5.0,0.5,0.0,-0.032692952737310974,0.21473912443166268,0.8139159346199876
8.155603885650635,0.6344596332439683,[0.57513558],5.0,0.5,0.0,0.24583948444999015,0.20477175940631234,0.9946228942906314
8.164515018463135,0.6315286524929183,[0.58954088],5.0,0.5,0.0,1.1094100988321043,0.2954333006636606,1.201946656065558
8.174041271209717,0.6284022730251315,[0.60441093],5.0,0.5,0.0,1.707933308673592,0.3743671279414927,1.3890952495189077
8.181522130966187,0.6262528871410281,[0.61965791],5.0,0.5,0.0,2.362935004357811,0.38023856453558164,1.4871998793405161
8.190632820129395,0.6237127038234513,[0.63516374],5.0,0.5,0.0,3.1593555899297145,0.4666134406255984,1.46674033436026
8.20160722732544,0.6213679192226114,[0.65083427],5.0,0.5,0.0,4.916234318422417,0.5446553007643231,1.3229166040955291
8.210604906082153,0.6194139320552446,[0.66659801],5.0,0.5,0.0,5.0,0.6181614334667852,1.1223849978730758
8.219967126846313,0.6180461410380881,[0.68238391],5.0,0.5,0.0,5.0,0.6895875160406998,0.9187112188088054
8.230551481246948,0.6170691474544047,[0.69812639],5.0,0.5,0.0,5.0,0.7617445456778413,0.7504601421865449
8.239552974700928,0.6164829513041946,[0.71376931],5.0,0.5,0.0,5.0,0.8367051679998291,0.6323623172321857
8.2476327419281,0.6166783500209313,[0.72926961],5.0,0.5,0.0,5.0,0.9140687533996353,0.560965385227252
8.255553245544434,0.6170691474544047,[0.74457955],5.0,0.5,0.0,5.0,0.9398596233764116,0.5204372921933114
8.26504635810852,0.6178507423213512,[0.75964992],5.0,0.5,0.0,5.0,1.0379755812908265,0.4996598860123073
8.272621393203735,0.6190231346217714,[0.77444934],5.0,0.5,0.0,5.0,1.070437473376225,0.48970692364885565
8.282660961151123,0.6211725205058746,[0.78896285],5.0,0.5,0.0,5.0,1.175976776857462,0.4853180577528012
8.291629552841187,0.6237127038234513,[0.80321608],5.0,0.5,0.0,5.0,1.2757978944189812,0.483321631183589
8.300092697143555,0.6266436845745015,[0.81727033],5.0,0.5,0.0,5.0,1.3695505126783067,0.48242977441072005
8.309140682220459,0.6301608614757614,[0.8311933],5.0,0.5,0.0,5.0,1.4549216988571014,0.4820408647547528
8.317975521087646,0.6336780383770215,[0.84505366],5.0,0.5,0.0,5.0,1.5326527310623435,0.48186363753394695
8.326566696166992,0.636999816561545,[0.85891429],5.0,0.5,0.0,5.0,1.600884994802609,0.48178485117542336
8.335134029388428,0.6403215947460684,[0.87279792],5.0,0.5,0.0,5.0,1.581873199877226,0.48175227787749975
8.34451413154602,0.6440341703640652,[0.88668744],5.0,0.5,0.0,5.0,1.6491420021277503,0.48173974803297004
8.354094982147217,0.6479421446987986,[0.90058205],5.0,0.5,0.0,5.0,1.695539581741321,0.4817349201349847
8.362049341201782,0.6510685241665852,[0.9144876],5.0,0.5,0.0,4.2185645962803475,1.7280017409005888,0.48692733204411953
8.370538711547852,0.6543903023511087,[0.92838225],5.0,0.5,0.0,1.795514742740616,1.745210752485706,0.4976061987228611
8.38097858428955,0.6584936754025786,[0.94221831],5.0,0.5,0.0,-1.2693783877388987,1.7474525647508887,0.4988020708311716
8.390530824661255,0.6624016497373121,[0.95591784],5.0,0.5,0.0,-4.2194211776277095,1.7212239330101289,0.48692118574595217
8.400315999984741,0.6665050227887822,[0.96938184],5.0,0.5,0.0,-5.0,1.7252433798467137,0.4817320728899262
8.41061782836914,0.6704129971235157,[0.98251389],5.0,0.5,0.0,-5.0,1.7697230129529817,0.48173206558602505
8.420056819915771,0.6741255727415123,[0.99521727],5.0,0.5,0.0,-5.0,1.8545108122541971,0.481732063232748
8.430498600006104,0.6780335470762457,[1.00738521],5.0,0.5,0.0,-5.0,1.7782772910236204,0.48173206250254974
8.442031383514404,0.6827231162779259,[1.01889412],5.0,0.5,0.0,-5.0,1.5227001007532834,0.48173206227669
8.449544906616211,0.6856540970289758,[1.02960768],5.0,0.5,0.0,-5.0,1.4319177347567724,0.48173206217693104
8.458046913146973,0.6889758752134992,[1.03941889],5.0,0.5,0.0,-5.0,1.4531474544887408,0.481732062145455
8.465540647506714,0.6919068559645494,[1.04827265],5.0,0.5,0.0,-5.0,1.4773572264736974,0.4817320621332512
8.474604368209839,0.6954240328658093,[1.05614397],5.0,0.5,0.0,-5.0,1.4975000092605435,0.48173206212892455
8.484854221343994,0.6993320072005428,[1.06299177],5.0,0.5,0.0,-5.0,1.5927116355585436,0.4817320621271942
8.495232343673706,0.7034353802520129,[1.06874821],5.0,0.5,0.0,-5.0,1.5829934630215408,0.48173206212649633
8.50428318977356,0.7069525571532729,[1.07337319],5.0,0.5,0.0,-5.0,1.580301472336313,0.481732062126113
8.515549898147583,0.7114467276382163,[1.07686973],5.0,0.5,0.0,-5.0,1.576052138497455,0.4817320621264554
8.527973175048828,0.716331695556633,[1.07925234],5.0,0.5,0.0,-5.0,1.5390816894208046,0.4817320621275637
8.53852391242981,0.7204350686081032,[1.08054465],5.0,0.5,0.0,-5.0,1.5428256077691722,0.4817320621293834
8.547008514404297,0.7239522455093631,[1.0807968],5.0,0.5,0.0,-5.0,1.5380113528366315,0.4817320621326363
8.55550503730774,0.7270786249771499,[1.08008717],5.0,0.5,0.0,-5.0,1.556304239947588,0.48173206213893494
8.563509702682495,0.7304004031616733,[1.07851485],5.0,0.5,0.0,-5.0,1.509305131320941,0.4817320621537289
8.574669361114502,0.7346991749298801,[1.07615506],5.0,0.5,0.0,-4.824763480290293,1.4599161636878124,0.48296842422679875
8.583287954330444,0.7382163518311402,[1.0730314],5.0,0.5,0.0,-4.55339041339352,1.407005809129439,0.4848018467243603
8.591551780700684,0.7413427312989268,[1.0691771],5.0,0.5,0.0,-4.247981576052236,1.3983078687435093,0.4867458736300235
8.603171110153198,0.7458369017838703,[1.06462351],5.0,0.5,0.0,-3.9386651208099845,1.2498930780002802,0.4885843886201613
8.61147665977478,0.7491586799683937,[1.05937078],5.0,0.5,0.0,-3.639596557649884,1.239898627585606,0.49023578106119925
8.623021602630615,0.7536528504533371,[1.05340401],5.0,0.5,0.0,-3.3569756840489275,1.0547298106823693,0.4916811344687439
8.633305072784424,0.7577562235048073,[1.04666338],5.0,0.5,0.0,-3.093065224261564,0.9582576840816217,0.4929288162164141
8.643661260604858,0.7614687991228039,[1.03904775],5.0,0.5,0.0,-2.8482057223906834,0.7581410536545994,0.4939977410784924
8.651588439941406,0.764399779873854,[1.03048538],5.0,0.5,0.0,-2.621825465655622,0.7823738215633919,0.49490981679907853
8.660575151443481,0.767916956775114,[1.02101868],5.0,0.5,0.0,-2.4129458690460996,0.7742165622304834,0.4956873290877305
8.6714186668396,0.7724111272600575,[1.01068182],5.0,0.5,0.0,-2.2204332579243276,0.524277635026297,0.4963550169482402
8.68227744102478,0.7765145003115275,[0.99939539],5.0,0.5,0.0,-2.043123013147536,0.4265520639045045,0.4969506866286108
8.691521883010864,0.7804224746462608,[0.98710286],5.0,0.5,0.0,-1.879879400683782,0.33408052822707085,0.49757107179594073
8.701809406280518,0.7847212464144676,[0.97381029],5.0,0.5,0.0,-1.7296229773846263,0.2419019196029747,0.49856213858584825
8.709553003311157,0.787456828448781,[0.95957778],5.0,0.5,0.0,-1.591341673694749,0.26024797645559344,0.5007899286738761
8.719913959503174,0.7915602015002512,[0.94451098],5.0,0.5,0.0,-1.1880553464572285,0.13898625244309193,0.5082406653891275
8.72874402999878,0.794686580968038,[0.92867903],5.0,0.5,0.0,-1.3138818590121726,0.03144894987995382,0.5262929965308953
8.736813306808472,0.7980083591525613,[0.91212142],5.0,0.5,0.0,-1.2943707266080808,-0.06952378234516964,0.5727049936059
8.745502948760986,0.8011347386203479,[0.89489129],5.0,0.5,0.0,-1.4922738986433917,-0.16438480067827285,0.6707243068436328
8.75548505783081,0.8042611180881346,[0.87708456],5.0,0.5,0.0,-1.980713946916399,-0.1709095587136407,0.8433185329466519
8.76768684387207,0.807582896272658,[0.85880135],5.0,0.5,0.0,-2.9982114121605297,-0.37145857944857136,1.085105934343926
8.775551319122314,0.8093414847232882,[0.84008198],5.0,0.5,0.0,-3.9567623103268774,-0.44774813756163867,1.3162705737103584
8.786502361297607,0.8111000731739182,[0.82097655],5.0,0.5,0.0,-5.0,-0.5265838908317907,1.4624121577428164
8.794485807418823,0.8120770667576015,[0.80159833],5.0,0.5,0.0,-5.0,-0.5333297447324937,1.4600106725956632
8.803081512451172,0.8124678641910749,[0.78207846],5.0,0.5,0.0,-5.0,-0.6376515353857425,1.3130830909476345
8.811538934707642,0.8126632629078115,[0.76253176],5.0,0.5,0.0,-5.0,-0.6664791416311732,1.0866675402410864
8.820338249206543,0.8122724654743383,[0.74305626],5.0,0.5,0.0,-5.0,-0.7848162663888698,0.865323746798803
8.833217144012451,0.8111000731739182,[0.72368107],5.0,0.5,0.0,-5.0,-0.9650062179320719,0.6986108966354437
8.84244990348816,0.8093414847232882,[0.70437667],5.0,0.5,0.0,-5.0,-1.0418582730258947,0.5921456211302298
8.85188913345337,0.8071920988391849,[0.68512054],5.0,0.5,0.0,-5.0,-1.183413672261908,0.5325100190144573
8.859490871429443,0.8046519155216081,[0.66594902],5.0,0.5,0.0,-5.0,-1.265670987576383,0.5030608281759249
8.868462800979614,0.8011347386203479,[0.64697445],5.0,0.5,0.0,-5.0,-1.2997158856823594,0.4903571582560511
8.878941297531128,0.7966405681354046,[0.62827745],5.0,0.5,0.0,-5.0,-1.3259319698142222,0.48518259065759417
8.888601779937744,0.7927325938006711,[0.6098911],5.0,0.5,0.0,-5.0,-1.3518541644636144,0.4829800751036117
8.896462678909302,0.7894108156161478,[0.59187493],5.0,0.5,0.0,-5.0,-1.3365313083749597,0.48214012673747303
8.905473709106445,0.7858936387148877,[0.5743077],5.0,0.5,0.0,-5.0,-1.3784269521689008,0.4818613172662762
8.915629625320435,0.7817902656634177,[0.55724957],5.0,0.5,0.0,-5.0,-1.4115187851465996,0.4817738165542693
8.926464080810547,0.7769052977450008,[0.54074424],5.0,0.5,0.0,-5.0,-1.4378813656464482,0.48174637416670674
8.934505939483643,0.7735835195604776,[0.52483491],5.0,0.5,0.0,-3.0784410591729072,-1.4719743707662594,0.4929992208516069
8.943463802337646,0.7696755452257441,[0.5095599],5.0,0.5,0.0,-0.045433998547121934,-1.504730144199376,0.49999979111770243
8.953296661376953,0.7659629696077473,[0.49494927],5.0,0.5,0.0,3.0457715827961787,-1.5403980541012952,0.49314228702916496
8.962603092193604,0.762054995273014,[0.48102345],5.0,0.5,0.0,5.0,-1.5820171674004542,0.48173220016066776
8.971597671508789,0.7585378183717539,[0.4678038],5.0,0.5,0.0,5.0,-1.7050514125172116,0.48173210763756996
8.980485200881958,0.7550206414704939,[0.45531267],5.0,0.5,0.0,5.0,-1.7523987512018377,0.4817320778968097
8.990557193756104,0.7507218697022872,[0.44354947],5.0,0.5,0.0,5.0,-1.7863668905649777,0.48173206849833
8.999966382980347,0.7468138953675537,[0.43248959],5.0,0.5,0.0,5.0,-1.8194080531619994,0.48173206474429736
9.008134603500366,0.7434921171830302,[0.42209994],5.0,0.5,0.0,5.0,-1.8501241932970391,0.4817320631907527
9.016215801239014,0.7403657377152436,[0.4123512],5.0,0.5,0.0,5.0,-1.895178402772555,0.48173206257531753
9.023542404174805,0.7372393582474569,[0.40321725],5.0,0.5,0.0,5.0,-1.921670180861282,0.48173206232768
9.033119440078735,0.7333313839127235,[0.39465745],5.0,0.5,0.0,5.0,-1.9365207214863436,0.4817320622328992
9.04101014137268,0.7298142070114633,[0.38661965],5.0,0.5,0.0,5.0,-1.9492486388477255,0.4817320621827577
9.051497459411621,0.7255154352432566,[0.37906171],5.0,0.5,0.0,5.0,-1.9864025619487888,0.48173206216145964
9.060655117034912,0.7219982583419965,[0.37195256],5.0,0.5,0.0,5.0,-2.000325881606815,0.4817320621466868
9.069557428359985,0.7182856827239998,[0.36525501],5.0,0.5,0.0,5.0,-2.015055759164759,0.48173206213888814
9.077507019042969,0.7147685058227398,[0.35893643],5.0,0.5,0.0,5.0,-2.0321194188982217,0.48173206213398706
9.088067054748535,0.710469734054533,[0.35295074],5.0,0.5,0.0,5.0,-1.9714962088689347,0.481732062131837
9.096540451049805,0.7069525571532729,[0.34723506],5.0,0.5,0.0,5.0,-2.0486986430451384,0.4817320621296998
9.105469942092896,0.7034353802520129,[0.34176953],5.0,0.5,0.0,5.0,-2.0615343074919505,0.4817320621282873
9.114489078521729,0.6995274059172796,[0.336566],5.0,0.5,0.0,5.0,-2.03720225472832,0.4817320621275423
9.123960494995117,0.6958148302992828,[0.33163765],5.0,0.5,0.0,5.0,-1.9871023524155669,0.4817320621269578
9.131531715393066,0.692688450831496,[0.32700513],5.0,0.5,0.0,4.841073747450895,-1.913244622339499,0.4828550784686763
9.14047360420227,0.689171273930236,[0.32270204],5.0,0.5,0.0,4.576161031705613,-1.759244547517685,0.4846518234918152
9.15073275566101,0.6850679008787659,[0.31878747],5.0,0.5,0.0,4.272540158422317,-1.5781565342584922,0.4865942586538855
9.159980773925781,0.6811599265440325,[0.31535031],5.0,0.5,0.0,4.238911102113241,-1.5486001651987278,0.48680166139298503
9.168436527252197,0.6774473509260357,[0.31250623],5.0,0.5,0.0,3.6956652789859215,-1.571773657517549,0.4899356911981482
9.179479122161865,0.6733439778745656,[0.31042681],5.0,0.5,0.0,3.3232299396681073,-1.3757724078423461,0.49184616361141686
9.189298152923584,0.6692406048230957,[0.30929307],5.0,0.5,0.0,3.3127178910099104,-1.386108599507779,0.4918972469006332
9.198569536209106,0.6653326304883622,[0.3091794],5.0,0.5,0.0,3.104951456818484,-1.3797676169700637,0.4928746977440501
9.207464456558228,0.6614246561536288,[0.31012873],5.0,0.5,0.0,2.8358853154998673,-1.2387266872255975,0.4940490455529262
9.216794490814209,0.6575166818188953,[0.31226483],5.0,0.5,0.0,2.2881342518721857,-1.1046574394166553,0.49611779758244406
9.22447919845581,0.6543903023511087,[0.31569395],5.0,0.5,0.0,2.003300094006414,-1.1195412521331585,0.49702147053235785
9.233328104019165,0.6508731254498485,[0.32046046],5.0,0.5,0.0,2.109242428341056,-0.971541188172681,0.4966991777229537
9.243467807769775,0.6465743536816418,[0.32669604],5.0,0.5,0.0,2.019536480821923,-0.6981249054990599,0.4969731421988634
9.251493215560913,0.6432525754971185,[0.33454748],5.0,0.5,0.0,1.8596414788047075,-0.7671436868613208,0.49743228574811194
9.261924266815186,0.6389538037289116,[0.34406067],5.0,0.5,0.0,1.409171594197979,-0.5291097513869341,0.4985240066857778
9.273067712783813,0.6342642345272317,[0.35528386],5.0,0.5,0.0,1.4858925356996782,-0.481036902347726,0.4983593274304429
9.284531593322754,0.6295746653255516,[0.36821264],5.0,0.5,0.0,1.423922874215881,-0.4347085346971486,0.4984941276043906
9.29399585723877,0.6256666909908181,[0.38274551],5.0,0.5,0.0,1.311981999762135,-0.3913576917099434,0.4987277946981687
9.305220365524292,0.6211725205058746,[0.39877882],5.0,0.5,0.0,0.9134370172025055,-0.2579313466240275,0.49942987044499054
9.316024780273438,0.6164829513041946,[0.41620308],5.0,0.5,0.0,0.7634061739912277,-0.24273464206297848,0.4998943897598026
9.324594020843506,0.6131611731196712,[0.43483785],5.0,0.5,0.0,0.9887802294511101,-0.22310931450469215,0.5010023805956052
9.333215236663818,0.6094485975016745,[0.45442883],5.0,0.5,0.0,1.0043098693135621,-0.24465665105331888,0.5074284027588319
9.341933250427246,0.6061268193171511,[0.47470157],5.0,0.5,0.0,0.661228897669456,-0.18172471198639573,0.5312771299042818
9.35055661201477,0.6022188449824176,[0.49539777],5.0,0.5,0.0,0.5359643066392178,-0.15462021599393638,0.6018509240010954
9.360175848007202,0.5981154719309476,[0.51627728],5.0,0.5,0.0,0.7742436504613264,-0.06892253666775566,0.7615310932230441
9.36954927444458,0.5938167001627408,[0.53712791],5.0,0.5,0.0,0.7989817824955845,0.011967795066099268,1.0253832257990818
9.378453969955444,0.5901041245447443,[0.55775612],5.0,0.5,0.0,0.7406716178576427,0.06903336404381047,1.3107609891818501
9.388503789901733,0.5863915489267474,[0.57797621],5.0,0.5,0.0,0.6578107735581589,0.15855973457144792,1.4856142260598708
9.39754867553711,0.5830697707422241,[0.59762385],5.0,0.5,0.0,0.8509328012205959,0.37244798173695093,1.4579818855087403
9.4069185256958,0.5797479925577007,[0.61654608],5.0,0.5,0.0,1.0860169347842512,0.46291738425992335,1.26187667074759
9.41499662399292,0.5770124105233871,[0.63460295],5.0,0.5,0.0,1.5529530375322431,0.488780741768878,1.0133389405893696
9.424196720123291,0.5744722272058105,[0.65167339],5.0,0.5,0.0,1.9871921783850426,0.44061759292510405,0.8006813133559504
9.433223962783813,0.5717366451714971,[0.66764553],5.0,0.5,0.0,3.408704593319783,0.37862025977915337,0.6502896500113532
