t_s,q_rad,q_des_rad,K,B,Kff,jerk,tau_Nm,reward
0.005357027053833008,0.0,0.004767446082646085,9.825212432529046,0.9781515540661307,1.9737818648793566,0.0,9.9,1.4954646076651388
0.063995361328125,0.0,0.004767762850989054,9.650424865058092,0.9563031081322615,1.9475637297587132,0.0,9.999,1.495464006314641
0.12881255149841309,0.0,0.004902969000660172,9.475637297587138,0.9344546621983922,1.92134559463807,0.0,9.99999,1.4952037180671143
0.19198346138000488,0.0,0.0055383481786783085,9.300849730116184,0.9126062162645229,1.8951274595174268,0.0,9.9999999,1.4938841184979288
0.2559692859649658,0.0,0.006851233173922606,9.12606216264523,0.8907577703306536,1.8689093243967834,0.0,9.999999999,1.4906560493644228
0.3199765682220459,0.0,0.008397833169516623,8.951274595174274,0.8689093243967844,1.84269118927614,0.0,6.326641662107454,1.485994285151584
0.38368868827819824,0.0037125756179967346,0.010459844926710383,8.77648702770332,0.847060878462915,1.8164730541554968,5.0,6.0929049753927815,1.472668259660927
0.44776463508605957,0.028528212643553853,0.01695088718657992,8.601699460232366,0.8252124325290457,1.7902549190348536,5.0,9.960929049753927,1.4552812847184482
0.5118715763092041,0.05393004581932099,0.029353027231676626,8.426911892761412,0.8033639865951765,1.7640367839142101,5.0,9.99960929049754,1.367937956867022
0.5764539241790771,0.0793318789950881,0.046176778853703214,8.252124325290458,0.7815155406613071,1.7378186487935667,5.0,9.999996092904976,1.2843695348454962
0.6437411308288574,0.10590610447127527,0.06415326632698247,8.077336757819502,0.7596670947274378,1.7116005136729235,5.0,9.99999996092905,1.1873651383711077
0.7039391994476318,0.1299401466298857,0.0797317548123747,7.902549190348549,0.7378186487935685,1.6853823785522803,4.744549460620293,9.99999999960929,1.0875234265572102
0.7700798511505127,0.1563189733893362,0.1051027634427582,7.727761622877595,0.7159702028596993,1.659164243431637,1.9010360716162955,9.999999999996094,1.0890971858573775
0.8336844444274902,0.18152540784836665,0.14669565122533776,7.55297405540664,0.6941217569258299,1.6329461083109935,-1.5344168035940275,9.999999999999961,1.2828181445768598
0.8999514579772949,0.2080996333245538,0.2104358764554245,7.378186487935686,0.6722733109919605,1.6067279731903503,-4.213286785751001,10.0,1.4858676437269316
0.9599072933197021,0.23213367548316424,0.27839913875810907,7.203398920464732,0.6504248650580913,1.5805098380697071,-5.0,10.0,1.1334791994874582
1.0255773067474365,0.2581217048091414,0.3766232305664752,7.028611352993777,0.6285764191242219,1.5542917029490637,-5.0,10.0,0.5420260839096118
1.0879461765289307,0.2831327405514352,0.5028261336619748,6.853823785522822,0.6067279731903527,1.5280735678284203,-5.0,5.05,0.48179629230194343
1.1569123268127441,0.310488560894569,0.6570556810575091,6.679036218051868,0.5848795272564833,1.501855432707777,-5.0,5.000500000000001,0.4817320621608745
1.2156729698181152,0.3337410081862328,0.7824798949172632,6.504248650580913,0.563031081322614,1.475637297587134,-5.0,5.000005,0.4817320621239355
1.279674768447876,0.3593382400787366,0.9435335211938255,6.329461083109958,0.5411826353887447,1.4494191624664907,-5.0,5.000000050000001,0.4817320621239355
1.3449890613555908,0.38532626940471365,1.1059568812933671,6.154673515639004,0.5193341894548753,1.4232010273458477,-5.0,5.0000000005,0.4817320621239355
1.4076809883117676,0.41053270386374413,1.2409364048879257,5.97988594816805,0.5,1.3969828922252046,-5.0,5.0000000000050004,0.4817320621239355
1.471653938293457,0.435543739606038,1.4120327969043356,5.805098380697095,0.5,1.3707647571045614,-5.0,5.00000000000005,0.4817320621239355
1.5356864929199219,0.46094557278180515,1.5867755589026662,5.63031081322614,0.5,1.3445466219839184,-5.0,5.000000000000001,0.4817320621239355
1.6019060611724854,0.48712900082451893,1.7655922671488473,5.455523245755186,0.5,1.3183284868632752,-5.0,5.0,0.4817320621239355
1.6639618873596191,0.5123354352835494,1.9151439313428953,5.280735678284231,0.5,1.292110351742632,-5.0,5.0,0.4817320621239355
1.7277076244354248,0.5375418697425798,2.083579519619379,5.105948110813277,0.5,1.2658922166219888,-5.0,5.0,0.4817320621239355
1.7921416759490967,0.5637252977852937,2.2128604797346276,5.0,0.5,1.2396740815013456,-5.0,5.0,0.4817320621239355
1.8586516380310059,0.5897133271112708,2.2677831199973117,5.0,0.5,1.2134559463807026,-4.775456391266029,5.0,0.483308909943339
1.919640064239502,0.6145289641368279,2.291316936416816,5.0,0.5,1.1872378112600595,-4.41272806316269,-4.9,0.48571299904607623
1.9836606979370117,0.6340688358104949,2.3091748540082717,5.0,0.5,1.1610196761394163,-5.0,-4.9990000000000006,0.4817320621239355
2.047684907913208,0.6100347936518845,2.320373491195494,5.0,0.5,1.1348015410187733,-5.0,-4.99999,0.4817320621239355
2.111635208129883,0.584242163042644,2.3266228301674508,5.0,0.5,1.10858340589813,-5.0,-4.999999900000001,0.4817320621239355
2.1756460666656494,0.5590357285836136,2.33234879537586,5.0,0.5,1.082365270777487,-5.0,-4.999999999,0.4817320621239355
2.240896701812744,0.532656901824163,2.336304126074127,5.0,0.5,1.0561471356568437,-5.0,-4.99999999999,0.4817320621239355
2.307114362716675,0.5062780750647126,2.3395747026547156,5.0,0.5,1.0299290005362005,-5.0,-4.9999999999999005,0.4817320621239355
2.369612455368042,0.48107164060568214,2.342066027230519,5.0,0.5,1.0037108654155575,-2.9144519989552675,-4.999999999999999,0.4937168510409683
2.431541681289673,0.4566468010135984,2.3437789224110746,5.0,0.5,0.9774927302949143,1.5149665489392183,-5.0,0.49829442435665255
2.4955356121063232,0.4310495691210946,2.3454327876068737,5.0,0.5,0.9512745951742712,5.0,-5.0,0.4817320621239355
2.5625216960906982,0.4042799449281707,2.3467918371823204,5.0,0.5,0.9250564600536281,5.0,-5.0,0.4817320621239355
2.6286187171936035,0.37751032073524693,2.3479239390575875,5.0,0.5,0.898838324932985,5.0,-5.0,0.4817320621239355
2.687608480453491,0.3542578734435831,2.348700653144589,5.0,0.5,0.8726201898123418,5.0,-5.0,0.4817320621239355
2.751533269882202,0.32885604026781606,2.349542514331108,5.0,0.5,0.8464020546916986,5.0,-5.0,0.4817320621239355
2.817431926727295,0.3026726122251022,2.3502669171987653,5.0,0.5,0.8201839195710555,5.0,-5.0,0.4817320621239355
2.8836498260498047,0.2764891841823884,2.350894908037938,5.0,0.5,0.7939657844504124,5.0,-5.0,0.4817320621239355
2.9435956478118896,0.25225974330704126,2.3513564605984967,5.0,0.5,0.7677476493297692,5.0,-5.0,0.4817320621239355
3.007690668106079,0.2266625114145375,2.351884163863146,5.0,0.5,0.741529514209126,5.0,-5.0,0.4817320621239355
3.0748908519744873,0.19911129235466699,2.3523701613946595,5.0,0.5,0.715311379088483,5.0,-5.0,0.4817320621239355
3.1399500370025635,0.1735140604621632,2.352816113698186,5.0,0.5,0.6890932439678399,5.0,-5.0,0.4817320621239355
3.199568748474121,0.14967541702028941,2.353168989387315,5.0,0.5,0.6628751088471967,5.0,-4.406652907351524,0.4817320621239355
3.265162706375122,0.12368738769431226,2.3535589097829486,5.0,0.5,0.6366569737265535,5.0,-0.20077643259303207,0.4817320621239355
3.3277993202209473,0.09867635195201847,2.353898952719885,5.0,0.5,0.6104388386059104,5.0,2.947303648934592,0.4817320621239355
3.3915157318115234,0.0767916956775114,2.354216560548431,5.0,0.5,0.5842207034852673,5.0,5.263435508727941,0.4817320621239355
3.4555554389953613,0.0984809532352818,2.3545645073076313,5.0,0.5,0.5580025683646241,5.0,6.764866980888254,0.4817320621239355
3.519993782043457,0.12407818512778561,2.3549129683992254,5.0,0.5,0.531784433243981,5.0,7.8552943448750865,0.4817320621239355
3.5849649906158447,0.14967541702028941,2.3552414010726785,5.0,0.5,0.5055662981233379,5.0,8.619751897652266,0.4817320621239355
3.6485819816589355,0.17605424377973988,2.355547593177071,5.0,0.5,0.4793481630026947,5.0,9.145954563437973,0.4817320621239355
3.711529016494751,0.20028368465508697,2.355872416134501,5.0,0.5,0.4531300278820516,5.0,9.519809923425823,0.4817320621239355
3.7757835388183594,0.2264671126978008,2.356198128918853,5.0,0.5,0.42691189276140845,4.644636848875514,9.746669975580382,0.4841964495856675
3.841923475265503,0.2532367368907246,2.3565113030548805,5.0,0.5,0.4006937576407653,0.5892177561859269,9.865409984219694,0.4997416276154964
3.903639316558838,0.27746617776607174,2.3567701758210178,5.0,0.5,0.3744756225201221,-4.170198694829528,9.91167536387511,0.4872206099707325
3.9677391052246094,0.3028680109418389,2.357076586181768,5.0,0.5,0.3482574873994789,-5.0,9.917047222345898,0.4817320621239355
4.031742811203003,0.328269844117606,2.3573702877735947,5.0,0.5,0.3220393522788358,-5.0,9.883302567974104,0.4817320621239355
4.095710515975952,0.3536716772933732,2.357594232254223,5.0,0.5,0.2958212171581926,-5.0,9.805149724051047,0.4817320621239355
4.159779787063599,0.37926890918587697,2.357859467109482,5.0,0.5,0.2696030820375494,-5.0,5.048051497240511,0.4817320621239355
4.223517417907715,0.4050615397951174,2.358109245974281,5.0,0.5,0.24338494691690624,-5.0,5.000480514972406,0.4817320621239355
4.288333177566528,0.4306587716876212,2.358348505692798,5.0,0.5,0.21716681179626307,-5.0,5.000004805149724,0.4817320621239355
4.356202602386475,0.4576237945972817,2.35858460525317,5.0,0.5,0.19094867667561988,-5.0,5.000000048051497,0.4817320621239355
4.415443420410156,0.48146243803915545,2.358775183603826,5.0,0.5,0.16473054155497668,-5.0,5.000000000480515,0.4817320621239355
4.47953987121582,0.5070596699316593,2.3590183818828443,5.0,0.5,0.13851240643433352,-5.0,5.000000000004805,0.4817320621239355
4.543753385543823,0.532656901824163,2.3592509715987386,5.0,0.5,0.11229427131369034,-5.0,5.000000000000048,0.4817320621239355
4.607762813568115,0.5584495324334036,2.3594769803017575,5.0,0.5,0.08607613619304716,-5.0,5.000000000000001,0.4817320621239355
4.671523094177246,0.5838513656091707,2.359704766762737,5.0,0.5,0.05985800107240398,-5.0,5.0,0.4817320621239355
4.736186981201172,0.6098393949351478,2.359943636060318,5.0,0.5,0.0336398659517608,-5.0,5.0,0.4817320621239355
4.801628828048706,0.6356320255443884,2.360180824508798,5.0,0.5,0.0074217308311176206,-5.0,5.0,0.4817320621239355
4.863480091094971,0.6608384600034187,2.3603700226657653,5.0,0.5,0.0,-5.0,5.0,0.4817320621239355
4.927468776702881,0.6858494957457124,2.3606034169404126,5.0,0.5,0.0,-5.0,5.0,0.4817320621239355
4.991446018218994,0.7120329237884264,2.36082576412157,5.0,0.5,0.0,-5.0,5.0,0.4817320621239355
5.058016300201416,0.7384117505478769,2.3610302222615314,5.0,0.5,0.0,-5.0,5.0,0.4817320621239355
5.119476318359375,0.763227387573434,2.3611898652747447,5.0,0.5,0.0,-4.945989237968704,5.0,0.4821174909499889
5.183456182479858,0.788629220749201,2.3613759416781432,5.0,0.5,0.0,-4.470625903564911,5.0,0.48534121610038733
5.247442007064819,0.8146172500751782,2.3615526277483014,5.0,0.5,0.0,-3.8962585635511493,5.0,0.4888261287688539
5.314512491226196,0.840800678117892,2.3617222616729165,5.0,0.5,0.0,-3.62842498524961,5.0,0.49029504170134436
5.375437259674072,0.8656163151434492,2.361853956386371,5.0,0.5,0.0,-3.4666425582736986,5.0,0.4911336384904852
5.439483404159546,0.8910181483192163,2.3620128084118153,5.0,0.5,0.0,-3.604185912129455,5.0,0.4904230275522319
5.504225730895996,0.9170061776451935,2.362166476168142,5.0,0.5,0.0,-3.492690339556215,5.0,0.4910011079110962
5.5701165199279785,0.9429942069711705,2.3623172569604036,5.0,0.5,0.0,-3.280276107387073,5.0,0.4920539103198208
5.631360292434692,0.9676144452799911,2.362454068169599,5.0,0.5,0.0,-3.3123998173301903,6.932358370884806,0.49189879013365156
5.6954405307769775,0.9930162784557581,2.3626333521446123,5.0,0.5,0.0,-3.3774124419364053,6.8278595903059776,0.4915803825106869
5.760512590408325,1.0195905039319453,2.3627988355320286,5.0,0.5,0.0,-2.84805722972823,6.696215208376937,0.4939981601643987
5.82611346244812,1.0455785332579226,2.36301514451472,5.0,0.5,0.0,-2.469754737307426,6.568932516213407,0.4954799435412756
5.8874030113220215,1.070198771566743,2.363210616512444,5.0,0.5,0.0,-2.1823316373703827,6.4472635750134915,0.49646727854939077
5.95140528678894,1.0957960034592467,2.3634316610905186,5.0,0.5,0.0,-1.9525941111526475,6.321550863564203,0.4971699205406352
6.016429424285889,1.1213932353517506,2.3636528062500304,5.0,0.5,0.0,-1.7616503403200923,6.195467110773798,0.4976951472403071
6.0817084312438965,1.1475766633944644,2.363863254550885,5.0,0.5,0.0,-1.5983376710959507,6.065872039374956,0.49810190429327517
6.143373012542725,1.171610705553075,2.3640527198490084,5.0,0.5,0.0,-1.1797332120104544,5.945942294590613,0.4989650379610864
6.207372665405273,1.1975987348790518,2.3642723009886306,5.0,0.5,0.0,-1.0203412049503195,5.8176904483822005,0.4992256077561601
6.2741053104400635,1.2241729603552391,2.364491533660821,5.0,0.5,0.0,-0.962455994324483,5.686305507299602,0.4993109210178063
6.340068817138672,1.250747185831426,2.364710509433427,5.0,0.5,0.0,-0.6606663305588697,5.554638809393524,0.499675189602666
6.3998541831970215,1.2745858292732999,2.3648851289861783,5.0,0.5,0.0,-0.6057898327095477,5.43497311446679,0.49972689352310046
6.46337890625,1.3003784598825405,2.3651020453536535,5.0,0.5,0.0,-0.9096147905628152,5.307743311695637,0.49938446289064015
6.5274176597595215,1.3251940969080978,2.365302687580374,5.0,0.5,0.0,-1.2602994976735218,5.184661608522383,0.49881902472537265
6.5969414710998535,1.3535269108349148,2.365527082608545,5.0,0.5,0.0,-1.2682809960433301,5.044985639144166,0.4988040370468905
6.65535306930542,1.3767793581265784,2.365686178638613,5.0,0.5,0.0,-1.4252145642344987,4.927943353114777,0.49849023042978474
6.719446420669556,1.4023765900190825,2.365835291437992,5.0,0.5,0.0,-1.307152386502254,4.799536430223432,0.4987296983980644
6.784092426300049,1.4283646193450594,2.366333499772855,5.0,0.5,0.0,-1.1072875637137622,4.681541501244047,0.4990881336278886
6.847366094589233,1.4539618512375632,2.3676537889411984,5.0,0.5,0.0,-0.629730795103731,4.590924473093954,0.4997048869998165
6.911349534988403,1.4795590831300671,2.357333078943634,5.0,0.5,0.0,-0.42197459611247135,4.129152807064435,0.4998674677035391
6.975867748260498,1.5053517137393075,2.3244865993341843,5.0,0.5,0.0,-0.3355041631935161,3.7364629725882343,0.49991621503112604
7.0392889976501465,1.5307535469150746,2.2716326152606787,5.0,0.5,0.0,-0.3004910792461354,2.9787722997645587,0.4999327889544598
7.103346824645996,1.5563507788075785,2.1920103603251584,5.0,0.5,0.0,-0.28509385466661025,1.9553762932003877,0.4999394998974027
7.167316436767578,1.5819480107000823,2.080601429744659,5.0,0.5,0.0,0.0005210764610676932,0.6372124455417308,0.49999999979787985
7.23159646987915,1.6079360400260594,1.9501586225000251,5.0,0.5,0.0,0.31887301926538303,-0.7607521809525235,0.49992431514800956
7.295804023742676,1.6323608796181432,1.8290084938653715,5.0,0.5,0.0,-2.45296902199986,-1.839405478588605,0.4959785670879584
7.359300136566162,1.6341194680687734,1.6930903166785602,5.0,0.5,0.0,-5.0,-2.8990845819432356,0.9805509510522348
7.4233012199401855,1.6104762233436363,1.5496971138672944,5.0,0.5,0.0,-5.0,-3.8222039496258975,0.9594092901530129
7.48775577545166,1.5840973965841858,1.4106570544168717,5.0,0.5,0.0,-5.0,-4.5751045244875455,0.4841707126439964
7.553410530090332,1.557913968541472,1.2915412689783827,5.0,0.5,0.0,-5.0,-4.996214564266792,0.48173274915727654
7.615279912948608,1.5332937302326515,1.171924724116697,5.0,0.5,0.0,-5.0,-5.443104829097148,0.48173206212847813
7.67930793762207,1.5078918970568842,1.0384487547871977,5.0,0.5,0.0,-4.862820235305274,-6.08695628837819,0.4827034012240252
7.7442944049835205,1.481317671580697,0.8967798353621144,5.0,0.5,0.0,-0.14378062835335603,-6.809311080123136,0.4999846113420491
7.808162212371826,1.45591583840493,0.768409696103574,5.0,0.5,0.0,5.0,-7.3101276157815915,0.4817320621239355
7.8713014125823975,1.4301232077956894,0.6134067475213114,5.0,0.5,0.0,5.0,-8.180781959241699,0.4817320621239355
7.936734199523926,1.4041351784697123,0.4424951104973992,5.0,0.5,0.0,5.0,-9.20685877880252,0.4817320621239355
8.001025915145874,1.3781471491437352,0.2875744936094365,5.0,0.5,0.0,5.0,-9.922904173872624,0.4817320621239355
8.064419507980347,1.3529407146847048,0.21455041971516284,5.0,0.5,0.0,5.0,-9.484313686020958,0.4817320621239355
8.127283096313477,1.327343482792201,0.17011243221710595,5.0,0.5,0.0,5.0,-8.840779660552045,0.4817320621239355
8.19356632232666,1.3015508521829606,0.14553210674772293,5.0,0.5,0.0,5.0,-8.13868501333788,0.4817320621239355
8.255371570587158,1.27634441772393,0.13142016885662947,5.0,0.5,0.0,5.0,-7.500679425437147,0.4817320621239355
8.319275617599487,1.2509425845481628,0.1226999446238172,5.0,0.5,0.0,5.0,-6.960451971715391,0.4817320621239355
8.383244276046753,1.2249545552221854,0.11566717362775518,5.0,0.5,0.0,5.0,-6.5303013333592,0.4817320621239355
8.447225570678711,1.1995527220464186,0.11069064088343275,5.0,0.5,0.0,5.0,-6.174933010834935,0.4817320621239355
8.511270999908447,1.1735646927204413,0.10770935518483693,5.0,0.5,0.0,5.0,-5.8647468843622255,0.4817320621239355
8.576449871063232,1.1477720621112009,0.10473740220026327,5.0,0.5,0.0,5.0,-5.613718717547391,0.4817320621239355
8.639221668243408,1.1227610263689072,0.10272384009205784,5.0,0.5,0.0,5.0,-5.394348796376966,0.4817320621239355
8.703282833099365,1.0971637944764034,0.10109004178710188,5.0,0.5,0.0,5.0,-5.198075545399485,0.4817320621239355
8.76971173286438,1.0707849677169528,0.09982754309126057,5.0,0.5,0.0,5.0,-5.065866426731249,0.4817320621239355
8.832417726516724,1.0449923371077126,0.09899098000306898,5.0,0.5,0.0,5.0,-4.9867843113451995,0.4817320621239355
8.895380973815918,1.0201767000821553,0.09822458724773443,5.0,0.5,0.0,5.0,-4.838842784337985,0.4817320621239355
8.959428787231445,0.9937978733227049,0.09762487447550652,5.0,0.5,0.0,5.0,-4.664038008432889,0.4817320621239355
9.028733968734741,0.9666374516963077,0.09710785223350722,5.0,0.5,0.0,5.0,-4.486915804512575,0.4817320621239355
9.087180137634277,0.9427988082544339,0.09679107328476727,5.0,0.5,0.0,5.0,-4.3290729928837886,0.4817320621239355
9.151201725006104,0.9175923737954035,0.09647567071658104,5.0,0.5,0.0,4.886087609597126,-4.174542645675907,0.48254041644755846
9.216221809387207,0.891213547035953,0.09569552130660244,5.0,0.5,0.0,4.426949203911464,-4.038023907217641,0.4856221026631397
9.279212951660156,0.8660071125769225,0.09304253452663265,5.0,0.5,0.0,4.166799287616772,-3.971216512803463,0.487241168136918
9.343225955963135,0.8400190832509454,0.09225811549530699,5.0,0.5,0.0,3.970150557550566,-3.826855989873058,0.48840328776434005
9.407244205474854,0.8150080475086516,0.09216007651091611,5.0,0.5,0.0,3.7836706614719295,-3.669032638271577,0.4894558083270982
9.472383499145508,0.7884338220324644,0.09208475471746597,5.0,0.5,0.0,3.5904922622545503,-3.511801726256044,0.49049496747513366
9.535351276397705,0.7634227862901706,0.09201422373264752,5.0,0.5,0.0,3.6648132934093267,-3.369397970834562,0.49010135908435165
9.599164962768555,0.7376301556809302,0.09195124551366618,5.0,0.5,0.0,3.4911320260250798,-3.22811820001783,0.49100906346985435
9.66320252418518,0.7120329237884264,0.09188923555189042,5.0,0.5,0.0,3.2286998750018645,-3.091491510925788,0.49229990186295813
9.73045015335083,0.6844817047285559,0.09183126706786508,5.0,0.5,0.0,3.2248460093201077,-2.9478706735635067,0.4923181311396619
9.796413660049438,0.6586890741193153,0.09177565047838203,5.0,0.5,0.0,2.9902500742071783,-2.8146181214332944,0.4933879796432958
9.855239629745483,0.6344596332439683,0.09173022788085719,5.0,0.5,0.0,2.690045419518402,-2.69016253024706,0.494642174431263
9.919120788574219,0.6092531987849378,0.09168227822548096,5.0,0.5,0.0,2.393473096482924,-2.5620620696527507,0.49575367665042414
9.984877347946167,0.5826789733087506,0.09163994547477453,5.0,0.5,0.0,2.1256974484586832,-2.4276523502632386,0.4966476482116175
10.047223329544067,0.5576679375664568,0.09161074346714469,5.0,0.5,0.0,2.168601693209925,-2.3011412383568564,0.49651143537181125
10.111177682876587,0.5320707056739531,0.09138102319086301,5.0,0.5,0.0,1.725293117256157,-2.179040408549814,0.4977890928897214
10.176180124282837,0.506082676347976,0.0934358946519717,5.0,0.5,0.0,1.1889491250595556,-1.9748135589498736,0.4989488219168668
10.241084337234497,0.47989924830526204,0.10439338038118774,5.0,0.5,0.0,0.9863240575280615,-1.5793280537155743,0.4992763451812628
10.303184032440186,0.4548882125629683,0.12129980360518869,5.0,0.5,0.0,0.9178193578794189,-1.4291205200376607,0.49937331594565737
10.367196083068848,0.4292909806704645,0.15593512147892066,5.0,0.5,0.0,0.8945034773277604,-0.8888884113498423,0.49940505590940176
10.431333541870117,0.4038891474946974,0.21077342966497598,5.0,0.5,0.0,0.6033960124235254,-0.137842133780467,0.5003054312793687
10.497937679290771,0.37731492201851025,0.28926657448220666,5.0,0.5,0.0,0.8262060428977537,0.8443831839145316,0.7116335063643764
10.559229612350464,0.3552348670272665,0.3737732839602893,5.0,0.5,0.0,5.0,1.7529534864901286,1.4153064982030026
10.62308382987976,0.3562118606109498,0.4990299799685428,5.0,0.5,0.0,5.0,2.99529203722106,0.4986496238135418
10.688820600509644,0.381613693786717,0.6426889511543348,5.0,0.5,0.0,5.0,4.185679026669559,0.4817332634819024
10.752219915390015,0.4074063243959575,0.7883895584961373,5.0,0.5,0.0,5.0,5.225208423464036,0.4817320621241824
10.815149784088135,0.4320265627047779,0.9350842837980698,5.0,0.5,0.0,5.0,6.1534537982741115,0.4817320621239355
10.879238367080688,0.4576237945972817,1.1107131571844604,5.0,0.5,0.0,5.0,7.3830939211989675,0.4817320621239355
10.94786787033081,0.4849796149404155,1.2818152008107828,5.0,0.5,0.0,4.824542874751456,8.401258807223172,0.4829699547764671
11.011141061782837,0.5103814481161826,1.46053223287467,5.0,0.5,0.0,0.1260008441003757,9.444331624488878,0.4999881818784657
11.071219205856323,0.5348062877082664,1.5930165809397772,5.0,0.5,0.0,-5.0,9.769562414535535,0.4817320621239355
11.135337591171265,0.5607943170342435,1.7556515161999717,5.0,0.5,0.0,-5.0,9.997695624145356,0.4817320621239355
11.200077772140503,0.5861961502100108,1.9206307099682831,5.0,0.5,0.0,-5.0,9.999976956241454,0.4817320621239355
11.267664670944214,0.6135519705531445,2.0868357223647878,5.0,0.5,0.0,-5.0,9.999999769562415,0.4817320621239355
11.327360153198242,0.6371952152782816,2.1850265410563083,5.0,0.5,0.0,-5.0,9.999999997695625,0.4817320621239355
11.391309261322021,0.6631832446042588,2.250906056240819,5.0,0.5,0.0,-5.0,9.999999999976957,0.4817320621239355
11.456926822662354,0.689171273930236,2.284137824837737,5.0,0.5,0.0,-5.0,9.999999999999769,0.4817320621239355
11.519344568252563,0.7145731071060031,2.300328307687512,5.0,0.5,0.0,-5.0,5.049999999999998,0.4817320621239355
11.583180904388428,0.7399749402817702,2.313488711203779,5.0,0.5,0.0,-5.0,5.0005,0.4817320621239355
11.647136449813843,0.7655721721742741,2.3222990391713867,5.0,0.5,0.0,-5.0,5.000005,0.4817320621239355
11.715202331542969,0.7929279925174079,2.3285023886994534,5.0,0.5,0.0,-5.0,5.000000050000001,0.4817320621239355
11.77551794052124,0.8175482308262284,2.3323779997872336,5.0,0.5,0.0,-5.0,5.0000000005,0.4817320621239355
11.839054822921753,0.8425592665685222,2.335821105365447,5.0,0.5,0.0,-5.0,5.0000000000050004,0.4817320621239355
11.903043985366821,0.8685472958944992,2.338596704425711,5.0,0.5,0.0,-5.0,5.00000000000005,0.4817320621239355
11.969648838043213,0.8947307239372131,2.34080355791529,5.0,0.5,0.0,-5.0,5.000000000000001,0.4817320621239355
12.035431146621704,0.9213049494134001,2.342513985073325,5.0,0.5,0.0,-5.0,5.0,0.4817320621239355
12.095155715942383,0.9447527954218007,2.343812747421154,5.0,0.5,0.0,-5.0,5.0,0.4817320621239355
12.159042835235596,0.9705454260310411,2.345120849513748,5.0,0.5,0.0,-5.0,5.0,0.4817320621239355
12.225793361663818,0.9967288540737549,2.3462452784469403,5.0,0.5,0.0,-5.0,6.956298915003109,0.4817320621239355
12.287115573883057,1.022130687249522,2.3470259598450127,5.0,0.5,0.0,-5.0,6.812035583807813,0.4817320621239355
12.35096549987793,1.0475325204252892,2.347862894355539,5.0,0.5,0.0,-5.0,6.652474209313545,0.4817320621239355
12.415909767150879,1.0739113471847397,2.348573018148115,5.0,0.5,0.0,-5.0,6.491888937176608,0.4817320621239355
12.479060411453247,1.098726984210297,2.3490750347627745,5.0,0.5,0.0,-4.916808325285629,6.340404781737159,0.4823241153458069
12.54305386543274,1.1243242161028004,2.3496499350287454,5.0,0.5,0.0,-4.666801364702318,6.195568452903434,0.4840476963002714
12.60862946510315,1.1505076441455144,2.350194195003562,5.0,0.5,0.0,-4.078541228525015,6.05228528344597,0.4877693444242816
12.6711745262146,1.175127882454335,2.350725222245905,5.0,0.5,0.0,-3.720228860616491,5.920681547509212,0.4898028379789078
12.73864197731018,1.2024837027974689,2.35124704678846,5.0,0.5,0.0,-3.1833579179870304,5.778433630064156,0.4925130384975751
12.799376726150513,1.2265177449560791,2.3516572058450316,5.0,0.5,0.0,-2.928834658059921,5.651138363063038,0.49365508015490667
12.863089323043823,1.2521149768485829,2.352158452507395,5.0,0.5,0.0,-2.7784407554523582,5.52205341068821,0.49428632357277785
12.927504539489746,1.27810300617456,2.3526437476243434,5.0,0.5,0.0,-2.6568100583316614,5.3915487534527955,0.49477305769414437
12.991005897521973,1.303700238067064,2.3530323089585825,5.0,0.5,0.0,-2.8117075848094037,5.260671013998967,0.4941494908753158
13.05501103401184,1.3289066725260943,2.353484988984815,5.0,0.5,0.0,-2.7164378185586147,5.135338488665932,0.49453710523402716
13.119078636169434,1.3552854992855448,2.353938262799956,5.0,0.5,0.0,-2.802156545493011,5.00485440740947,0.4941889388660748
13.187084913253784,1.3820551234784686,2.3543795717519678,5.0,0.5,0.0,-2.620202770890778,4.872206500407312,0.4949153760331616
13.247315406799316,1.4062845643538158,2.354739552636962,5.0,0.5,0.0,-2.6312255943962928,4.749734378895029,0.49487272601667553
13.311022520065308,1.4316863975295828,2.355144901270576,5.0,0.5,0.0,-2.118641119536175,4.6238437506092245,0.4966697936138747
13.375018119812012,1.45767442685556,2.3555577583802174,5.0,0.5,0.0,-1.7854608110701418,4.495566170198504,0.49763257012307244
13.441259145736694,1.483662456181537,2.3559632490010274,5.0,0.5,0.0,-1.5519273730586274,4.367141691654245,0.49821033782220286
13.508169412612915,1.5110182765246711,2.3563604758544883,5.0,0.5,0.0,-1.3762284520789545,4.231814615723091,0.4985920877987893
13.567082405090332,1.5344661225330716,2.3566668148249312,5.0,0.5,0.0,-1.2360202991447304,4.112802846085359,0.49886403729864887
13.632231950759888,1.5608449492925216,2.357009151672107,5.0,0.5,0.0,-0.8430091193101801,3.9814800703029056,0.4994712608227341
13.697414636611938,1.5864421811850258,2.358653828376815,5.0,0.5,0.0,-0.709189739229367,3.8990359245997577,0.4996257438254168
13.759356498718262,1.6120394130775293,2.359593140267022,5.0,0.5,0.0,-0.3997071643351696,3.781430753422613,0.49988108438369067
13.822998285293579,1.6366596513863498,2.3434014824503206,5.0,0.5,0.0,-0.36370460364755774,3.233578691151315,0.49990153962001005
13.887032270431519,1.6628430794290636,2.298782498233193,5.0,0.5,0.0,-0.4182386388213055,2.682189330055815,0.49986980376346757
13.954572439193726,1.6898081023387241,2.227454823289832,5.0,0.5,0.0,-0.7625834871921727,1.7006691825331628,0.49956729343998796
14.014946699142456,1.7138421444973346,2.1511467245839855,5.0,0.5,0.0,-0.8496325346971756,0.8071574256931473,0.49946292419194954
14.078936100006104,1.7392439776731017,2.045363436199282,5.0,0.5,0.0,-0.8270974248810098,-0.38467365564045847,0.49949102941518786
14.143077611923218,1.764645810848869,1.9300968788354813,5.0,0.5,0.0,-2.1438245165674856,-1.5506554569093405,0.5007814455337405
14.210726499557495,1.7744157466857025,1.8023949853307848,5.0,0.5,0.0,-5.0,-2.670783869646854,1.336805809921
14.271049499511719,1.7537034827116156,1.6937057126075092,5.0,0.5,0.0,-5.0,-3.2421022448694714,0.9685103680614471
14.334957361221313,1.7281062508191116,1.5516900059159768,5.0,0.5,0.0,-5.0,-4.208487162440055,0.48371230001766524
14.39924144744873,1.7027044176433446,1.4084514695896373,5.0,0.5,0.0,-5.0,-5.08239944052784,0.4817320922775967
14.46686339378357,1.6755439960169474,1.2698723079491647,5.0,0.5,0.0,-5.0,-5.79832367051074,0.48173206212394054
14.526918649673462,1.6513145551416004,1.1630118021633193,5.0,0.5,0.0,-5.0,-6.0411835151887,0.4817320621239355
14.590907335281372,1.625912721965833,1.0309913880460972,5.0,0.5,0.0,-1.7383060142379758,-6.67431327173729,0.49775569114979273
14.656756162643433,1.599338496489646,0.89491056814509,5.0,0.5,0.0,3.4075800607314477,-7.3310130534565365,0.491430601951899
14.72236180305481,1.5725688722967222,0.7561784398916714,5.0,0.5,0.0,5.0,-7.991272792272916,0.4817320621239355
14.782888174057007,1.5485348301381114,0.6246370229259381,5.0,0.5,0.0,5.0,-8.535663998823702,0.4817320621239355
14.846901416778564,1.5231329969623446,0.45855601150807535,5.0,0.5,0.0,5.0,-9.549157462339993,0.4817320621239355
14.912341117858887,1.496754170202894,0.3133151728535704,5.0,0.5,0.0,5.0,-9.9954915746234,0.4817320621239355
14.975139379501343,1.4717431344606002,0.22840359685895756,5.0,0.5,0.0,5.0,-9.966403806262736,0.4817320621239355
15.038978815078735,1.4459505038513598,0.1787363663088618,5.0,0.5,0.0,5.0,-9.409925355821485,0.4817320621239355
15.103553295135498,1.4199624745253827,0.15227522187628678,5.0,0.5,0.0,5.0,-8.727877392820318,0.4817320621239355
15.168662309646606,1.3935836477659322,0.13649154204736735,5.0,0.5,0.0,5.0,-8.098296116852573,0.4817320621239355
15.231672048568726,1.3679864158734283,0.12750725507739064,5.0,0.5,0.0,5.0,-7.549962742720611,0.4817320621239355
15.294887781143188,1.342779981414398,0.1200376239587588,5.0,0.5,0.0,5.0,-5.025499627427206,0.4817320621239355
15.358946323394775,1.3173781482386306,0.11446293028830787,5.0,0.5,0.0,5.0,-6.746300157588064,0.4817320621239355
15.424499988555908,1.2902177266122334,0.1104680835926158,5.0,0.5,0.0,5.0,-6.458532291641175,0.4817320621239355
15.486831188201904,1.2655974883034131,0.1076907860819991,5.0,0.5,0.0,5.0,-6.203529047090386,0.4817320621239355
15.550817251205444,1.2403910538443828,0.10506269447234766,5.0,0.5,0.0,5.0,-5.987041970761239,0.4817320621239355
15.614872932434082,1.214793821951879,0.10296577807654503,5.0,0.5,0.0,5.0,-5.792347025879098,0.4817320621239355
15.681161403656006,1.1882195964756916,0.10130537111739137,5.0,0.5,0.0,5.0,-5.6097979432862255,0.4817320621239355
15.74284052848816,1.163208560733398,0.10010574014615586,5.0,0.5,0.0,5.0,-5.569548531315004,0.4817320621239355
15.806830883026123,1.1380021262743676,0.0988648099953165,5.0,0.5,0.0,5.0,-5.442210260466607,0.4817320621239355
15.870855569839478,1.1124048943818636,0.09779613029989467,5.0,0.5,0.0,5.0,-5.285398483955493,0.4817320621239355
15.938304662704468,1.085439871472203,0.09685228611824968,5.0,0.5,0.0,5.0,-5.117279745083375,0.4817320621239355
15.998859167098999,1.0610150318801193,0.09616700408206413,5.0,0.5,0.0,5.0,-4.960472964204908,0.4817320621239355
16.062934637069702,1.035222401270879,0.09539424693318417,5.0,0.5,0.0,5.0,-4.808363910927342,0.4817320621239355
16.12717866897583,1.009625169378375,0.09471587480606938,5.0,0.5,0.0,4.902390175056096,-4.661295074694801,0.48242578866549096
16.194491386413574,0.982464747751978,0.09414399679962475,5.0,0.5,0.0,4.61794155446318,-4.509193480213856,0.48437473048855556
16.254817485809326,0.9584307055933676,0.09371844646099982,5.0,0.5,0.0,4.271960780930246,-4.373024683419577,0.48659784500911235
16.31891369819641,0.9324426762673904,0.09327718180292045,5.0,0.5,0.0,3.9206394717507895,-4.233037194488702,0.4886874487803162
16.383733987808228,0.90665004565815,0.09290237791620798,5.0,0.5,0.0,3.3112635254975724,-4.095146244663141,0.4919043020547785
16.44681406021118,0.8812482124823828,0.09264038975324954,5.0,0.5,0.0,2.694840253588782,-3.9583781088180046,0.4946231606043428
16.51081943511963,0.8554555818731422,0.0923529234776199,5.0,0.5,0.0,2.4369684411170853,-3.82385970701759,0.49559862931769055
16.574779987335205,0.8298583499806385,0.0921077664707113,5.0,0.5,0.0,2.314302221660429,-3.6909495965250017,0.496028848680402
16.64094305038452,0.8032841245044513,0.09191561741221467,5.0,0.5,0.0,2.230707158191433,-3.55321081470604,0.4963095095448515
16.708003997802734,0.7761237028780542,0.09173600262462432,5.0,0.5,0.0,2.148807583111246,-3.4138340094181006,0.4965746114636885
16.76680040359497,0.7528712555863905,0.09162729087942714,5.0,0.5,0.0,2.3332675432387475,-3.2928042016847696,0.49596376063347686
16.830837726593018,0.7274694224106234,0.09153859501057378,5.0,0.5,0.0,2.264410311081509,-3.162117756317547,0.49619757816275656
16.89786434173584,0.7003090007842262,0.09143649032591636,5.0,0.5,0.0,2.0998948933853767,-3.024333153460846,0.49672827337612885
16.96814250946045,0.6721715855741456,0.09137133427143511,5.0,0.5,0.0,2.186675090266105,-2.8812572707260986,0.4964532523827082
17.02275276184082,0.6500915305829019,0.09132707713895209,5.0,0.5,0.0,2.035605776871406,-2.768177943864947,0.4969249293118886
17.086758136749268,0.6244942986903982,0.09127839856600266,5.0,0.5,0.0,1.8122248213905312,-2.6388974327547476,0.4975612374103645
17.15082049369812,0.5983108706476843,0.09124404696431714,5.0,0.5,0.0,1.5862552008425066,-2.506553916722152,0.4981304392334184
17.21731734275818,0.5717366451714971,0.0912044871126602,5.0,0.5,0.0,1.3833511956369842,-2.3729058345291407,0.49857749744103746
17.27876925468445,0.5471164068626767,0.09117738766868681,5.0,0.5,0.0,1.2098258652130798,-2.248776435518976,0.49891162313823006
17.343220710754395,0.5213237762534362,0.09107223745387094,5.0,0.5,0.0,1.0642123704668411,-2.1219608751211254,0.499157641054573
17.40992760658264,0.494749550777249,0.09100086780591805,5.0,0.5,0.0,0.39040578300770445,-1.9893196619983275,0.499886553817598
17.470705032348633,0.47012931246842854,0.09098635973191417,5.0,0.5,0.0,0.4979744809520414,-1.8645752486674612,0.4998154386817571
17.534794330596924,0.44453208057592475,0.09096290235261942,5.0,0.5,0.0,0.27865555505829487,-1.7357274770816713,0.49994220145857887
17.599422693252563,0.41873944996668433,0.09093356495735778,5.0,0.5,0.0,0.5444822629050077,-1.606549085603059,0.4997793634812011
17.66643786430359,0.3919698257737605,0.09090342319547726,5.0,0.5,0.0,0.3574082838131466,-1.4725110540292634,0.4999049322078462
17.72677779197693,0.3675449861816767,0.09072899991523782,5.0,0.5,0.0,0.3317937998274071,-1.3551701768187894,0.4999182787307095
17.79073143005371,0.34233855172264627,0.09229357845966318,5.0,0.5,0.0,0.6350928593037661,-1.1730602633152236,0.49970355136114186
17.855077028274536,0.3165459211134058,0.1001288429984489,5.0,0.5,0.0,0.7030157844842084,-0.8232888695598845,0.49971770574975105
17.920862674713135,0.29036249307069195,0.11473986297437509,5.0,0.5,0.0,0.6738060492232643,-0.6812802832657572,0.5017561821929825
17.982792377471924,0.26554685604513484,0.1378901334977838,5.0,0.5,0.0,0.6107837744090903,-0.2916909718164203,0.5381396594916728
18.04671025276184,0.2397542254358944,0.17745031528284375,5.0,0.5,0.0,0.8175570484592299,0.2873884080438847,0.9595824363244557
18.111139059066772,0.21435239226012726,0.2241665952658388,5.0,0.5,0.0,1.3381452422713112,0.8900292170085891,1.4795894707808532
18.179166078567505,0.19911129235466699,0.3045067511423822,5.0,0.5,0.0,5.0,1.8340942099549717,0.5901631387181129
18.23867678642273,0.21142141150907717,0.37594629741001706,5.0,0.5,0.0,5.0,2.377894907092591,0.48618724300914296
18.302664041519165,0.23662784596810765,0.48018038671540714,5.0,0.5,0.0,5.0,3.2339503081851917,0.48173910447827206
18.368669748306274,0.26281127401082144,0.6048795457341738,5.0,0.5,0.0,5.0,4.235211066211962,0.48173206219257586
18.436105966567993,0.28997169563721864,0.7484698470031693,5.0,0.5,0.0,5.0,5.344032756230459,0.4817320621239355
18.49463653564453,0.3130287442121457,0.8739493875250027,5.0,0.5,0.0,5.0,6.06682612742379,0.4817320621239355
18.56014347076416,0.33940757097159613,1.040715878659301,5.0,0.5,0.0,3.132995963815297,7.280268639807694,0.4927463446944195
18.624601364135742,0.36520020158083666,1.2148139497467398,5.0,0.5,0.0,-1.8211589059382316,8.44984082879639,0.4975371918977009
18.68998098373413,0.3915790283402871,1.381225702045093,5.0,0.5,0.0,-5.0,9.382547069509647,0.4817320621239355
18.750722646713257,0.41600386793237093,1.5393777931167691,5.0,0.5,0.0,-5.0,9.993825470695096,0.4817320621239355
18.81738543510437,0.4425780934085581,1.7076307073797168,5.0,0.5,0.0,-5.0,9.99993825470695,0.4817320621239355
18.879365921020508,0.4673937304341152,1.8814448882286974,5.0,0.5,0.0,-5.0,9.99999938254707,0.4817320621239355
18.942787170410156,0.49279556360988236,2.0388147007685173,5.0,0.5,0.0,-5.0,9.99999999382547,0.4817320621239355
19.007198095321655,0.5181973967856495,2.1799403464505516,5.0,0.5,0.0,-5.0,9.999999999938256,0.4817320621239355
19.07080388069153,0.54399002739489,2.2497077061328006,5.0,0.5,0.0,-5.0,9.999999999999384,0.4817320621239355
19.13488507270813,0.5699780567208671,2.278693644755128,5.0,0.5,0.0,-5.0,9.999999999999995,0.4817320621239355
19.198836088180542,0.5951844911798975,2.299996267915631,5.0,0.5,0.0,-5.0,5.05,0.4817320621239355
19.26265859603882,0.6211725205058746,2.3130079521902034,5.0,0.5,0.0,-5.0,5.000500000000001,0.4817320621239355
19.32811164855957,0.6475513472653252,2.3216441956353333,5.0,0.5,0.0,-5.0,5.000005,0.4817320621239355
19.39065647125244,0.672562383007619,2.326660955027661,5.0,0.5,0.0,-5.0,5.000000050000001,0.4817320621239355
19.45466446876526,0.6983550136168594,2.331397594319227,5.0,0.5,0.0,-5.0,5.0000000005,0.4817320621239355
19.51864266395569,0.7239522455093631,2.33432543423945,5.0,0.5,0.0,-5.0,5.0000000000050004,0.4817320621239355
19.596874713897705,0.7554114389039671,2.337987425598506,5.0,0.5,0.0,-5.0,5.00000000000005,0.4817320621239355
19.66592049598694,0.782767259247101,2.340208789008142,5.0,0.5,0.0,-5.0,5.000000000000001,0.4817320621239355
19.72806715965271,0.808169092422868,2.3415758301190195,5.0,0.5,0.0,-5.0,5.0,0.4817320621239355
19.790640592575073,0.8327893307316886,2.342853969128777,5.0,0.5,0.0,-5.0,5.0,0.4817320621239355
19.8546085357666,0.8583865626241924,2.343921349207777,5.0,0.5,0.0,-5.0,5.0,0.4817320621239355
19.921616554260254,0.8851561868171162,2.3448057421837514,5.0,0.5,0.0,-5.0,5.0,0.4817320621239355
19.983777046203613,0.91016722255941,2.345450822128431,5.0,0.5,0.0,-5.0,5.0,0.4817320621239355
20.046593189239502,0.9351782583017039,2.346165401916285,5.0,0.5,0.0,-5.0,5.0,0.4817320621239355
20.11119031906128,0.9615570850611541,2.34685701466058,5.0,0.5,0.0,-4.965012591752769,5.0,0.4819821799049804
20.176294326782227,0.9873497156703948,2.3474859992699866,5.0,0.5,0.0,-5.0,6.868514962337545,0.4817320621239355
20.23861336708069,1.0125561501294251,2.3479977851040625,5.0,0.5,0.0,-4.716130741786879,6.743866008177295,0.48371425498783716
20.30260944366455,1.0381533820219289,2.3485661422893678,5.0,0.5,0.0,-4.326415466664138,6.6052488823509385,0.4862587610923123
20.366755962371826,1.0637506139144328,2.3490896436403577,5.0,0.5,0.0,-3.9247466907698607,6.468900154931637,0.4886640054327546
20.433839082717896,1.0907156368240933,2.349595601070931,5.0,0.5,0.0,-3.548448994757881,6.328398512889005,0.49071419674283506
20.49466109275818,1.1147496789827036,2.349991567447476,5.0,0.5,0.0,-3.209235960773072,6.20101623867753,0.49239175283514974
20.55858039855957,1.1405423095919442,2.350488138355281,5.0,0.5,0.0,-2.6318654732102322,6.071037014633927,0.49487024478271185
20.62298274040222,1.1661395414844482,2.3509880947846766,5.0,0.5,0.0,-2.3319646522323074,5.943186529057188,0.4959682488100113
20.690281867980957,1.1929091656773718,2.351486805436452,5.0,0.5,0.0,-1.8743682843752094,5.810077700746602,0.4973915577426236
20.750585317611694,1.2173340052694557,2.3518818111386977,5.0,0.5,0.0,-1.7064832005818924,5.685523635773402,0.49783693482740643
20.81603503227234,1.2435174333121695,2.3523654643396825,5.0,0.5,0.0,-1.64330551777095,5.556701464290175,0.49799381689840355
20.87942123413086,1.2687238677711998,2.3528484484946404,5.0,0.5,0.0,-1.606127711597118,5.4327672965759355,0.4980833927723265
20.94675326347351,1.296079688114334,2.353312448607979,5.0,0.5,0.0,-1.8411504760129158,5.297813874459456,0.49748296178770784
21.006571292877197,1.3197229328394708,2.3536882454855,5.0,0.5,0.0,-1.8210353335288119,5.178239320801232,0.4975375252834143
21.070510864257812,1.3453201647319744,2.3541339745682404,5.0,0.5,0.0,-1.7007352380925462,5.052460044878447,0.49785145072912745
21.134636163711548,1.371112795341215,2.354528753491285,5.0,0.5,0.0,-1.8266621427601437,4.924053521218595,0.4975223220178642
21.199105978012085,1.3974916221006655,2.3548982198670667,5.0,0.5,0.0,-1.709989724182618,4.792241618372606,0.49782805561057414
21.262547969818115,1.4225026578429594,2.3552487628472067,5.0,0.5,0.0,-1.5168482063596338,4.667030358807303,0.49829019217720216
21.32706117630005,1.4484906871689365,2.3555870204694305,5.0,0.5,0.0,-1.3175783484896004,4.537162880330909,0.49870937979021635
21.392410039901733,1.474869513928387,2.3558793837017515,5.0,0.5,0.0,-1.1383854979379748,4.404217437616173,0.4990362453319559
21.454516410827637,1.4996851509539442,2.3580407504938012,5.0,0.5,0.0,-0.986043459372356,4.343709520901426,0.4992767565676312
21.518521547317505,1.5254777815631846,2.3514094924173907,5.0,0.5,0.0,-0.8594598480812108,3.9658489502102636,0.49945043498561287
21.5825297832489,1.5506842160222152,2.3183113435365037,5.0,0.5,0.0,-0.7549078183408324,3.505070042746852,0.4995759566107585
21.64732003211975,1.5768676440649287,2.263271219411723,5.0,0.5,0.0,-0.39221759001168666,2.7049277822681224,0.49988549852615005
21.71051549911499,1.6024648759574327,2.179264965925884,5.0,0.5,0.0,-0.2866497537180655,1.620874875443378,0.49993883777761194
21.774513959884644,1.6278667091331998,2.062944148655986,5.0,0.5,0.0,-0.004455059832337349,0.24708605291753544,0.49999998522546746
21.838756561279297,1.6538547384591769,1.928294166123159,5.0,0.5,0.0,0.005011591398998816,-1.1881070125077449,0.5000002684137522
21.903559923171997,1.6782795780512607,1.7959509780345049,5.0,0.5,0.0,-3.1116209464004916,-2.395840025302015,0.5555494260666777
21.966403007507324,1.671636021682214,1.6733665694454436,5.0,0.5,0.0,-5.0,-3.1807257104968087,1.4811332823519732
22.030474185943604,1.6460387897897102,1.533348072527961,5.0,0.5,0.0,-5.0,-4.046713109470634,0.5606111169337692
22.095313549041748,1.6202461591804695,1.3899228606254428,5.0,0.5,0.0,-5.0,-4.873470876796216,0.4817567360284192
22.15885043144226,1.594453528571229,1.260909825581928,5.0,0.5,0.0,-5.0,-5.430135675052944,0.4817320623411186
22.222448110580444,1.569051695395462,1.1101640279771081,5.0,0.5,0.0,-5.0,-6.27645445575481,0.4817320621239355
22.286486864089966,1.5432590647862214,0.9511702826065653,5.0,0.5,0.0,-3.9879172690948073,-7.172152763266365,0.4883004898676446
22.352107286453247,1.5170756367435079,0.8027044591352026,5.0,0.5,0.0,0.8662120010970731,-7.852221906180196,0.49944177083905605
22.418034553527832,1.4901106138338471,0.6707566358597825,5.0,0.5,0.0,5.0,-8.277629772122486,0.4817320621239355
22.4783833026886,1.4660765716752369,0.5783887692668561,5.0,0.5,0.0,5.0,-8.196805027627205,0.4817320621239355
22.542468786239624,1.4402839410659962,0.47873924797232,5.0,0.5,0.0,5.0,-8.330139435336271,0.4817320621239355
22.60690975189209,1.414491310456756,0.4002345198109106,5.0,0.5,0.0,5.0,-8.241984978235534,0.4817320621239355
22.671045303344727,1.3885032811307787,0.3398705032846619,5.0,0.5,0.0,5.0,-8.004342795979762,0.4817320621239355
22.7344172000885,1.3632968466717486,0.2925872523170368,5.0,0.5,0.0,5.0,-7.709852175312094,0.4817320621239355
22.79835534095764,1.3373088173457712,0.25858485223016586,5.0,0.5,0.0,5.0,-7.347270125926942,0.4817320621239355
22.86534857749939,1.3103437944361107,0.23560199590186442,5.0,0.5,0.0,5.0,-6.946190057019555,0.4817320621239355
22.92996859550476,1.2843557651101334,0.2204202146110095,5.0,0.5,0.0,5.0,-6.554726876365024,0.4817320621239355
22.990426778793335,1.2601263242347864,0.21020376469508323,5.0,0.5,0.0,5.0,-6.2034466565417965,0.4817320621239355
23.054420232772827,1.2345290923422825,0.20061543394897624,5.0,0.5,0.0,5.0,-5.92049877208712,0.4817320621239355
23.12219262123108,1.2079548668660955,0.19283509318303044,5.0,0.5,0.0,5.0,-5.668399867175695,0.4817320621239355
23.18763041496277,1.1811852426731717,0.1853361360403292,5.0,0.5,0.0,5.0,-5.45861576495869,0.4817320621239355
23.246340036392212,1.1579327953815077,0.18025761780945385,5.0,0.5,0.0,5.0,-5.266723048446332,0.4817320621239355
23.310365915298462,1.1321401647722673,0.1747238300519094,5.0,0.5,0.0,5.0,-5.098687413198595,0.4817320621239355
23.378133535385132,1.10497974314587,0.1699869695088517,5.0,0.5,0.0,5.0,-4.932820933424887,0.4817320621239355
23.43843364715576,1.0809457009872598,0.1666581547451184,5.0,0.5,0.0,5.0,-4.77889102318718,0.4817320621239355
23.502328634262085,1.0555438678114926,0.16299688893996322,5.0,0.5,0.0,5.0,-4.63785077814438,0.4817320621239355
23.566395044326782,1.0293604397687788,0.15986777589864973,5.0,0.5,0.0,5.0,-4.583123243862172,0.4817320621239355
23.631328105926514,1.0033724104428017,0.15739189303251253,5.0,0.5,0.0,5.0,-4.487108783697732,0.4817320621239355
23.69438076019287,0.9777751785502978,0.15538802276184394,5.0,0.5,0.0,5.0,-4.360254898328258,0.4817320621239355
23.758386850357056,0.9523733453745308,0.1534555362730094,5.0,0.5,0.0,5.0,-4.222717889463567,0.4817320621239355
23.823922395706177,0.9263853160485537,0.15177232778760794,5.0,0.5,0.0,4.674841394776944,-4.0765782697622335,0.483993573348296
23.88679838180542,0.9011788815895231,0.15031772361629028,5.0,0.5,0.0,4.115020591481191,-3.9319839889113983,0.4875523370324609
23.950351238250732,0.8753862509802827,0.14883078363852478,5.0,0.5,0.0,3.8126626256131484,-3.790956040399132,0.48929535060939594
24.014366149902344,0.8495936203710422,0.14722300812403538,5.0,0.5,0.0,3.6049037554043446,-3.658433226009746,0.4904192490827793
24.07908535003662,0.823605591045065,0.14579120922507297,5.0,0.5,0.0,3.423821134272743,-3.522944213580458,0.4913494334511838
24.14240574836731,0.798203757869298,0.14481846680062085,5.0,0.5,0.0,3.2446481097476587,-3.379632248858509,0.492224240420256
24.20630955696106,0.7722157285433208,0.14234106360555893,5.0,0.5,0.0,3.0611970726726376,-3.2857648177434866,0.4930727117709587
24.27033829689026,0.7466184966508169,0.13804412296002963,5.0,0.5,0.0,3.1505282074074596,-3.235147045785234,0.4926655346670228
24.334670782089233,0.7212166634750498,0.1355162619691019,5.0,0.5,0.0,2.996877587697824,-3.120720845620358,0.4933588334697382
24.398359537124634,0.6954240328658093,0.13406826540726124,5.0,0.5,0.0,3.0342562894282015,-2.97582463496215,0.49319327557982784
24.46228575706482,0.6698268009733056,0.1338905644232645,5.0,0.5,0.0,2.813595044181732,-2.7989132953452946,0.4941416797232178
24.527111530303955,0.6436433729305918,0.1337331862947477,5.0,0.5,0.0,2.5180074320753834,-2.629134347528646,0.49530243786104805
24.5932879447937,0.6172645461711412,0.13355993465010385,5.0,0.5,0.0,2.224239086955369,-2.469368026406658,0.496330801514852
24.65590262413025,0.5916673142786375,0.1333944301898221,5.0,0.5,0.0,1.960181662334318,-2.321341958998781,0.49714794606538565
24.718321561813354,0.5668516772530804,0.13322555619100532,5.0,0.5,0.0,1.7323398848439187,-2.1834116588061336,0.4977710359971837
24.782764434814453,0.5408636479271033,0.13305640264149238,5.0,0.5,0.0,1.5386614048347147,-2.044063771695795,0.49824074967199267
24.84827709197998,0.5146802198843894,0.13276891209037628,5.0,0.5,0.0,1.374318480958085,-1.9108554324476557,0.4985959874847602
24.910271644592285,0.4894737854253589,0.13249126167480105,5.0,0.5,0.0,0.6820782205639397,-1.783006617362104,0.4996538019367638
24.974323511123657,0.4638765535328551,0.13210405461788782,5.0,0.5,0.0,0.771310807675168,-1.6582006297122485,0.49955733730661533
25.0383083820343,0.4382793216403513,0.13173643486119715,5.0,0.5,0.0,0.5338910110826743,-1.5322267657102686,0.49978786826313815
25.105063438415527,0.4119004948809009,0.1314296507850281,5.0,0.5,0.0,0.7820689355144934,-1.4003901398419736,0.49954505518965414
25.166316509246826,0.38708485785534374,0.13020977152872723,5.0,0.5,0.0,0.577993973890556,-1.30800514326702,0.4997532309448898
25.230534315109253,0.3616830246795766,0.12899366153543654,5.0,0.5,0.0,0.8122086173358724,-1.2052198968821675,0.49952899184343663
25.29734182357788,0.3347180017699161,0.12846243166291094,5.0,0.5,0.0,0.8572668682721583,-1.0658730948107895,0.49965502660555194
25.361492156982422,0.3091207698774123,0.12833695782233598,5.0,0.5,0.0,0.822568490723346,-0.921221729483925,0.500946048069051
25.422256231307983,0.2846959302853286,0.1283230894378966,5.0,0.5,0.0,0.7589103486480062,-0.783523797291187,0.5070891648510228
25.48621892929077,0.25909869839282473,0.12829960660222356,5.0,0.5,0.0,0.9649536448843531,-0.6451463086968153,0.5319648508524483
25.550408601760864,0.23330606778358423,0.12827737460428823,5.0,0.5,0.0,0.6550364148760419,-0.5086910233220452,0.6097984228447204
25.618582725524902,0.2061456461571871,0.12824661645258262,5.0,0.5,0.0,0.7820804514975467,-0.36818536869158536,0.7966552134642004
25.678234815597534,0.18191620528184,0.12815390049855852,5.0,0.5,0.0,0.46422596424031687,-0.24558646271203277,1.0608156435314982
25.742242574691772,0.1563189733893362,0.12806925821183743,5.0,0.5,0.0,0.6100125126595732,-0.11679113427895202,1.3521998762578873
25.806828260421753,0.13033094406335904,0.1280615968133698,5.0,0.5,0.0,0.5940335205363418,0.01630489722442757,1.4987079309048654
25.874596118927002,0.10590610447127527,0.12804243902836307,5.0,0.5,0.0,3.282257227402311,0.13893233024292861,1.3986901515145087
25.93427610397339,0.09086040328255167,0.12802550192450882,5.0,0.5,0.0,5.0,0.2101244416311347,1.2403561391910602
25.998897075653076,0.08421684691350488,0.12800502361473087,5.0,0.5,0.0,5.0,0.23461203386354879,1.1632171674785816
26.062275409698486,0.08558463793066157,0.12799102814607186,5.0,0.5,0.0,5.0,0.21818987989595026,1.179645368927734
26.12625765800476,0.09359598531686505,0.1278887918315117,5.0,0.5,0.0,5.0,0.16565301461696047,1.2721453542488699
26.190253496170044,0.10590610447127527,0.12783586417785125,5.0,0.5,0.0,5.0,0.09532167662707107,1.390029960607495
26.25643825531006,0.12134260309347221,0.1278678501386415,5.0,0.5,0.0,5.0,0.015022936646182795,1.4732524487853218
26.318701028823853,0.13521591198177582,0.13039698806069222,5.0,0.5,0.0,5.0,0.030507246100089144,1.477098425146302
26.383859872817993,0.14752603113618606,0.1457716352468566,5.0,0.5,0.0,-0.1627919912838749,0.23964720264472628,1.499364881301435
26.446272611618042,0.15749136568975622,0.18341046568787742,5.0,0.5,0.0,-5.0,0.5678251253571125,1.3560073756089404
26.51055097579956,0.17077847842784977,0.2525133596897083,5.0,0.5,0.0,-5.0,1.3300785815206357,0.7445961483013186
26.575572729110718,0.1942263244362502,0.3321018269135049,5.0,0.5,0.0,5.0,2.044979238189055,0.5040596813471901
26.6432101726532,0.22177754349612072,0.43178016473827757,5.0,0.5,0.0,5.0,2.8884858362688073,0.48187977795567044
26.70224380493164,0.24522538950452114,0.5095791996213116,5.0,0.5,0.0,4.11771107133879,3.306902868769408,0.4875371105392424
26.766202926635742,0.27121341883049827,0.6055875320473846,5.0,0.5,0.0,0.12633564240846384,3.9187720492928704,0.49998811918601715
26.83284330368042,0.2977876443066855,0.7055314069137895,5.0,0.5,0.0,-4.109320335820658,4.505984926435751,0.48758636754650203
26.89421558380127,0.3220170851820326,0.7890220048230363,5.0,0.5,0.0,-5.0,4.811143270160002,0.4817320621239355
26.9595627784729,0.34839591194148306,0.8945338994946797,5.0,0.5,0.0,-5.0,5.406304670400725,0.4817320621239355
27.022264003753662,0.37301615025030344,0.9939446440411277,5.0,0.5,0.0,-5.0,5.868404301680915,0.4817320621239355
27.087150812149048,0.39939497700975396,1.0686996007231426,5.0,0.5,0.0,-5.0,5.952923613320781,0.4817320621239355
27.150164365768433,0.42440601275204776,1.1500052528795608,5.0,0.5,0.0,-5.0,6.179111791740625,0.4817320621239355
27.214180946350098,0.45039404207802497,1.2359163220509515,5.0,0.5,0.0,-5.0,6.4817124336151615,0.4817320621239355
27.278916358947754,0.4761866726872654,1.3343018011547028,5.0,0.5,0.0,-5.0,6.957826933285282,0.4817320621239355
27.34213876724243,0.5017839045797692,1.4264832106082512,5.0,0.5,0.0,-5.0,7.316573472405759,0.4817320621239355
27.406198978424072,0.5269903390387995,1.5595426373035863,5.0,0.5,0.0,-5.0,8.235324219118695,0.4817320621239355
27.470180988311768,0.5529783683647768,1.7086649473143272,5.0,0.5,0.0,-5.0,9.264089202570888,0.4817320621239355
27.534864902496338,0.5785756002572806,1.8499275028803879,5.0,0.5,0.0,-5.0,9.99264089202571,0.4817320621239355
27.602654218673706,0.6063222180338877,2.0311911004032908,5.0,0.5,0.0,-5.0,9.999926408920258,0.4817320621239355
27.662282705307007,0.6299654627590249,2.1421145720974897,5.0,0.5,0.0,-5.0,9.999999264089203,0.4817320621239355
27.72631859779358,0.6559534920850019,2.2241218624706565,5.0,0.5,0.0,-5.0,9.999999992640893,0.4817320621239355
27.791407346725464,0.6817461226942425,2.266140608550617,5.0,0.5,0.0,-5.0,9.999999999926409,0.4817320621239355
27.85431742668152,0.7073433545867464,2.2859199932278664,5.0,0.5,0.0,-5.0,9.999999999999265,0.4817320621239355
27.918314456939697,0.7329405864792501,2.301847137949207,5.0,0.5,0.0,-5.0,9.497107936601576,0.4817320621239355
27.982830047607422,0.7589286158052272,2.3122711365044757,5.0,0.5,0.0,-4.829670943972262,5.044971079366016,0.4829343579261517
28.047260761260986,0.784525847697731,2.3184697395747627,5.0,0.5,0.0,-4.637314946246384,5.00044971079366,0.48424544365368144
28.110134840011597,0.8103184783069715,2.323739428713456,5.0,0.5,0.0,-4.1427277738279695,5.000004497107937,0.48738628738609346
28.174071311950684,0.835524912766002,2.3277201829045904,5.0,0.5,0.0,-3.8711193523108087,5.000000044971079,0.48896825698159735
28.23811674118042,0.8613175433752424,2.337223870977943,5.0,0.5,0.0,-3.676462256444382,5.000000000449711,0.49003896351908544
28.304715156555176,0.8878917688514296,2.3592326888322117,5.0,0.5,0.0,-3.49945078857483,5.000000000004498,0.49096655460648225
28.366151571273804,0.9127074058769867,2.363730103755883,5.0,0.5,0.0,-3.5957983420312276,5.000000000000045,0.4904671231016527
28.430073738098145,0.9379138403360172,2.344899395286395,5.0,0.5,0.0,-3.442673525414823,5.000000000000001,0.49125474722449164
28.494365453720093,0.9640972683787309,2.2943464862718956,5.0,0.5,0.0,-3.197000238487054,6.250544500346805,0.4924492180905042
28.560724020004272,0.9902806964214448,2.2145781142682894,5.0,0.5,0.0,-3.2058786254522476,5.13979755192465,0.4924075417957775
28.622056245803833,1.0150963334470018,2.134788182133633,5.0,0.5,0.0,-2.980526854703367,4.191537201981285,0.49343062629512424
28.686153888702393,1.041084362772979,2.0215068746512475,5.0,0.5,0.0,-2.6868034873564914,2.900709745695434,0.494655011480431
28.755993127822876,1.0690263792663228,1.8972531113983087,5.0,0.5,0.0,-2.1185919041739423,1.6222495548518219,0.496669947814992
28.818063974380493,1.09384201629188,1.7631617158226927,5.0,0.5,0.0,-2.0966089328043314,0.37674392210350705,0.49673847125812126
28.878069639205933,1.1174852610170172,1.6490379330408702,5.0,0.5,0.0,-1.6774523124475793,-0.4520859089246513,0.4979097526930789
28.942119359970093,1.1428870941927842,1.4987288618685055,5.0,0.5,0.0,-2.8461462653076803,-1.7464340895538644,0.49400616314289153
29.008036375045776,1.151875435162671,1.343441404219843,5.0,0.5,0.0,-5.0,-2.904927503403455,0.4823814345887467
29.074706077575684,1.1276459942873238,1.1766853725446653,5.0,0.5,0.0,-5.0,-3.9510433331297534,1.0999142120487795
29.13401484489441,1.1041981482789236,1.0414005972547522,5.0,0.5,0.0,-5.0,-4.465681413339976,0.9361642932448615
29.198012828826904,1.0787963151031563,0.8725988186674547,5.0,0.5,0.0,-5.0,-5.445728386882119,0.4819348233480195
29.265929460525513,1.0512450960432858,0.7094581971615258,5.0,0.5,0.0,-5.0,-6.262275132611173,0.4817320621952689
29.33015012741089,1.0254524654340456,0.5528524466743522,5.0,0.5,0.0,-5.0,-6.954952565576252,0.4817320621239355
29.390076637268066,1.0010276258419617,0.4311775412027869,5.0,0.5,0.0,-1.3823041402013825,-7.158048167204632,0.49857964694382345
29.453993320465088,0.9754303939494579,0.30210307814720033,5.0,0.5,0.0,3.717245438736745,-7.53863013379149,0.48981901897638286
29.519722938537598,0.9490515671900073,0.22617850558759675,5.0,0.5,0.0,5.0,-7.220547251285953,0.4817320621239355
29.587209939956665,0.9220865442803469,0.1853697679192691,5.0,0.5,0.0,5.0,-6.576036650205016,0.4817320621239355
29.646027088165283,0.898834096988683,0.16557749406193953,5.0,0.5,0.0,5.0,-5.868276995880345,0.4817320621239355
29.71005654335022,0.8730414663794427,0.1493970785848457,5.0,0.5,0.0,5.0,-5.3025211406539645,0.4817320621239355
29.777087450027466,0.8460764434697822,0.13869746748368875,5.0,0.5,0.0,5.0,-4.809754644644017,0.4817320621239355
29.83806300163269,0.8216516038776983,0.13255093391719225,5.0,0.5,0.0,5.0,-4.38916847653418,0.4817320621239355
29.90202569961548,0.7956635745517212,0.1268604317653372,5.0,0.5,0.0,5.0,-4.0528018120178935,0.4817320621239355
29.96601390838623,0.7698709439424808,0.12272270330684851,5.0,0.5,0.0,5.0,-3.7662304449959807,0.4817320621239355
