t_s,q_rad,q_des_rad,jerk
0.005388498306274414,-0.046309495866590854,0.004667112471766719,0.0
0.021956920623779297,-0.046309495866590854,0.022554713963779824,0.0
0.03943133354187012,-0.04591869843311751,0.056057554926976574,0.0
0.05489826202392578,-0.04494170484943416,0.10233134722765212,0.552076719357362
0.06844735145568848,-0.0433785151155408,0.1588053903687076,1.99851772407365
0.08344078063964844,-0.04044753436449074,0.22317364431396128,4.814329823483938
0.09447789192199707,-0.03771195233017736,0.2933837517325189,5.0
0.10941147804260254,-0.031849990828077254,0.3676244680150572,5.0
0.1224362850189209,-0.026769624192923825,0.44431190805009635,5.0
0.1375119686126709,-0.02129846012429706,0.5220749706007137,5.0
0.15247607231140137,-0.015241099905460279,0.5997402563143066,5.0
0.1743624210357666,-0.006057360218836778,0.6763167588393613,5.0
0.18840956687927246,-0.0005861961502100108,0.7509805601861297,5.0
0.20249009132385254,0.005080366635153426,0.8230597231131298,5.0
0.21747231483459473,0.011333125570726873,0.8920195566185739,2.8042698501659835
0.23250436782836914,0.01758588450630032,0.9574483888000235,-0.19229876054191575
0.25386953353881836,0.026378826759450486,1.0190441110744823,-2.875081734490179
0.26862120628356934,0.032045389544813924,1.0766012919114585,-4.636557627859138
0.28450608253479004,0.03829814848038737,1.1299987239056226,-5.0
0.29951047897338867,0.044550907415960815,1.1791880155601175,-5.0
0.3215208053588867,0.05353924838584765,1.2241838136606162,-5.0
0.3349144458770752,0.059401209887947753,1.2650541033731562,-5.0
0.35053420066833496,0.0656539688235212,1.301910017492935,-5.0
0.3644888401031494,0.07112513289214797,1.3348976977135651,-5.0
0.37937355041503906,0.07737789182772142,1.3641916019956377,-5.0
0.3948688507080078,0.08363065076329486,1.389988277610478,-5.0
0.40748071670532227,0.08832021996497495,1.412500156884474,-5.0
0.42140865325927734,0.09398678275033838,1.4319497770559195,-5.0
0.44448065757751465,0.1037567185871719,1.4485687720003948,-5.0
0.45756053924560547,0.10922788265579866,1.4625941730436893,-4.855414159880537
0.4724886417388916,0.11528524287463544,1.4742591422763214,-4.614725773425595
0.4864840507507324,0.12095180565999888,1.4837903102092946,-4.333446451195989
0.5098772048950195,0.13072174149683238,1.4914126493057411,-4.040538561456165
0.5254976749420166,0.13697450043240583,1.4973471720854685,-3.7510523092911923
0.5404791831970215,0.14283646193450597,1.5018003045364205,-3.472657584625111
0.5592207908630371,0.1504570118872361,1.504965163448644,-3.2090574384848356
0.5684456825256348,0.15416958750523282,1.5070230312183377,-2.6857581254559224
0.5854432582855225,0.16120394130775295,1.5081400276976373,-2.6981101720162988
0.6003615856170654,0.1674567002433264,1.5084728484484264,-2.296141026096376
0.6185300350189209,0.17468645276258318,1.5081713279390005,-2.085619261288124
0.6319108009338379,0.1799622181144733,1.5073726529531024,-1.9517152573759464
0.6453382968902588,0.18523798346636342,1.5061952667154908,-1.8445033501270816
0.6568825244903564,0.19012295138478016,1.5047386502257858,-1.744122520179598
0.6734881401062012,0.1969619064705636,1.5030912258532234,-1.6440841845709557
0.689502477645874,0.2034100641228737,1.5013362731137914,-1.5434344056902938
0.7008781433105469,0.20790423460781715,1.4995446847971674,-1.443189987195019
0.7144975662231445,0.21376619610991726,1.497774585479954,-1.3448042544116723
0.7284808158874512,0.219823556328754,1.4960780530918099,-1.24957265660339
0.7400960922241211,0.22431772681369744,1.494498452835201,-0.8824174622827711
0.7564647197723389,0.23076588446600757,1.493069733597348,-0.762911706937331
0.7797949314117432,0.23994962415263102,1.4918268131430352,-0.7367002239743836
0.7909069061279297,0.24444379463757446,1.4908019931931065,-0.7366692757937798
0.798391580581665,0.2473747753886245,1.4900038962269702,-0.7362343086579102
0.8122913837432861,0.2534321356074613,1.4894268897667977,-0.7269170794703483
0.8252999782562256,0.25870790095935137,1.4890714353732173,-0.7077870304941715
0.8403911590576172,0.26476526117818816,1.4889402036129382,-0.6806385184856366
0.8513050079345703,0.2690640329463949,1.489032672090067,-0.6478986164403899
0.86541748046875,0.2751213931652317,1.489345649221631,-0.611804084794651
0.8804545402526855,0.28137415210080513,1.489873757170536,-0.5741456744127453
0.8986132144927979,0.28860390462006197,1.4906145088418914,-0.5362490449574362
0.9154257774353027,0.2952474609891087,1.491571738666978,-0.49904108001744696
0.9304602146148682,0.3015002199246822,1.4927454362782382,-0.46313588542973644
0.945467472076416,0.3079483775769923,1.4941248677127152,-0.42891453924209094
0.9602997303009033,0.31361494036235577,1.4956949756573985,-0.6726288332226035
0.9754073619842529,0.3198676992979292,1.4974410083006593,-0.6754227818036913
0.9974656105041504,0.32885604026781606,1.4993578495609527,-0.5920044555539936
1.0134501457214355,0.3353041979201261,1.5014487826917724,-0.4895712053297007
1.0254013538360596,0.34018916583854286,1.5037060445602222,-0.3946026126641908
1.0384676456451416,0.345464931190433,1.5061125248932496,-0.039308081308379206
1.0494279861450195,0.3497637029586398,1.5086477319947937,0.056738778645132826
1.0654990673065186,0.3564072593276865,1.5112933186547008,0.05037811967217525
1.0781614780426025,0.3616830246795766,1.514042445026093,0.011646227373617247
1.0916826725006104,0.3675449861816767,1.5168886361057579,-0.030289897247408222
1.1055266857147217,0.37301615025030344,1.5198210703843644,-0.34096480191014417
1.1145126819610596,0.37672872586830025,1.5228226479431266,-0.39901542455863964
1.1243977546691895,0.3804413014862969,1.5258682927035243,-0.3599032250007518
1.1428608894348145,0.3878664527222904,1.5289476373467301,-0.5686554355869979
1.1550381183624268,0.39314221807418054,1.5320676988393305,-0.5346948413226381
1.1726038455963135,0.399981173159964,1.5352349083681365,-0.4226168987106066
1.1859958171844482,0.4052569385118541,1.5384526641246357,-0.30160857624248005
1.201303482055664,0.4117050961641642,1.5417194781174006,-0.19709694981467527
1.2164044380187988,0.41815325381647434,1.5450313183615823,-0.11538930513538756
1.2313404083251953,0.424210614035311,1.5483844003769784,-0.055164323406552404
1.251824140548706,0.43241736013825127,1.5517839797835051,-0.012637533795379623
1.2630891799926758,0.43710692933993134,1.555241177863906,0.01626199833335755
1.2724759578704834,0.44101490367466467,1.558744659571933,0.035087498468290144
1.2926039695739746,0.44922164977760487,1.5622814765387538,0.04667126529396102
1.3002667427062988,0.45215263052865495,1.5658504183648057,0.053162223113611205
1.3224403858184814,0.4613363702152784,1.5694459738383666,0.05614206777025925
1.335280179977417,0.4664167368504319,1.573074783254426,0.3327898183690807
1.3432903289794922,0.4697385150349553,1.5767306364992946,0.3649637245683773
1.3634326457977295,0.4781406598546321,1.5803966686209945,0.30792444599835994
1.3772869110107422,0.48400262135673217,1.584081775899221,0.2293008915089798
1.3914499282836914,0.4894737854253589,1.587793413532964,0.15591406482837944
1.4022760391235352,0.49377255719356566,1.591525289992505,0.09628599279363619
1.4163744449615479,0.49963451869566583,1.595271984883532,0.05126214152790991
1.431426763534546,0.5056918789145026,1.5990306090412323,-0.25715812428673296
1.444516658782959,0.5111630429831293,1.6027986917259665,-0.31266792791121756
1.4592845439910889,0.5168296057684928,1.6065732578422827,-0.2724416848868678
1.475409746170044,0.5232777634208029,1.6103531145189096,-0.20576212079760747
1.488356113433838,0.528553528772693,1.6141385751293158,0.13527380062587566
1.510444164276123,0.5377372684593165,1.6179391449390772,0.2221939987543431
1.5218958854675293,0.5426222363777332,1.621770206281478,0.2081077683523079
1.5384361743927002,0.5490703940300434,1.6256338387547886,0.16167655851957993
1.5505075454711914,0.5541507606651968,1.629524361201686,0.11171207647619216
1.5663597583770752,0.560598918317507,1.6334366439480374,0.06876258745155797
1.5814533233642578,0.5668516772530804,1.6373643281569774,0.035407178044134235
1.5984668731689453,0.5734952336221272,1.6413062854059004,0.011053703924426474
1.6093740463256836,0.577794005390334,1.6452614037387783,-0.00590663139707865
1.618138313293457,0.581311182291594,1.6492109048534216,-0.017193032737664975
1.6353442668914795,0.5885409348108508,1.6531389969770542,-0.024301694688865373
1.6523020267486572,0.5957706873301075,1.6570591399250996,-0.028422858449599114
1.6636717319488525,0.600264857815051,1.6609841194105595,-0.03045795237714792
1.6752829551696777,0.6047590282999944,1.6649069449508627,-0.031069168543664448
1.6883172988891602,0.6100347936518845,1.668818996032723,-0.030732934976903232
1.703287124633789,0.6164829513041946,1.6727174136996035,-0.029786711754024982
1.7163126468658447,0.621563317939348,1.6766011132620617,-0.02846641373315896
1.7365469932556152,0.6297700640422882,1.6804773677786007,-0.026934923286507494
1.7459750175476074,0.6332872409435483,1.6843547618714056,-0.02530319298423546
1.7573187351226807,0.6379768101452282,1.688223856932494,0.25239278378871854
1.772456169128418,0.6440341703640652,1.692073865646587,0.2871521392541
1.7863709926605225,0.6498961318661652,1.6959059020958802,0.23363579944908452
1.8035681247711182,0.6571258843854221,1.699724963819723,0.15905916073643542
1.8134205341339111,0.6608384600034187,1.703533785133667,0.0899619572021975
1.8285503387451172,0.6668958202222556,1.7073277647971703,0.03467805698043367
1.840315818786621,0.6717807881406723,1.7110991514868674,-0.0060701552162870966
1.8623087406158447,0.6807691291105592,1.714850663472129,-0.03432287368897152
1.8773205280303955,0.6868264893293958,1.7185982036492293,-0.05277215218847855
1.8923161029815674,0.692688450831496,1.722348006865738,-0.063926094275481
1.90712308883667,0.6991366084838061,1.7260948472024535,-0.34588293558849714
1.9183366298675537,0.7038261776854862,1.7298340794727667,-0.38127755569701166
1.9405882358551025,0.712814518655373,1.7335705803336536,-0.32597883208878464
1.9560086727142334,0.7186764801574732,1.7373187976444335,-0.24807186330419134
1.9689569473266602,0.7241476442261,1.741080097018775,-0.17471050128221716
1.9841587543487549,0.7302050044449367,1.7448448521578386,-0.11465495740662152
1.9992485046386719,0.7364577633805102,1.7486064253975158,-0.06891858082166674
2.014254093170166,0.7427105223160836,1.7523593014295107,-0.03565586468557646
2.0357248783111572,0.7515034645692338,1.7561088883640539,0.26373664677508896
2.0503058433532715,0.7575608247880705,1.7598706705799305,0.3127351757126904
2.0663247108459473,0.7642043811571174,1.763647361369068,-0.007994060007471188
2.0803074836730957,0.7700663426592175,1.7674308393848452,-0.11070279276186894
2.1028659343719482,0.7788592849123676,1.7712255898682483,-0.12236583082479607
2.1126418113708496,0.7829626579638376,1.7750389562145221,-0.37706614767390234
2.131296157836914,0.7903878091998312,1.7788664578978886,-0.3810682546400616
2.147298812866211,0.7970313655688779,1.7827093220109744,-0.29901231864463085
2.1623127460479736,0.802893327070978,1.786568793603551,-0.4772865325095976
2.177295446395874,0.8089506872898149,1.7904382261127465,-0.42374915592655366
2.1992290019989014,0.8183298256931749,1.7943239797272785,-0.3006555588988668
2.2152345180511475,0.8247779833454851,1.798243380713221,-0.1749447756165321
2.238346815109253,0.8341571217488452,1.8022113054218856,-0.07017696987642953
2.252495050430298,0.839628285817472,1.8062403057288612,0.008783437642992165
2.2654941082000732,0.8449040511693621,1.8103286061958037,0.34036434393353165
2.2802886962890625,0.8515476075384089,1.8144622459165134,0.4101659468274129
2.29431414604187,0.8572141703237723,1.8186289936723403,0.3774903181157173
2.30928897857666,0.8634669292593458,1.8228182134685764,0.31349550646491614
2.323310136795044,0.8689380933279726,1.827020730853609,0.2478129860438095
2.3400378227233887,0.8759724471304927,1.8312314112169905,0.1910929464461557
2.350294828414917,0.8800758201819627,1.8354458736415793,0.14574251783982076
2.3664517402648926,0.8865239778342728,1.8396577100944083,0.11092077519383628
2.3867640495300293,0.8943399265037396,1.8438737884730865,0.08477435122740576
2.4012932777404785,0.9003972867225765,1.8481093952930256,0.06537190821479441
2.417283296585083,0.9072362418083599,1.8523650260910949,0.05104302834306487
2.430290937423706,0.9127074058769867,1.85663136837326,0.040457806638277735
2.454702138900757,0.9226727404305568,1.860912684637667,0.032603741307442966
2.465550422668457,0.9271669109155003,1.8652210414254768,0.026730135846213463
2.4814908504486084,0.9336150685678104,1.8695540967017295,0.02228946187047924
2.4959425926208496,0.9392816313531739,1.8739046159899504,0.2949248060247413
2.5104598999023438,0.9451435928552739,1.8782662971685622,0.3254004552765024
2.5252842903137207,0.9513963517908475,1.8826300750755172,0.2682055039485356
2.5372467041015625,0.9560859209925274,1.886988297322719,0.19042919393875765
2.5452463626861572,0.9594076991770509,1.8913222839095747,0.11851803500816258
2.565300941467285,0.9680052427134643,1.8956165848973097,0.060736358501709414
2.578275442123413,0.9730856093486179,1.8998833121676166,0.01775405756999901
2.593299627304077,0.9789475708507178,1.9041330834392043,-0.0125092559404626
2.613283395767212,0.9871543169536582,1.9083705500514805,0.2432614448157343
2.630587339401245,0.9941886707561782,1.9126121236504778,-0.012457191673054063
2.639876127243042,0.9982920438076482,1.9168606509884498,-0.10810100784313796
2.654369592666626,1.0039586065930115,1.9210992472343706,-0.1327311947040788
2.6733005046844482,1.0119699539792153,1.9253246420633936,-0.12822248308750783
2.6966612339019775,1.0217398898160488,1.9295600649928188,0.16238932810742662
2.7122647762298584,1.0279926487516222,1.9338294011613524,0.21192306162356092
2.7262637615203857,1.0336592115369856,1.9381331861187083,0.17187516801959346
2.738642930984497,1.0383487807386655,1.942458590704125,0.10852858825148526
2.746702194213867,1.0416705589231892,1.9467849370033516,0.32445169831400955
2.765812635421753,1.0492911088759191,1.9510954686178856,0.3093424775317734
2.7812576293945312,1.055934665244966,1.9553948651016546,0.2189994884357912
2.797927141189575,1.0627736203307494,1.959687482046239,0.11896840000973308
2.8082475662231445,1.0668769933822195,1.9639674909209486,-0.24264233007835811
2.8241755962371826,1.0735205497512663,1.9682290300864942,-0.3408255984253399
2.846022844314575,1.082508890721153,1.9724789115481678,-0.33144049592464053
2.860264778137207,1.0881754535065165,1.9767336380950713,-0.28522426153506175
2.8757593631744385,1.0942328137253534,1.9809950023503542,-0.23250679607283964
2.890251398086548,1.1000947752274535,1.9852532580460707,-0.18492217109019782
2.9052305221557617,1.1065429328797636,1.989499945576573,-0.14581233343556713
2.918283462524414,1.1120140969483903,1.9937277956824184,-0.11511249845368574
2.931511640548706,1.1168990648668071,1.9979302139047024,-0.36761066267630255
2.9462740421295166,1.1231518238023808,2.0021016746864873,-0.38287424380961194
2.96026349067688,1.1290137853044806,2.006238460363252,-0.31425371784713013
2.9762303829193115,1.1352665442400542,2.0103433305889187,0.04814899496017355
2.986189126968384,1.1393699172915244,2.0144191346536533,0.15967690887988029
3.00026535987854,1.1450364800768875,2.0184568709523876,0.16731671100656126
3.0206282138824463,1.1532432261798278,2.0224571170908052,0.13804517819962991
3.03647518157959,1.1598867825488746,2.026437040663137,0.10079324463909671
3.0512328147888184,1.1661395414844482,2.0304033458628794,-0.2091983892020439
3.0652318000793457,1.172001502986548,2.034350661944724,-0.2695650557546023
3.080233097076416,1.1778634644886483,2.038273185135582,-0.23484803552608602
3.104238986968994,1.1872426028920084,2.0421763908160964,-0.4493304852500118
3.1171672344207764,1.1927137669606351,2.046075146472785,-0.4218731733493014
3.1312272548675537,1.1983803297459985,2.049971255105749,-0.31666566938634505
3.1443419456481934,1.2036560950978887,2.0538555267518066,-0.20261204129979082
3.1592583656311035,1.2097134553167255,2.057720042367845,-0.10494880608623261
3.171147346496582,1.214598423235142,2.061558061965258,-0.029859906395267276
3.1845459938049316,1.2206557834539788,2.065363565566498,0.024051485192849737
3.20023250579834,1.2267131436728156,2.0691315878321106,0.060611936947743354
3.2142255306243896,1.2325751051749159,2.0728588533011525,0.08391155699959268
3.22822904586792,1.2382416679602795,2.0765428266958446,0.09750732274919888
3.247631072998047,1.2460576166297461,2.0801869326782265,0.38026352372674677
3.255244493484497,1.2493793948142695,2.083794285371188,0.41536418469858044
3.2682459354400635,1.254459761449423,2.087356350405773,0.3590662659874928
3.2839367389678955,1.2609079191017332,2.090866864755902,0.27972581398179125
3.298175811767578,1.2665744818870965,2.094328911478672,0.20468364236853248
3.3081870079040527,1.2704824562218298,2.0977439636698163,-0.133211033739016
3.321789503097534,1.27634441772393,2.101108675976873,-0.21390733574962364
3.333914041519165,1.28162018307582,2.1044207745105794,-0.19388657589012864
3.34393048286438,1.2857235561272902,2.107677986233713,-0.14291222757098987
3.35317325592041,1.2888499355950767,2.110870552005234,-0.08994100321763697
3.3701672554016113,1.2958842893975973,2.113990342046461,-0.04531202536986913
3.3872008323669434,1.3027232444833805,2.1170477953423883,-0.01130501238348379
3.3967092037200928,1.306435820101377,2.120055487072494,0.012956055598714874
3.414454460144043,1.3134701739038972,2.1230153772116744,-0.24672450597283666
3.4265427589416504,1.318355141822314,2.1259325333027452,-0.26949591181176713
3.442239999771118,1.3246079007578877,2.1288111269289547,-0.2084220514537521
3.4572324752807617,1.330860659693461,2.1316519717600753,-0.1294529842307988
3.4712443351745605,1.3363318237620878,2.1344555981229014,0.21786601231961322
3.489607095718384,1.343952373714818,2.1372248084554264,0.3069503249424633
3.4991679191589355,1.3476649493328146,2.139961811868689,0.29227364604293415
3.522217273712158,1.357044087736175,2.1426672163329954,0.24346721311166744
3.5372679233551025,1.3632968466717486,2.14534804049109,0.1900226150817486
3.5522100925445557,1.3691588081738484,2.148006894307134,0.14295873013481403
3.565232515335083,1.3740437760922652,2.150638835883626,0.10517606817888353
3.5802159309387207,1.3799057375943653,2.1532395247645186,-0.19973980669909988
3.5932159423828125,1.3849861042295188,2.1558051808068956,-0.25430332255219523
3.6097187995910645,1.3920204580320388,2.1583338496737263,-0.21483467091654876
3.630218505859375,1.4002272041349793,2.1608295231958365,-0.15000868910923496
3.6434073448181152,1.4055029694868688,2.1632983528838077,-0.08753447926077326
3.656010150909424,1.4103879374052857,2.1657392384635514,-0.036637226103153495
3.6681387424468994,1.4154683040404392,2.1681446603645576,0.0013014156133418359
3.6842193603515625,1.4219164616927495,2.1705079580203073,0.02784342553228746
3.699244499206543,1.4273876257613762,2.1728266226450814,0.0453386170214084
3.7122161388397217,1.4322725936797929,2.1750981902806883,-0.21998577648981063
3.726210117340088,1.4379391564651562,2.177318469496744,-0.24728825260734655
3.7392172813415527,1.442824124383573,2.179483476903983,-0.18979274183052314
3.763719320297241,1.4527894589371433,2.181592624457127,-0.38967727309801947
3.7791521549224854,1.4588468191559802,2.1836477551882982,-0.35374563000708314
3.7952067852020264,1.4649041793748168,2.1856457677894583,-0.24446324339993078
3.8099842071533203,1.4705707421601801,2.1875798204520085,-0.12939201191516042
3.823209285736084,1.4756511087953337,2.1894434033377665,-0.03276760221888132
3.8461759090423584,1.485030247198694,2.191230963183099,-0.23608685543278568
3.8595166206359863,1.4901106138338471,2.19293766826118,-0.21848590804935433
3.8741531372070312,1.4953863791857371,2.194557233648091,-0.13047100517977733
3.8901383876800537,1.5020299355547841,2.196082491615393,-0.31097834780549327
3.9138875007629395,1.5114090739581443,2.1975058297940797,-0.26388335852940525
3.9271492958068848,1.5164894405932978,2.19881898245465,-0.1492818660410235
3.9431161880493164,1.5223514020953979,2.2000151371849275,-0.0329261806986004
3.9561073780059814,1.5272363700138143,2.2010892418629844,0.06228188869614039
3.969120979309082,1.5323167366489678,2.202037110595544,-0.14419484977235
3.9821228981018066,1.5373971032841214,2.202855388530088,-0.13081481818778623
3.996202230453491,1.5430636660694848,2.2035415142676538,-0.04761333482893629
4.0092315673828125,1.5479486339879014,2.2040936800022872,0.04283373418098295
4.024197340011597,1.553615196773265,2.204510789579037,0.1179149338485167
4.048181772232056,1.5629943351766253,2.2047878573303703,0.1723679164447187
4.060797452926636,1.5680747018117789,2.204916451548281,-0.06827422822520292
4.075053453445435,1.5735458658804056,2.204894241443927,-0.08135734597027575
4.091181755065918,1.5794078273825054,2.204724435855509,-0.29374273620095664
4.107156753540039,1.5854651876013421,2.2044106651210225,-0.2503869615151525
4.12989354133606,1.5942581298544924,2.203950899713347,-0.1299154853783207
4.142535448074341,1.5991430977729093,2.203338192573627,-0.0059433480156866475
4.157198905944824,1.6044188631247993,2.202573412853006,-0.18036574333981628
4.170196771621704,1.6096946284766893,2.2016642936682462,-0.1395281744786584
4.186171770095825,1.615947387412263,2.200618507715159,0.2405766625389293
4.201183319091797,1.6216139501976263,2.1994436131049477,0.10274200156166238
4.219770193099976,1.6286483040001465,2.198142459084933,0.09912486347572591
4.23252272605896,1.6337286706352998,2.1967157326755906,0.1382235256354672
4.252189636230469,1.6407630244378202,2.1951665967335146,0.1819892473563003
4.267187595367432,1.6464295872231836,2.193496510013804,0.21675840416060407
4.28318190574646,1.6528777448754937,2.1917104430698915,0.23942342641892744
4.29967474937439,1.6593259025278038,2.189816783303133,0.251011482007483
4.319184303283691,1.666751053763797,2.1878153732152987,0.2538188859823318
4.333049774169922,1.6720268191156873,2.1857016957332083,0.25021968675063727
4.3481738567352295,1.6776933819010509,2.1834808565757666,0.24223877289941698
4.363168239593506,1.6835553434031507,2.181164684844657,0.23145645529766823
4.375089883804321,1.6878541151713575,2.1787639963783345,0.2190432485689095
4.39826226234436,1.6960608612742978,2.1762798411796136,0.20583488583707088
4.41316294670105,1.702313620209871,2.1737049093970424,0.19241005316112492
4.428151607513428,1.7081755817119713,2.171042387235217,0.1791573147336793
4.443165302276611,1.7138421444973346,2.1683044027472493,0.16632812317863477
4.462812900543213,1.7212672957333282,2.165496001062044,0.15407692263389144
4.4758501052856445,1.7259568649350083,2.162616466647454,0.14249064022630645
4.492700815200806,1.7327958200207916,2.1596679466998654,0.13160996743371833
4.50715970993042,1.7382669840894187,2.156654318280271,0.12144450915837329
4.522162914276123,1.7437381481580454,2.1535827844965443,0.11198345292012868
4.53720498085022,1.7494047109434088,2.1504636502775294,0.10320301338798885
4.5521628856658936,1.7548758750120355,2.147305896736982,0.09507157978577199
4.5761637687683105,1.7640596146986587,2.1441073187329267,0.08755323951984233
4.590163946151733,1.7695307787672858,2.1408561963984605,0.08061016108465222
4.603374719619751,1.7744157466857025,2.1375538663053537,0.07420417992846409
4.617084980010986,1.779300714604119,2.1342116475013957,0.06829783035663539
4.632455348968506,1.7857488722564294,2.130837030449779,0.06285499460954479
4.646162986755371,1.7902430427413727,2.1274364300109645,0.05784128917041936
4.659172534942627,1.7949326119430529,2.124016398242313,0.05322427225390747
4.675659894943237,1.801185370878626,2.120579641995217,0.048973530988900726
4.686162233352661,1.8050933452133597,2.1171283299825085,0.04506068895198991
4.701820611953735,1.8113461041489332,2.113668847248373,0.04145936218629506
4.715078353881836,1.8162310720673498,2.1102051579985326,0.03814508307708495
4.735747337341309,1.8240470207368165,2.1067282129253186,0.03509520534700122
4.7501630783081055,1.8293227860887067,2.1032215555460483,0.032288799165714616
4.764760732650757,1.8345985514405967,2.099681320643017,0.029706542407416728
4.778737306594849,1.8396789180757502,2.096114016721195,0.027330612038628695
4.794168949127197,1.8453454808611136,2.0925251629711252,0.025144578192869006
4.814133167266846,1.852966030813844,2.08891215867129,0.023133302519897703
4.82378625869751,1.8566786064318406,2.085269794623714,0.021282841726083447
4.834105730056763,1.860586580766574,2.08160813396501,0.019580356773609368
4.85663628578186,1.8687933268695143,2.077929854704026,0.01801402790171361
4.872165679931641,1.8746552883716143,2.0742180852646057,0.016572975438483788
4.8870885372161865,1.8805172498737142,2.070467223559362,0.015247186241696178
4.902095556259155,1.885988413942341,2.066684341409816,0.014027445529285507
4.926098346710205,1.8945859574787545,2.0628633610176768,0.012905273817717595
4.94009804725647,1.8998617228306447,2.058987079926927,0.011872868663859622
4.955095529556274,1.9059190830494817,2.0550533047263713,0.010923050896704414
4.970088958740234,1.9113902471181083,2.0510726459788393,-0.26598914464539675
4.984932899475098,1.9168614111867353,2.0470520297349264,-0.29991767926373997
4.998089790344238,1.921746379105152,2.0429974951561922,-0.24556004133598305
5.020718336105347,1.9301485239248286,2.038906164864614,-0.17015548655854398
5.035065174102783,1.9356196879934555,2.034762935142789,-0.1002588241245414
5.0490570068359375,1.9407000546286088,2.0305656062338793,-0.04421296299809814
5.063054800033569,1.9455850225470255,2.0263253216056585,-0.0027452179507791996
5.08495306968689,1.953010173783019,2.0220419888485917,-0.5258942745817958
5.099948883056641,1.9580905404181725,2.017704477793119,-1.1251408892985455
5.115038633346558,1.9629755083365892,2.013309881561695,-1.8975707299296782
5.131055593490601,1.9672742801047958,2.008865271977879,-4.488501568576873
5.1469902992248535,1.9711822544395294,2.0043778439931406,-5.0
5.167217016220093,1.9746994313407895,1.9998432103211887,-5.0
5.17682671546936,1.9758718236412094,1.9952598967192094,-5.0
5.196053743362427,1.9774350133751026,1.9906384053432196,-5.0
5.211060523986816,1.9776304120918395,1.985977433200791,-5.0
5.226060628890991,1.9774350133751026,1.9812770604369572,-5.0
5.241056203842163,1.9770442159416295,1.9765482229595168,-5.0
5.263064384460449,1.9762626210746828,1.9717859251731218,-5.0
5.279056787490845,1.9754810262077362,1.9669716777390045,-5.0
5.293057918548584,1.9746994313407895,1.962104269083093,-5.0
5.308566331863403,1.973722437757106,1.9571966609368485,-4.179971253693235
5.329401254653931,1.9721592480232129,1.9522452938561976,-2.518549386933304
5.345122814178467,1.9700098621391096,1.9472336773679688,-1.1476848571073917
5.358057975769043,1.9680558749717427,1.9421628298021156,-0.11707183215581396
5.374045133590698,1.964929495503956,1.9370481092674212,-1.5987382819581568
5.391795873641968,1.9606307237357492,1.9318982574313288,-2.208465439391894
5.403517961502075,1.9575043442679625,1.9267185326888268,-2.3950783994978466
5.415127515792847,1.954182566083439,1.9215223731295088,-3.2093662638861957
5.43198037147522,1.9489068007315489,1.916319825388273,-3.480461638695688
5.4444804191589355,1.9446080289633423,1.9111112274594595,-3.2073370113039577
5.455078601837158,1.9407000546286088,1.9059057292440544,-3.87653261698695
5.476076602935791,1.9322979098089321,1.9007053979032567,-4.1234130618790115
5.4850263595581055,1.9285853341909356,1.895502406673544,-3.8618814240456714
5.504760503768921,1.9201831893712586,1.890294908747574,-3.1639511699958742
5.512035608291626,1.9168614111867353,1.8850880358019755,-1.5920248167178368
5.529345989227295,1.9098270573842149,1.8798945980256614,-0.5703101481678776
5.5418314933776855,1.9037696971653784,1.8747119362100093,1.1911077313678835
5.558140277862549,1.896735343362858,1.8695278668466777,3.1177857146315398
5.572814226150513,1.8906779831440212,1.8643345614634326,4.970233565578581
5.588135480880737,1.8844252242084478,1.8591281264652746,5.0
5.60309624671936,1.8779770665561377,1.8539116598181227,5.0
5.618102073669434,1.871333510187091,1.8486887826634626,5.0
5.631096601486206,1.8656669474017276,1.843462315291549,5.0
5.646131992340088,1.859414188466154,1.838234365565881,5.0
5.66613245010376,1.8506212462130038,1.8329915025089836,5.0
5.681076526641846,1.8443684872774304,1.8277053825466854,5.0
5.696101903915405,1.8381157283418568,1.82236516187442,5.0
5.711061477661133,1.8318629694062836,1.8169787540004916,5.0
5.72610330581665,1.82561021047071,1.8115550029444873,5.0
5.7391438484191895,1.82033444511882,1.8061015584861262,5.0
5.754104375839233,1.8134954900330365,1.8006249631284645,5.0
5.777084112167358,1.8035301554794665,1.7951133375145827,5.0
5.785426139831543,1.8002083772949429,1.7895483760511988,5.0
5.802058219909668,1.7929786247756863,1.783932235066455,4.8035498098862845
5.8181116580963135,1.7861396696899028,1.7782662806405394,4.51319178099691
5.831308364868164,1.7804731069045392,1.7725520135299084,4.193605152138856
5.847103834152222,1.774024949252229,1.7668001033672651,3.8750051117481497
5.862847566604614,1.7675767915999188,1.76101645129477,4.122833418534725
5.875107526779175,1.762301026248029,1.755206165390206,4.180451914121643
5.892979383468628,1.7554620711622455,1.7493715563377739,4.391748273050126
5.903113842010498,1.751554096827512,1.7435146043562386,4.559681616501511
5.92507266998291,1.7439335468747819,1.737632844758834,5.0
5.940070152282715,1.7388531802396283,1.7317059519580857,5.0
5.955071926116943,1.7343590097546853,1.72572642018528,5.0
5.975390434265137,1.7275200546689018,1.7196941303552267,5.0
5.99195122718811,1.7222442893170116,1.7135908396657507,5.0
6.008053302764893,1.7175547201153312,1.707407782012489,5.0
6.031182765960693,1.710715765029548,1.7011379789281134,5.0
6.044458866119385,1.7068077906948147,1.694768628710578,4.880720104917061
6.061009883880615,1.701336626626188,1.6883085554709485,3.883731362113231
6.076002359390259,1.6960608612742978,1.6817750582061048,1.9188283760947145
6.094638347625732,1.6896127036219875,1.6751742939886989,-0.28347572908721363
6.104009389877319,1.6866817228709376,1.6685169758383653,-2.140383505906169
6.118020296096802,1.6817967549525208,1.6618309923753207,-3.5075765853258307
6.1299989223480225,1.6771071857508406,1.6551400562532674,-4.415223928069201
6.1504974365234375,1.6689004396479008,1.648444872688148,-5.0
6.166724443435669,1.662061484562117,1.6417264980891777,-5.0
6.1820290088653564,1.6556133269098068,1.6349695668129784,-5.0
6.195329904556274,1.649751365407707,1.6281806012755669,-5.0
6.210072040557861,1.6434986064721333,1.6213746096721207,-5.0
6.224071502685547,1.6376366449700333,1.6145642847060313,-4.8741656674965945
6.247908592224121,1.627671310416463,1.6077405147494754,-3.6953457875905205
6.263073921203613,1.6212231527641532,1.6008758196775839,-2.6331345488305375
6.276077747344971,1.6155565899787896,1.5939668658945045,-1.5026554536193601
6.289583444595337,1.609890027193426,1.5870315748174388,-0.5469532712775054
6.305170774459839,1.6028556733909058,1.5800852452780216,0.1774507697307529
6.3250932693481445,1.5946489272879658,1.5731267201477273,0.6876106322013049
6.335501194000244,1.5901547568030223,1.566150545036057,1.023602167726842
6.347084283828735,1.5852697888846057,1.5591780352169478,0.9513515245348909
6.365370273590088,1.5776492389318757,1.5522284404556046,1.3020350230652165
6.376072406768799,1.5731550684469322,1.5453049981910227,1.4306106705539772
6.400085687637329,1.5627989364598887,1.538400197614435,1.1700325292591585
6.4120848178863525,1.5575231711079984,1.5314870674679428,1.3716930438282056
6.427035093307495,1.5512704121724252,1.5245554248742348,1.1153418719341108
6.444499492645264,1.5438452609364317,1.517610884380998,1.0228719168741822
6.455071687698364,1.5393510904514882,1.5106582242206674,0.9884665420937881
6.468066930770874,1.5336845276661246,1.5037134938611447,0.9674333848664811
6.4820396900177,1.5278225661640248,1.4967900338016475,0.9430931809460821
6.497071027755737,1.5215698072284511,1.4898927060677984,0.9109956285640666
6.513175010681152,1.514535453425931,1.4830168222924531,0.5955284377084777
6.5240466594696045,1.510432080374461,1.476158019935857,0.5176470079531754
6.546040773391724,1.5004667458208907,1.4693084150237188,0.5248539008302346
6.562048435211182,1.4934323920183705,1.4624405451886922,0.27575331745960685
6.575051546096802,1.4881566266664805,1.4555434505949867,0.5402185171255278
6.590041875839233,1.4819038677309073,1.44862863850111,0.6372825291085592
6.612295389175415,1.4723293306108103,1.4416852982470982,0.6543538060315619
6.625882625579834,1.4664673691087102,1.4346861644119704,0.6345716339774454
6.640228271484375,1.4604100088898735,1.4276294198281172,0.59906640443529
6.654987335205078,1.4545480473877732,1.4205302198974816,0.558055547141739
6.667966842651367,1.4488814846024096,1.4134018395843162,0.5163672740323986
6.684046983718872,1.4422379282333628,1.4062580952660415,0.4761852376327099
6.7022178173065186,1.4342265808471597,1.3991007645978737,0.4384085735178477
6.712033987045288,1.4301232077956894,1.3919314468578052,0.4033231025782923
6.727628707885742,1.4240658475768528,1.3847662115903712,0.3709305580888351
6.743334054946899,1.4174222912078058,1.377610796042381,0.617146912350907
6.761985778808594,1.4094109438216025,1.3704497625317753,0.34681174239555357
6.776960372924805,1.4031581848860288,1.3632646245299394,0.5094256423823562
6.791968822479248,1.3969054259504556,1.3560554560961757,0.498401034505829
6.811849594116211,1.3883078824140422,1.3488217722338867,0.4275786901797132
6.820490121841431,1.3845953067960453,1.3415611108865153,0.345826775856622
6.830972909927368,1.3801011363111018,1.334299604434643,0.27193848240562596
6.854813814163208,1.3705265991910052,1.3270430307315197,0.21135778884227951
6.871042013168335,1.3636876441052217,1.3197612769245899,0.16403618075371146
6.885044097900391,1.3578256826031216,1.312447797740773,0.1280066695557421
6.899043321609497,1.3519637211010214,1.3051184007446672,0.10092274064952744
6.911996126174927,1.3464925570323945,1.297786651913577,0.35669252252421413
6.926989555358887,1.3400443993800844,1.2904640510399596,0.37462627076531013
6.940988302230835,1.334377836594721,1.2831602068153367,0.30807388876142455
6.9550981521606445,1.3285158750926211,1.2758814573073873,0.22326503873420284
6.966984987258911,1.3234355084574676,1.2686328498684116,0.14601210704381862
6.980982303619385,1.3175735469553675,1.2614213842383764,0.08411809279455981
6.993994951248169,1.3122977816034775,1.2542525215277052,0.03792009555521461
7.00598931312561,1.307217414968324,1.247128804057796,0.005098794121807908
7.020970821380615,1.3009646560327504,1.2400518301592351,0.2587980101595121
7.043644905090332,1.2915855176293904,1.2330014873006658,0.27741004597517277
7.058945417404175,1.285332758693817,1.2259395821934964,-0.06257955727609171
7.074975252151489,1.2784938036080336,1.218854939909758,0.09938681035557664
7.088982582092285,1.2724364433891966,1.2117593722535391,-0.16105997032015057
7.104032754898071,1.2661836844536232,1.2046630723688283,0.04597054257878683
7.1271140575408936,1.2564137486167894,1.1975539383118,0.08760294036833303
7.142034292221069,1.250356388397953,1.1904011963018295,0.06701575422821492
7.165785312652588,1.2401956551276458,1.1831795713633397,0.02950123837861191
7.181008338928223,1.2341382949088093,1.1758687762466762,-0.006690134486567145
7.193578004837036,1.2286671308401824,1.1684782786837584,-0.035498812852535734
7.209963321685791,1.2220235744711359,1.1610379742388937,-0.056030628946010685
7.225017309188843,1.2155754168188255,1.1535647042105324,-0.0693238827826203
7.246726036071777,1.2060008796987287,1.146052671233018,-0.0769287147501387
7.26243257522583,1.1995527220464186,1.1384816381209717,-0.0803338122249562
7.276181936264038,1.1942769566945284,1.1308567688362814,0.1952627387524738
7.288951635360718,1.1888057926259017,1.1232038577181616,0.2299529633020331
7.304011344909668,1.1823576349735918,1.1155436928182683,0.17772077251781732
7.319035530090332,1.1764956734714915,1.1078940819356298,0.10529103097489993
7.331937313079834,1.1710245094028648,1.1002708453464731,0.038855836609099394
7.3450000286102295,1.1655533453342382,1.0926871627019168,-0.289531056354173
7.359988689422607,1.1591051876819278,1.085153814078682,-0.08432179456906994
7.379370450973511,1.150703042862251,1.0776659284923846,-0.02131082883810065
7.394741058349609,1.1446456826434142,1.0701987714152716,-0.29184242765806906
7.4100096225738525,1.1383929237078407,1.0627381500408348,-0.06279489999836567
7.424987316131592,1.132335563489004,1.055292408059396,-0.2677251044249575
7.440984487533569,1.1256920071199572,1.047875316688374,-0.29420833881051794
7.454991102218628,1.1198300456178572,1.0404983260401026,-0.254669334243817
7.478000164031982,1.1102555084977603,1.0331508635315523,-0.19832754759128854
7.4939470291137695,1.1034165534119769,1.025803921871624,-0.14490027399998523
7.508981704711914,1.0969683957596668,1.0184531639029886,-0.3768622119874573
7.531996250152588,1.0877846560730433,1.0110954101650333,-0.37608600166309625
7.547991991043091,1.0813364984207332,1.0037085943433137,-0.29600255552401283
7.571981191635132,1.0711757651504263,0.9962748964630462,0.0739923561259731
7.587984323501587,1.0643368100646429,0.9887803264424269,0.19011345850470762
7.600993394851685,1.0592564434294893,0.9812337261205116,0.20014282334410313
7.613986492156982,1.0537852793608626,0.9736630815480339,0.1717033554963137
7.627003908157349,1.0479233178587624,0.9660925944457395,0.13421998214825834
7.639815330505371,1.0426475525068724,0.9585479501614692,0.09933567237955206
7.656011343002319,1.0365901922880356,0.951050770578096,0.07072425187080247
7.670018196105957,1.0307282307859356,0.9436089884362318,0.04872018057804503
7.686481714248657,1.0240846744168886,0.9362225194962391,0.03243980711152442
7.6960461139678955,1.020372098798892,0.9288958592986473,0.020706457618362685
7.70797061920166,1.0150963334470018,0.9216450340422409,0.012418108756826283
7.723017692565918,1.008648175794692,0.9144829500862788,0.006664819077326537
7.732874870300293,1.0045448027432218,0.9074189257912365,0.0027409656646729137
7.7493109703063965,0.9979012463741749,0.9004599409237098,0.00011883129034521837
7.76197075843811,0.9924300823055481,0.89359983524894,-0.0015873699980500414
7.774473667144775,0.9873497156703948,0.8868386422141372,0.2733829455307463
7.7909791469573975,0.9803153618678746,0.8801810374371188,0.3058797844991218
7.803995609283447,0.9752349952327212,0.873617742785544,-0.025583152481685495
7.828063488006592,0.965269660679151,0.8671219995423339,0.1411205378954568
7.835983753204346,0.9619478824946276,0.8606768130796616,-0.11720998470200314
7.857968330383301,0.952764142808004,0.8542857632173576,0.09016451459012255
7.882441759109497,0.9426034095376973,0.8479160048310538,0.13097454221138305
7.895966529846191,0.9375230429025437,0.8415222306351919,0.10882521020009878
7.909051895141602,0.932051878833917,0.835102738024525,0.06930543494680809
7.924283504486084,0.9256037211816069,0.8286747179403176,0.03086946904838807
7.937976121902466,0.9199371583962435,0.8222534012930636,-0.0002851103456177253
7.949291706085205,0.9152475891945634,0.815853531426849,-0.02317229187626025
7.963960886001587,0.90899483025899,0.8094881402475088,-0.03877073930156262
7.979982852935791,0.9021558751732064,0.8031663033264744,-0.0485932604624293
7.995068311691284,0.8955123188041597,0.7968962966669024,0.22193182445854592
8.017796993255615,0.8865239778342728,0.7906717325540116,-0.023410828847879844
8.033995866775513,0.8800758201819627,0.7844732714546812,0.16410985956810642
8.050227165222168,0.8730414663794427,0.7782984554344085,-0.0986624244524151
8.062991619110107,0.8679610997442891,0.7721625182710482,-0.17928000286150414
8.084951877593994,0.8589727587744024,0.7660742937711014,0.09226329354701618
8.099979400634766,0.8525246011220923,0.7600303876669324,0.14846364612796054
8.113889694213867,0.8464672409032555,0.7540396801542602,0.12286394005248702
8.127994060516357,0.840800678117892,0.7481244295420432,0.07431419196337052
8.141963005065918,0.8353295140492653,0.7423045316497293,0.02670721217930272
8.164881467819214,0.8259503756459051,0.7365877816764408,-0.011871356597781615
8.178544521331787,0.8202838128605418,0.7309723911813166,-0.040070392683864454
8.185931921005249,0.8169620346760184,0.7254756959223454,-0.05908855767475614
8.198735237121582,0.8114908706073914,0.7201284372387783,0.20521039154601348
8.210883855819702,0.8064105039722381,0.7149493615006294,0.23201976681371306
8.229743480682373,0.7989853527362445,0.7099453524800973,0.17447948076595002
8.2443265914917,0.7927325938006711,0.705114139707257,0.09861750435442163
8.257013082504272,0.787456828448781,0.7004541326170384,0.030086309111748206
8.273892879486084,0.7806178733629977,0.6959692593657786,-0.023424483207757228
8.2850661277771,0.7763191015947909,0.6916628268266818,-0.06165056144681987
8.29287314414978,0.7731927221270041,0.6875435597104537,-0.08695220014922954
8.312850952148438,0.764985976024064,0.683617797669129,-0.10224143156557171
8.327232837677002,0.7587332170884905,0.6798782811450255,-0.11017481668795831
8.340062618255615,0.7532620530198638,0.6763184854697754,-0.11291017833009238
8.354889392852783,0.747204692801027,0.6729375681451641,-0.3881354952383815
8.369930505752563,0.7411473325821902,0.6697339089880076,-0.14207542222954747
8.383957147598267,0.7350899723633534,0.6667050070251263,-0.04924632215097021
8.398950338363647,0.72883721342778,0.6638475982207991,-0.29884252818377344
8.416202068328857,0.7221936570587333,0.6611565820803622,-0.3316519336212768
8.425959587097168,0.7178948852905265,0.6586265026857739,-0.28444237903057934
8.43993067741394,0.7126191199386365,0.6562539883669929,-0.4930615858132199
8.454414367675781,0.7065617597197996,0.6540348679907265,-0.4624649057610785
8.475056648254395,0.6975734187499129,0.651961023594087,-0.35510450048883124
8.490931987762451,0.6911252610976026,0.6500227970205136,-0.23916339869157083
8.50694727897644,0.6846771034452925,0.6482136564382825,-0.13961816117051684
8.517117738723755,0.6803783316770857,0.646529677841342,-0.0625905691412855
8.530958414077759,0.6747117688917224,0.644966547879595,-0.006697814616252774
8.54350757598877,0.6694360035398322,0.6435190008704947,0.03185027264801335
8.557944774627686,0.6637694407544688,0.6421816293939046,0.057107037202286146
8.572929859161377,0.6577120805356321,0.6409492552761397,0.07259992613231162
8.5880708694458,0.6512639228833219,0.639816605922476,0.08113399910095025
8.611005306243896,0.6418847844799619,0.6387774050106624,0.08483225147680294
8.625654220581055,0.6358274242611249,0.6378246595055425,0.361291074331238
8.640886068344116,0.6299654627590249,0.6369528204984031,0.6687161316455558
8.661702871322632,0.6233219063899781,0.6361570105127521,1.4717536813438945
8.67096209526062,0.6201955269221914,0.6354322652513844,2.816216994328297
8.691036224365234,0.6141381667033546,0.6347741687276831,4.59785348904937
8.702801704406738,0.6108163885188312,0.6341782647467871,5.0
8.710837841033936,0.6088624013514644,0.633640794514847,5.0
8.732854843139648,0.6039774334330478,0.6331582163335543,5.0
8.74884295463562,0.600851053965261,0.6327260841848847,5.0
8.763842821121216,0.5983108706476843,0.6323402588071994,5.0
8.78713607788086,0.5953798898966343,0.6319969465613661,5.0
8.800909519195557,0.5940120988794776,0.6316922530837378,5.0
8.815910577774048,0.5930351052957942,0.6314228139748443,5.0
8.831893682479858,0.5924489091455841,0.6311856961669328,5.0
8.853269338607788,0.5922535104288476,0.6309777922411088,5.0
8.866650342941284,0.5924489091455841,0.6307957159526353,5.0
8.880912780761719,0.5926443078623208,0.6306361739153183,5.0
8.894923210144043,0.5932305040125309,0.630496003504205,4.861109370725911
8.910939693450928,0.5942074975962143,0.630371878363979,3.7317703125362023
8.924862623214722,0.5949890924631609,0.6302601904249471,3.281415116577282
8.947289943695068,0.5969430796305276,0.6301556711521888,1.9917297913753251
8.960025787353516,0.5981154719309476,0.6300517309350233,0.9289579785275592
8.97509479522705,0.599678661664841,0.6299424892387325,-0.42204525400075077
8.989067792892456,0.6010464526819976,0.6298223818381488,-1.3280654867591188
9.003915548324585,0.6026096424158911,0.6296854398633228,-2.178758923205069
9.018904209136963,0.6041728321497843,0.6295248765753612,-2.547821911556524
9.034914016723633,0.6063222180338877,0.6293336821250093,-3.4892191439321367
9.047865390777588,0.6078854077677811,0.6291051514888472,-4.118133539326305
9.071926832199097,0.6108163885188312,0.628827748420909,-4.753555483294324
9.08494234085083,0.6123795782527245,0.6284856320846669,-5.0
9.09887170791626,0.6143335654200912,0.6280686254919031,-5.0
9.113892078399658,0.6160921538707212,0.6275719991395509,-5.0
9.128868579864502,0.6176553436046146,0.6269915331574086,-5.0
9.150121927261353,0.6200001282054547,0.626317238746096,-5.0
9.164767742156982,0.6213679192226114,0.6255344357615443,-5.0
9.179914474487305,0.622149514089558,0.6246376288327803,-5.0
9.194902896881104,0.6231265076732413,0.6236295868579657,-5.0
9.20903205871582,0.6233219063899781,0.6225137373528994,-5.0
9.222897052764893,0.6233219063899781,0.6212944510034908,-5.0
9.245961427688599,0.6233219063899781,0.6199711765324089,-5.0
9.261006832122803,0.6233219063899781,0.6185390472003001,-5.0
9.275909185409546,0.6233219063899781,0.6170023561664101,-5.0
9.290908813476562,0.6233219063899781,0.6153733353026705,-5.0
9.31391429901123,0.6233219063899781,0.6136591417640677,-4.694593496543035
9.329916954040527,0.6233219063899781,0.6118628793838412,-3.6631996889266594
9.352365255355835,0.6231265076732413,0.6099905511987148,-2.550044396550941
9.367888450622559,0.622735710239768,0.6080505895648157,-1.8674992385541658
9.382890701293945,0.622149514089558,0.6060570645145482,-1.7069224926628395
9.39789891242981,0.621563317939348,0.6040283545441871,-2.2765228066342216
9.411917448043823,0.6207817230724014,0.6019814950579165,-2.669659440868541
9.422901630401611,0.619804729488718,0.5999321375385833,-2.6232045367539047
9.436145544052124,0.6188277359050346,0.5978945268357938,-2.6885874943103163
9.451866388320923,0.6172645461711412,0.5958814954476307,-3.29737315081473
9.4658682346344,0.6157013564372479,0.5939044738883843,-3.9258967238347813
9.480867624282837,0.6139427679866178,0.5919735165277409,-4.118207306734359
9.502870798110962,0.6108163885188312,0.590095426576888,-4.084099808383414
9.518868446350098,0.6084716039179912,0.5882743086378652,-4.762671993891921
9.540911674499512,0.604954427016731,0.5865147476009318,-4.380492819715126
9.55687427520752,0.6022188449824176,0.5848213752924857,-3.9528381966553647
9.569984912872314,0.5998740603815778,0.5831991536894625,-3.268322439398093
9.583986759185791,0.5971384783472642,0.5816535761048285,-2.591935521535314
9.597871541976929,0.5944028963129508,0.580189194170029,-2.2916147377717566
9.612877368927002,0.5914719155619009,0.57880946321265,-1.8659104615712874
9.626811981201172,0.5885409348108508,0.5775168776053264,-1.1822872280666874
9.638865232467651,0.586000751493274,0.5763131022616881,-0.25527669826054034
9.654808282852173,0.582483574592014,0.5751990985345851,0.30099750099197964
9.666813135147095,0.5797479925577007,0.5741752430672276,0.904628893615026
9.680812120437622,0.5772078092401239,0.5732414386304222,1.3979637911816294
9.694865226745605,0.5746676259225473,0.5723972167372983,2.021312380986915
9.708868026733398,0.5725182400384438,0.571641832931112,3.3719484780942097
9.732123374938965,0.5697826580041304,0.5709755642341138,5.0
9.741472959518433,0.5686102657037104,0.57039916666575,5.0
9.750873327255249,0.5676332721200271,0.5699106542130806,5.0
9.76381230354309,0.566460879819607,0.5695067414958754,5.0
9.77734899520874,0.5652884875191869,0.5691860253204121,5.0
9.78888463973999,0.564702291368977,0.5689480681545553,5.0
9.81168508529663,0.5635298990685569,0.5687954424388777,5.0
9.820367574691772,0.5633345003518203,0.5687310238326262,5.0
9.832412719726562,0.5631391016350836,0.5687520131702877,5.0
9.843834638595581,0.562943702918347,0.5688557633397833,5.0
9.857861518859863,0.5627483042016103,0.5690428467070546,5.0
9.87405800819397,0.5627483042016103,0.5693169960370519,5.0
9.885174036026001,0.5627483042016103,0.569683033661874,4.280413413798285
9.904673099517822,0.5627483042016103,0.5701454523253136,3.5858451231101682
9.920843839645386,0.5627483042016103,0.5707140969695983,2.4361938379734758
9.935877561569214,0.5627483042016103,0.5713986468027606,1.3292052467446491
9.9497811794281,0.5627483042016103,0.5722026678441072,0.15429305264800353
9.961954116821289,0.5627483042016103,0.5731273893272606,-0.8211087413254875
9.975786685943604,0.5627483042016103,0.5741742150449047,-1.537088540708453
9.991773843765259,0.562943702918347,0.5753452725569259,-2.015053233462008
10.003849744796753,0.5631391016350836,0.5766426281916507,-2.3013831314561624
10.017328023910522,0.5633345003518203,0.5780679242925437,-2.167948987662759
10.03084421157837,0.5637252977852937,0.57962268711666,-1.6226495622038701
10.0438551902771,0.5641160952187669,0.5813082752736628,-1.3049029718181113
10.057955741882324,0.564702291368977,0.5831254115970621,-0.5530646914800235
10.071845769882202,0.5654838862359236,0.5850746361582697,-0.07369974362243925
10.086783170700073,0.566460879819607,0.5871571111510933,0.2277338480069509
10.1082022190094,0.5678286708367637,0.5893862866718929,0.9639450737025549
10.11701250076294,0.5686102657037104,0.5917760033526632,1.4126688641222047
10.13053011894226,0.5697826580041304,0.5943138560552927,1.666612153833798
10.143840789794922,0.5711504490212871,0.5969820686770098,1.5135491917475077
10.156848192214966,0.5723228413217071,0.5997739498095864,1.2403495890777205
10.169213056564331,0.5736906323388637,0.6026893816286975,1.5175664369357433
10.182157278060913,0.5752538220727572,0.6057313444159925,1.6250970238487827
10.195842504501343,0.5770124105233871,0.6088965836445003,1.6380566589378731
10.209429502487183,0.5791617964074907,0.6121802312336766,1.5984454369654721
10.225078344345093,0.5815065810083306,0.615586898859943,2.0823279053078037
10.242960929870605,0.584828359192854,0.6191328535442306,2.341811378404058
10.258014917373657,0.5879547386606407,0.6228330312121325,2.7276731382806236
10.271882772445679,0.5908857194116909,0.6266867120864332,2.772144534785845
10.285664558410645,0.5942074975962143,0.6306794647204828,2.941011294210753
10.300854206085205,0.5981154719309476,0.634797381291939,3.634633260031913
10.316867589950562,0.6020234462656809,0.6390359522239358,3.2176691909715376
10.328858852386475,0.6053452244502044,0.64339037287101,2.759745921187789
10.342845439910889,0.6092531987849378,0.647851473371343,2.3425222589757957
10.361491918563843,0.6149197615703013,0.6524179438088309,3.093719537829174
10.379841804504395,0.620977121789138,0.6571043716409624,3.2131811632334797
10.393911838531494,0.6254712922740814,0.6619238633744048,2.791929665762882
10.408837080001831,0.6299654627590249,0.6668694873971871,2.24310317125681
10.420840978622437,0.6342642345272317,0.6719190796955747,1.730557323606413
10.433654546737671,0.6389538037289116,0.6770507725406694,1.030272507735183
10.444032192230225,0.6428617780636451,0.6822481481498001,0.6662649486981406
10.460428714752197,0.6491145369992186,0.6874995586026311,0.19566656351579154
10.476815700531006,0.6555626946515287,0.6928049414130497,0.6059267057731059
10.491816997528076,0.6614246561536288,0.6981628147900716,0.6625260270104452
10.506820917129517,0.6672866176557288,0.7035630327871322,0.3105040208414951
10.528552055358887,0.6764703573423524,0.7090122216042721,-0.10993591983031759
10.543812274932861,0.6827231162779259,0.7145316513643875,-1.0232803350037956
10.557849168777466,0.6881942803465526,0.7201215486159583,-1.6334868283850834
10.573815107345581,0.6946424379988627,0.7257643993317369,-2.5626185546235942
10.58846402168274,0.7008951969344361,0.7314457416219978,-3.387157755201363
10.598871231079102,0.7053893674193795,0.7371527018626319,-3.7046714616655034
10.612809181213379,0.711055930204743,0.7428715344838163,-4.030177656935549
10.635277271270752,0.7198488724578932,0.7486067334137146,-4.524087484295218
10.648840188980103,0.7255154352432566,0.7543794489727782,-4.3720146448205455
10.663262605667114,0.7311819980286202,0.7601908693395238,-4.264403410066215
10.674198150634766,0.7354807697968269,0.7660161964645679,-4.4164204653929815
10.690909385681152,0.7427105223160836,0.7718344980888505,-4.2941191843505155
10.704842329025269,0.748377085101447,0.7776467271316132,-4.055195212182947
10.719921112060547,0.7544344453202838,0.7834540749914147,-3.775451945638757
10.734910011291504,0.7606872042558572,0.7892488018271657,-3.4904106636009704
10.756579399108887,0.7696755452257441,0.7950418409555574,-3.4919746958769213
10.771912574768066,0.7759283041613175,0.8008598727375364,-3.2675864172002997
10.786911249160767,0.781594866946681,0.8067087176125658,-2.9738642303390503
10.80193567276001,0.7878476258822544,0.8125763734690541,-2.67793736978195
10.8211829662323,0.7956635745517212,0.8184643369803533,-2.4053914593632615
10.837446928024292,0.802307130920768,0.8243913490316124,-2.1632932403563268
10.850058794021606,0.807582896272658,0.8303615703476479,-1.951038320711027
10.864983558654785,0.8138356552082315,0.8363609467424179,-1.7653089183441801
10.879800796508789,0.8198930154270683,0.8423833776992993,-1.602225611970594
10.895864963531494,0.8265365717961152,0.8484236839606496,-1.4581934693742131
10.917299509048462,0.8351341153325286,0.8544869079207632,-1.3301635869748805
10.929037094116211,0.839628285817472,0.8605885992118693,-1.2156501469712033
10.945373296737671,0.8462718421865187,0.8667293240427815,-1.11265875325594
10.96031141281128,0.8527199998388288,0.8729049175155184,-1.0195939182123919
10.975817918777466,0.8591681574911391,0.8791091029456646,-1.2112109863795013
10.989802122116089,0.8646393215597659,0.8853299043157848,-0.8914771332348377
11.014059782028198,0.8744092573965994,0.8915758179048143,-1.0092167092837738
11.029451131820679,0.881052813765646,0.8978726384564673,-0.9573032498936866
11.042802095413208,0.8859377816840628,0.9042235968789377,-0.5730990716989699
11.066667556762695,0.8953169200874231,0.9106315565707095,-0.42405724672438755
11.076290130615234,0.8996156918556298,0.9171034718396256,-0.37396695927121626
11.095805883407593,0.90782243795857,0.923626101603352,-0.3607686180047808
11.10991644859314,0.9134890007439334,0.9301972785029791,-0.6336663045136425
11.123796701431274,0.9187647660958235,0.936814904452659,-0.6631939961966762
11.138784408569336,0.9246267275979236,0.9434629264352471,-1.1528646795291326
11.15379524230957,0.9308794865334971,0.9501277317394604,-1.1317528808276942
11.168755292892456,0.9373276441858072,0.9567993881432885,-1.2126376897733557
11.18796420097351,0.943971200554854,0.9634850180687724,-1.0204072807257911
11.203824758529663,0.9502239594904275,0.9702076170290449,-1.0405510215134486
11.216915845870972,0.9551089274088441,0.9769757178276408,-0.8367269558615246
11.230812788009644,0.9607754901942076,0.9837781095674553,-0.5894711055395659
11.244832277297974,0.9662466542628344,0.9906007429608634,-0.3681351788485805
11.254801988601685,0.9701546285975677,0.997427253816162,0.08325668818689069
11.269480228424072,0.9760165900996679,1.0042431919622985,0.24592467333957083
11.284882307052612,0.9820739503185046,1.0110454869500045,0.2817655552669014
11.29937481880188,0.9879359118206047,1.0178333055639586,0.542615515404937
11.313777446746826,0.9936024746059682,1.024601764114572,1.0958838797944401
11.32494831085205,0.9984874425243848,1.031339598508282,1.3490010148826275
11.3406982421875,1.0047402014599582,1.0380376699309208,1.4411891862905502
11.354825019836426,1.0107975616787952,1.0447020625649535,1.1707098489117327
11.366869926452637,1.0156825295972118,1.051338264140451,0.8207941296185661
11.383387804031372,1.022716883399732,1.0579466807823439,0.7779727121379874
11.394827127456665,1.0270156551679388,1.0645278428149445,0.55679769693807
11.408844470977783,1.0326822179533022,1.0710779263094936,0.31353450379719344
11.423769235610962,1.0385441794554024,1.0775938666084903,0.10561651001047792
11.44265341758728,1.0461647294081324,1.0840863723398573,-0.052683308884751215
11.451802015304565,1.0496819063093925,1.0905645423207733,-0.16429691016822445
11.473695993423462,1.058865645996016,1.0970336828639176,-0.2376994022149101
11.488884210586548,1.0651184049315896,1.103517585105796,-0.28199905077181425
11.502858877182007,1.0705895690002163,1.1100272680465257,-0.30512666188998533
11.517855644226074,1.0772331253692629,1.1165520014467765,-0.31338111089778176
11.530884504318237,1.0823134920044164,1.1230823819282019,-0.31151748306372296
11.552699565887451,1.0911064342575667,1.12962888992123,-0.3030117139782833
11.561054706573486,1.09442821244209,1.136202269960924,-0.29034713096844994
11.580394506454468,1.1024395598282934,1.1427933792973923,-0.2752655150751686
11.594861030578613,1.1084969200471304,1.149409347733916,-0.2589679354322387
11.608862400054932,1.113968084115757,1.1560552603787515,-0.24226774036888488
11.62384843826294,1.1200254443345938,1.1627179772857403,-0.22570372731779528
11.639698505401611,1.1266690007036406,1.169386319535751,-0.20962228262652474
11.661823749542236,1.1354619429567907,1.176070507790182,-0.19423623204694587
11.67777705192566,1.1419101006091008,1.1827987997088973,-0.17966661319694147
11.690773725509644,1.1471858659609908,1.1895752627436575,-0.1659721135868778
11.703622817993164,1.152461631312881,1.1963826815092269,-0.15316969193501787
11.719772100448608,1.1591051876819278,1.2032063229321606,-0.14124894319637274
11.734034299850464,1.1651625479007646,1.2100366806406249,-0.4062204077563953
11.748733043670654,1.1712199081196015,1.216868066008935,-0.429093582160458
11.761759996414185,1.1763002747547546,1.2236921935370735,-0.3645160810116109
11.784833669662476,1.1854840144413783,1.230517983019101,-0.5557133542595216
11.798833847045898,1.191541374660215,1.2373747238780615,-0.5102357030162613
11.812844038009644,1.1970125387288422,1.2442692108725286,-0.11502829170826168
11.827749013900757,1.202874500230942,1.2511868490466613,0.04304467401398325
11.84464168548584,1.209908854033462,1.2581218787338615,0.09420994868211763
11.86157512664795,1.217138606552719,1.2650835805166016,0.10009902525973079
11.87690258026123,1.2233913654882922,1.2720863578449744,-0.18694930647934693
11.892847299575806,1.230034921857339,1.279133738128982,-0.23550254930951908
11.907829523086548,1.2360922820761762,1.2862146961866725,-0.19520922678160346
11.923749208450317,1.242540439728486,1.2933135142826664,-0.1316205307672216
11.939900159835815,1.2489885973807964,1.3004257248838273,-0.07103313036386996
11.950748443603516,1.2534827678657396,1.3075473900844907,-0.022071355659447303
11.961827039718628,1.2577815396339465,1.314657002618657,0.014109086643993352
11.974848508834839,1.2632527037025731,1.3217365160894974,0.03913034683688948
11.997583389282227,1.2724364433891966,1.328798081154293,0.05533474679158397
12.013800382614136,1.2792753984749798,1.3358724232092882,0.0649572647966033
12.029794454574585,1.285918954844027,1.3429694997680623,0.06985265121532086
12.042836904525757,1.2909993214791804,1.3500770723530051,0.07145754602917911
12.05673360824585,1.2968612829812804,1.3571823172284754,0.07084048197921285
12.068094491958618,1.301355453466224,1.3642743240678123,0.3448134632395312
12.082836389541626,1.307217414968324,1.3713439326319543,0.37497345141283983
12.103963613510132,1.3158149585047374,1.3783962167959032,0.31639557664212536
12.116304159164429,1.3206999264231545,1.3854452230337417,0.23657715929023232
12.124831199645996,1.3242171033244143,1.3924774529955233,0.16224586061256002
12.139981985092163,1.3304698622599875,1.3994644836917773,0.10185741056935718
12.158179521560669,1.337895013495981,1.4064057018466738,0.05621007436789635
12.166805982589722,1.3412167916805044,1.413306243442549,0.023307849809249385
12.187698602676392,1.3500097339336545,1.4201692542201314,0.0004812796680769456
12.203808069229126,1.3564578915859649,1.4270197362124493,-0.014769656779836158
12.214932203292847,1.3607566633541714,1.4338655802073874,-0.02450632537210484
12.229636669158936,1.367009422289745,1.4406934513884213,-0.030323356777843084
12.243642091751099,1.3724805863583718,1.4475016194333001,-0.03340914876106418
12.256817102432251,1.3775609529935253,1.4542872338442858,-0.03462827138832657
12.271621704101562,1.3836183132123618,1.4610428628305439,-0.03459915392714716
12.286736726760864,1.3898710721479355,1.4677653110019508,-0.033758445627924544
12.310133218765259,1.3998364067015054,1.474471503464027,0.24362732137045723
12.325715780258179,1.406089165637079,1.4811936510040034,0.2783954140051672
12.338688373565674,1.4113649309889693,1.4879390585757435,0.2250939329261512
12.351646900177002,1.416836095057596,1.4946939234777055,0.150860203321168
12.364687442779541,1.422111860409486,1.501446224841567,0.08218037587592279
12.37668251991272,1.4266060308944293,1.5081778178535226,0.027351907630192268
12.393738985061646,1.4334449859802127,1.5148733930302716,-0.012927236878178275
12.40358591079712,1.437548359031683,1.5215210254279397,-0.0407133348439369
12.421807527542114,1.44477811155094,1.5281110110264207,-0.3347471128700929
12.444408178329468,1.4541572499542998,1.5346762250003085,-0.37859090101760295
12.459016561508179,1.4602146101731368,1.5412632929266397,-0.32900010186389095
12.474817276000977,1.4662719703919733,1.54787739331437,-0.2547976162160973
12.489819288253784,1.4723293306108103,1.554503420021381,-0.18371106839566367
12.502809524536133,1.477800494679437,1.5611281837447901,-0.12492976382078771
12.525321006774902,1.4869842343660604,1.5677587064215246,-0.07978003827430169
12.539807558059692,1.492650797151424,1.5744189396281778,0.22939759110913188
12.555799961090088,1.499294353520471,1.5811099247400984,0.2860573251732208
12.567976713180542,1.504570118872361,1.587810011434443,0.24720825957027845
12.582773923873901,1.5106274790911975,1.5945004959065059,0.18202018382420787
12.608500957489014,1.5209836110782413,1.6011901464808191,0.11855243899791951
12.623711824417114,1.5270409712970778,1.6079040388619572,-0.20976347670187231
12.641558647155762,1.5342707238163347,1.61464851759181,-0.2824249580408562
12.65068769454956,1.5379832994343312,1.621410186086088,-0.25557093056473945
12.664788722991943,1.5438452609364317,1.6281626898640094,-0.19870832330388885
12.678775548934937,1.549511823721795,1.6348835666731685,-0.14060234885217898
12.703081130981445,1.5598679557088384,1.6415786793076093,-0.09144891712466445
12.718722105026245,1.5661207146444118,1.648270434269,-0.053419969177089265
12.741670608520508,1.5754998530477722,1.6549771416069916,-0.3015959251653152
12.756701231002808,1.5813618145498722,1.6617134055996314,-0.3151189178023126
12.770696640014648,1.5870283773352356,1.668473471129657,-0.2467328606256371
12.785680055618286,1.5932811362708093,1.6752345152138002,-0.16200464594501315
12.799733877182007,1.5989476990561724,1.681976912862406,-0.08616856158605601
12.814350366592407,1.6048096605582727,1.688685242514515,-0.026570576479851532
12.82868480682373,1.6110624194938463,1.6953465888286445,0.016793970414506004
12.843740940093994,1.617510577146156,1.7019515313549904,0.046490558649813434
12.86171841621399,1.6245449309486766,1.70850600806864,0.0655858257283673
12.870827436447144,1.6282575065666731,1.7150122710593962,0.07685233674073082
12.882108211517334,1.6329470757683533,1.7214473683240428,0.08253512316660652
12.8926260471344,1.6370504488198232,1.7277900800459072,0.08434979937669086
12.910054683685303,1.6440848026223436,1.734037391185374,0.08356195802483743
12.92061996459961,1.6485789731072868,1.7401907186056431,0.08108305237859079
12.935618877410889,1.6546363333261238,1.746245546882337,-0.1984807402047566
12.9517502784729,1.6612798896951704,1.7522049336125385,-0.23572861722998736
12.962630987167358,1.6657740601801139,1.7580765864424117,-0.18504492940392436
12.97871994972229,1.6722222178324238,1.7638583217199701,-0.11345663922987294
12.993010759353638,1.678084179334524,1.7695561280844936,-0.047377362562090485
13.004875659942627,1.682969147252941,1.7751805411479413,0.2809798372192061
13.025686264038086,1.6909804946391442,1.7807426475533488,0.3519925425592978
13.040696859359741,1.6972332535747179,1.7862631525004724,0.3224239961640357
13.054631233215332,1.7032906137935544,1.7917510340941807,0.5382555822498309
13.06968379020691,1.709543372729128,1.7972017961191507,0.5096005829724211
13.085709571838379,1.7161869290981746,1.802615125638416,0.4015501460752545
13.096673011779785,1.7204857008663814,1.807990872984411,0.28364535952199843
13.112323999404907,1.7269338585186915,1.8133250525220685,-0.09447272216840025
13.123676061630249,1.7316234277203715,1.8186144395902577,-0.20736501702704252
13.136630058288574,1.7370945917889984,1.8238543133993914,0.06512166738041367
13.150675773620605,1.742565755857625,1.8290409146396254,-0.14293026629194755
13.164670467376709,1.7480369199262518,1.8341741112238037,-0.18843224471400827
13.177813053131104,1.753312685278142,1.8392540690872745,0.10535178497001388
13.18922209739685,1.7578068557630855,1.8442812050700026,0.17526436252583055
13.19703722000122,1.761128633947609,1.8492466254402498,-0.11833458926821647
13.215665340423584,1.7691399813338122,1.8541432039884287,-0.19574207792219228
13.227222919464111,1.7738295505354924,1.8589761052285423,0.08955877201299292
13.246689319610596,1.7814501004882224,1.8637501310166125,0.1603314805433871
13.257638454437256,1.7859442709731659,1.8684768899563715,0.14665533515414636
13.271610498428345,1.7916108337585295,1.8731664352463748,0.10662526240486248
13.287185192108154,1.7980589914108396,1.8778200464383286,0.06443543571908371
13.299608707427979,1.8031393580459931,1.8824388962309373,0.304831369786239
13.311671018600464,1.8080243259644098,1.887022017846236,0.3108483552268615
13.324671030044556,1.8134954900330365,1.8915686603380515,0.23652191171334644
13.339680910110474,1.8199436476853468,1.89607926129665,0.14760864540362353
13.352626085281372,1.8252194130372366,1.9005542268017508,0.0691206390074789
13.367674112319946,1.8308859758226002,1.9049939131101428,0.008072839850710833
13.38365650177002,1.8373341334749105,1.9093986128499814,-0.03585700481343044
13.405669927597046,1.8459316770113239,1.9137812662499727,-0.34153627326572106
13.418676137924194,1.8514028410799506,1.9181651992125985,-0.3932830002138789
13.4336519241333,1.8576556000155238,1.9225566359483053,-0.3487121746750693
13.44627571105957,1.8625405679339408,1.9269469225726739,-0.2774110079917026
13.460686206817627,1.868402529436041,1.9313282369399225,-0.2077209610337677
13.476358652114868,1.8748506870883508,1.9356953650279463,-0.14929815201691765
13.496986627578735,1.883252831908028,1.9400554143704263,-0.10381214950617539
13.51217770576477,1.8893101921268645,1.944423489753243,0.2061499663053297
13.52676272392273,1.8949767549122283,1.948799737389876,0.26386842932117066
13.53968071937561,1.900447918980855,1.953172689353891,0.22623150701187067
13.554738998413086,1.9068960766331648,1.9575322963798596,0.1623263877826064
13.576483011245728,1.9154936201695782,1.9618778029388375,-0.1758813945334604
13.5869882106781,1.9195969932210482,1.9662117381600142,-0.26000621931036694
13.605047464370728,1.927022144457042,1.9705313358377716,-0.24321254042032062
13.614502668380737,1.9309301187917753,1.974829972211903,-0.19419535185355047
13.626726865768433,1.9358150867101922,1.9790889579099344,-0.14178511477635558
13.646707773208618,1.9440218328131322,1.983302117998093,-0.09653883974606142
13.662639379501343,1.9502745917487057,1.9874841940419725,0.2150006730049274
13.67760443687439,1.9563319519675424,1.9916392585489513,-0.0015626265541466983
13.699681043624878,1.9657110903709027,1.9957719189115486,-0.07097089356348407
13.712146520614624,1.970986855722793,1.9998949371493329,-0.07895601863717708
13.723781108856201,1.9756764249244727,2.0040046162371947,-0.34073660569879444
13.732669830322266,1.9791936018257328,2.0080803105247607,-0.0783354613529578
13.755651235580444,1.9881819427956196,2.012111869254746,-0.24814071074074395
13.770643711090088,1.9944347017311932,2.0161102591115125,-0.24583737331957528
13.785627365112305,2.0002966632332932,2.0200812915977364,-0.1856026565760669
13.801864862442017,2.0067448208856034,2.0240218542478385,-0.11593139999317234
13.812617540359497,2.01104359265381,2.027929251295993,-0.05506793953278056
13.825622081756592,2.0169055541559104,2.0317958329286205,-0.00794383163689592
13.83972454071045,2.022572116941274,2.0356150725760482,-0.25014040946601424
13.862030506134033,2.0313650591944237,2.039393509421818,-0.2604408537188291
13.876471042633057,2.036836223263051,2.0431457534712725,-0.46702672798608663
13.890720129013062,2.041916589898204,2.0468738846912546,-0.9679992335501058
13.90571141242981,2.0469969565333574,2.050569495545539,-2.0090401868892096
13.920643091201782,2.0511003295848274,2.0542250234244026,-4.382268715428241
13.943190336227417,2.0567668923701907,2.0578418051586325,-5.0
13.959115028381348,2.060284069271451,2.061428405638896,-5.0
13.976821184158325,2.063801246172711,2.064984799111485,-5.0
13.988632917404175,2.0653644359066043,2.0685019762790127,-5.0
14.011720180511475,2.068100017940918,2.0719747689140506,-5.0
14.025479555130005,2.069272410241338,2.0754049246953965,-5.0
14.040596008300781,2.0702494038250214,2.078787790200078,-5.0
14.05359673500061,2.070835599975231,2.0821119355304845,-5.0
14.068552494049072,2.070835599975231,2.0853679331716632,-5.0
14.079553604125977,2.070835599975231,2.088547738595366,-5.0
14.094619035720825,2.070835599975231,2.0916443735704093,-5.0
14.115557432174683,2.070835599975231,2.094655582169493,-4.43973692707996
14.124039888381958,2.070835599975231,2.0975803521024594,-2.4611335037477633
14.135680198669434,2.070835599975231,2.1004110388218593,-0.3722255359709681
14.14862322807312,2.070835599975231,2.103140023516719,1.6358130473497505
14.165803670883179,2.070835599975231,2.1057655771680652,3.492692961155123
14.17977237701416,2.070835599975231,2.108288373582529,4.906180284219704
14.190717458724976,2.070835599975231,2.1107074657759224,5.0
14.203707218170166,2.070835599975231,2.1130200787474878,5.0
14.226675510406494,2.070835599975231,2.1152277532877326,5.0
14.241618156433105,2.070835599975231,2.117335521224404,5.0
14.256622314453125,2.070835599975231,2.119344322137674,5.0
14.270686388015747,2.070835599975231,2.121251887353142,5.0
14.285672426223755,2.070835599975231,2.123056298386386,5.0
14.308612823486328,2.070835599975231,2.124756712107031,5.0
14.324601411819458,2.070835599975231,2.12635284014768,4.952372746027226
14.339652061462402,2.070835599975231,2.127842947195176,4.752115174631584
14.35832691192627,2.070835599975231,2.1292240774311977,4.483734197495382
14.36755084991455,2.070835599975231,2.130493742953994,4.190605058996649
14.392204284667969,2.070835599975231,2.131649257093456,3.8949142881459813
14.407535791397095,2.070835599975231,2.1326867554596154,3.6078409466818577
14.431540250778198,2.070835599975231,2.133601025906744,3.3347922609982157
14.445704936981201,2.070835599975231,2.1343861622545988,3.0781212576237924
14.457484483718872,2.070835599975231,2.1350391728227045,2.8385539035026013
14.471688985824585,2.070835599975231,2.1355599398526244,2.6159490748819385
14.485624074935913,2.070835599975231,2.135948794550418,2.4097097080117944
14.500696659088135,2.070835599975231,2.136206475412707,2.2190089830344992
14.522732257843018,2.070835599975231,2.1363295549880728,2.0429167306959712
14.53068208694458,2.070835599975231,2.1363156969507755,1.8804709337230956
14.553697109222412,2.070835599975231,2.1361675410895735,1.7307183455981348
14.571391582489014,2.070835599975231,2.1358813841049957,1.5927373423187636
14.58456015586853,2.070835599975231,2.1354531328166266,1.4656503318749259
14.594550609588623,2.070835599975231,2.134887410315799,1.3486299151259633
14.613128423690796,2.070835599975231,2.1341893252575224,1.240901261747542
14.627850770950317,2.070835599975231,2.1333591329278243,1.1417421851753617
14.638680458068848,2.070835599975231,2.132400418010926,1.0504818306614028
14.65060806274414,2.070835599975231,2.1313241834976777,0.9664985500399071
14.663580179214478,2.070835599975231,2.1301408317856247,0.889217327929389
14.686550855636597,2.070835599975231,2.1288487178789928,0.8181069929252525
14.702695369720459,2.070835599975231,2.127437733301515,0.7526773633050516
14.716619729995728,2.070835599975231,2.1259070588152573,0.6924764220866562
14.73961853981018,2.070835599975231,2.1242558520470896,0.6370875803000984
14.753780126571655,2.070835599975231,2.1224759379498055,0.5861270635064364
14.767527103424072,2.070835599975231,2.1205691391244694,0.5392414407892052
14.782682418823242,2.070835599975231,2.1185459127461534,0.49610530499138994
14.795675039291382,2.070835599975231,2.116415961070255,0.45641910612331316
14.81065845489502,2.070835599975231,2.114188241853933,0.4199071354580679
14.833394765853882,2.070835599975231,2.111861763947256,0.38631565507503285
14.84953498840332,2.070835599975231,2.109427014712991,0.3554111659747461
14.865660905838013,2.070835599975231,2.106885725166785,0.3269788070048628
14.881158590316772,2.070835599975231,2.1042471179851656,0.30082087645718825
14.901253700256348,2.0706402012584944,2.10150984068113,0.27675546814803664
14.914605617523193,2.070835599975231,2.098667820196082,0.25461521396065234
14.923484802246094,2.070835599975231,2.0957346755641493,0.23424612512855222
14.943586826324463,2.070835599975231,2.09273022155882,0.2155065249174093
14.958641290664673,2.070835599975231,2.0896551412857938,0.19826606578332368
14.972594499588013,2.0706402012584944,2.086510461780778,0.1824048245221267
14.985597848892212,2.0706402012584944,2.0833057575643803,0.1678124693613615
14.998589515686035,2.0706402012584944,2.0800494545935693,0.15438749337314456
15.013665199279785,2.0702494038250214,2.076748907265243,-0.41004021036159044
15.028638124465942,2.0698586063915476,2.073410477561808,-0.7636906865180844
15.04970669746399,2.069272410241338,2.0700284991415634,-1.2491513763651145
15.057728052139282,2.0690770115246013,2.0665970909707014,-1.3937892477544993
15.07658576965332,2.0682954166576546,2.063122437341302,-1.6605138647421667
15.090176343917847,2.0679046192241812,2.059601010367722,-1.6199082105292377
15.098198652267456,2.067513821790708,2.0560377298223123,-1.468618384763821
15.1085946559906,2.066927625640498,2.052458489562952,-1.2928099020367683
15.12149691581726,2.066146030773551,2.0488813559370955,-1.1269963046617664
15.13555359840393,2.064973638473131,2.0453098085404444,-1.5344584075727967
15.149560689926147,2.063410448739238,2.0417425353929386,-2.030683985531957
15.162580966949463,2.061651860288608,2.038178017179275,-2.9889170541753556
15.177884101867676,2.0589162782542942,2.034611917852262,-5.0
15.190689325332642,2.056571493653454,2.0310384556212138,-5.0
15.211747884750366,2.051881924451774,2.027445626278309,-5.0
15.225911855697632,2.0483647475505142,2.023814484398749,-5.0
15.238080501556396,2.045042969365991,2.0201403670058773,-5.0
15.245887756347656,2.0425027860484137,2.0164414057841427,-5.0
15.266295194625854,2.035859229679367,2.012729244139665,-5.0
15.280652523040771,2.0307788630442136,2.0089905004312927,-5.0
15.294543266296387,2.0255030976923236,2.0052157051248694,-5.0
15.309547662734985,2.0196411361902236,2.0014085147576095,-5.0
15.3237943649292,2.0133883772546506,1.9975721087233869,-5.0
15.332131385803223,2.009675801636653,1.9937145097089546,-4.529871060093447
15.34955382347107,2.0022506504006596,1.9898424496651996,-4.917778411988209
15.373383045196533,1.99228531584709,1.9859377253773958,-3.7930275539671174
15.389339208602905,1.9852509620445697,1.9819717808313824,-1.7973103653720883
15.402412176132202,1.979584399259206,1.9779392660451787,0.12123944021912669
15.417630434036255,1.973331640323633,1.9738493217114714,2.201038731495527
15.4406578540802,1.9635617044867992,1.9696965431410005,3.9111860270420666
15.449797630310059,1.959458331435329,1.9654723271911347,5.0
15.459567308425903,1.9555503571005957,1.961197162776519,5.0
15.481385946273804,1.9469528135641823,1.9568840010074835,5.0
15.49540090560913,1.941872446929029,1.952516509159166,5.0
15.503548622131348,1.9385506687445055,1.948104334495063,5.0
15.525542259216309,1.9303439226415653,1.9436696070234016,5.0
15.539418458938599,1.9252635560064117,1.9392030413374652,5.0
15.556771278381348,1.919206195787575,1.9346920791102837,5.0
15.568562507629395,1.9149074240193684,1.9301402890006032,5.0
15.585233688354492,1.9094362599507417,1.9255534025736951,5.0
15.59611988067627,1.9061144817662183,1.9209352653329916,5.0
15.616025924682617,1.8992755266804349,1.916288541821411,5.0
15.624572992324829,1.8965399446461213,1.9116176240096248,5.0
15.645485639572144,1.8904825844272846,1.9069238451958022,5.0
15.66062045097351,1.886183812659078,1.902192126144948,5.0
15.674609422683716,1.8822758383243443,1.8974147141284712,5.0
15.688552618026733,1.8783678639896109,1.8926000508240697,4.7037023332417895
15.702545642852783,1.8744598896548776,1.8877553437290784,4.751588933230796
15.72170114517212,1.869379523019724,1.8828763143491847,4.2921086265583615
15.738768815994263,1.8650807512515175,1.8779437319705676,3.7050521306899817
15.754557847976685,1.861172776916784,1.8729465647780061,3.696072929904627
15.770509004592896,1.8574602012987873,1.867891345477801,3.278511071768998
15.79281759262085,1.852184435946897,1.8627730850498856,2.7693802181511247
15.80726671218872,1.8484718603289005,1.8575742276330378,2.2942664475575305
15.822641611099243,1.8449546834276405,1.8522964239597457,1.892846596739853
15.838629722595215,1.841632905243117,1.8469528565799038,1.5687118005845395
15.859672784805298,1.8371387347581736,1.8415404630213026,1.036185502014265
15.873637676239014,1.8342077540071235,1.8360429626043462,0.5253029103705597
15.88753342628479,1.8312767732560733,1.8304599989656833,0.11215364984505533
15.902630090713501,1.8283457925050235,1.824808470756829,-0.19237296235860765
15.917603969573975,1.8252194130372366,1.819105068024305,-0.12571619025705072
15.932614803314209,1.8224838310029234,1.813364258011094,-0.22673292050400717
15.955610752105713,1.8177942618012435,1.8075813665785623,-0.0837881850356349
15.969383001327515,1.8146678823334566,1.8017355282304042,-0.440518618482767
15.984617233276367,1.8111507054321965,1.7958265563356468,-0.8850794505439968
16.00842046737671,1.8050933452133597,1.7898544621507115,-2.090949238496842
16.02326273918152,1.8009899721618894,1.783802345772258,-3.5637922193524214
16.0385844707489,1.7963004029602097,1.7776738956598717,-5.0
16.052517414093018,1.7920016311920028,1.7714902336885523,-5.0
16.065581560134888,1.7878982581405327,1.765269650294266,-5.0
16.079591989517212,1.7828178915053792,1.7590278030781765,-5.0
16.092599153518677,1.778128322303699,1.7527779186774568,-5.0
16.109036207199097,1.7720709620848625,1.746530331491166,-5.0
16.128138780593872,1.7636688172651855,1.7402787788278846,-5.0
16.144599199295044,1.756829862179402,1.7340009521487916,-5.0
16.158504724502563,1.7511632993940385,1.7276892189692536,-5.0
16.174575567245483,1.7443243443082552,1.7213545522593416,-5.0
16.188611030578613,1.7386577815228919,1.7150088947070745,-4.437338293794061
16.210912227630615,1.7292786431195317,1.7086437252734619,-3.008137663107914
16.218437433242798,1.7259568649350083,1.7022531553135758,-1.5353619666122482
16.231414556503296,1.7204857008663814,1.6958691728149444,-0.033919777981978094
16.243468523025513,1.7154053342312279,1.6895177707255775,1.1918860426115645
16.264484167099,1.706416993261341,1.6831829961912754,1.8056928545945912
16.27245283126831,1.702509018926608,1.6768508557906667,2.636221096630355
16.293521642684937,1.6931298805232475,1.6705278125407732,3.071060260318177
16.30947971343994,1.686877121587674,1.6641999690829365,3.2590153765534096
16.33160710334778,1.677497983184314,1.6578362636871977,3.2926541729055767
16.346921920776367,1.671049825532004,1.6514102861079776,3.230699892873608
16.36158323287964,1.6647970665964305,1.6449192112497089,3.110967556737574
16.376449823379517,1.6587397063775937,1.6383802672944514,2.9580482197210145
16.389442205429077,1.6528777448754937,1.6318083907086218,2.7880007638174185
16.405431032180786,1.6458433910729737,1.6252163911323387,2.887329420766653
16.41843819618225,1.6403722270043464,1.618615118428313,2.74383842850635
16.432528257369995,1.6345102655022465,1.612013629375046,2.516496736587979
16.45499849319458,1.625326525815623,1.6053997073516826,2.2751520800051512
16.470470428466797,1.6186829694465763,1.5987432541896696,2.0478521285909985
16.483479499816895,1.6130164066612127,1.5920386803819153,1.8436873374667968
16.49743390083313,1.6069590464423762,1.5853012564684443,1.663639130219912
16.51156783103943,1.6009016862235392,1.5785441116249004,1.5056019527958622
16.525571823120117,1.5950397247214392,1.571778398841092,1.3666121672517237
16.538429498672485,1.5897639593695492,1.5650134601805934,1.24376435513924
16.552518844604492,1.5837065991507122,1.5582569899670762,1.1345301705115607
16.566474199295044,1.5780400363653488,1.5515151941033694,1.0368197069670049
16.580559492111206,1.5723734735799855,1.5447929440570298,0.9489430332011726
16.602285146713257,1.5627989364598887,1.5380737412719685,0.8695420913611276
16.61429214477539,1.5573277723912617,1.531326940534886,0.797522009054497
16.625169277191162,1.5528336019063185,1.5245581757470263,0.7319921150471687
16.641314029693604,1.545994646820535,1.5177909956641644,0.6722188361530818
16.651384830474854,1.5418912737690649,1.5110376804830357,0.6175894842814913
16.670302152633667,1.5336845276661246,1.5042999881264785,0.567584979955353
16.678908586502075,1.5301673507648645,1.4975752976191412,0.5217595126013718
16.69901990890503,1.5217652059451876,1.4908670992588662,0.4797254197985056
16.714476585388184,1.5155124470096146,1.48416280749806,0.16510356251734376
16.729167938232422,1.509259688074041,1.477450071090859,0.09654371488607401
16.7406804561615,1.5041793214388874,1.470733550810773,0.11908368083340068
16.75546669960022,1.4977311637865773,1.4640201523128307,-0.11079217062571363
16.777337551116943,1.4887428228166906,1.4572949109987356,0.1751367218924742
16.792720079421997,1.4822946651643805,1.450523017574903,0.2946882520514317
16.8065242767334,1.476628102379017,1.44369611394982,0.33441522177594796
16.822471380233765,1.4697891472932336,1.4368283527858334,0.33687757613159797
16.844918966293335,1.4604100088898735,1.429911365380828,0.32283034609731365
16.859615564346313,1.4543526486710365,1.4229178293909306,0.5783003991214432
16.874573945999146,1.4480998897354633,1.415846264743252,0.5890377427477138
16.88855743408203,1.4422379282333628,1.408717092422702,0.2358242460672732
16.90347123146057,1.4359851692977899,1.401548250656784,0.38177597158188414
16.91465163230896,1.4311002013793728,1.394359215017346,0.3801083994578168
16.930456399917603,1.425042841160536,1.3871666488807566,0.3266629514042173
16.94650936126709,1.4185946835082262,1.3799753489442699,0.26277970701462505
16.96062135696411,1.4121465258559158,1.3727846493240579,0.20451995215470015
16.973456144332886,1.4068707605040258,1.3656008864281282,0.15668607492082084
16.99230456352234,1.3990548118345592,1.3584199626470563,0.11941753405794875
17.001108407974243,1.3953422362165622,1.3512352323009207,0.09119904386178129
17.022306442260742,1.3863538952466754,1.3440527067254155,0.07016179459126648
17.038490533828735,1.3795149401608922,1.336859547122704,0.05459204072508446
17.053446531295776,1.373457579942055,1.3296473358600354,0.043085969124941184
17.076537370681763,1.3640784415386948,1.322407603613807,0.03455752518897032
17.09093451499939,1.3580210813198583,1.3151125537325414,0.028193591406506416
17.105392932891846,1.3519637211010214,1.3077603571726621,0.023397454215225176
17.120446920394897,1.3455155634487113,1.30037117667868,0.019736644142032175
17.141903400421143,1.3367226211955612,1.2929415751122326,0.016900123585135818
17.14945125579834,1.3335962417277742,1.2854691772846412,0.014665161675282319
17.160852909088135,1.3287112738093576,1.2779999162136575,0.28891092215120184
17.181965112686157,1.3199183315562075,1.270560193964001,0.04453313032170167
17.194217443466187,1.314837964921054,1.2631246218172,0.2311326568909538
17.205204725265503,1.3103437944361107,1.2556864594779653,0.24224101837513168
17.21576738357544,1.306045022667904,1.2482749930637318,0.19182374379937367
17.229453325271606,1.3003784598825405,1.2409224353904384,0.12887261165619446
17.237452745437622,1.2970566816980171,1.2336638097703239,0.07229982114350872
17.245396852493286,1.2937349035134937,1.2265592835034451,0.027662088979656628
17.25337052345276,1.2904131253289703,1.2196771055812983,-0.004983330352568201
17.26144051551819,1.2872867458611836,1.2130721100599704,-0.027504795315612264
17.26945400238037,1.2839649676766602,1.2067870763740887,-0.04215721108503441
17.27744460105896,1.2806431894921368,1.2008540358405677,-0.050985947484926256
17.285451889038086,1.2771260125908765,1.195295515733027,-0.05565016784200418
17.29343843460083,1.2738042344063532,1.1901257144468818,-0.0574194101513638
17.301430463790894,1.2702870575050933,1.1853516031680105,-0.05723128056874684
17.30943775177002,1.2671606780373064,1.1809739511180397,-0.05576184649080562
17.317439317703247,1.2636435011360463,1.1769882728911052,0.22254847699639058
17.32542872428894,1.260321722951523,1.1733856976354329,0.25841366400824983
17.333352088928223,1.2569999447669995,1.170153760883623,0.20629616757461833
17.34143042564392,1.2536781665824763,1.167277120713466,0.13327501738303674
17.349437952041626,1.250356388397953,1.1647382006417841,0.06579760900915915
17.357429027557373,1.2472300089301662,1.1625177622320793,0.012136421783539263
17.365456342697144,1.2439082307456428,1.160595410847191,-0.027025953720856335
17.373417854309082,1.2405864525611194,1.1589500383146116,-0.05375454906049906
17.381444931030273,1.237264674376596,1.1575602065078137,-0.07075597948387666
17.389416694641113,1.2339428961920726,1.1564044759943999,-0.08054591927000182
17.39741539955139,1.2306211180075495,1.1554616839728253,-0.08518711948026794
17.40541410446167,1.2272993398230259,1.1547111757247255,-0.08626635207343032
17.413381099700928,1.2239775616385025,1.1541329937596003,-0.08495838067627656
17.42141103744507,1.2206557834539788,1.1537080287319774,-0.08211074359161494
17.42940855026245,1.2173340052694557,1.1534181360766027,-0.07832305627850883
17.43741011619568,1.2138168283681954,1.1532462221422994,-0.0740124567060316
17.445408582687378,1.2102996514669355,1.153176303416702,0.20657401585428797
17.453408241271973,1.2067824745656754,1.1531935422281896,0.24429264186136085
17.461390018463135,1.2036560950978887,1.153284262093374,0.19370977063462796
17.469408988952637,1.2003343169133653,1.1534359456531285,-0.15405831409462964
17.47740602493286,1.1972079374455786,1.1536372179114283,0.022481317653343783
17.485408544540405,1.194081557977792,1.1538778172627178,0.05799736858433743
17.49337887763977,1.1905643810765318,1.1541485565680194,0.04065980839243607
17.501405477523804,1.1870472041752715,1.1544412763200467,0.009109604154637931
17.509363889694214,1.183920824707485,1.154748791725136,-0.02113184791054641
17.517412185668945,1.1805990465229617,1.1550648353264854,-0.04495242370889742
17.525342226028442,1.1774726670551747,1.1553839966002037,-0.06164013886315466
17.533326387405396,1.1741508888706513,1.1557016597739282,-0.07212072534424371
17.56988000869751,1.1587143902484545,1.1559429152342677,-0.3537842159357478
17.587889194488525,1.1508984415789878,1.1559337635263118,-0.3889687681685177
17.61029553413391,1.1424962967593109,1.1555106560172357,-0.057396052428913574
17.6448814868927,1.1305769750383738,1.154524511401841,3.366384396701912
17.69730830192566,1.1155312738496506,1.1527574022692317,5.0
17.76799511909485,1.1020487623948203,1.1499252994489904,5.0
17.812734842300415,1.0975545919098768,1.1458040341222993,5.0
17.836406230926514,1.09677299704293,1.1403687612863205,5.0
17.86996555328369,1.0971637944764034,1.1337367811707748,5.0
17.91192650794983,1.0995085790772434,1.126030224948271,5.0
17.959746837615967,1.1028303572617668,1.1173460984981534,5.0
17.995965719223022,1.1059567367295535,1.1077907145553803,5.0
18.03543734550476,1.1083015213303935,1.097497422373703,1.9801701678734718
18.0770206451416,1.1090831161973405,1.0866049125497128,-4.5333747388296946
18.113584518432617,1.1081061226136568,1.0752438743830828,-5.0
18.130488634109497,1.1071291290299736,1.0635563975511604,-5.0
18.145350217819214,1.105761338012817,1.0517036893264504,-5.0
18.16047501564026,1.1038073508454502,1.0398438087781459,-5.0
18.18231701850891,1.1004855726609268,1.028108863184469,-5.0
18.195127487182617,1.09794538934335,1.0166051597740915,-5.0
18.208404302597046,1.09442821244209,1.005424094605287,-5.0
18.218472957611084,1.0916926304077768,0.994644760753512,-5.0
18.235830068588257,1.0864168650558865,0.9843279908607434,-5.0
18.246727228164673,1.0823134920044164,0.9745149943407485,-5.0
18.264482021331787,1.0752791382018962,0.9652335135499244,-5.0
18.279482126235962,1.0690263792663228,0.9564982395948559,-5.0
18.289900541305542,1.064727607498116,0.9483157687745715,-5.0
18.30440092086792,1.058865645996016,0.9406870060555779,-5.0
18.31949806213379,1.0526128870604428,0.9336001274363459,-5.0
18.33538246154785,1.045773931974659,0.9270343173335495,-5.0
18.35045313835144,1.0397165717558223,0.9209663928310364,-3.202344208941841
18.366010904312134,1.0336592115369856,0.9153685769628077,-1.1129600977348986
18.384000301361084,1.0264294590177288,0.9102029855267949,0.9627714322821368
18.39931344985962,1.020372098798892,0.9054279416479535,2.628164583265434
18.414294481277466,1.0141193398633186,0.9010097423335871,3.8134661025138286
18.434351921081543,1.005521796326905,0.8969161154004328,4.573209234456259
18.443390369415283,1.0018092207089084,0.8931154257199378,4.9966928598035825
18.46577000617981,0.9926254810222849,0.8895776003306435,5.0
18.478543281555176,0.9875451143871313,0.8862666467452108,5.0
18.486300230026245,0.9842233362026079,0.8831606052406579,5.0
18.50722050666809,0.9756257926661944,0.8802465573586691,4.725965454482093
18.520387887954712,0.9703500273143044,0.8774975721178054,4.478896648723873
18.53450107574463,0.9642926670954678,0.8748897290309818,4.5097454841562685
18.548380374908447,0.9584307055933676,0.872409270756707,4.018028856152686
18.564303159713745,0.9521779466577941,0.8700441261536674,3.955332681326935
18.578394174575806,0.9463159851556939,0.8677838879984413,3.7191910137866606
18.59434938430786,0.9396724287866473,0.8656197516948766,3.4274365222595558
18.613384246826172,0.9322472775506537,0.8635400024344454,3.132078816531796
18.627846002578735,0.9259945186150802,0.8615309776120468,2.854093894121237
18.64330220222473,0.9197417596795069,0.8595867065166811,2.6002710164674214
18.659377336502075,0.91309820331046,0.8577073945120178,2.371251411781803
18.672297954559326,0.90782243795857,0.855893627375336,2.165277168940967
18.696459531784058,0.8972709072547898,0.8541436123573092,1.9798753127265543
18.712419033050537,0.890627350885743,0.8524537096475595,1.8125656139338244
18.723917722702026,0.8861331804007996,0.850824496297282,1.6611196452343182
18.73831582069397,0.8806620163321728,0.8492593615307562,1.5236230959349102
18.752285480499268,0.8748000548300726,0.8477603075321459,1.3984591268980933
18.767282247543335,0.8685472958944992,0.8463288401304842,1.2842658932999749
18.78028655052185,0.8634669292593458,0.8449663457924325,1.4559291198558912
18.794277667999268,0.8576049677572457,0.8436736414183893,1.393512604418778
18.815399646759033,0.848421228070622,0.8424498323680847,1.2508593987398957
18.823678255081177,0.8450994498860988,0.8412936278585376,1.0944637750973487
18.84339213371277,0.8376742986501053,0.84020480172135,1.2262630557400742
18.8593807220459,0.8322031345814787,0.8391819653172802,1.9631807949290583
18.873393058776855,0.8277089640965352,0.8382235709195918,3.2834508571421583
18.88398838043213,0.8245825846287484,0.8373293491467992,5.0
18.905313968658447,0.8187206231266484,0.8364987148450558,5.0
18.91533350944519,0.8161804398090716,0.8357302972452485,5.0
18.937166929244995,0.8112954718906548,0.8350233543495339,5.0
18.953192949295044,0.808169092422868,0.8343783387488549,5.0
18.966367721557617,0.8060197065387646,0.8337963142339755,5.0
18.981388568878174,0.8038703206546614,0.8332788883553581,5.0
18.996367692947388,0.8025025296375047,0.832828253450834,5.0
19.018565893173218,0.8009393399036113,0.8324501128260834,5.0
19.033434867858887,0.8003531437534013,0.8321538118719156,5.0
19.049436569213867,0.8001577450366647,0.8319466853191428,5.0
19.064419269561768,0.8001577450366647,0.8318338852329221,5.0
19.076284646987915,0.8003531437534013,0.8318210702906783,5.0
19.090250968933105,0.8009393399036113,0.8319143301333596,4.769353946660946
19.11301350593567,0.8021117322040313,0.832127444647862,4.537960130598854
19.126776218414307,0.8030887257877147,0.8324812269252542,3.7437581190672273
19.14060616493225,0.8042611180881346,0.8329868202240333,2.598266793677843
19.156360626220703,0.8060197065387646,0.8336476802290349,2.354239538562227
19.18066668510437,0.8089506872898149,0.8344806423298029,1.8665212987265682
19.195058584213257,0.8111000731739182,0.8355115372170849,0.818526052437781
19.21094298362732,0.8136402564914949,0.8367514032539478,0.055456753915365364
19.225329160690308,0.8155942436588616,0.8381992271546943,-0.47154870375398594
19.24033522605896,0.8181344269764383,0.8398537273064915,-1.3688287026238024
19.263585567474365,0.8222378000279084,0.8417272694130199,-2.198427959543425
19.27828049659729,0.8247779833454851,0.8438439639411903,-2.822229023225814
19.292259216308594,0.8273181666630619,0.8462099657776,-3.2273741183074547
19.307254791259766,0.8302491474141118,0.8488155357102235,-3.4464059340144666
19.32962989807129,0.8345479191823186,0.8516669612938077,-3.798574717249017
19.345231771469116,0.8374788999333687,0.8547842106761931,-4.081118638605881
19.369165897369385,0.8421684691350487,0.8581836485052505,-4.514624945395733
19.38449263572693,0.8454902473195721,0.8618781492296916,-4.584161082981494
19.3953218460083,0.8480304306371489,0.8658549432882956,-4.744315386625168
19.40638780593872,0.850375215237989,0.8700727909260898,-4.846287637407682
19.42358684539795,0.8542831895727223,0.8745036009268724,-4.851995087871339
19.431220531463623,0.8560417780233522,0.8791258769983863,-4.4913585563110745
19.454224109649658,0.8613175433752424,0.8839151676677329,-4.303422260538531
19.46725559234619,0.8644439228430292,0.8888741479450795,-3.8791239100812476
19.481250047683716,0.8677657010275525,0.8940035174651455,-3.4127841776814094
19.49625015258789,0.8712828779288125,0.8992842907201506,-3.256596618998533
19.518036365509033,0.8773402381476494,0.9047178524819527,-2.638797817616907
19.533299446105957,0.8814436111991195,0.9103228838567392,-2.2341147542160913
19.547326803207397,0.8851561868171162,0.9160948560114482,-1.6720970037619816
19.561251878738403,0.8888687624351129,0.92200951713873,-1.1461356926177926
19.57430863380432,0.8925813380531097,0.9280449459556236,-0.994001935416124
19.591005325317383,0.8980525021217365,0.9341836176201624,-0.42714132186991804
19.603243350982666,0.9021558751732064,0.9404097750360687,-0.3813932006494274
19.61807632446289,0.9072362418083599,0.946705023995556,0.3205563524541375
19.633620500564575,0.9129028045937233,0.9530562037351366,0.8205473156262243
19.654204607009888,0.9201325571129801,0.9594738043458396,1.1506627620501224
19.668184280395508,0.9254083224648704,0.9659802434739457,1.073510044437302
19.683725595474243,0.9316610814004438,0.9725739772197656,1.1430322334965457
19.706636428833008,0.9406494223703306,0.9792561631834319,2.060973218816998
19.714211225509644,0.9435804031213805,0.9860269205841218,2.2248495116608984
19.737302541732788,0.952764142808004,0.9928654803631,2.088082283747017
19.751219034194946,0.9584307055933676,0.9997739691366153,1.3033599086904046
19.77377200126648,0.9682006414302011,1.0067716593321903,0.1674145489317047
19.79031777381897,0.9746487990825112,1.0138741934901705,-0.8678039681341704
19.806286573410034,0.9809015580180845,1.021077873368462,-1.9395216356714304
19.820242166519165,0.9867635195201847,1.0283580838746218,-2.5200530535217225
19.83905792236328,0.9943840694729149,1.0357046739793603,-3.353957612296333
19.848201751708984,0.9980966450909117,1.0431083628988334,-3.7947206052551588
19.871182203292847,1.0074757834942718,1.050553912961044,-3.703572038417355
19.882964849472046,1.0125561501294251,1.0580418564645482,-3.6900616722419275
19.897584199905396,1.0186135103482619,1.0655630249484023,-3.935875395864887
19.91338348388672,1.0248662692838355,1.0731025041535878,-3.8952180044855687
19.927292108535767,1.0303374333524622,1.080652162277441,-3.7232992023836404
19.94239068031311,1.036394793571299,1.0881981689215783,-3.4970992079999323
19.963833808898926,1.0447969383909759,1.095745970079477,-2.978395118459579
19.978381872177124,1.0510496973265493,1.103321102196994,-2.980394465227375
19.994372844696045,1.0576932536955959,1.1109271264878162,-2.5618389896603997
20.009371280670166,1.0633598164809595,1.1185458561187518,-2.3326866934621338
20.031855821609497,1.0727389548843196,1.1261811623955373,-2.1800689169766607
20.039669275283813,1.0762561317855797,1.133841564098039,-2.0549318063672537
20.053706884384155,1.0819226945709433,1.141499881384691,-1.9377603395093446
20.066495180130005,1.0870030612060964,1.149130856273087,-1.8221632645683408
20.077212810516357,1.0913018329743032,1.1567189157415723,-1.707170628888485
20.094989776611328,1.098726984210297,1.1642506776802142,-1.5937351758832483
20.103310346603394,1.1018533636780836,1.1717233073081936,-1.4832290496596232
20.119359016418457,1.1086923187638669,1.1791219910276063,-1.376863582046242
20.142290830612183,1.1178760584504905,1.1864560659289953,-1.2755184823674313
20.166205883026123,1.1278413930040605,1.1937869118583881,-1.1797392883140265
20.181955337524414,1.1340941519396341,1.2011664133768216,-1.365831850961122
20.196346044540405,1.1399561134417342,1.2085959379680653,-1.3149011904726131
20.219767808914185,1.1493352518450946,1.2160758940754135,-0.9055087036628024
20.234956979751587,1.155392612063931,1.2236267632393363,-0.7236483365062218
20.24369168281555,1.1591051876819278,1.2312347537753652,-0.6409230015995977
20.258325815200806,1.1655533453342382,1.2388572849835204,-0.5981458846906391
20.26857852935791,1.172001502986548,1.2464627395620003,-0.845220355251953
20.287840604782104,1.1774726670551747,1.2540430155434759,-0.8525018836303523
20.302209854125977,1.1829438311238019,1.2616099660137055,-0.7709565716303061
20.31621789932251,1.1890011913426384,1.2691644574818468,-0.6670511474489087
20.33122706413269,1.1950585515614751,1.276693438713401,-0.567683183970265
20.345210552215576,1.200529715630102,1.2841861088140671,-0.481843997691087
20.368380308151245,1.209908854033462,1.2916543260846813,-0.4108883950909479
20.383189916610718,1.2163570116857723,1.29912892385631,-0.3532762101883844
20.393956422805786,1.2210465808874524,1.306608255006277,-0.5827059660724194
20.40402388572693,1.224759156505449,1.3140556536749164,-0.5779407420001508
20.424206972122192,1.233161301325126,1.321454107018633,-0.4917348380516648
20.4392032623291,1.2390232628272257,1.3288186267855404,-0.38978333887663585
20.45420789718628,1.2452760217627994,1.3361553648906765,-0.29745514281544594
20.47826623916626,1.2548505588828962,1.3434756654663373,-0.2221985458947096
20.49321222305298,1.2611033178184698,1.3508095206384574,-0.16407137476139605
20.50719952583313,1.2667698806038332,1.3581615347531186,-0.12053518474981878
20.53019666671753,1.27634441772393,1.3655350225340601,-0.08852274454468911
20.54523515701294,1.2825971766595035,1.3729525189461969,0.21079731719709915
20.56027865409851,1.2884591381616035,1.3804120574247047,0.26075169385760016
20.57632851600647,1.2951026945306503,1.387891012447132,0.21778996803023676
20.589171886444092,1.3003784598825405,1.395369826010107,0.1504585054924841
20.607006072998047,1.307803611118534,1.4028399150839956,0.08626746355035582
20.626478910446167,1.3152287623545271,1.4103138514474682,0.0342487254463587
20.640993118286133,1.3210907238566276,1.417805618251544,-0.004377955287313655
20.656160831451416,1.327343482792201,1.4253066247595754,-0.03130078874489923
20.672641277313232,1.3341824378779843,1.4327982066292506,-0.04896403555772151
20.68890905380249,1.3406305955302946,1.4402725132097827,-0.05970211014974448
20.698959350585938,1.3447339685817647,1.4477243706699674,-0.06545361979246875
20.710161447525024,1.3494235377834447,1.4551334649671837,-0.06772122525183827
20.724172592163086,1.355090100568808,1.4624778782444974,-0.06762351382391854
20.746848583221436,1.3642738402554317,1.4697671411497395,-0.0659712533636995
20.762185096740723,1.3707219979077419,1.4770320905538252,-0.06334070256211398
20.777267932891846,1.376583959409842,1.4842793511024006,-0.06013485849216097
20.80031394958496,1.3859630978132023,1.4915142291959127,0.21940709761751093
20.814369916915894,1.3918250593153023,1.498760257625287,0.25614506529300485
20.829153776168823,1.3980778182508755,1.5060176029123844,0.20464619405079687
20.844285011291504,1.4041351784697123,1.5132667073526491,0.13206409188459206
20.857277393341064,1.4092155451048658,1.5204908180039172,0.06489901966970754
20.87221908569336,1.415663702757176,1.5276757421529896,0.011460806584019732
20.886255502700806,1.4213302655425393,1.5348096052602385,-0.02754162705482437
20.909125566482544,1.4301232077956894,1.541901069690317,-0.3301931374744428
20.924168825149536,1.436375966731263,1.548975890431829,-0.38023518630934344
20.939240217208862,1.4424333269500995,1.556036864119825,-0.3348661769996317
20.954261302947998,1.4484906871689365,1.5630674227954582,-0.2633765246121378
20.974682092666626,1.4568928319886134,1.5700685418811344,-0.19389854081195948
20.99038338661194,1.4631455909241868,1.5770584948717745,-0.13594234872913055
21.003183126449585,1.4682259575593402,1.584039517797236,-0.091076541890336
21.011186599731445,1.4715477357438635,1.5909777996651824,0.2181809357819856
21.032216787338257,1.4803406779970136,1.5978421601741382,0.2751570797967716
21.047152757644653,1.4863980382158504,1.6046414296600766,0.23677128205353382
21.062143325805664,1.4920646010012137,1.6113834583541644,0.17213098525073187
21.078343868255615,1.4989035560869972,1.618062829941182,0.10925282432028716
21.094034433364868,1.505742511172781,1.624684699046394,0.05757788782574579
21.10431981086731,1.5100412829409877,1.6312438183666025,0.01863769287957259
21.11995840072632,1.5159032444430878,1.6377219199303776,-0.28506529024153104
21.1301531791687,1.5200066174945577,1.644109308981819,-0.3368591812003545
21.152689933776855,1.5289949584644444,1.6504158914732474,-0.29365519502632975
21.16629910469055,1.5344661225330716,1.6566673104499734,-0.2245467874482599
21.182294845581055,1.5413050776188546,1.6628734749436218,-0.15753319216856834
21.198291063308716,1.547753235271165,1.6690266224508703,-0.10203631124605983
21.220310926437378,1.556741576241052,1.6751370078278265,-0.059567783986884844
21.23628544807434,1.5637759300435718,1.6812299562656303,-0.02864859337866392
21.252091884613037,1.5704194864126186,1.6873117803591806,-0.006979152267131495
21.265347957611084,1.5754998530477722,1.6933714673172988,0.007678425522551582
21.28823757171631,1.5846835927343956,1.6994135066818956,-0.25883725724252754
21.302234172821045,1.5905455542364957,1.705457783931213,-0.28610834341521174
21.317302227020264,1.5966029144553326,1.7115059236887165,-0.2277278629912921
21.33223867416382,1.6024648759574327,1.7175429252983665,-0.15012713504792552
21.34895133972168,1.6093038310432162,1.7235607424802102,-0.07928010009200133
21.369125604629517,1.6179013745796298,1.7295683895344316,-0.02311732971861189
21.38315773010254,1.623567937364993,1.7355797382336682,-0.2581147706336591
21.398156881332397,1.629429898867093,1.7415903658945024,-0.26308054888348037
21.4121253490448,1.6350964616524568,1.7475851820595831,-0.18987566730107758
21.427155017852783,1.6409584231545566,1.7535514019847434,-0.1031302527457155
21.446149826049805,1.6487743718240233,1.7594892187796545,-0.02726885230566741
21.461955785751343,1.6556133269098068,1.765414299916538,0.031001455733321703
21.477284908294678,1.662061484562117,1.7713333989568316,0.07216405602292866
21.492210388183594,1.6681188447809538,1.7772365668817587,0.37516947136863044
21.516047954559326,1.6776933819010509,1.7831259016055068,0.42437685091163824
21.530495166778564,1.6837507421198874,1.7890181583501423,0.3774193386020174
21.545408487319946,1.689417304905251,1.7949108500680007,0.30388962639156714
21.560210943222046,1.6948884689738777,1.8007864133275115,0.5081659952949731
21.581263542175293,1.7042676073772378,1.8066414595832616,0.20490870092443764
21.597967624664307,1.7111065624630215,1.8124877784758842,0.06942390817764475
21.614291429519653,1.7179455175488048,1.8183300146322419,0.01287088467756579
21.628166437149048,1.7232212829006948,1.8241569480555415,-0.007675485276260351
21.64311909675598,1.729669440553005,1.8299534452425488,-0.012631796673584378
21.656129598617554,1.7349452059048949,1.835706688246036,-0.011474828490196771
21.67115092277527,1.7408071674069951,1.8414059503663687,-0.008431510294747993
21.695271730422974,1.7505771032438289,1.8470562785803373,0.2707805199496627
21.7102313041687,1.7564390647459287,1.8526758204868439,0.3065808638093186
21.73192000389099,1.7658182031492888,1.8582790596941503,0.2535216089540304
21.74727725982666,1.7722663608015992,1.8638771580809048,0.17888856242760653
21.76112985610962,1.7775421261534892,1.86946527388333,0.10934237107390965
21.77612018585205,1.7835994863723261,1.8750252474310471,0.32937417466895275
21.788817405700684,1.7890706504409528,1.8805415196692323,0.32085320017962793
21.804110765457153,1.7951280106597896,1.88600095335559,0.23650697789796632
21.818251848220825,1.8009899721618894,1.8913903237972258,0.14093272432589896
21.831190586090088,1.806070338797043,1.8966988656374464,0.05821096016511299
21.844172954559326,1.8117369015824063,1.9019227290617304,-0.005353698736642241
21.860125064849854,1.818380457951453,1.9070593320850129,-0.05060824016887989
21.87809705734253,1.82561021047071,1.912113006559584,-0.080761262021771
21.893670797348022,1.8316675706895469,1.9171001951545477,-0.09935338527378887
21.90844416618347,1.8377249309083836,1.922031097131106,-0.1094981551350932
21.92425012588501,1.8435868924104835,1.9269025151991308,-0.11368139306942218
21.93619132041931,1.8484718603289005,1.93170815323843,-0.38982438547754594
21.951173782348633,1.8549200179812106,1.9364432045976114,-0.42035499796426445
21.965245008468628,1.860586580766574,1.9411041655857058,-0.08491498808952647
21.980232000350952,1.8664485422686738,1.945688654983661,0.029614580487701617
21.993980884552002,1.872505902487511,1.950196084252934,0.05089499397166911
22.014308214187622,1.880908047307188,1.9546343975597837,0.03749516102597949
22.02308201789856,1.8844252242084478,1.9590090484530758,0.015024315057336098
22.04616689682007,1.8934135651783346,1.9633200970133982,-0.006278228151350759
22.06249165534973,1.9002525202641178,1.9675814391243538,-0.02308175592388491
22.07511854171753,1.905528285616008,1.9718015626552958,-0.03496694937810641
22.098119258880615,1.9147120253026317,1.9759828164899194,-0.31862900871175165
22.11340022087097,1.9209647842382052,1.9801371372253846,-0.3560455198018846
22.13667893409729,1.9303439226415653,1.984275450102229,-0.30278928101279545
22.14440107345581,1.9336657008260885,1.988397184147004,-0.2268216307604568
22.165821313858032,1.9420678456457654,1.9924913391233747,-0.15525289999579067
22.181124925613403,1.948320604581339,1.9965554938523786,0.17920271432728088
22.19505786895752,1.953791768649966,2.0005874119548572,-0.01946581349457817
22.208247423171997,1.9592629327185926,2.0045765500550976,-0.07578134536026362
22.22208333015442,1.9653202929374292,2.008514055690836,-0.07464988532931775
22.23816204071045,1.971963849306476,2.0123926728699417,-0.0543396726896012
22.25664520263672,1.9793890005424695,2.016209873692765,-0.03106076603909469
22.27418303489685,1.9862279556282532,2.019972636034044,-0.010876202988274266
22.289246320724487,1.9924807145638264,2.023689448393642,-0.2714309307990458
22.302244901657104,1.9977564799157166,2.0273591635320347,-0.017544421456188605
22.318251132965088,2.00400923885129,2.0309758457213305,-0.19811245682495776
22.340494871139526,2.0131929785379135,2.0345436611618366,-0.2058512197101885
22.35524821281433,2.019445737473487,2.0380753083977505,-0.15399837727101717
22.368192195892334,2.024721502825377,2.041573453976676,-0.0909610974535787
22.382099866867065,2.030583464327477,2.045032265237132,-0.035207978796138524
22.396169185638428,2.0360546283961036,2.048447362033465,0.008029043168382089
22.420518159866333,2.0458245642329373,2.051824255451653,-0.23711386037214321
22.434993743896484,2.051295728301564,2.055176734849934,-0.249654222249558
22.45006561279297,2.0567668923701907,2.0585081621593084,-0.7339947656450672
22.46210026741028,2.0606748667049244,2.061812999136847,-1.5454606867352219
22.478119373321533,2.065559834623341,2.0650868238906246,-3.6697287245884422
22.494176149368286,2.0700540051082847,2.068326177191786,-4.940956293116168
22.51618766784668,2.0755251691769114,2.071536813361349,-5.0
22.53113842010498,2.0786515486446984,2.0747320986370106,-5.0
22.547099351882935,2.0817779281124844,2.077914766880342,-5.0
22.560065269470215,2.0837319152798512,2.0810785511655996,-5.0
22.575028657913208,2.0858813011639548,2.0842180895806375,-5.0
22.598145008087158,2.0884214844815316,2.0873367764812367,-5.0
22.61306095123291,2.0895938767819517,2.0904452767108195,-5.0
22.6350257396698,2.090961667799108,2.0935508600430675,-5.0
22.65018630027771,2.091547863949318,2.0966589563147404,-5.0
22.66512894630432,2.0919386613827915,2.099768193565085,-4.815398006336933
22.67983627319336,2.092134060099528,2.1028692753155522,-4.190709012995124
22.693076133728027,2.092329458816265,2.1059529477705032,-3.216676046657132
22.7071373462677,2.092329458816265,2.1090112342397034,-2.0005821123800405
22.721137285232544,2.092329458816265,2.112037329446231,-1.1896337682693081
22.73805856704712,2.0927202562497382,2.1150270415075565,0.45520655436078583
22.751148462295532,2.0931110536832116,2.1179768863199726,2.6026546734794036
22.771584510803223,2.0938926485501583,2.1208876252796443,4.472695504353088
22.78708791732788,2.0948696421338417,2.1237665788801676,5.0
22.800066471099854,2.0958466357175247,2.126614550399479,5.0
22.81436848640442,2.096823629301208,2.1294253850418716,5.0
22.830066919326782,2.098386819035102,2.132193940066805,5.0
22.85321855545044,2.101122401069415,2.1349220900841592,5.0
22.86651849746704,2.1028809895200453,2.1376175398886237,5.0
22.881150722503662,2.1050303754041484,2.140280581045348,5.0
22.896159887313843,2.1073751600049886,2.1429053507856946,5.0
22.920384883880615,2.111869330489932,2.1454927368364696,5.0
22.933584690093994,2.1144095138075087,2.14804927920947,5.0
22.949208736419678,2.117926690708769,2.1505748200208266,5.0
22.964203596115112,2.121248468893292,2.1530636382832107,5.0
22.979957342147827,2.1249610445112888,2.1555115554918416,5.0
22.99674677848816,2.129455214996232,2.1579169669797125,5.0
23.007112979888916,2.1321907970305456,2.160278091211267,5.0
23.028744220733643,2.1380527585326456,2.1625959713391314,5.0
23.044119596481323,2.1423515303008527,2.1648776203461555,4.590382018258502
23.059170722961426,2.146845700785796,2.167125586946142,4.439231504646431
23.08159852027893,2.1536846558715794,2.1693423383254347,3.7946786159451884
23.09705352783203,2.158178826356523,2.1715356014688236,2.792140708248474
23.113177061080933,2.1630637942749393,2.173706944362463,2.1073464980772916
23.128181219100952,2.167557964759883,2.175852735328118,1.077611781107558
23.139114379882812,2.1710751416611433,2.1779702835104224,-0.15651388387901644
23.154183864593506,2.175178514712613,2.180057747826147,-1.2200913911730502
23.16703963279724,2.1783048941803997,2.1821140477398138,-2.2880699282887718
23.18203091621399,2.18182207108166,2.1841387763523805,-4.231246274530401
23.20413327217102,2.18651164028334,2.186137567839092,-5.0
23.212233304977417,2.188074830017233,2.1881160579395043,-5.0
23.232133626937866,2.19120120948502,2.1900740386319657,-5.0
23.247124433517456,2.1933505953691235,2.192016501300347,-5.0
23.262076377868652,2.1949137851030165,2.193948021436845,-5.0
23.274033784866333,2.196086177403437,2.1958676796306515,-5.0
23.28649640083313,2.19706317098712,2.1977747907604335,-5.0
23.301039218902588,2.1978447658540667,2.199669081725269,-5.0
23.32141661643982,2.19882175943775,2.2015546747321344,-5.0
23.33002495765686,2.1992125568712235,2.2034352925748553,-5.0
23.344032287597656,2.19940795558796,2.205306787628561,-5.0
23.366767406463623,2.19940795558796,2.2071716949998232,-5.0
23.38319230079651,2.19940795558796,2.2090417920822767,-5.0
23.40512466430664,2.19940795558796,2.2109259846352805,-4.266725917794776
23.419304370880127,2.19940795558796,2.2128308108204693,-2.5886159978248218
23.42998194694519,2.199603354304697,2.2147543872760966,-0.6180080712363447
23.441935539245605,2.1997987530214336,2.216686416275408,1.0797848042863145
23.460800170898438,2.200189550454907,2.2186231967111283,2.6302315290437104
23.469680070877075,2.2005803478883803,2.2205647069102885,4.083123496880956
23.48936676979065,2.2011665440385904,2.2225085396809057,5.0
23.50401997566223,2.2017527401888004,2.2244570537717894,5.0
23.521034002304077,2.203120531205957,2.2264126964004123,5.0
23.533010244369507,2.2039021260729035,2.2283726421644734,5.0
23.548157453536987,2.2050745183733236,2.2303323691415398,5.0
23.567591667175293,2.2070285055406904,2.23229265020055,5.0
23.575012922286987,2.2076147016909005,2.2342526935308933,5.0
23.591643810272217,2.2095686888582673,2.23620378873117,5.0
23.607333421707153,2.2117180747423704,2.238142794319077,5.0
23.62242341041565,2.213672061909737,2.240070703158872,5.0
23.63560962677002,2.2158214477938407,2.24198492159192,5.0
23.651093006134033,2.218557029828154,2.2438806866438226,5.0
23.66607403755188,2.2210972131457307,2.245752572420348,5.0
23.682154655456543,2.2238327951800443,2.2475956991923476,4.913387125898748
23.704079627990723,2.2277407695147775,2.249409296799005,4.80534998430603
23.719170570373535,2.2304763515490906,2.2511960321328583,4.377238725993358
23.734155893325806,2.233407332300141,2.2529543334965707,4.150916236143017
23.755990982055664,2.238096901501821,2.254682108982321,3.4306832886180176
23.76415514945984,2.239855489952451,2.256377690487647,2.6470872342881195
23.78616690635681,2.2443496604373943,2.2580372180217885,1.9602064630782676
23.800241947174072,2.247085242471708,2.2596607388569994,0.859376162648645
23.815157413482666,2.2500162232227576,2.2612482022716347,-0.175900643059912
23.8363196849823,2.2539241975574913,2.2627986855212514,-1.5433325420242727
23.85182762145996,2.2566597795918044,2.2643144397187456,-2.7393863297095007
23.86712622642517,2.2590045641926446,2.2657961678623306,-3.6201335099461422
23.881032943725586,2.2607631526432748,2.2672415787858786,-4.464606755898711
23.899867296218872,2.2629125385273783,2.2686487421788595,-5.0
23.914843559265137,2.2640849308277984,2.2700173185784656,-5.0
23.92409110069275,2.265061924411482,2.271345426600085,-5.0
23.938881158828735,2.265843519278428,2.2726293411210583,-5.0
23.949991464614868,2.2662343167119015,2.2738667443826186,-5.0
23.964092254638672,2.2666251141453744,2.2750562323121626,-5.0
23.975483655929565,2.2666251141453744,2.2761966713455584,-5.0
23.990002632141113,2.2666251141453744,2.277287539015327,-5.0
24.013482570648193,2.2664297154286377,2.278329704930557,-5.0
24.028090000152588,2.2664297154286377,2.2793250662985374,-5.0
24.042010068893433,2.2662343167119015,2.280273744828011,-4.4675188492717375
24.056094884872437,2.2662343167119015,2.2811745056843167,-3.104010092352917
24.06884217262268,2.2660389179951648,2.282026322709725,-1.4186906292683716
24.07874584197998,2.2660389179951648,2.282828057701246,0.067065470766697
24.096020698547363,2.265843519278428,2.283578926813473,1.205463723243963
24.10996675491333,2.2656481205616914,2.284279050208935,2.0012515161579993
24.120930433273315,2.2656481205616914,2.284928546986866,2.235465682566446
24.12940502166748,2.2656481205616914,2.2855272803911975,2.493565221110353
24.139962196350098,2.2656481205616914,2.2860754102445253,2.680394154505224
24.15350866317749,2.2654527218449547,2.2865733659085796,2.7766117258430207
24.165977716445923,2.2654527218449547,2.287021625936789,2.7920517593341274
24.179959297180176,2.2654527218449547,2.287420594472531,2.745043198163293
24.191972255706787,2.2652573231282185,2.287770585602283,2.9299556574344905
24.20699143409729,2.2654527218449547,2.288071815825279,2.843215490458597
24.22013807296753,2.2652573231282185,2.28832440071927,2.927403583349737
24.23200273513794,2.2654527218449547,2.288528355713474,2.739467635589871
24.244986534118652,2.2652573231282185,2.2886836006929023,2.4667419651876785
24.257418870925903,2.2654527218449547,2.2887899680200667,2.188930977888812
24.268823862075806,2.2654527218449547,2.2888478296677857,1.9359994344013465
24.28597068786621,2.2654527218449547,2.2888573911663017,1.7159040718709488
24.295867204666138,2.2654527218449547,2.2888180595252,1.5276092296270525
24.310935974121094,2.2654527218449547,2.2887292345072336,1.366998864186225
24.324453115463257,2.2654527218449547,2.288590172012159,1.22941488333951
24.340961694717407,2.2654527218449547,2.2884001770220808,1.1106333760928986
24.354966163635254,2.2654527218449547,2.28815842445157,1.0071471512092618
24.368967294692993,2.2654527218449547,2.2878641943332205,0.9161626241598845
24.391957998275757,2.2654527218449547,2.2875139008463288,0.8354967524626007
24.405397415161133,2.2652573231282185,2.2871010554946367,0.7634540423816245
24.419966459274292,2.2654527218449547,2.2866233873291812,0.6987146567479051
24.43438458442688,2.2652573231282185,2.286082404960262,0.6402428489756335
24.44616436958313,2.2654527218449547,2.2854800586255384,0.5872159305637723
24.45972228050232,2.2652573231282185,2.2848183720398794,0.5389707898574516
24.473047494888306,2.2654527218449547,2.2840983738598912,0.4949643088282275
24.487180948257446,2.2654527218449547,2.283320842188567,0.45474433590464125
24.50012493133545,2.2654527218449547,2.282487107334516,0.4179284814156964
24.513166904449463,2.2652573231282185,2.281598673832842,0.38418862363861744
24.527947425842285,2.2654527218449547,2.280657036697495,0.3532395462967407
24.541975021362305,2.2654527218449547,2.2796636800112466,0.32483055039439446
24.5499587059021,2.2652573231282185,2.278625030745973,0.29873920333229065
24.565675258636475,2.2652573231282185,2.2775489346098405,0.2747666246985567
24.575804471969604,2.2652573231282185,2.2764365817996213,0.25273387994278496
24.595953941345215,2.2652573231282185,2.2752845135932893,0.23247917664000015
24.611002922058105,2.265061924411482,2.2740860673941423,-0.06218271348575492
24.625043869018555,2.2648665256947447,2.2728380871703395,-0.11243340640410282
24.638933897018433,2.2644757282612713,2.2715425773908673,-0.349125220969011
24.65195918083191,2.2640849308277984,2.270201906013073,-0.8727284889638321
24.664938926696777,2.263694133394325,2.2688183074510486,-1.3787598821765028
24.67901611328125,2.263303335960851,2.267393043122443,-1.4904036887341152
24.686994314193726,2.2629125385273783,2.265933267286322,-1.159919165199362
24.706950426101685,2.262326342377168,2.264445569340278,-1.2880190682214387
24.719632625579834,2.261740146226958,2.2629240211416857,-1.2479495865232832
24.73094081878662,2.2615447475102215,2.2613637338307155,-0.8703290097509022
24.74594020843506,2.2607631526432748,2.2597661995702207,-0.7213593015130438
24.757609128952026,2.2603723552098014,2.2581342591461073,-0.6656631058903348
24.77203130722046,2.2595907603428547,2.2564706873224845,-0.6425953012273373
24.78700828552246,2.258809165475908,2.2547756246983934,-0.9027439374032878
24.800973176956177,2.258027570608961,2.253049307729285,-0.6417503800497488
24.815951585769653,2.256855178308541,2.2512924984139087,-0.806913527073656
24.83091378211975,2.2558781847248577,2.2495039746024723,-0.7921968129689905
24.841936588287354,2.2550965898579114,2.2476833098105877,-0.7128485975051781
24.854941606521606,2.2539241975574913,2.245834235436086,-0.8952493760504666
24.87034773826599,2.2527518052570716,2.243958979267812,-1.116534190230474
24.881929397583008,2.251774811673388,2.242057511885902,-1.294897138907896
24.90492057800293,2.2492346283558113,2.240124872193568,-1.4100115209778854
24.912933349609375,2.248257634772128,2.2381569973720348,-1.7420063534339154
24.933027267456055,2.2453266540210777,2.2361565263075307,-2.3358919561850953
24.94680953025818,2.2427864707035012,2.234119412958323,-2.8732374189743624
