t_s,q_rad,q_des_rad,K,B,Kff,jerk,tau_Nm,reward
0.005242347717285156,-0.06233219063899781,[0.00041075],9.825212432529046,0.9790254919034855,1.9737818648793566,0.0,9.998999999999999,0.9550557183500853
0.015007972717285156,-0.06233219063899781,[0.00198485],9.650424865058092,0.9580509838069711,1.9475637297587132,0.0,10.098989999999999,0.9372122981764202
0.02500319480895996,-0.06233219063899781,[0.00493251],9.475637297587138,0.9370764757104565,1.92134559463807,0.0,10.099989899999999,0.9045790614537983
0.035307884216308594,-0.06233219063899781,[0.00900278],9.300849730116184,0.9161019676139419,1.8951274595174268,0.0,10.099999898999998,0.8614123812628081
0.04414677619934082,-0.06233219063899781,[0.01396899],9.12606216264523,0.8951274595174274,1.8689093243967834,0.0,10.099999998989999,0.8121179674267036
0.054936885833740234,-0.06233219063899781,[0.01962796],8.951274595174274,0.8741529514209129,1.84269118927614,0.0,2.122558782380963,0.7609325496170842
0.06489372253417969,-0.06233219063899781,[0.02579881],8.77648702770332,0.8531784433243983,1.8164730541554968,0.0,-9.977774412176188,0.7115244561523038
0.0738835334777832,-0.061550595772051124,[0.03232184],8.601699460232366,0.8322039352278838,1.7902549190348536,0.0,-10.09877774412176,0.6716312456971318
0.08391761779785156,-0.06018280475489443,[0.03905748],8.426911892761412,0.8112294271313693,1.7640367839142101,1.104153438714724,-10.099987777441216,0.6385882658398385
0.09547615051269531,-0.058815013737737745,[0.04588483],8.252124325290458,0.7902549190348547,1.7378186487935667,2.616843649753896,-10.099999877774412,0.6065755447013979
0.1050105094909668,-0.05803341887079106,[0.0527005],8.077336757819502,0.7692804109383402,1.7116005136729235,4.21830779726573,-10.099999998777744,0.5730146901626465
0.11387491226196289,-0.05725182400384438,[0.05941738],7.902549190348549,0.7483059028418256,1.6853823785522803,4.941382551369966,-10.099999999987777,0.5478709326812466
0.1229710578918457,-0.05686102657037104,[0.0659631],7.727761622877595,0.727331394745311,1.659164243431637,4.908896767222026,-10.099999999999877,0.5313202764620878
0.13392901420593262,-0.05627483042016103,[0.0722786],7.55297405540664,0.7063568866487966,1.6329461083109935,4.8564243872170145,-10.099999999999998,0.519440054270677
0.14289140701293945,-0.05607943170342436,[0.07831693],7.378186487935686,0.685382378552282,1.6067279731903503,3.9210939038643238,-10.099999999999998,0.5156697996452383
0.1508796215057373,-0.05588403298668769,[0.08404204],7.203398920464732,0.6644078704557674,1.5805098380697071,2.0040276971882838,-10.099999999999998,0.51694269994689
0.16251707077026367,-0.05588403298668769,[0.08942753],7.028611352993777,0.643433362359253,1.5542917029490637,-0.4410398848530468,-5.100499999999999,0.5145085178158303
0.17137742042541504,-0.05588403298668769,[0.09445531],6.853823785522822,0.6224588542627384,1.5280735678284203,-2.586268590555915,-5.050504999999999,0.5059304227442263
0.1801917552947998,-0.05588403298668769,[0.09911471],6.679036218051868,0.6014843461662238,1.501855432707777,-4.196320500907586,-5.050005049999999,0.495251444895668
0.18789219856262207,-0.05588403298668769,[0.10340167],6.504248650580913,0.6,1.475637297587134,-5.0,-5.0500000505,0.48798698069514035
0.1979506015777588,-0.05588403298668769,[0.10731766],6.329461083109958,0.6,1.4494191624664907,-5.0,-6.781375379444499,0.48659088734268857
0.20720314979553223,-0.05588403298668769,[0.11086864],6.154673515639004,0.6,1.4232010273458477,-5.0,-4.715517868420203,0.48557587331140467
0.21792030334472656,-0.05588403298668769,[0.1140643],5.97988594816805,0.6,1.3969828922252046,-4.687267355562998,-3.1605496802756186,0.4870093385262444
0.2282881736755371,-0.05588403298668769,[0.11691745],5.805098380697095,0.6,1.3707647571045614,-3.972077371920791,-2.024541638292458,0.49094111913067034
0.23755216598510742,-0.05588403298668769,[0.11944335],5.63031081322614,0.6,1.3445466219839184,-3.215517293483471,-1.2236391618253308,0.494500054102711
0.24806594848632812,-0.05607943170342436,[0.12165918],5.455523245755186,0.6,1.3183284868632752,-2.274757892224736,-0.6386416106096741,0.49796606229354495
0.256915807723999,-0.05607943170342436,[0.12358345],5.280735678284231,0.6,1.292110351742632,-1.426133500549973,-0.2150993572423406,0.5000597455696487
0.26621246337890625,-0.05607943170342436,[0.12523561],5.105948110813277,0.6,1.2658922166219888,-0.7513016143728479,0.08525694535434096,0.5009747624726051
0.275540828704834,-0.05607943170342436,[0.12663562],5.0,0.6,1.2396740815013456,-0.2516333539671446,0.3099101474150726,0.5012124710943454
0.28424978256225586,-0.05607943170342436,[0.12780366],5.0,0.6,1.2134559463807026,0.09971484971068362,0.4863228760880562,0.5011488198470788
0.29338979721069336,-0.05588403298668769,[0.12875977],5.0,0.6,1.1872378112600595,0.33535125822681977,0.6145810211354714,0.5010094683798916
0.3011620044708252,-0.05568863426995102,[0.12952368],5.0,0.6,1.1610196761394163,0.4849333359841058,0.7053725168141328,0.5008731359704358
0.3110392093658447,-0.054907039403004336,[0.13011452],5.0,0.6,1.1348015410187733,1.1246428437887097,0.7692706300273334,0.5001224209238747
0.32091617584228516,-0.05373464710258431,[0.13055074],5.0,0.6,1.10858340589813,2.0631712231388892,0.8096132351981787,0.4979638208572594
0.32991933822631836,-0.05217145736869095,[0.13085003],5.0,0.6,1.082365270777487,3.446917551729904,0.8536530409924635,0.4924650464965401
0.3403329849243164,-0.04963127405111425,[0.1310291],5.0,0.6,1.0561471356568437,5.0,0.8504467218229778,0.4831945234735261
0.348970890045166,-0.04767728688374754,[0.13110359],5.0,0.6,1.0299290005362005,5.0,0.8674308586602032,0.48340609384331146
0.35791444778442383,-0.044746306132697485,[0.13108813],5.0,0.6,1.0037108654155575,5.0,0.8644772535167283,0.4837951531701461
0.36588358879089355,-0.0420107240983841,[0.13099636],5.0,0.6,0.9774927302949143,5.0,0.8706329432788575,0.4842450319902208
0.3748753070831299,-0.038493547197124035,[0.13084077],5.0,0.6,0.9512745951742712,5.0,0.8394680382711578,0.48496351930343157
0.3875603675842285,-0.03341318056197061,[0.13063261],5.0,0.6,0.9250564600536281,5.0,0.8017677572643906,0.4863297378805732
0.3948476314544678,-0.030091402377447216,[0.130382],5.0,0.6,0.898838324932985,5.0,0.7761087174140548,0.48752947979644434
0.40773987770080566,-0.025206434459030463,[0.13009812],5.0,0.6,0.8726201898123418,5.0,0.725853036625007,0.489767444358012
0.4168572425842285,-0.0216892575577704,[0.12978906],5.0,0.6,0.8464020546916986,5.0,0.6808390777510765,0.49189369320533277
0.4275648593902588,-0.01758588450630032,[0.12946201],5.0,0.6,0.8201839195710555,5.0,0.6477937232965936,0.4949706831336785
0.4348490238189697,-0.0144595050385136,[0.12912342],5.0,0.6,0.7939657844504124,4.81449704474167,0.6561993436603494,0.4992320211021019
0.443892240524292,-0.010942328137253534,[0.12877896],5.0,0.6,0.7677476493297692,3.1568296945899177,0.6353418974909729,0.5127892734818092
0.4534037113189697,-0.0072297525192568,[0.12843343],5.0,0.6,0.741529514209126,1.026161889797591,0.6261873034997921,0.5244170466130902
0.46184802055358887,-0.003907974334733405,[0.1280908],5.0,0.6,0.715311379088483,-1.140337480834737,0.611753998654931,0.529694810659925
0.472409725189209,0.00039079743347334047,[0.1277544],5.0,0.6,0.6890932439678399,-3.1690940451560548,0.5895594419643212,0.5315754312759885
0.4808940887451172,0.0037125756179967346,[0.12742703],5.0,0.6,0.6628751088471967,-4.453966190403665,0.5704576360544795,0.5322870022392765
0.4901010990142822,0.007425151235993469,[0.12711091],5.0,0.6,0.6366569737265535,-5.0,0.5333692848269763,0.5387188208209884
0.49892258644104004,0.010942328137253534,[0.1268077],5.0,0.6,0.6104388386059104,-5.0,0.5205428520811181,0.5499561894962433
0.5078549385070801,0.014850302471986938,[0.12651871],5.0,0.6,0.5842207034852673,-5.0,0.5004552191056597,0.5643138169803048
0.5158934593200684,0.018172080656510332,[0.12624484],5.0,0.6,0.5580025683646241,-5.0,0.48173874703167346,0.5784511829863143
0.5251033306121826,0.02188465627450707,[0.12598657],5.0,0.6,0.531784433243981,-5.0,0.4505295209241808,0.5962021631315264
0.5369429588317871,0.026378826759450486,[0.12574409],5.0,0.6,0.5055662981233379,-5.0,0.4324483148430857,0.6205362686814186
0.5448617935180664,0.029700604943973877,[0.12551743],5.0,0.6,0.4793481630026947,-5.0,0.4186343417055171,0.6411584855624164
0.5538949966430664,0.03302238312849727,[0.12530651],5.0,0.6,0.4531300278820516,-5.0,0.4018062879161356,0.6638187864385084
0.5624160766601562,0.036148762596283995,[0.12511096],5.0,0.6,0.42691189276140845,-5.0,0.3851226530312269,0.6871200358250651
0.5715832710266113,0.03986133821428073,[0.12493014],5.0,0.6,0.4006937576407653,-4.877158944140728,0.3656579950920641,0.717798071835142
0.5816605091094971,0.04376931254901414,[0.12476333],5.0,0.6,0.3744756225201221,-4.656740918351044,0.34517018577413416,0.7533946233528106
0.5909533500671387,0.0472864894502742,[0.12460971],5.0,0.6,0.3482574873994789,-4.3909016421236355,0.31952178056761416,0.7883210476826505
0.5988645553588867,0.050412868918060925,[0.12446855],5.0,0.6,0.3220393522788358,-4.108255366032957,0.3093827524987972,0.8215144401639562
0.6079385280609131,0.05451624196953099,[0.12433912],5.0,0.6,0.2958212171581926,-3.8246009640511627,0.2910187472610904,0.8664036532775123
0.6168603897094727,0.0578380201540544,[0.12422068],5.0,0.6,0.2696030820375494,-3.548621070340322,0.28244277548343333,0.904944347708668
0.6259095668792725,0.061550595772051124,[0.12411245],5.0,0.6,0.24338494691690624,-3.2849650952537353,0.2654213726430643,0.9491570011016346
0.6349244117736816,0.06487237395657452,[0.12401352],5.0,0.6,0.21716681179626307,-3.0359524760875565,0.24814248757795826,0.9900019189193044
0.6438577175140381,0.06838955085783459,[0.12392292],5.0,0.6,0.19094867667561988,-3.0785743451349497,0.22489470438527642,1.0326678192971301
0.6519458293914795,0.07171132904235797,[0.12383979],5.0,0.6,0.16473054155497668,-2.894023112447869,0.21050936460534433,1.074530588858195
0.659876823425293,0.07503310722688138,[0.12376352],5.0,0.6,0.13851240643433352,-2.3606202381846337,0.19447040741167546,1.1177971122797117
0.6679286956787109,0.07835488541140477,[0.12369352],5.0,0.6,0.11229427131369034,-2.063944598264477,0.17653596084380524,1.1597475132498003
0.6759934425354004,0.08128586616245481,[0.12362896],5.0,0.6,0.08607613619304716,-2.15113452388716,0.16069709224407247,1.195229693703398
0.6873664855957031,0.08578003664739824,[0.12356899],5.0,0.6,0.05985800107240398,-2.0435111017809175,0.13731320370723607,1.2484634746106071
0.6949610710144043,0.08851561868171162,[0.12351293],5.0,0.6,0.0336398659517608,-2.1451224583635202,0.12430531642175445,1.2793203569128746
0.7038516998291016,0.09164199814949833,[0.12346023],5.0,0.6,0.0074217308311176206,-1.9930214267541677,0.10768231329035642,1.313754668669149
0.7135176658630371,0.09476837761728506,[0.12341031],5.0,0.6,0.0,-2.0402463047103128,0.0917988062232294,1.3455918146224448
0.7219858169555664,0.09769935836833513,[0.1233625],5.0,0.6,0.0,-2.3942368027571557,0.07713470305898334,1.3723379603256767
0.7314939498901367,0.10121653526959519,[0.12331623],5.0,0.6,0.0,-2.7510167942112274,0.059673960921754886,1.4013376773688135
0.7404558658599854,0.10414751602064523,[0.12327098],5.0,0.6,0.0,-3.007894602635562,0.045226200852385275,1.422779694586529
0.7479705810546875,0.10688309805495863,[0.1232264],5.0,0.6,0.0,-3.1477023892919815,0.033114719483158105,1.4406596700763457
0.7562253475189209,0.10922788265579866,[0.12318233],5.0,0.6,0.0,-3.4615160804817178,0.021551801279329742,1.4529629166303144
0.7658786773681641,0.11235426212358537,[0.12313859],5.0,0.6,0.0,-4.0062352383181015,0.007791355921332902,1.4652021543667384
0.7739193439483643,0.1143082492909521,[0.12309503],5.0,0.6,0.0,-4.197696133887149,-0.0018023095657291094,1.471730827224645
0.7838807106018066,0.11665303389179212,[0.12305144],5.0,0.6,0.0,-4.7407346645987225,-0.012666403919956284,1.4753922347417865
0.7940547466278076,0.11919321720936885,[0.1230074],5.0,0.6,0.0,-4.960876697337244,-0.025588014319473787,1.4791062681210838
0.8018863201141357,0.12095180565999888,[0.1229626],5.0,0.6,0.0,-4.97568855113993,-0.03192435613507735,1.4810977017477238
0.8115835189819336,0.12271039411062891,[0.12291698],5.0,0.6,0.0,-5.0,-0.03960127993625535,1.4817235268031745
0.8208694458007812,0.12446898256125893,[0.12287051],5.0,0.6,0.0,-5.0,-0.046920047886103454,1.4812211703951874
0.8308742046356201,0.12583677357841566,[0.12282309],5.0,0.6,0.0,-5.0,-0.0519539954040981,1.4799172534405276
0.840287446975708,0.126813767162099,[0.12277455],5.0,0.6,0.0,-5.0,-0.05613544147456291,1.4784743195634553
0.8488459587097168,0.12759536202904564,[0.12272476],5.0,0.6,0.0,-5.0,-0.056770986401955915,1.476998746402816
0.8586626052856445,0.1281815581792557,[0.12267385],5.0,0.6,0.0,-5.0,-0.057462651328267854,1.4756834632241254
0.8679440021514893,0.1287677543294657,[0.12262195],5.0,0.6,0.0,-5.0,-0.058158285871273196,1.4742063332716548
0.8771936893463135,0.12896315304620237,[0.12256907],5.0,0.6,0.0,-5.0,-0.05675710903592656,1.4735885535387272
0.8867018222808838,0.12896315304620237,[0.12251538],5.0,0.6,0.0,-5.0,-0.05324601728623659,1.4734517852291575
0.8954317569732666,0.1287677543294657,[0.12246111],5.0,0.6,0.0,-5.0,-0.05040345486014976,1.4738088708297519
0.9048736095428467,0.1287677543294657,[0.12240648],5.0,0.6,0.0,-5.0,-0.04705863966004835,1.4736715694692286
0.9159941673278809,0.12837695689599235,[0.1223516],5.0,0.6,0.0,-5.0,-0.044209550432572194,1.4744973746692547
0.9238235950469971,0.127986159462519,[0.12229647],5.0,0.6,0.0,-4.693511709044193,-0.039186338667848396,1.4774139513566016
0.9328110218048096,0.12759536202904564,[0.12224119],5.0,0.6,0.0,-3.8161581056533653,-0.03567492433753499,1.4835589040256796
0.942875862121582,0.12700916587883565,[0.12218588],5.0,0.6,0.0,-2.5998507993562505,-0.03146153134847759,1.4903516535187626
0.9528043270111084,0.12622757101188897,[0.12213054],5.0,0.6,0.0,-1.7503389390061348,-0.026252072643437246,1.4943730760266893
0.9648408889770508,0.1254459761449423,[0.12207508],5.0,0.6,0.0,-0.883300038770751,-0.02205212760263925,1.4971495377479451
0.9733068943023682,0.12485977999473229,[0.12201938],5.0,0.6,0.0,0.38732149708562436,-0.01795794150353395,1.4982760606923122
0.9838390350341797,0.12368738769431226,[0.1219634],5.0,0.6,0.0,0.9897539724768034,-0.010930642341800204,1.4986770584954137
0.992311954498291,0.12310119154410225,[0.12190725],5.0,0.6,0.0,1.8027670717615574,-0.007080550106209395,1.4973015055496068
0.9998533725738525,0.12231959667715558,[0.12185108],5.0,0.6,0.0,2.5074814382147705,-0.0015767834303073596,1.4952975466504226
1.0098607540130615,0.12134260309347221,[0.12179505],5.0,0.6,0.0,3.0133381058115556,0.002735105736382224,1.493245231987259
1.0178885459899902,0.12056100822652555,[0.12173919],5.0,0.6,0.0,3.322889770263425,0.008146988288546054,1.4915702337623835
1.0262508392333984,0.11997481207631551,[0.12168363],5.0,0.6,0.0,3.746580089892298,0.011220601098932583,1.4890755338826276
1.0339066982269287,0.11919321720936885,[0.12162855],5.0,0.6,0.0,4.0815629346799795,0.016076989617769127,1.4865659689055257
1.0418455600738525,0.11860702105915884,[0.12157418],5.0,0.6,0.0,4.275356476842982,0.01972040449834333,1.4848175591858819
1.0519542694091797,0.11782542619221216,[0.12152071],5.0,0.6,0.0,4.611600372506429,0.02313112012447599,1.481689632804024
1.0647549629211426,0.11704383132526547,[0.12146807],5.0,0.6,0.0,4.874487737350885,0.025602865449698173,1.4787146437262784
1.0736570358276367,0.11665303389179212,[0.12141599],5.0,0.6,0.0,5.0,0.027048939520347943,1.4772051889641338
1.0818438529968262,0.11606683774158212,[0.12136443],5.0,0.6,0.0,5.0,0.030338779838238603,1.4761348858090395
1.092052698135376,0.1156760403081088,[0.12131351],5.0,0.6,0.0,5.0,0.031326077272330624,1.475396013232758
1.1013357639312744,0.11528524287463544,[0.12126322],5.0,0.6,0.0,5.0,0.03235726048730703,1.4746102907843084
1.1089098453521729,0.11489444544116212,[0.12121357],5.0,0.6,0.0,5.0,0.03428926523413077,1.4737776030243237
1.1214168071746826,0.11469904672442544,[0.12116453],5.0,0.6,0.0,5.0,0.033172095969903025,1.4734064298496328
1.130141019821167,0.11450364800768877,[0.12111591],5.0,0.6,0.0,5.0,0.03325581283378174,1.4730257686642543
1.137981653213501,0.1143082492909521,[0.12106765],5.0,0.6,0.0,5.0,0.03435229550590291,1.4726357736647748
1.1477508544921875,0.11411285057421541,[0.12101983],5.0,0.6,0.0,5.0,0.03425293921067826,1.4722361647293774
1.157285451889038,0.11391745185747876,[0.12097243],5.0,0.6,0.0,4.9601252040051556,0.03416485266622726,1.4721118422632709
1.1659131050109863,0.11372205314074207,[0.12092543],5.0,0.6,0.0,4.543815703337621,0.03517875067219984,1.47454066101126
1.1775438785552979,0.1135266544240054,[0.12087881],5.0,0.6,0.0,4.030867244452266,0.03420047537405919,1.4772975528431371
1.1870968341827393,0.11333125570726875,[0.12083239],5.0,0.6,0.0,3.5358908412755614,0.034552718868006,1.4795888782457014
1.197392463684082,0.11313585699053208,[0.1207859],5.0,0.6,0.0,3.0983162665453117,0.034039129164937586,1.4812684902054536
1.2049221992492676,0.11313585699053208,[0.12073923],5.0,0.6,0.0,2.725184454575019,0.034573226880846714,1.4830064028189105
1.2138080596923828,0.11294045827379541,[0.1206924],5.0,0.6,0.0,2.1349576833542128,0.03501214622747112,1.484671881847956
1.2224948406219482,0.11274505955705873,[0.12064547],5.0,0.6,0.0,1.561349929586437,0.03560334782586045,1.4857828837914928
1.230799913406372,0.11274505955705873,[0.12059846],5.0,0.6,0.0,1.359381133178068,0.036029833502087175,1.4863668939375279
1.2389836311340332,0.11254966084032206,[0.12055148],5.0,0.6,0.0,1.0231032190801943,0.036234021977882766,1.4864972380652
1.2504093647003174,0.11254966084032206,[0.12050443],5.0,0.6,0.0,0.6951933341359319,0.034721583820708064,1.4870644343681865
1.257810354232788,0.11254966084032206,[0.12045714],5.0,0.6,0.0,0.6999768723875968,0.03534436873730432,1.4872076145200734
1.2684082984924316,0.11254966084032206,[0.12040965],5.0,0.6,0.0,0.5265407384931943,0.03479685418994116,1.487513794456155
1.277620792388916,0.11235426212358537,[0.12036198],5.0,0.6,0.0,0.5983906064244633,0.03512201270267819,1.4869906924795118
1.2872262001037598,0.11235426212358537,[0.12031407],5.0,0.6,0.0,0.45235204508088234,0.03464056022554697,1.4872559325371584
1.2959012985229492,0.11235426212358537,[0.12026596],5.0,0.6,0.0,0.5345108713037894,0.035063719702402754,1.4873464276302446
1.3068945407867432,0.11235426212358537,[0.12021765],5.0,0.6,0.0,0.3920865892064279,0.033326755189169645,1.4875951388204747
1.3172557353973389,0.11235426212358537,[0.12016901],5.0,0.6,0.0,0.47574048043664063,0.0328836748948767,1.4876917764541506
1.3248932361602783,0.11254966084032206,[0.12011998],5.0,0.6,0.0,0.3345500587006719,0.032553881986581816,1.4885201686433003
1.3338983058929443,0.11235426212358537,[0.12007072],5.0,0.6,0.0,0.41980970729370204,0.032768567257543374,1.4880306970875359
1.3421645164489746,0.11235426212358537,[0.12002127],5.0,0.6,0.0,0.28071086913378396,0.03222137546971312,1.4882535858772754
1.3498711585998535,0.11235426212358537,[0.11997166],5.0,0.6,0.0,0.09242884706019985,0.03276812225113756,1.4884557709958317
1.3599634170532227,0.11235426212358537,[0.11992202],5.0,0.6,0.0,-0.07702572220432684,0.0320882413995104,1.4886067508665706
1.3691680431365967,0.11235426212358537,[0.11987235],5.0,0.6,0.0,-0.20729717483762633,0.03151019180078584,1.488727336080265
1.37786865234375,0.11235426212358537,[0.11982257],5.0,0.6,0.0,-0.2977125218172918,0.031053258697646486,1.4888408794238746
1.3862450122833252,0.11235426212358537,[0.11977262],5.0,0.6,0.0,-0.3545427365885435,0.03070039556024341,1.4889603827137396
1.3948941230773926,0.11235426212358537,[0.11972253],5.0,0.6,0.0,-0.3855062851430855,0.031323569517282795,1.4890898527109093
1.4029004573822021,0.11235426212358537,[0.11967242],5.0,0.6,0.0,-0.3976316175287663,0.030661566827173112,1.4892283914399398
1.413912296295166,0.11235426212358537,[0.11962229],5.0,0.6,0.0,-0.3966156517444497,0.030114447709242237,1.4893736827524724
1.422837734222412,0.11235426212358537,[0.11957205],5.0,0.6,0.0,-0.38680183362748044,0.0296631466091935,1.4895234475046428
1.4318039417266846,0.11235426212358537,[0.11952161],5.0,0.6,0.0,-0.3713781104980921,0.02926945054996936,1.4896757561653153
1.4398233890533447,0.11235426212358537,[0.11947102],5.0,0.6,0.0,-0.3526219680233111,0.029901345555837785,1.48982894205933
1.4489238262176514,0.11235426212358537,[0.11942037],5.0,0.6,0.0,-0.3321249899732426,0.029240841245383675,1.4899816238697394
1.4576549530029297,0.11235426212358537,[0.11936966],5.0,0.6,0.0,-0.31097638881776474,0.02870099385203671,1.4901331481716331
1.4690828323364258,0.11235426212358537,[0.1193187],5.0,0.6,0.0,-0.2899044825760732,0.027192875923034123,1.490283663698713
1.4790472984313965,0.11235426212358537,[0.11926723],5.0,0.6,0.0,-0.26938208049162987,0.02702946734777898,1.4904336849949935
1.4872331619262695,0.11235426212358537,[0.11921523],5.0,0.6,0.0,-0.24970329017596435,0.027974307759017093,1.490583197780905
1.4976475238800049,0.11235426212358537,[0.11916286],5.0,0.6,0.0,-0.23103867352771099,0.02741290588802474,1.4907317175871184
1.5068602561950684,0.11235426212358537,[0.11911017],5.0,0.6,0.0,-0.21347443388119944,0.026953313066431055,1.4908791552885272
1.5168344974517822,0.11235426212358537,[0.11905711],5.0,0.6,0.0,-0.19704002795551112,0.026524805018105394,1.4910257269072353
1.5279769897460938,0.11235426212358537,[0.11900361],5.0,0.6,0.0,-0.18172748527834343,0.026131186822127984,1.4911716229147622
1.5360181331634521,0.11235426212358537,[0.11894966],5.0,0.6,0.0,-0.1675048358525204,0.02579846795012669,1.4913170005196335
1.5455725193023682,0.11235426212358537,[0.11889521],5.0,0.6,0.0,-0.15432537741430669,0.02547979791335791,1.4914619692143456
1.5538604259490967,0.11235426212358537,[0.11884037],5.0,0.6,0.0,-0.1421340190483923,0.02624030803704669,1.4916063497506582
1.561833143234253,0.11235426212358537,[0.11878529],5.0,0.6,0.0,-0.1308715787667012,0.02562414453432916,1.491749737876043
1.5703949928283691,0.11235426212358537,[0.11873004],5.0,0.6,0.0,-0.12047765481645098,0.02508115685031537,1.4918920500647759
1.5789003372192383,0.11235426212358537,[0.11867466],5.0,0.6,0.0,-0.11089250681767474,0.02577960101453763,1.4920332013759654
1.5877885818481445,0.11235426212358537,[0.11861929],5.0,0.6,0.0,-0.10205825271322856,0.025022570796064122,1.4921728630442606
1.597198724746704,0.11235426212358537,[0.11856396],5.0,0.6,0.0,-0.09391959569004268,0.024409825149763312,1.4923110322352633
1.6074872016906738,0.11235426212358537,[0.11850857],5.0,0.6,0.0,-0.08642423061314744,0.02397199378319844,1.4924479486060742
1.6171047687530518,0.11235426212358537,[0.11845308],5.0,0.6,0.0,-0.07952303414021006,0.023568305510692292,1.4925837746002077
1.6264266967773438,0.11235426212358537,[0.11839744],5.0,0.6,0.0,-0.07317011087792283,0.023237719482630287,1.4927186211808212
1.6347904205322266,0.11235426212358537,[0.11834172],5.0,0.6,0.0,-0.06732274567876427,0.02392901710966152,1.4928523432686884
1.6428983211517334,0.11235426212358537,[0.11828606],5.0,0.6,0.0,-0.06194129661562828,0.023300571719055547,1.4929846034548062
1.6528005599975586,0.11235426212358537,[0.11823049],5.0,0.6,0.0,-0.05698905231089973,0.022739185757987546,1.493115363320577
1.6625511646270752,0.11235426212358537,[0.11817494],5.0,0.6,0.0,-0.05243206972854595,0.022346990006101713,1.4932448081784275
1.6738159656524658,0.11235426212358537,[0.11811935],5.0,0.6,0.0,-0.04823900327470161,0.021935620397730525,1.4933730719838398
1.6841871738433838,0.11235426212358537,[0.11806358],5.0,0.6,0.0,-0.044380932401171275,0.020504645656569287,1.49350048568316
1.6928884983062744,0.11235426212358537,[0.1180075],5.0,0.6,0.0,-0.04083119238165874,0.021528405068859148,1.4936273214558597
1.7012224197387695,0.11235426212358537,[0.11795122],5.0,0.6,0.0,-0.03756521119226745,0.021193943601119338,1.4937533440212283
1.7097938060760498,0.11235426212358537,[0.11789493],5.0,0.6,0.0,-0.03456035423785239,0.021862341251462043,1.4938781248095165
1.7215771675109863,0.11235426212358537,[0.11783869],5.0,0.6,0.0,-0.03179577785758425,0.020224878826218335,1.4940015181388309
1.7311458587646484,0.11235426212358537,[0.11778237],5.0,0.6,0.0,-0.02925229200015133,0.01993371772677448,1.4941238209463583
1.7399554252624512,0.11235426212358537,[0.11772595],5.0,0.6,0.0,-0.026912232099981843,0.020798607524309766,1.4942450705494137
1.7499017715454102,0.11235426212358537,[0.11766962],5.0,0.6,0.0,-0.024759339953883578,0.020317724509053402,1.4943648638851217
1.7602410316467285,0.11235426212358537,[0.11761336],5.0,0.6,0.0,-0.02277865325290828,0.01877506448533152,1.4944832568330042
1.7703478336334229,0.11235426212358537,[0.11755696],5.0,0.6,0.0,-0.020956403339413038,0.018729322828533655,1.494600693705589
1.7779111862182617,0.11235426212358537,[0.11750042],5.0,0.6,0.0,-0.019279920714977493,0.019625760510155497,1.4947171285330363
1.7858517169952393,0.11235426212358537,[0.11744407],5.0,0.6,0.0,-0.01773754780768219,0.020165165982764518,1.4948319445886074
1.794877529144287,0.11235426212358537,[0.11738813],5.0,0.6,0.0,-0.016318558507999972,0.019486942142238693,1.4949446490523846
1.806549310684204,0.11215886340684872,[0.11733257],5.0,0.6,0.0,-0.0150130839948128,0.018967431677837477,1.4946606794502761
1.815908432006836,0.11235426212358537,[0.11727726],5.0,0.6,0.0,-0.013812044392444812,0.01881799198185474,1.4951644109165914
1.825779914855957,0.11235426212358537,[0.11722217],5.0,0.6,0.0,-0.012707085823101198,0.0174121911862412,1.4952717963563158
1.8338191509246826,0.11235426212358537,[0.11716729],5.0,0.6,0.0,-0.011690522444689523,0.01826028209701604,1.4953775700177205
1.8418803215026855,0.11235426212358537,[0.11711271],5.0,0.6,0.0,-0.010755283090319864,0.017864591965512388,1.4954815921851967
1.8508646488189697,0.11235426212358537,[0.11705858],5.0,0.6,0.0,-0.00989486215193813,0.01844835960663757,1.4955835869627299
1.8606820106506348,0.11235426212358537,[0.11700496],5.0,0.6,0.0,-0.009103274375973773,0.017065157823052058,1.4956834740685396
1.871819019317627,0.11235426212358537,[0.11695176],5.0,0.6,0.0,-0.00837501326322935,0.016884474992577534,1.4957814751389658
1.879807949066162,0.11235426212358537,[0.11689895],5.0,0.6,0.0,-0.007705012788304452,0.01756023204654223,1.4958776330736279
1.887793779373169,0.11235426212358537,[0.1168467],5.0,0.6,0.0,-0.007088612175533504,0.01717492792947089,1.495971697921527
1.897697925567627,0.11235426212358537,[0.11679506],5.0,0.6,0.0,-0.006521523488696213,0.01686350180520288,1.49606359422611
1.907660961151123,0.11235426212358537,[0.11674402],5.0,0.6,0.0,-0.005999801810644294,0.016608008554282433,1.496153388528534
1.9158799648284912,0.11235426212358537,[0.11669358],5.0,0.6,0.0,-0.005519817806523386,0.01640105994824407,1.4962411294646012
1.9238076210021973,0.11235426212358537,[0.11664379],5.0,0.6,0.0,-0.005078232480512958,0.017024382248267363,1.496326725629196
1.935511827468872,0.11235426212358537,[0.11659475],5.0,0.6,0.0,-0.004671973951029931,0.015893722159218797,1.4964100909371718
1.9447815418243408,0.11235426212358537,[0.11654645],5.0,0.6,0.0,-0.004298216083218145,0.016560573003690196,1.496491274575223
1.9528465270996094,0.11235426212358537,[0.11649895],5.0,0.6,0.0,-0.003954358830350124,0.01631573648548355,1.4965702009438029
1.9622395038604736,0.11235426212358537,[0.11645233],5.0,0.6,0.0,-0.0036380101475747125,0.01609973017563477,1.4966467962749903
1.9717702865600586,0.11235426212358537,[0.11640665],5.0,0.6,0.0,-0.003346969352325557,0.01658925885805141,1.4967210125737997
1.9807701110839844,0.11235426212358537,[0.11635914],5.0,0.6,0.0,-0.003079211815729286,-0.015366371262286313,1.4967973168653514
1.9898364543914795,0.11235426212358537,[0.11630198],5.0,0.6,0.0,-0.0028328748785837856,-0.03491810959520291,1.496887947510128
1.9987554550170898,0.11235426212358537,[0.11622703],5.0,0.6,0.0,-0.0026062448939760674,-0.04081075506815137,1.4970048268452318
2.008075475692749,0.11235426212358537,[0.11613009],5.0,0.6,0.0,-0.002397745306433277,-0.037211085010697954,1.497152681697525
2.017669916152954,0.11196346469011205,[0.11601117],5.0,0.6,0.0,-0.002205925684701318,-0.021139911169106237,1.4967285825381929
2.0257608890533447,0.11196346469011205,[0.11587349],5.0,0.6,0.0,-0.27806781131055414,-0.01046748906324047,1.4968894628649012
2.036191940307617,0.11157266725663871,[0.11572141],5.0,0.6,0.0,-0.5870684180214903,0.0007284043288406817,1.496307020828115
2.043833017349243,0.11137726853990204,[0.1155593],5.0,0.6,0.0,-0.840984756630488,0.008995021002941337,1.4959820368673313
2.053778886795044,0.1109864711064287,[0.11539163],5.0,0.6,0.0,-1.0188280394953861,0.01933037898659037,1.4953543329675802
2.0627875328063965,0.11079107238969202,[0.1152232],5.0,0.6,0.0,-1.4021979978710897,0.02859831665071226,1.4946174846292664
2.0727338790893555,0.11040027495621868,[0.11505899],5.0,0.6,0.0,-1.4860425180167538,0.0383972708250554,1.4940274988835451
2.081883668899536,0.11020487623948202,[0.11490341],5.0,0.6,0.0,-1.163638518329788,0.0404784105508059,1.4945875380601712
2.0903918743133545,0.11020487623948202,[0.11476014],5.0,0.6,0.0,-1.0337539526559625,0.0480048283653148,1.4950636371429271
2.0997684001922607,0.10981407880600867,[0.11463314],5.0,0.6,0.0,-0.7020953051018424,0.056584453923786145,1.494999281676679
2.1127681732177734,0.10981407880600867,[0.1145273],5.0,0.6,0.0,-0.0840170428776475,0.07027823640180159,1.495561706567486
2.1224160194396973,0.10961868008927202,[0.11444772],5.0,0.6,0.0,0.2338233102835651,0.07443879572490175,1.4953062342074945
2.1317875385284424,0.10961868008927202,[0.11439812],5.0,0.6,0.0,0.6678298695811457,0.0772566018905704,1.4951099136320387
2.1398022174835205,0.10961868008927202,[0.11438004],5.0,0.6,0.0,1.048766742553122,0.07071489858477584,1.4946580455253609
2.148804187774658,0.10942328137253533,[0.11439374],5.0,0.6,0.0,1.051613610074261,0.07653548999363473,1.494248553482699
2.157754898071289,0.10942328137253533,[0.11443998],5.0,0.6,0.0,1.1955935873690025,0.08036199590543291,1.4939162469196399
2.165914297103882,0.10942328137253533,[0.11451907],5.0,0.6,0.0,1.3433151072764167,0.0740238344367326,1.4934785769235046
2.17588210105896,0.10942328137253533,[0.11463007],5.0,0.6,0.0,1.448054533835384,0.07907816942104218,1.4930340781525193
2.1838326454162598,0.10961868008927202,[0.11477177],5.0,0.6,0.0,1.2256382212052426,0.0727626653303226,1.4935862260944748
2.191995620727539,0.10942328137253533,[0.11494279],5.0,0.6,0.0,1.2014675609801562,0.07941971835117351,1.4928521283646976
2.200554847717285,0.10942328137253533,[0.11514239],5.0,0.6,0.0,0.9552684558618171,0.08378486970989948,1.4928008865728717
2.2116901874542236,0.10942328137253533,[0.11537039],5.0,0.6,0.0,0.948929159668676,0.08698529389140229,1.4922814798315536
2.2218270301818848,0.10942328137253533,[0.11562621],5.0,0.6,0.0,0.7336036786314396,0.08935286336851031,1.4919338197402512
2.229848623275757,0.10961868008927202,[0.11590804],5.0,0.6,0.0,0.4830932433279025,0.08136602000150761,1.4919463066849785
2.238750696182251,0.10942328137253533,[0.11621307],5.0,0.6,0.0,0.2630531165383538,0.08622746619993425,1.490770621700782
2.2487845420837402,0.10961868008927202,[0.11653923],5.0,0.6,0.0,0.09147541578186365,0.08776778416928696,1.4904607114304973
2.2577741146087646,0.10942328137253533,[0.11688198],5.0,0.6,0.0,-0.032995325637631016,0.0570784894024775,1.4889344266086921
2.266878604888916,0.10942328137253533,[0.11723137],5.0,0.6,0.0,-0.11825224137325849,0.03912239238346166,1.4878703770815047
2.2761144638061523,0.10961868008927202,[0.11757691],5.0,0.6,0.0,-0.17326446435243104,0.030292547479897416,1.487390842941929
2.285090684890747,0.10942328137253533,[0.11791183],5.0,0.6,0.0,-0.20600640032575343,0.036250118456762744,1.4856606626559954
2.2927684783935547,0.10942328137253533,[0.11823272],5.0,0.6,0.0,-0.22288425924435235,0.04029746143683591,1.484561610232764
2.3028409481048584,0.10942328137253533,[0.11853784],5.0,0.6,0.0,-0.22877248104586428,0.04392208039283369,1.4834832706139582
2.3111989498138428,0.10942328137253533,[0.11882598],5.0,0.6,0.0,-0.22725800778083585,0.04672535834503827,1.4824348221221975
2.320071220397949,0.10942328137253533,[0.11909634],5.0,0.6,0.0,-0.22092052053136702,0.048968098266824446,1.4814240637753704
2.3288094997406006,0.10942328137253533,[0.11934843],5.0,0.6,0.0,-0.21158309910993192,0.05044930266136587,1.4804577750467869
2.33880877494812,0.10942328137253533,[0.119582],5.0,0.6,0.0,-0.20051481176587627,0.05206803849742213,1.479541683957131
2.347761869430542,0.10942328137253533,[0.11979712],5.0,0.6,0.0,-0.18858598244891694,0.05342263794340729,1.478680182047951
2.355760335922241,0.10942328137253533,[0.11999406],5.0,0.6,0.0,-0.17638350439751818,0.054266877481329766,1.477876452217816
2.366523027420044,0.10961868008927202,[0.12017326],5.0,0.6,0.0,-0.16429478023062527,0.05462532648305461,1.477946439752508
2.374777317047119,0.10961868008927202,[0.12033537],5.0,0.6,0.0,-0.15256800504348544,0.05535596493396356,1.4772749658454274
2.3847672939300537,0.10942328137253533,[0.12048112],5.0,0.6,0.0,-0.14135504865286105,0.05675007976880799,1.4758265823368668
2.3928933143615723,0.10942328137253533,[0.12061126],5.0,0.6,0.0,-0.13074174304509867,0.05739872252363482,1.4752638699261116
2.4027655124664307,0.10961868008927202,[0.12072664],5.0,0.6,0.0,-0.12076915213835188,0.05691381672868844,1.4756137664885014
2.413491725921631,0.10942328137253533,[0.12082819],5.0,0.6,0.0,-0.1114484338119534,0.05832593298987642,1.4743118110998024
2.423813581466675,0.10961868008927202,[0.12091685],5.0,0.6,0.0,-0.1027711737326994,0.05774170212256906,1.4747855421503695
2.434746026992798,0.10961868008927202,[0.12099357],5.0,0.6,0.0,-0.09471653253929184,0.05803690714421004,1.4744476541789497
2.4431588649749756,0.10942328137253533,[0.12105931],5.0,0.6,0.0,-0.08725615806340284,0.05925137207540894,1.4732782567832374
2.451403856277466,0.10961868008927202,[0.12111502],5.0,0.6,0.0,-0.08035753472421275,0.05854073418024003,1.4739083441682916
2.461613178253174,0.10942328137253533,[0.12116161],5.0,0.6,0.0,-0.07398624326879537,0.059638946262432616,1.4728145065791225
2.4716882705688477,0.10961868008927202,[0.12120055],5.0,0.6,0.0,-0.06810746313725663,0.0651231226314081,1.4735252621009043
2.4819016456604004,0.10961868008927202,[0.12123446],5.0,0.6,0.0,-0.06268695031935193,0.07121998536814295,1.4733726438286405
2.4937310218811035,0.10961868008927202,[0.12126665],5.0,0.6,0.0,-0.057691653608007244,0.07765361096110993,1.4732273292647864
2.502828359603882,0.10942328137253533,[0.12130009],5.0,0.6,0.0,-0.05309008301483413,0.07913402637601533,1.472180420531681
2.5117568969726562,0.10961868008927202,[0.12133758],5.0,0.6,0.0,-0.048852509648237286,0.087841208764476,1.4729054886467288
2.5202622413635254,0.10942328137253533,[0.1213833],5.0,0.6,0.0,-0.04495105221247249,0.10179121033641424,1.4717954497546062
2.527775764465332,0.10961868008927202,[0.12144189],5.0,0.6,0.0,-0.04135968839268116,0.10197391238752354,1.472428283666914
2.5367560386657715,0.10942328137253533,[0.12151791],5.0,0.6,0.0,-0.03805421758228161,0.12282993086196664,1.4711667056268243
2.544752597808838,0.10942328137253533,[0.12161657],5.0,0.6,0.0,-0.035012193163894686,0.12411523402385083,1.4707015886114438
2.5527873039245605,0.10961868008927202,[0.12174364],5.0,0.6,0.0,-0.03221283680526259,0.14952568952712822,1.4710243761379498
2.5614523887634277,0.10961868008927202,[0.12190801],5.0,0.6,0.0,-0.02963694322834852,0.1771098464592914,1.4702454652761427
2.568852424621582,0.10961868008927202,[0.1221186],5.0,0.6,0.0,-0.027266781128021098,0.1744390297681778,1.4692330646533711
2.577716588973999,0.10981407880600867,[0.1223824],5.0,0.6,0.0,-0.025085993988680624,0.20775182661796518,1.4689008007919933
2.586798667907715,0.11000947752274534,[0.12271037],5.0,0.6,0.0,0.2529588564632926,0.23955726343947398,1.4682047127254116
2.5968174934387207,0.11020487623948202,[0.12311715],5.0,0.6,0.0,0.5639679074384991,0.2696087007098766,1.4669677379398605
2.607412576675415,0.11079107238969202,[0.12361775],5.0,0.6,0.0,0.8197320964076353,0.29563071669963836,1.4671308006385093
2.615727663040161,0.11137726853990204,[0.12422716],5.0,0.6,0.0,1.2753138184284702,0.3192592351710062,1.4663061620959548
2.6242899894714355,0.11176806597337538,[0.12495466],5.0,0.6,0.0,1.6933724930868523,0.30105719584500773,1.4636905075386677
2.6334586143493652,0.11254966084032206,[0.125804],5.0,0.6,0.0,1.9995971283923895,0.3314319721171913,1.4625070480028053
2.6422181129455566,0.1135266544240054,[0.12678445],5.0,0.6,0.0,2.7397100761349114,0.3539019243734304,1.4599005118056407
2.6541545391082764,0.11489444544116212,[0.12791628],5.0,0.6,0.0,3.4460370794974438,0.39210159483760026,1.4578927956791166
2.663883924484253,0.11606683774158212,[0.1292236],5.0,0.6,0.0,4.518007152534135,0.3942432816076465,1.4510059279061984
2.6737985610961914,0.11763002747547549,[0.13072067],5.0,0.6,0.0,4.897747174941159,0.3947371488657085,1.4487661431118668
2.683760404586792,0.1195840146428422,[0.13241938],5.0,0.6,0.0,5.0,0.39009877559722766,1.4493196522267167
2.6942496299743652,0.12192879924368223,[0.13433513],5.0,0.6,0.0,5.0,0.3890135069305864,1.4514176341285252
2.701808452606201,0.12349198897757559,[0.13645803],5.0,0.6,0.0,5.0,0.39066560534109157,1.448667428444172
2.710862874984741,0.12583677357841566,[0.13875648],5.0,0.6,0.0,5.0,0.39030014371059923,1.4488994069298946
2.720499038696289,0.1281815581792557,[0.1412155],5.0,0.6,0.0,5.0,0.39005770216008706,1.4483260688138766
2.7287757396698,0.13072174149683238,[0.14382728],5.0,0.6,0.0,5.0,0.3822405689393875,1.447964335374226
2.737748384475708,0.13345732353114578,[0.14657606],5.0,0.6,0.0,5.0,0.38448468995415747,1.4478974267706266
2.7467572689056396,0.13638830428219584,[0.14945329],5.0,0.6,0.0,5.0,0.38447551814357833,1.4481694374592171
2.7547364234924316,0.13873308888303587,[0.15244967],5.0,0.6,0.0,4.6810571152543705,0.3689572599668196,1.4470219074126112
2.7627556324005127,0.14146867091734927,[0.15554839],5.0,0.6,0.0,4.443953132485494,0.37715759338292504,1.4466410380553016
2.770782232284546,0.14420425295166264,[0.15873982],5.0,0.6,0.0,3.9488852356106907,0.3819157766595665,1.4471495899342255
2.7790534496307373,0.1471352337027127,[0.1620203],5.0,0.6,0.0,3.4174292359726866,0.383917089905928,1.4480358563381082
2.7874748706817627,0.1504570118872361,[0.16537824],5.0,0.6,0.0,2.934223756344493,0.3601549207342898,1.4500801125807312
2.796664237976074,0.15416958750523282,[0.1687955],5.0,0.6,0.0,2.799191659891344,0.36480525504501493,1.4523199953517596
2.80527400970459,0.15768676440649287,[0.17226106],5.0,0.6,0.0,2.2162604718705747,0.3667594676356045,1.4547646679822601
2.8128128051757812,0.16061774515754293,[0.17576415],5.0,0.6,0.0,1.5732675764265047,0.34104969748205805,1.453314859305379
2.821110486984253,0.164134922058803,[0.17928815],5.0,0.6,0.0,1.0142242504094778,0.3489215650992208,1.454349328869295
2.8299689292907715,0.16784749767679974,[0.18282323],5.0,0.6,0.0,0.30022186700754905,0.35105061577050417,1.4560695115796891
2.8392105102539062,0.17175547201153316,[0.18636507],5.0,0.6,0.0,-0.6076579021087412,0.3486626114446908,1.4579354528630692
2.8477749824523926,0.1748818514793199,[0.18990331],5.0,0.6,0.0,-1.3981771384676283,0.31814257002944957,1.4544211956180415
2.8564414978027344,0.17839902838057992,[0.19342294],5.0,0.6,0.0,-1.983929502708782,0.32440238754637274,1.4529388587300374
2.8671720027923584,0.18250240143205002,[0.19691981],5.0,0.6,0.0,-2.6446851905684747,0.3491284583712919,1.454100335370715
2.875807523727417,0.18582417961657338,[0.2003942],5.0,0.6,0.0,-3.4483505053318155,0.31339947664515405,1.4496577008618126
2.884860038757324,0.18934135651783346,[0.20384003],5.0,0.6,0.0,-4.103956104089105,0.338010291888724,1.4464475481841423
2.8937714099884033,0.19324933085256688,[0.2072486],5.0,0.6,0.0,-4.538073937279504,0.2787813614244285,1.4464646761052207
2.9027259349823,0.19676650775382695,[0.21059252],5.0,0.6,0.0,-4.487895074725177,0.15974552012204765,1.4477193515937343
2.9116921424865723,0.20008828593835032,[0.21382876],5.0,0.6,0.0,-4.513490278808328,0.10614679390470164,1.4480069342104127
2.920215606689453,0.2036054628396104,[0.216924],5.0,0.6,0.0,-4.780498119905884,0.07377177658785922,1.4484194813919904
2.929002523422241,0.20653644359066042,[0.21985948],5.0,0.6,0.0,-4.741105003196028,0.07850730329251493,1.4486662740994294
2.936891555786133,0.20966282305844713,[0.22262634],5.0,0.6,0.0,-4.553642210208738,0.07470055189635688,1.4517482115002522
2.9447412490844727,0.21278920252623387,[0.22522059],5.0,0.6,0.0,-4.299475205605214,0.07055530142746429,1.4559918957351519
2.9543349742889404,0.2166971768609673,[0.22764305],5.0,0.6,0.0,-4.296565832947211,0.08884728796668702,1.4627675120887764
2.9618074893951416,0.21923736017854403,[0.22989893],5.0,0.6,0.0,-4.32355540858541,0.07787029310674576,1.4637993105755678
2.9697930812835693,0.22236373964633074,[0.23199325],5.0,0.6,0.0,-4.579200120979435,0.078487961038728,1.466257147772488
2.979708671569824,0.2256855178308541,[0.23393199],5.0,0.6,0.0,-4.804948890602158,0.07509041290496066,1.4695968483719708
2.9880123138427734,0.22842109986516748,[0.2357231],5.0,0.6,0.0,-4.920519513736965,0.07198645969829587,1.4716907178177676
2.9957737922668457,0.2311566818994809,[0.23737382],5.0,0.6,0.0,-4.919608121142227,0.05579899514446079,1.474603571853379
3.005138635635376,0.23389226393379428,[0.23889079],5.0,0.6,0.0,-5.0,0.053313858068589834,1.4767474725428091
3.012787103652954,0.2360416498178977,[0.24028116],5.0,0.6,0.0,-4.914611224610766,0.04072514344378336,1.4787513970099504
3.0207629203796387,0.23877723185221103,[0.24155242],5.0,0.6,0.0,-4.945780430243683,0.037692265118697534,1.480579825299693
3.0299627780914307,0.24131741516978775,[0.2427132],5.0,0.6,0.0,-4.94920979153256,0.0334789535350524,1.4817050502041598
3.0387558937072754,0.24385759848736446,[0.24377294],5.0,0.6,0.0,-4.607626467120729,0.027315028018506646,1.4844419272184575
3.0474116802215576,0.24600698437146784,[0.2447398],5.0,0.6,0.0,-4.4405967316247,0.012567399164794109,1.4852135158874153
3.056321859359741,0.2483517689723079,[0.24562081],5.0,0.6,0.0,-4.308221740724337,0.008252736265066219,1.4848819850337882
3.0648369789123535,0.2506965535731479,[0.24642365],5.0,0.6,0.0,-4.160458164966166,0.0023346298395685743,1.4836345913686133
3.0757856369018555,0.253041338173988,[0.24715648],5.0,0.6,0.0,-4.261927405976894,-0.004685615401843476,1.4797574921457806
3.087810516357422,0.25558152149156466,[0.24782827],5.0,0.6,0.0,-4.649265689002168,0.0022833715270364195,1.472214835500274
3.0973892211914062,0.2575355086589314,[0.24844786],5.0,0.6,0.0,-4.447191622155923,-0.01693260089452356,1.4691108386454945
3.1057915687561035,0.25909869839282473,[0.2490203],5.0,0.6,0.0,-4.316392911564605,-0.030611044564059515,1.4662116159788394
3.114428758621216,0.2604664894099814,[0.24954885],5.0,0.6,0.0,-3.9055615460823123,-0.03372096513211809,1.4652162471180357
3.1230993270874023,0.26163888171040145,[0.25003805],5.0,0.6,0.0,-3.9878276059710993,-0.036155341771150054,1.4617441644769822
3.1319501399993896,0.26281127401082144,[0.25049276],5.0,0.6,0.0,-4.441424913857563,-0.03887031221580914,1.4556360394800263
3.143953561782837,0.2639836663112415,[0.25091733],5.0,0.6,0.0,-4.875110296134567,-0.041824093738375756,1.449047936784397
3.153071880340576,0.26476526117818816,[0.25131508],5.0,0.6,0.0,-5.0,-0.04924736003771473,1.446197300937759
3.16381573677063,0.2653514573283982,[0.25168845],5.0,0.6,0.0,-5.0,-0.047490635234746385,1.4450848782503536
3.1756792068481445,0.2659376534786082,[0.25204076],5.0,0.6,0.0,-5.0,-0.04045334300754033,1.4438437653409475
3.1839699745178223,0.2661330521953449,[0.25237552],5.0,0.6,0.0,-5.0,-0.045419041548617825,1.4445856277355116
3.1952435970306396,0.2661330521953449,[0.25269471],5.0,0.6,0.0,-5.0,-0.041731219186635464,1.4462587090827985
3.202817440032959,0.2661330521953449,[0.25299957],5.0,0.6,0.0,-4.822804385876465,-0.0438596569570733,1.4490726260599684
3.2117908000946045,0.2661330521953449,[0.25329458],5.0,0.6,0.0,-4.23626822334116,-0.0036041296514641176,1.4543900367312075
3.2225325107574463,0.2657422547618715,[0.25359117],5.0,0.6,0.0,-4.130607775776232,0.03367874037563251,1.4583610287217845
3.231729745864868,0.26554685604513484,[0.25390141],5.0,0.6,0.0,-3.0461440614450788,0.0335161050812121,1.4663814583199861
3.2407798767089844,0.2653514573283982,[0.25423053],5.0,0.6,0.0,-2.0920384318794625,0.030374547324688857,1.4723210201341597
3.250915050506592,0.2653514573283982,[0.2545794],5.0,0.6,0.0,-1.0600453543645754,0.027497933686599866,1.4762240084795981
3.2602057456970215,0.2651560586116615,[0.25494797],5.0,0.6,0.0,0.3657460602718846,0.02650965358887651,1.4792750786294386
3.268749952316284,0.26496065989492484,[0.2553357],5.0,0.6,0.0,1.3670128582786418,0.02630397890888571,1.4802534525676876
3.2787301540374756,0.26496065989492484,[0.25574168],5.0,0.6,0.0,2.300976243488669,0.025610067920316223,1.4792200039064247
3.2874560356140137,0.26496065989492484,[0.25616471],5.0,0.6,0.0,3.284241531345071,0.025154390514900996,1.4766801924913553
3.295731544494629,0.26476526117818816,[0.25660253],5.0,0.6,0.0,4.057150728784738,0.017283269151715477,1.4746581076414986
3.305171012878418,0.26476526117818816,[0.2570521],5.0,0.6,0.0,4.566786708851259,0.0201176793203845,1.4728855964307814
3.3127996921539307,0.26476526117818816,[0.25751056],5.0,0.6,0.0,5.0,0.013857221199240485,1.4712611232490844
3.3217952251434326,0.2645698624614515,[0.25797529],5.0,0.6,0.0,5.0,0.019186703213741118,1.4730720974339868
3.329730749130249,0.26476526117818816,[0.25844461],5.0,0.6,0.0,5.0,0.021410582099333674,1.473773777257726
3.3386940956115723,0.2645698624614515,[0.25891765],5.0,0.6,0.0,5.0,0.02485245938243586,1.4753629326604005
3.3507463932037354,0.26476526117818816,[0.25939344],5.0,0.6,0.0,5.0,0.02575401976638315,1.4759773835462529
3.359683036804199,0.2645698624614515,[0.25987094],5.0,0.6,0.0,4.750224425921429,0.02826490490172439,1.4790756431184395
3.3711020946502686,0.26476526117818816,[0.26034972],5.0,0.6,0.0,4.647122076211421,0.035376888628939396,1.4802879884262472
3.3792526721954346,0.26476526117818816,[0.26082921],5.0,0.6,0.0,4.279034126599777,0.02757957619233168,1.4834603184032207
3.3877692222595215,0.26476526117818816,[0.26130688],5.0,0.6,0.0,3.844209114726823,0.022595097997414947,1.4867301992448354
3.398063898086548,0.26476526117818816,[0.26178045],5.0,0.6,0.0,3.4243810116848636,0.03253430526297616,1.4895663983462366
3.4074811935424805,0.2645698624614515,[0.26224917],5.0,0.6,0.0,3.048056680724243,0.02808063843470615,1.49205510102792
3.420445203781128,0.26476526117818816,[0.26271227],5.0,0.6,0.0,2.7206655070876358,0.03571303454611627,1.493677584500246
3.4297358989715576,0.2645698624614515,[0.26316905],5.0,0.6,0.0,2.438587147015264,0.03124514756648014,1.4952004272608002
3.4397244453430176,0.2645698624614515,[0.26361831],5.0,0.6,0.0,2.1954313555601486,0.033446787008350604,1.4962438196575407
3.4506776332855225,0.2645698624614515,[0.26405951],5.0,0.6,0.0,1.9846630553095337,0.04078336104298166,1.4970243809600592
3.459709644317627,0.26476526117818816,[0.2644932],5.0,0.6,0.0,1.8005535476106733,0.03987490290470124,1.4975776701434322
3.4681508541107178,0.2645698624614515,[0.26491933],5.0,0.6,0.0,1.638402335004935,0.04123013345512059,1.4979813223159826
3.477674722671509,0.2645698624614515,[0.26533737],5.0,0.6,0.0,1.494469595794211,0.041895329282439976,1.498222380472133
3.4857289791107178,0.26476526117818816,[0.26574693],5.0,0.6,0.0,1.3658167903171892,0.04180453075326633,1.498420565240262
3.4936940670013428,0.26476526117818816,[0.26614724],5.0,0.6,0.0,1.2501383550592475,0.03790307676964461,1.4984560662551585
3.5040690898895264,0.26476526117818816,[0.26653778],5.0,0.6,0.0,1.145614909450148,0.04567487823873834,1.4983958096475773
3.511704921722412,0.26476526117818816,[0.26691819],5.0,0.6,0.0,1.050795446260302,0.04763563076169697,1.4982521357164116
3.519834518432617,0.26476526117818816,[0.26728742],5.0,0.6,0.0,0.9645068180604022,0.04880059110383084,1.498036530487008
3.5322697162628174,0.26476526117818816,[0.26764578],5.0,0.6,0.0,0.8857858762685222,0.05621340388667174,1.4977581695508766
3.541637420654297,0.26476526117818816,[0.26799531],5.0,0.6,0.0,0.8138292779252587,0.05757777035046771,1.4974227429471931
3.552966594696045,0.26476526117818816,[0.26833839],5.0,0.6,0.0,0.7479566005225675,0.06734363197169779,1.4970335337925795
3.562872886657715,0.2645698624614515,[0.26867707],5.0,0.6,0.0,0.6875832751629813,0.0629799384053031,1.4962800494876274
3.5726733207702637,0.26476526117818816,[0.26901239],5.0,0.6,0.0,0.6322006736776395,0.0675391838056519,1.4961014546243863
3.5845227241516113,0.26476526117818816,[0.26934681],5.0,0.6,0.0,0.5813613714778885,0.08374321831098998,1.4955591607016838
3.593332529067993,0.26476526117818816,[0.26968378],5.0,0.6,0.0,0.5346681426083144,0.07812166261021605,1.4949605598652806
3.6031534671783447,0.26476526117818816,[0.27002517],5.0,0.6,0.0,0.4917656451249775,0.08670268508448825,1.4943019665167772
3.6113312244415283,0.26476526117818816,[0.27037332],5.0,0.6,0.0,0.4523340499283436,0.09578406819670787,1.493577393583789
3.618776321411133,0.26476526117818816,[0.27073063],5.0,0.6,0.0,0.41608407975624806,0.09115740079102806,1.4927792764431134
3.629685163497925,0.26476526117818816,[0.27109993],5.0,0.6,0.0,0.3827530782176781,0.1187874480483038,1.4918974709900237
3.638288736343384,0.26476526117818816,[0.27148542],5.0,0.6,0.0,0.35210183793281824,0.11124016425769359,1.490916278220281
3.6475327014923096,0.26496065989492484,[0.27188973],5.0,0.6,0.0,0.3239119943705825,0.12279536655515319,1.4903654714155548
3.6561872959136963,0.26496065989492484,[0.27231567],5.0,0.6,0.0,0.29798384689741064,0.1344835495744058,1.4891729809796816
3.664783477783203,0.26496065989492484,[0.27276582],5.0,0.6,0.0,0.2741345074220499,0.12670736374549887,1.487833872823715
3.6760969161987305,0.2651560586116615,[0.27324278],5.0,0.6,0.0,0.52823466421192,0.15984044222507574,1.4867984799732001
3.6836891174316406,0.2653514573283982,[0.27375264],5.0,0.6,0.0,0.5411783533598948,0.16716686224174473,1.4857652274061033
3.6929690837860107,0.26554685604513484,[0.27430082],5.0,0.6,0.0,0.7435545784274264,0.1743505650985607,1.4843790913643942
3.7006635665893555,0.2659376534786082,[0.27488614],5.0,0.6,0.0,0.959553942357095,0.17511429420515107,1.4834275271615278
3.711698532104492,0.2663284509120815,[0.27550347],5.0,0.6,0.0,1.4034237902241307,0.18129987442451523,1.481840711447835
3.71972393989563,0.2667192483455549,[0.27615252],5.0,0.6,0.0,1.5434532176628917,0.18766365480126615,1.4805899246361398
3.728647232055664,0.2671100457790282,[0.27683725],5.0,0.6,0.0,1.8165573595771087,0.19391444215699385,1.4788038141883248
3.7396926879882812,0.2678916406459749,[0.27756115],5.0,0.6,0.0,2.0588230842737976,0.1979635190950759,1.4783284666218437
3.7477304935455322,0.2684778367961849,[0.27832479],5.0,0.6,0.0,2.220422473922784,0.17897980567576138,1.477137653507343
3.7570812702178955,0.2692594316631316,[0.27912614],5.0,0.6,0.0,2.298698349966031,0.18890146647662145,1.4767999419372049
3.764716625213623,0.2698456278133416,[0.27996318],5.0,0.6,0.0,2.3076872579804206,0.1732671739519321,1.4757865934328998
3.77370023727417,0.27062722268028827,[0.28083389],5.0,0.6,0.0,2.2649656226710184,0.18620153436700138,1.4755760632201178
3.782773733139038,0.2717996149807083,[0.28173864],5.0,0.6,0.0,2.186530715648089,0.1937357140382246,1.4768907490343697
3.7916080951690674,0.272581209847655,[0.2826798],5.0,0.6,0.0,2.3612987585586653,0.20036062082810363,1.4756768950694548
3.801130533218384,0.27355820343133835,[0.28365889],5.0,0.6,0.0,2.280018278413438,0.20404561142383454,1.475947159364089
3.808649778366089,0.27473059573175834,[0.28467427],5.0,0.6,0.0,2.3804116054095523,0.1812843046931708,1.4762186027408106
3.816757917404175,0.2759029880321784,[0.28572156],5.0,0.6,0.0,2.21562586723232,0.18854631470462743,1.4772628742230962
3.8250250816345215,0.2770753803325984,[0.28679887],5.0,0.6,0.0,1.9701742499161603,0.19297509349559144,1.4783872718540891
3.8326783180236816,0.2780523739162818,[0.2879041],5.0,0.6,0.0,1.7217419358083315,0.1729096679531015,1.4785740583769817
3.8417508602142334,0.27961556365017515,[0.28903252],5.0,0.6,0.0,1.7749294334630692,0.17843996173098794,1.4800808888550159
3.8515918254852295,0.2811787533840685,[0.29018188],5.0,0.6,0.0,1.8938337327493868,0.18062420622277245,1.4812566720777662
3.8602333068847656,0.2827419431179618,[0.29135195],5.0,0.6,0.0,1.712542660825002,0.18038641903912245,1.483104499387034
3.8687593936920166,0.28410973413511853,[0.29254184],5.0,0.6,0.0,1.7245218307851897,0.1791449301765758,1.4836716234673741
3.879638910293579,0.28586832258574857,[0.29375004],5.0,0.6,0.0,1.4997253546916656,0.1746278626350448,1.4859810810404257
3.888766288757324,0.2874315123196419,[0.29497458],5.0,0.6,0.0,1.2234017467703218,0.17057435055993936,1.48757202191324
3.8988919258117676,0.28938549948700865,[0.29621511],5.0,0.6,0.0,0.9683070669442057,0.1837898705505164,1.4900171801045579
3.9076898097991943,0.2907532905041653,[0.29747083],5.0,0.6,0.0,0.7568964063284103,0.1552346305185352,1.4905892676666705
3.915731906890869,0.2923164802380587,[0.29873474],5.0,0.6,0.0,0.3145989088607133,0.1329376015792238,1.491721364997817
3.92366623878479,0.29387966997195203,[0.29999682],5.0,0.6,0.0,0.15425554721791834,0.11623002513072957,1.4925263182967872
3.931770086288452,0.29544285970584544,[0.30125038],5.0,0.6,0.0,-0.16272277022242054,0.12319969356275667,1.4932575202589207
3.9406654834747314,0.2972014481564754,[0.30249347],5.0,0.6,0.0,-0.19192063019457395,0.12580810270411155,1.4943871451855066
3.948777914047241,0.29896003660710546,[0.30372438],5.0,0.6,0.0,-0.3966409015835858,0.10723591510403999,1.4953534004697622
3.958709716796875,0.3009140237744722,[0.30493982],5.0,0.6,0.0,-0.6142228470658995,0.11056207270418944,1.4964830797116813
3.9670467376708984,0.3024772135083655,[0.30613878],5.0,0.6,0.0,-0.7872350077998669,0.11298832123159742,1.4968610539779186
3.9746835231781006,0.3040404032422589,[0.30732048],5.0,0.6,0.0,-0.9035765672117685,0.09544112953954398,1.4972431331408271
3.987037181854248,0.306385187843099,[0.30848429],5.0,0.6,0.0,-0.9687223779031926,0.11401865978919287,1.4984210650816359
3.9978415966033936,0.30853457372720233,[0.30963492],5.0,0.6,0.0,-1.2694191446190777,0.12596926079795978,1.4985597695408046
4.0070414543151855,0.3102931621778323,[0.31077648],5.0,0.6,0.0,-1.5735979037633965,0.09991214684627764,1.4981133833384122
4.015848875045776,0.31205175062846235,[0.31190754],5.0,0.6,0.0,-1.8022207253870965,0.09849152553210261,1.497583864643766
4.023705005645752,0.31361494036235577,[0.31302546],5.0,0.6,0.0,-1.9414495503160198,0.07976229330195911,1.4971325490388632
4.032538414001465,0.3151781300962491,[0.31412834],5.0,0.6,0.0,-2.002142636968917,0.0850071441739778,1.496804514346739
4.041264772415161,0.3167413198301425,[0.31521687],5.0,0.6,0.0,-2.0019898177892674,0.089468371960534,1.4965606730100665
4.048703670501709,0.31810911084729915,[0.31629211],5.0,0.6,0.0,-1.9582497747621923,0.07390767131972299,1.4964934700570438
4.05969500541687,0.3202584967314025,[0.31735583],5.0,0.6,0.0,-2.1613246162129593,0.10198340763182633,1.4948510493482319
4.068697214126587,0.3218216864652959,[0.31841446],5.0,0.6,0.0,-2.1033153755166802,0.10536712151440024,1.4943984954363276
4.078076124191284,0.32358027491592595,[0.31947454],5.0,0.6,0.0,-2.2230573912737865,0.10879466570248097,1.492968946962287
4.085915803909302,0.32514346464981925,[0.32054075],5.0,0.6,0.0,-2.0745692802411124,0.11441860571293917,1.4925784362774026
4.093668222427368,0.3263158569502393,[0.32161558],5.0,0.6,0.0,-2.1190673377941547,0.09606860877888462,1.492259686629557
4.102660894393921,0.3280744454008694,[0.32269953],5.0,0.6,0.0,-1.915785142964436,0.10925069331593136,1.4915140479909605
4.112950801849365,0.33002843256823605,[0.32379677],5.0,0.6,0.0,-1.924390261848301,0.12062888659048707,1.4895142242429287
4.120750904083252,0.3313962235853927,[0.32491154],5.0,0.6,0.0,-1.7004570803391026,0.10255921976616678,1.489477190524834
4.131900072097778,0.3337410081862328,[0.32604884],5.0,0.6,0.0,-1.4237883856259983,0.15035489331767288,1.4867290878782355
4.139676332473755,0.3349134004866528,[0.32721708],5.0,0.6,0.0,-1.1656204470292337,0.12789560515752418,1.487212853348109
4.14805793762207,0.3366719889372828,[0.32842081],5.0,0.6,0.0,-0.9484742148709522,0.14444816415951825,1.4858066757065362
4.155955791473389,0.33803977995443946,[0.32966505],5.0,0.6,0.0,-0.7744130657175021,0.16071418200450804,1.4856244729338104
4.164867162704468,0.33979836840506955,[0.33095856],5.0,0.6,0.0,-0.6380039748421504,0.17293672998827242,1.4841901398331856
4.172670364379883,0.3411661594222262,[0.33230534],5.0,0.6,0.0,-0.5319805263005521,0.14927532880725167,1.484209201101808
4.180668592453003,0.34253395043938295,[0.33370065],5.0,0.6,0.0,-0.4495019434977444,0.13239164530445585,1.4843653114845288
4.190736770629883,0.3444879376067496,[0.33514062],5.0,0.6,0.0,-0.1088433551946647,0.15856975673218754,1.4826685179153556
4.199953317642212,0.3464419247741163,[0.33663086],5.0,0.6,0.0,-0.024508176314438176,0.17771309232008356,1.4809322799260196
4.210770845413208,0.3487867093749564,[0.33818081],5.0,0.6,0.0,0.23759963853885457,0.18951319468089184,1.4777121219938896
4.219728469848633,0.3505452978255864,[0.33979865],5.0,0.6,0.0,0.22826020201213645,0.20050167886676595,1.4771278546987756
4.229751110076904,0.35269468370968976,[0.34149119],5.0,0.6,0.0,0.6826268404144135,0.20660738386427085,1.474862049666792
4.239702224731445,0.3548440695937931,[0.34326372],5.0,0.6,0.0,0.9157472918837368,0.21071604538343988,1.472911743386986
4.249269962310791,0.3569934554778965,[0.34512005],5.0,0.6,0.0,1.0223446178788107,0.213418852011161,1.4714207883086252
4.259746789932251,0.3593382400787366,[0.34706242],5.0,0.6,0.0,1.3317182297963264,0.21396210566449042,1.4689920472810556
4.268343925476074,0.36148762596283995,[0.34909159],5.0,0.6,0.0,1.3555858410802375,0.2147128727777586,1.4683690293046194
4.275827884674072,0.36324621441346994,[0.35120205],5.0,0.6,0.0,1.2667186439232943,0.18504564787092376,1.470211404068961
4.284620523452759,0.3655909990143101,[0.35338295],5.0,0.6,0.0,1.4192733418597512,0.19383726739045326,1.4691353599463457
4.293641567230225,0.36774038489841343,[0.35562869],5.0,0.6,0.0,1.3275108576273498,0.19994775184403307,1.4697774495963665
4.3033905029296875,0.3702805682159901,[0.35793335],5.0,0.6,0.0,1.434621342127942,0.16818555217749162,1.4684396586982627
4.312062501907349,0.3726253528168302,[0.36028597],5.0,0.6,0.0,1.568202474399907,0.17949106455343922,1.4681795837447864
4.321739435195923,0.37497013741767016,[0.3626807],5.0,0.6,0.0,1.6661083104297243,0.18585383788477544,1.4681834358110433
4.330673694610596,0.37731492201851025,[0.36511592],5.0,0.6,0.0,1.713931292498818,0.1887377565992513,1.4684934597767534
4.3397536277771,0.3794643079026136,[0.36758884],5.0,0.6,0.0,1.7159740534894006,0.1900467741348776,1.4700015583938248
4.34883975982666,0.3820044912201903,[0.37009562],5.0,0.6,0.0,1.4062574103839436,0.1877533245257295,1.470564319894906
4.357965707778931,0.3847400732545037,[0.37263152],5.0,0.6,0.0,1.038125312424973,0.18325711902198394,1.4703007615758854
4.369342565536499,0.3880618514390271,[0.37519481],5.0,0.6,0.0,0.984709392545026,0.20024956910183098,1.4667087618397774
4.377925157546997,0.3906020347566038,[0.37778255],5.0,0.6,0.0,0.7549262343944299,0.16086029244923208,1.4672423586189578
4.385745286941528,0.39275142064070717,[0.38037981],5.0,0.6,0.0,0.5029525107565509,0.12924726939031925,1.4696641635804724
4.3957226276397705,0.3956824013917572,[0.38297272],5.0,0.6,0.0,0.2856730023939472,0.16029572677242027,1.4681483475140973
4.4042534828186035,0.39822258470933397,[0.38555599],5.0,0.6,0.0,0.11742006191010529,0.12479533580245743,1.468410606452577
4.413041830062866,0.40095816674364737,[0.38812105],5.0,0.6,0.0,-0.004487305767778477,0.12425499277612569,1.4675788814472128
4.420626401901245,0.40291215391101404,[0.39065669],5.0,0.6,0.0,-0.08825515147404701,0.09723577593653929,1.4704016255188161
4.430812358856201,0.40603853337880075,[0.3931561],5.0,0.6,0.0,-0.14276711860368105,0.12579074983826488,1.4673382128466756
4.439646482467651,0.40838331797964084,[0.39561619],5.0,0.6,0.0,-0.45182657333239756,0.09355862669181758,1.4677737769565382
4.449583292007446,0.41131429873069086,[0.3980306],5.0,0.6,0.0,-0.7787071037895609,0.08670734018414937,1.4648729542689818
4.458048343658447,0.41365908333153095,[0.40039202],5.0,0.6,0.0,-1.039874234598971,0.07713676854887534,1.4646051266954325
4.466677665710449,0.41600386793237093,[0.40269565],5.0,0.6,0.0,-1.2177814050528237,0.06999288293412165,1.4640955320296107
4.476363897323608,0.41873944996668433,[0.40493747],5.0,0.6,0.0,-1.596501488703964,0.0630604701113324,1.4607239803270224
4.486155986785889,0.4212796332842611,[0.40711493],5.0,0.6,0.0,-1.9487684966465262,0.05787786002897574,1.4578476803811518
4.4936394691467285,0.42323362045162777,[0.40922447],5.0,0.6,0.0,-2.2022016607420447,0.034336848006684496,1.4579119919089245
4.503813982009888,0.42577380376920443,[0.41126151],5.0,0.6,0.0,-2.349231606011799,0.0342131090206329,1.4546620179395693
4.516366720199585,0.42850938580351783,[0.4132264],5.0,0.6,0.0,-2.6819116056249186,0.04893365632346527,1.44903472706927
4.52363395690918,0.43007257553741124,[0.41512173],5.0,0.6,0.0,-2.978978783542582,0.025173974444338543,1.4497163910382131
4.533766508102417,0.4322219614215146,[0.41694788],5.0,0.6,0.0,-3.1723881236674965,0.039399062660512525,1.4469764964276937
4.542729139328003,0.43417594858888126,[0.41870544],5.0,0.6,0.0,-3.2576032079153983,0.01439811705999652,1.4454227462123261
4.553102731704712,0.43652073318972134,[0.42039362],5.0,0.6,0.0,-3.2526976372687466,0.009520111290892832,1.441498875405861
4.562296390533447,0.43847472035708807,[0.42201206],5.0,0.6,0.0,-3.1806729025217417,0.005470344126399107,1.4397645446206537
4.571466684341431,0.44023330880771805,[0.42356239],5.0,0.6,0.0,-3.338590781384778,0.0017872170456823767,1.4377038730081977
4.580014944076538,0.4417964985416114,[0.42504635],5.0,0.6,0.0,-3.224444335790974,-0.0017589725386103893,1.4377518446008763
4.587591886520386,0.4429688908420314,[0.42646447],5.0,0.6,0.0,-3.005687670355378,-0.01739286081084338,1.440298197647118
4.5972888469696045,0.44453208057592475,[0.42781634],5.0,0.6,0.0,-2.7587420285192232,-0.01733220008014864,1.440016160512641
4.604677438735962,0.4457044728763448,[0.42910219],5.0,0.6,0.0,-3.068611023246126,-0.029293627939702804,1.4394041671502122
4.614897727966309,0.4470722638935015,[0.43032396],5.0,0.6,0.0,-3.186037529990557,-0.014269696882479893,1.437944066282908
4.624868154525757,0.44824465619392156,[0.43148605],5.0,0.6,0.0,-3.180954068963289,-0.01667982747780031,1.4379024957032247
4.632760763168335,0.44902625106086824,[0.43259149],5.0,0.6,0.0,-3.375255166759839,-0.02845590818857446,1.43900392864152
4.6430981159210205,0.4498078459278149,[0.43364103],5.0,0.6,0.0,-3.83237618159393,-0.02540281540219775,1.4382551375181363
4.652318000793457,0.45058944079476154,[0.4346368],5.0,0.6,0.0,-3.9652453430377586,-0.02351136948107939,1.4388078250849907
4.660741090774536,0.4509802382282349,[0.43558111],5.0,0.6,0.0,-4.196915682577812,-0.030503320436659254,1.4407389207676777
4.669654369354248,0.4513710356617082,[0.4364756],5.0,0.6,0.0,-4.366019648761396,-0.022211594667470597,1.4426049763356972
4.681349992752075,0.45176183309518164,[0.43732449],5.0,0.6,0.0,-4.430455253364073,-0.005197268893489752,1.4447692546822775
4.690940856933594,0.45176183309518164,[0.43813389],5.0,0.6,0.0,-4.671817777301573,-0.0010835113125342293,1.4475511416726146
4.698975086212158,0.45176183309518164,[0.43890739],5.0,0.6,0.0,-4.592191716710467,-0.007321537083691981,1.452038517529372
4.707372665405273,0.45176183309518164,[0.43964661],5.0,0.6,0.0,-4.0931916231342225,0.0013706953457675978,1.4587533936701633
4.715609788894653,0.45176183309518164,[0.44035362],5.0,0.6,0.0,-3.2288064495599533,-0.0019501294090356043,1.466605790389215
4.727365493774414,0.45176183309518164,[0.44103224],5.0,0.6,0.0,-2.9243315051681,0.024576059718746372,1.4709126483712824
4.736982822418213,0.4515664343784449,[0.44168926],5.0,0.6,0.0,-2.2708291965880427,0.03591295930098251,1.4768534934020567
4.747627019882202,0.4515664343784449,[0.44233183],5.0,0.6,0.0,-1.325817205331842,0.047421504195253796,1.4817822670799703
4.755870580673218,0.4515664343784449,[0.44296626],5.0,0.6,0.0,-0.45058156812864136,0.06028062810486472,1.4851651799505967
4.766129493713379,0.4515664343784449,[0.4435994],5.0,0.6,0.0,0.5173366504971063,0.07421555542226933,1.4871863327501236
4.774611711502075,0.45176183309518164,[0.4442386],5.0,0.6,0.0,1.6010245186747616,0.08811766389358852,1.486839538402817
4.783640623092651,0.4515664343784449,[0.44488922],5.0,0.6,0.0,2.496877224830267,0.08010338247650464,1.4865031740879562
4.793711185455322,0.45176183309518164,[0.44555477],5.0,0.6,0.0,3.1320724679471246,0.10084499906572521,1.4850746704358624
4.80267071723938,0.45176183309518164,[0.44624178],5.0,0.6,0.0,3.5250640421579726,0.12180690289713923,1.4847593855872732
4.811647415161133,0.4519572318119182,[0.4469595],5.0,0.6,0.0,3.7230968673751286,0.14104473189493535,1.4848042717864127
4.819701194763184,0.4519572318119182,[0.44771405],5.0,0.6,0.0,3.7760495762165602,0.12951655078867305,1.48590335198663
4.830196142196655,0.45215263052865495,[0.44851198],5.0,0.6,0.0,4.002951237669208,0.18708703540994534,1.485565801225886
4.838597297668457,0.4523480292453916,[0.44936289],5.0,0.6,0.0,3.9186793716559682,0.16916054571595895,1.4869180082125002
4.849307298660278,0.4525434279621283,[0.45027607],5.0,0.6,0.0,3.9792354915600283,0.2259939262692081,1.4873231264026145
4.856721878051758,0.4529342253956016,[0.45126034],5.0,0.6,0.0,4.027169734248966,0.20339945609316865,1.4875116068772893
4.865764379501343,0.453325022829075,[0.4523196],5.0,0.6,0.0,4.289644549231426,0.2242947137755594,1.486286020868918
4.873708248138428,0.4537158202625483,[0.45345338],5.0,0.6,0.0,4.243817119376289,0.20627833938813805,1.486757726322729
4.884652853012085,0.45469281384623167,[0.45466114],5.0,0.6,0.0,4.608574492280757,0.2302825684506152,1.484436858379211
4.8977062702178955,0.45586520614665166,[0.45595612],5.0,0.6,0.0,5.0,0.30671166738787836,1.4817304091823855
4.90985369682312,0.4570375984470717,[0.45736332],5.0,0.6,0.0,5.0,0.30384933323240476,1.4817108429941395
4.9189722537994385,0.45820999074749164,[0.45888961],5.0,0.6,0.0,5.0,0.2735359817636308,1.4816396904141624
4.9284186363220215,0.45938238304791174,[0.46052588],5.0,0.6,0.0,5.0,0.28273510050090545,1.4814705776379598
4.9385809898376465,0.46094557278180515,[0.46226837],5.0,0.6,0.0,5.0,0.2889998336835041,1.48138216604621
4.950724363327026,0.4627041612324352,[0.46412278],5.0,0.6,0.0,5.0,0.3178454273895896,1.4813296488229861
4.95905876159668,0.4642673509663285,[0.4660928],5.0,0.6,0.0,5.0,0.28857632710577585,1.4810658305326443
4.96834135055542,0.4660259394169585,[0.46817016],5.0,0.6,0.0,5.0,0.2936664293851056,1.480812951825652
4.97963547706604,0.4681753253010619,[0.47034641],5.0,0.6,0.0,5.0,0.29565319186275,1.480789781690199
4.987627029418945,0.46993391375169197,[0.47261798],5.0,0.6,0.0,5.0,0.29859463846609635,1.4802922559204388
4.997273683547974,0.47227869835253194,[0.47498022],5.0,0.6,0.0,5.0,0.2977763944237804,1.4802734855555362
5.004639387130737,0.47423268551989867,[0.47742273],5.0,0.6,0.0,4.735067065036711,0.26754400933150324,1.48155217897072
5.013603448867798,0.4765774701207387,[0.47993036],5.0,0.6,0.0,4.598426952608985,0.27544573425066116,1.4822585948974103
5.022637367248535,0.4791176534383154,[0.48249367],5.0,0.6,0.0,4.4738776269676785,0.27873104642018726,1.4830432975707464
5.032670974731445,0.4818532354726288,[0.48510798],5.0,0.6,0.0,4.047161015341148,0.278463489720842,1.4858381204956226
5.041582345962524,0.4845888175069422,[0.48776776],5.0,0.6,0.0,3.2796184019736487,0.2764622551669074,1.4900379816388434
5.049567699432373,0.4869336021077822,[0.49046251],5.0,0.6,0.0,2.7848458514403704,0.24392691060343724,1.491772558071117
5.058618545532227,0.48966918414209565,[0.49317777],5.0,0.6,0.0,2.4384938955237216,0.24932467325716937,1.493134131109632
5.069091796875,0.492990962326619,[0.49590838],5.0,0.6,0.0,2.176478315951565,0.2757071835412624,1.4947853176558106
5.077505826950073,0.49553114564419576,[0.49865302],5.0,0.6,0.0,1.9652842698895814,0.2384482959170323,1.4951857968174682
5.0875842571258545,0.49904832254545584,[0.50140133],5.0,0.6,0.0,1.2349214957736405,0.23351692706649452,1.4977593395550772
5.097485780715942,0.5027608981634525,[0.5041433],5.0,0.6,0.0,1.0134129797144156,0.22541841736793655,1.498853945447737
5.108134508132935,0.5062780750647126,[0.50687337],5.0,0.6,0.0,0.7096428373654224,0.21664863774275236,1.4995543939481646
5.116963863372803,0.5097952519659726,[0.50958585],5.0,0.6,0.0,0.42858506434910826,0.20672338100063842,1.4998545131874805
5.126589775085449,0.5129216314337594,[0.51227511],5.0,0.6,0.0,-0.07293972931988701,0.19811810314731265,1.4999124458823163
5.135660886764526,0.5160480109015461,[0.51493264],5.0,0.6,0.0,-0.549289916090073,0.16153412550821644,1.4995266714138389
5.146090030670166,0.5195651878028061,[0.51755078],5.0,0.6,0.0,-0.920435864959465,0.18609097647308342,1.4985585004199682
5.155954360961914,0.5232777634208029,[0.520129],5.0,0.6,0.0,-1.1761430885600483,0.17209496694610085,1.49699034285054
5.16531229019165,0.5265995416053263,[0.52266667],5.0,0.6,0.0,-1.6080193127560058,0.1605465201996778,1.4949901760359887
5.173660755157471,0.5295305223563763,[0.52515731],5.0,0.6,0.0,-1.9952692407932968,0.125678742138654,1.4932275389939378
5.182621240615845,0.532656901824163,[0.52759275],5.0,0.6,0.0,-2.2706287842508894,0.12417212320941784,1.4910607470506327
5.193561553955078,0.5365648761588965,[0.52996918],5.0,0.6,0.0,-2.706432124884609,0.11700891656451093,1.4859141562549818
5.20367169380188,0.5404728504936299,[0.53228652],5.0,0.6,0.0,-2.802580188311317,0.10863293013778803,1.4808734263261503
5.213198184967041,0.5437946286781532,[0.53454769],5.0,0.6,0.0,-3.013498517845218,0.12605007826756265,1.476329678617018
5.220716238021851,0.54633481199573,[0.53675551],5.0,0.6,0.0,-3.185136408240071,0.09155063403521807,1.4743195294053342
5.22927188873291,0.54926579274678,[0.53890513],5.0,0.6,0.0,-3.2732931611582314,0.06297144669158762,1.4708475616157268
5.236954212188721,0.5520013747810935,[0.54099047],5.0,0.6,0.0,-3.5545780464991994,0.06793337705625851,1.4667260241593207
5.24671483039856,0.5551277542488802,[0.54301236],5.0,0.6,0.0,-3.8019511257076273,0.0684567959771414,1.4604249291083127
5.25588059425354,0.5580587349999302,[0.54497483],5.0,0.6,0.0,-3.9457803047832147,0.06803910852117635,1.454885321592622
5.265596866607666,0.5613805131844536,[0.54687953],5.0,0.6,0.0,-4.257629800012933,0.038872131222497365,1.4455027680880597
5.273609161376953,0.5639206965020302,[0.54872613],5.0,0.6,0.0,-4.237200515671853,0.04582043673180114,1.4416870326158775
5.281581878662109,0.566460879819607,[0.55051517],5.0,0.6,0.0,-4.338850981824349,0.023868169003600254,1.4365990131288653
5.289687395095825,0.5686102657037104,[0.55224796],5.0,0.6,0.0,-4.40843132728493,0.03571363942499669,1.4336036680894222
5.298590183258057,0.5713458477380239,[0.55392904],5.0,0.6,0.0,-4.677602011996507,0.04113820268544579,1.42510965609936
5.307045221328735,0.5736906323388637,[0.5555657],5.0,0.6,0.0,-4.35169041235032,0.045314435404843006,1.4225092717308778
5.316554546356201,0.576035416939704,[0.55716478],5.0,0.6,0.0,-4.395941955482893,0.047486413480393015,1.4170767334672163
5.327059268951416,0.5789663976907539,[0.55873263],5.0,0.6,0.0,-4.498226933929258,0.045176320090929464,1.4065438831289088
5.335687875747681,0.5807249861413839,[0.56027238],5.0,0.6,0.0,-4.54578580943468,0.021203512508683145,1.4045940165407187
5.347313642501831,0.5834605681756972,[0.56178697],5.0,0.6,0.0,-4.512137263733891,0.050791710291422036,1.3954010828522272
5.356269598007202,0.5858053527765374,[0.5632844],5.0,0.6,0.0,-4.404587504923039,0.046143344506035834,1.389301535158601
5.364818811416626,0.5877593399439041,[0.56477151],5.0,0.6,0.0,-3.9647825999270485,0.042959697861399984,1.3881394799202103
5.3726091384887695,0.5893225296777974,[0.5662488],5.0,0.6,0.0,-3.4539770786095665,0.01657011424910794,1.3901912952027273
5.3805763721466064,0.5912765168451641,[0.56771156],5.0,0.6,0.0,-3.2519530426222607,-0.004736275856829101,1.38707321088743
5.3898093700408936,0.5932305040125309,[0.56915833],5.0,0.6,0.0,-2.8726794155586806,0.029638115593176154,1.384464245836885
5.398593902587891,0.5949890924631609,[0.57059299],5.0,0.6,0.0,-2.473921256323921,0.004117105758055108,1.3832423715585165
5.4074866771698,0.5965522821970541,[0.57201622],5.0,0.6,0.0,-2.391004432587466,0.01038329299127884,1.3823248404503228
5.416682004928589,0.5981154719309476,[0.57342599],5.0,0.6,0.0,-2.396850662200316,-0.009884022279343178,1.3809661335894858
5.424651622772217,0.5992878642313676,[0.57482057],5.0,0.6,0.0,-2.1253672437401443,0.001166409659969349,1.3838089145725618
5.433649778366089,0.6004602565317877,[0.57620081],5.0,0.6,0.0,-2.3427378405403623,0.008971826127378837,1.3848900805685749
5.44363260269165,0.6018280475489444,[0.5775697],5.0,0.6,0.0,-2.6481061627758775,0.013478164551494613,1.3837755873841755
5.453594923019409,0.6030004398493644,[0.57892968],5.0,0.6,0.0,-3.1680508571022123,0.01776033368124311,1.3831661253479886
5.46420431137085,0.6039774334330478,[0.58028504],5.0,0.6,0.0,-3.344244681355835,0.044540120995879805,1.3855501219616382
5.473608016967773,0.6043682308665211,[0.58163947],5.0,0.6,0.0,-3.612181322340308,0.023169427193918575,1.3922198372474879
5.483603239059448,0.6051498257334678,[0.58299161],5.0,0.6,0.0,-4.0914433723356325,0.030830377459234358,1.3941628411040203
5.494552850723267,0.6057360218836778,[0.58434054],5.0,0.6,0.0,-4.498595094065348,0.039533830400514405,1.3976726402619182
5.503593683242798,0.6061268193171511,[0.58568807],5.0,0.6,0.0,-4.199108602478685,0.048916281265019054,1.406891646849675
5.511742353439331,0.6065176167506244,[0.58703612],5.0,0.6,0.0,-3.4025593766972615,0.05808466397851096,1.4183591699638336
5.520658254623413,0.6069084141840977,[0.58838666],5.0,0.6,0.0,-2.832507950561877,0.06728846085443749,1.4277528735420097
5.5290141105651855,0.607299211617571,[0.5897392],5.0,0.6,0.0,-2.133670131792835,0.05129145512380685,1.4368149090232671
5.541158199310303,0.6076900090510444,[0.59109374],5.0,0.6,0.0,-1.5005382385803088,0.09283742352072966,1.4447292758395256
5.548768997192383,0.6080808064845178,[0.59245313],5.0,0.6,0.0,-0.43877553488709353,0.07412088236013278,1.4521855528062197
5.557102680206299,0.6084716039179912,[0.59381475],5.0,0.6,0.0,0.5645366824978733,0.06165737294997769,1.4577080466943952
5.565993785858154,0.6088624013514644,[0.59517406],5.0,0.6,0.0,1.3516240817984524,0.0821530602900901,1.4618612423460335
5.573696136474609,0.6092531987849378,[0.59653012],5.0,0.6,0.0,2.179359354505855,0.07129321213447254,1.4646200019212519
5.582290887832642,0.6096439962184113,[0.59788248],5.0,0.6,0.0,2.836761228381776,0.09356805845966167,1.4667579328191493
5.59115743637085,0.6102301923686212,[0.59923399],5.0,0.6,0.0,3.2803682570569412,0.11108669150855865,1.4681602401725176
5.598538398742676,0.6104255910853578,[0.60058745],5.0,0.6,0.0,3.5314835910445144,0.09870726427109976,1.4716303015473622
5.607587814331055,0.6112071859523045,[0.60194584],5.0,0.6,0.0,3.630526882792506,0.1478675599983503,1.4732756946984547
5.618251085281372,0.6115979833857779,[0.60331832],5.0,0.6,0.0,3.6182184289137163,0.15863046265909028,1.4767320408665754
5.625876188278198,0.6123795782527245,[0.60471323],5.0,0.6,0.0,3.805013057711803,0.1672277721226027,1.477652047926448
5.63363242149353,0.612770375686198,[0.60613176],5.0,0.6,0.0,3.69872938328899,0.1472334931254423,1.4811436408375678
5.642568588256836,0.6135519705531445,[0.60757193],5.0,0.6,0.0,3.7499220004485663,0.16473686862691916,1.4825144474746486
5.652674436569214,0.6143335654200912,[0.60903587],5.0,0.6,0.0,3.7970963222319867,0.18009027390608837,1.4837842643676524
5.6642231941223145,0.6155059577205113,[0.61053304],5.0,0.6,0.0,4.064486835577341,0.22197106837636948,1.4829186942194588
5.673247337341309,0.6162875525874579,[0.61207193],5.0,0.6,0.0,4.027170563364404,0.19481297633442712,1.4845238357439254
5.680552959442139,0.6170691474544047,[0.61365263],5.0,0.6,0.0,4.126541110840458,0.20910410363822102,1.4851516282772725
5.691162824630737,0.6182415397548247,[0.61527564],5.0,0.6,0.0,4.201525916905823,0.22040010662780998,1.4852726469333049
5.698801040649414,0.6194139320552446,[0.61694555],5.0,0.6,0.0,4.20399309008169,0.23061703068021056,1.4857975310451115
5.706589460372925,0.620390925638928,[0.61866227],5.0,0.6,0.0,4.1321929054827145,0.20678101332605067,1.4868520762708515
5.715596437454224,0.6217587166560847,[0.62041732],5.0,0.6,0.0,4.276572711566944,0.18768268319451742,1.4862094787075746
5.726875066757202,0.6233219063899781,[0.6222079],5.0,0.6,0.0,4.4118114389563665,0.24726615509189728,1.4854706774269968
5.73457145690918,0.6246896974071348,[0.62404027],5.0,0.6,0.0,4.189431283855882,0.2216476715047103,1.4870196537278815
5.742908954620361,0.6258620897075547,[0.62591529],5.0,0.6,0.0,3.843876902656512,0.24064521152133914,1.489120717526335
5.752671957015991,0.6278160768749216,[0.62783374],5.0,0.6,0.0,4.0302659496066084,0.2514998752540005,1.48805363615311
5.761553764343262,0.6293792666088148,[0.6298006],5.0,0.6,0.0,4.028125310426397,0.2611404911981918,1.488030729137575
5.771941423416138,0.6313332537761815,[0.63181982],5.0,0.6,0.0,3.917347330031341,0.2666354246853519,1.4886588737276722
5.779938697814941,0.6330918422268116,[0.63389425],5.0,0.6,0.0,3.745627774079794,0.27145486666116225,1.4895358178347988
5.787579536437988,0.6346550319607048,[0.63602095],5.0,0.6,0.0,3.541964213140904,0.24320035297592096,1.4903747132049587
5.7985923290252686,0.6371952152782816,[0.63819208],5.0,0.6,0.0,3.3242071886167857,0.25242220351473,1.491642677313744
5.808694124221802,0.6395399998791217,[0.64040485],5.0,0.6,0.0,3.379433776893057,0.25839463967094944,1.491420803642589
5.816744327545166,0.6412985883297517,[0.64266068],5.0,0.6,0.0,2.9194381120385153,0.26453406343730995,1.4933244828448857
5.8276026248931885,0.6442295690808018,[0.64495978],5.0,0.6,0.0,2.897983520011089,0.26268705200272374,1.4936805792286858
5.836615324020386,0.6465743536816418,[0.64730135],5.0,0.6,0.0,2.9870397236790804,0.2622742083301436,1.493296376253074
5.846110582351685,0.6495053344326919,[0.64968364],5.0,0.6,0.0,2.7828768885012374,0.2582666769982524,1.494261810364921
5.8555333614349365,0.6522409164670053,[0.65210418],5.0,0.6,0.0,2.4896939388368384,0.2547646659957183,1.4954032633955363
5.8645501136779785,0.6549764985013187,[0.65455576],5.0,0.6,0.0,2.469713305156642,0.21940625714832096,1.4954446902719951
5.874019145965576,0.6581028779691054,[0.65702731],5.0,0.6,0.0,2.235825218282018,0.22360805978768247,1.4960612742331612
5.882955074310303,0.660643061286682,[0.65951327],5.0,0.6,0.0,1.9506677653655995,0.22799674575061418,1.4969202347347437
5.89215087890625,0.6637694407544688,[0.66201285],5.0,0.6,0.0,1.679773479453406,0.22769344707736291,1.4972870412804111
5.9016432762146,0.6667004215055189,[0.66452088],5.0,0.6,0.0,1.444784565886509,0.19407121350077453,1.4974989198190571
5.912679195404053,0.6704129971235157,[0.66703293],5.0,0.6,0.0,1.2486676610018483,0.2309493684107686,1.4965583363467436
5.9230732917785645,0.673734775308039,[0.66955784],5.0,0.6,0.0,0.8113073832302656,0.25215787021042807,1.496026975981402
5.930582761764526,0.6760795599088789,[0.67209875],5.0,0.6,0.0,0.36962950356688246,0.25270306371678564,1.4967339577630683
5.939626455307007,0.6794013380934025,[0.67464136],5.0,0.6,0.0,-0.2699937604910715,0.24027292329695257,1.495424505069596
5.949615001678467,0.6829185149946625,[0.67717775],5.0,0.6,0.0,-0.5725487333485044,0.22874484692856675,1.49318643169185
5.957669973373413,0.6858494957457124,[0.67970977],5.0,0.6,0.0,-0.7022116867962473,0.22170404153765805,1.4921221760778653
5.969645023345947,0.6897574700804461,[0.68223904],5.0,0.6,0.0,-0.7431409085974879,0.21107749787324862,1.488347379448396
5.97987961769104,0.6930792482649695,[0.68476699],5.0,0.6,0.0,-1.0148419854417576,0.20453341874630435,1.4855102332737278
5.987903594970703,0.6958148302992828,[0.68729486],5.0,0.6,0.0,-1.0210119315055481,0.20125809776492268,1.4848114923505622
5.998524904251099,0.7001136020674896,[0.68982369],5.0,0.6,0.0,-0.9282564205277862,0.1907900233300663,1.478405197452305
6.006546974182129,0.7032399815352761,[0.69235433],5.0,0.6,0.0,-1.086169742100824,0.18648328268787587,1.4757017134740837
6.015542030334473,0.7065617597197996,[0.69488324],5.0,0.6,0.0,-1.0057225000724235,0.14898572035003155,1.4723387413244733
6.024596929550171,0.7100789366210597,[0.6974032],5.0,0.6,0.0,-1.4038161819062467,0.15298776504431358,1.4669111339951812
6.032532691955566,0.7130099173721096,[0.69991237],5.0,0.6,0.0,-1.5874780878137367,0.15699163286009668,1.4644002862668868
6.042847633361816,0.7167224929901064,[0.70241346],5.0,0.6,0.0,-1.6481474626968025,0.15483450429306667,1.4578594457025509
6.052139043807983,0.7202396698913666,[0.70490879],5.0,0.6,0.0,-1.6379082918097447,0.15215359175758025,1.4520874731010225
6.060555458068848,0.7231706506424166,[0.70740029],5.0,0.6,0.0,-1.8631654718303066,0.15165001601732075,1.448898502659993
6.068515300750732,0.7259062326767299,[0.70988548],5.0,0.6,0.0,-2.375133986655941,0.11881341547346967,1.4457806102149124
6.078517198562622,0.7298142070114633,[0.71235823],5.0,0.6,0.0,-2.5776095659533285,0.12305772354702306,1.4359561310141538
6.088745594024658,0.7333313839127235,[0.71481779],5.0,0.6,0.0,-2.611026745152701,0.12618087274969358,1.4286969390719038
6.097225189208984,0.7364577633805102,[0.71726811],5.0,0.6,0.0,-2.552325534530792,0.12919437308753526,1.424172257140512
6.105624675750732,0.7393887441315602,[0.71970865],5.0,0.6,0.0,-2.7205258856688843,0.09744237654858356,1.4199836314898777
6.114510774612427,0.741928927449137,[0.72213511],5.0,0.6,0.0,-2.8971841623494408,0.11203211160732185,1.4184230202705093
6.1248533725738525,0.7454461043503969,[0.72455321],5.0,0.6,0.0,-2.732196248858542,0.14975993881103625,1.4108736672353208
6.133538007736206,0.748377085101447,[0.72697271],5.0,0.6,0.0,-2.731797970388062,0.11468323999240167,1.4069187101591045
6.143550395965576,0.7520896607194437,[0.72939355],5.0,0.6,0.0,-2.7516916516588212,0.11874527233349141,1.3965016761923543
6.151920318603516,0.7546298440370205,[0.73181636],5.0,0.6,0.0,-2.7413192447050063,0.1269175253434038,1.395580437392324
6.160842418670654,0.7575608247880705,[0.73424697],5.0,0.6,0.0,-2.6902760837275963,0.1321508012105272,1.3916343109639837
6.1685709953308105,0.7599056093889106,[0.73668616],5.0,0.6,0.0,-2.603551827535582,0.10402401060240224,1.3927609543741426
6.178338050842285,0.763227387573434,[0.73913042],5.0,0.6,0.0,-2.4905732454305434,0.11723790840678415,1.3857607734798265
6.188843727111816,0.7665491657579574,[0.74158253],5.0,0.6,0.0,-2.3607198220362555,0.12680121375444856,1.3786598054782422
6.196536540985107,0.7692847477922707,[0.7440508],5.0,0.6,0.0,-2.221776212327276,0.1366456125135758,1.3767639448994111
6.204977512359619,0.7720203298265842,[0.74653782],5.0,0.6,0.0,-2.0796435339217676,0.10888401604215114,1.3749989843966222
6.212576627731323,0.7743651144274242,[0.74903558],5.0,0.6,0.0,-1.9385334618860557,0.08881189495770593,1.3767848982355027
6.220561265945435,0.7767098990282643,[0.75153798],5.0,0.6,0.0,-1.8013011812455173,0.11915583271995799,1.3785663383896893
6.230342864990234,0.7796408797793143,[0.75405192],5.0,0.6,0.0,-1.6697760685809429,0.13783077088513251,1.3751825233431387
6.239547491073608,0.7823764618136277,[0.75658999],5.0,0.6,0.0,-1.2690027629092568,0.15138567502788242,1.3742779206263753
6.248070478439331,0.7849166451312045,[0.75916409],5.0,0.6,0.0,-1.1184887936906893,0.1621567600782301,1.3748509150889068
6.257561445236206,0.7878476258822544,[0.7617853],5.0,0.6,0.0,-1.063734119437291,0.16847038405238646,1.37213290645927
6.2669031620025635,0.7905832079165678,[0.76446397],5.0,0.6,0.0,-1.037452516837507,0.17401016868700941,1.3716555308496474
6.277669906616211,0.7939049861010912,[0.76720958],5.0,0.6,0.0,-1.0128833176021124,0.17543901741447504,1.3663993237020025
6.286023139953613,0.7964451694186679,[0.77003085],5.0,0.6,0.0,-0.7053407006148832,0.17974865311769084,1.369385160652231
6.293644905090332,0.7987899540195079,[0.77292842],5.0,0.6,0.0,-0.3566496519317718,0.16636536787680725,1.3747019846022777
6.30460262298584,0.802307130920768,[0.77589584],5.0,0.6,0.0,-0.05668031166918422,0.17445119498098452,1.3697807968415954
6.3137452602386475,0.8050427129550815,[0.77893495],5.0,0.6,0.0,0.1712866275721286,0.18148041450979466,1.3725388315958922
6.3259711265563965,0.8089506872898149,[0.78206244],5.0,0.6,0.0,0.33069963569784944,0.1687280818573005,1.365290827507791
6.336655378341675,0.8126632629078115,[0.78530036],5.0,0.6,0.0,0.7098197705107834,0.16739682431837286,1.3605519415258467
6.344614505767822,0.8152034462253882,[0.78865168],5.0,0.6,0.0,0.8030965775777693,0.18077209867995442,1.368010034743305
6.35277795791626,0.817743629542965,[0.79210291],5.0,0.6,0.0,1.05301044051554,0.18573324734356064,1.375963942696701
6.360531806945801,0.8204792115772783,[0.79564199],5.0,0.6,0.0,1.2932416761993786,0.18338677734577927,1.3826864994804278
6.371401786804199,0.8239963884785384,[0.79924995],5.0,0.6,0.0,1.1931539113344292,0.16993959167616168,1.3836673856369377
6.379513740539551,0.8263411730793784,[0.80290212],5.0,0.6,0.0,1.2642206163597387,0.16269674014082036,1.3947552745687055
6.392541885375977,0.8308353435643218,[0.80658576],5.0,0.6,0.0,1.3617257393386561,0.18384977438800387,1.3876656577090165
6.4025187492370605,0.8339617230321086,[0.81030689],5.0,0.6,0.0,1.156838990981879,0.1947460120921302,1.3931293161924057
6.412483215332031,0.8368927037831586,[0.81407937],5.0,0.6,0.0,1.1556668340296414,0.1977669333773123,1.400151284949379
6.421492576599121,0.8400190832509454,[0.81792408],5.0,0.6,0.0,1.2064454833222849,0.15045353212989668,1.4058950446054448
6.42952299118042,0.8425592665685222,[0.82185876],5.0,0.6,0.0,1.2498270030602954,0.20335140490530337,1.4167060928546742
6.438019752502441,0.8454902473195721,[0.82588051],5.0,0.6,0.0,0.9915478746160491,0.20145215106138933,1.4252433579559658
6.447517395019531,0.848421228070622,[0.82998661],5.0,0.6,0.0,0.6733084773662081,0.19876400877270164,1.4339539220023483
6.455949783325195,0.8515476075384089,[0.83418325],5.0,0.6,0.0,0.6641860169886827,0.19580242738641718,1.4411498426864489
6.4646759033203125,0.8546739870061957,[0.83847511],5.0,0.6,0.0,0.7483622455519034,0.1941399618149336,1.4484559063185172
6.474731683731079,0.8581911639074556,[0.84286541],5.0,0.6,0.0,0.8376068215803896,0.19203030344290176,1.4535885301348181
6.4863386154174805,0.8622945369589258,[0.84736525],5.0,0.6,0.0,0.9014756541883513,0.1458946156040468,1.4557976177301926
6.498046636581421,0.8663979100103958,[0.85200151],5.0,0.6,0.0,0.9342207113691307,0.17139380715913657,1.4587468345620205
6.508666276931763,0.8701104856283925,[0.85679543],5.0,0.6,0.0,0.6634733437829212,0.16270055438863626,1.4648355351975577
6.517502546310425,0.8732368650961793,[0.86174442],5.0,0.6,0.0,0.6145200948163603,0.16162962118105165,1.4736495514745296
6.526052951812744,0.8761678458472293,[0.86683508],5.0,0.6,0.0,0.6389114282111645,0.16529145326886896,1.4824269701209651
6.533591985702515,0.8790988265982794,[0.87204491],5.0,0.6,0.0,0.39858006696415504,0.2509286268717174,1.489979563519341
6.542758941650391,0.8822252060660662,[0.87734406],5.0,0.6,0.0,0.11388799587579584,0.2523793358951484,1.495236560266103
6.555039644241333,0.8865239778342728,[0.8827249],5.0,0.6,0.0,-0.13236338622516006,0.19902674091049177,1.497104522404457
6.564121723175049,0.890041154735533,[0.88818942],5.0,0.6,0.0,-0.0418223835596757,0.27013661509760617,1.4993131467085463
6.5736072063446045,0.8933629329200563,[0.89371968],5.0,0.6,0.0,0.14046484509697682,0.27145491135796107,1.4999598601051674
6.5824809074401855,0.8962939136711063,[0.89930002],5.0,0.6,0.0,0.03993584725812396,0.27554885900416176,1.4981931156550878
6.592264890670776,0.9002018880058399,[0.9049264],5.0,0.6,0.0,-0.1330386960899863,0.27604698989041987,1.495532579935789
6.603488206863403,0.9045006597740466,[0.91059536],5.0,0.6,0.0,0.2571976418544834,0.27535784167614163,1.492549216282508
6.611578464508057,0.9080178366753067,[0.91630405],5.0,0.6,0.0,0.4755182479847363,0.279033667088383,1.486193300996153
6.621627330780029,0.9121212097267768,[0.92205022],5.0,0.6,0.0,0.8673332140089909,0.2801381249945386,1.4799163952089014
6.630873680114746,0.9156383866280366,[0.92783221],5.0,0.6,0.0,1.2301605218064458,0.2840887306671521,1.469574721228521
6.639482259750366,0.91896016481256,[0.93364896],5.0,0.6,0.0,1.2239163292328898,0.2889059204767787,1.4566518111987927
6.648540019989014,0.9224773417138202,[0.93948981],5.0,0.6,0.0,1.3613688738568546,0.37231300408654555,1.442380942843383
6.658912181854248,0.926776113482027,[0.94534636],5.0,0.6,0.0,1.2266009982147952,0.31286402757237525,1.432235211651132
6.666484117507935,0.9299024929498136,[0.9512222],5.0,0.6,0.0,1.0150648316404587,0.3738115072598124,1.4123371593470435
6.676009654998779,0.9336150685678104,[0.95710009],5.0,0.6,0.0,0.8068203690554848,0.41870018102413886,1.395072842991212
6.686520576477051,0.9377184416192806,[0.96296642],5.0,0.6,0.0,0.3534820789388099,0.34021668953785655,1.3802073405112858
6.696172475814819,0.9418218146707505,[0.96883142],5.0,0.6,0.0,0.17915442621061872,0.40789189795748004,1.3642169996607874
6.704307794570923,0.9447527954218007,[0.97469384],5.0,0.6,0.0,-0.15039776005346478,0.39281143410827074,1.3358439247739313
6.714482307434082,0.9488561684732707,[0.98055365],5.0,0.6,0.0,-0.18947419792663442,0.37135265763753983,1.3179298495973015
6.726325035095215,0.9535457376749508,[0.98643346],5.0,0.6,0.0,-0.6773959506040943,0.4133215511861801,1.3051356638599312
6.735520839691162,0.9570629145762107,[0.99236425],5.0,0.6,0.0,-0.9329736505539831,0.4213014214933209,1.2787478632641482
6.744856357574463,0.9609708889109442,[0.99836153],5.0,0.6,0.0,-1.053981118728493,0.42932369030991846,1.2552507899006367
6.752944707870483,0.9644880658122044,[1.00441605],5.0,0.6,0.0,-0.8199794202148161,0.415713866612172,1.2264852701861113
6.760508060455322,0.9676144452799911,[1.01050848],5.0,0.6,0.0,-1.0583620590597236,0.42862102817188674,1.1912980980594832
6.768531084060669,0.9709362234645145,[1.01662241],5.0,0.6,0.0,-1.1148210487662866,0.49431492552891504,1.157803029658813
6.776987075805664,0.9742580016490379,[1.02274398],5.0,0.6,0.0,-1.0885955628208839,0.46481925695504084,1.1240095945429476
6.785666227340698,0.9777751785502978,[1.02887321],5.0,0.6,0.0,-1.0276653712913137,0.4693590024933375,1.0924274188931853
6.79507851600647,0.981292355451558,[1.03502178],5.0,0.6,0.0,-0.9548050164986975,0.49123335152303593,1.060694492314441
6.80338191986084,0.9844187349193447,[1.04118797],5.0,0.6,0.0,-0.8804889563481135,0.5357026409587725,1.024322334622172
6.8139965534210205,0.9885221079708147,[1.04737011],5.0,0.6,0.0,-1.0852967027033167,0.5391378037217429,0.9993888578454619
6.822845697402954,0.9924300823055481,[1.0535896],5.0,0.6,0.0,-1.0520069228347317,0.5499271901434052,0.9724429663575271
6.831333160400391,0.9959472592068082,[1.05985232],5.0,0.6,0.0,-0.9357507146231485,0.5303363571456488,0.9412045960660158
6.840390920639038,0.9994644361080682,[1.06613927],5.0,0.6,0.0,-0.8036389874698061,0.5489595245305803,0.9105422237353855
6.851567983627319,1.003763207876275,[1.07244511],5.0,0.6,0.0,-0.681879343526778,0.5658391755255426,0.8889401520347158
6.859576463699341,1.0066941886273253,[1.07876466],5.0,0.6,0.0,-0.5784048506042984,0.6152577276471083,0.853619269098379
6.869540214538574,1.0107975616787952,[1.08508151],5.0,0.6,0.0,-0.493537471758398,0.5892260254809983,0.8314866335687912
6.881413698196411,1.0158779283139485,[1.09140332],5.0,0.6,0.0,-0.4248639359648567,0.6257190987227291,0.8194235434640389
6.891519546508789,1.0201767000821553,[1.0977577],5.0,0.6,0.0,-0.3693544222033028,0.6302749228375647,0.7999615951915349
6.902079343795776,1.0242800731336255,[1.10415542],5.0,0.6,0.0,-0.32419827808435453,0.6366738992629808,0.7790694937789745
6.909664630889893,1.0274064526014122,[1.11059293],5.0,0.6,0.0,-0.2870652070359132,0.6488709006706695,0.7505134296190328
6.918517112731934,1.0309236295026722,[1.1170553],5.0,0.6,0.0,-0.2561260665309414,0.673473935516939,0.7267407212314902
6.927525520324707,1.034636205120669,[1.12351829],5.0,0.6,0.0,-0.22998629555849337,0.6659450563051248,0.7059346913899329
6.937574625015259,1.0385441794554024,[1.12997127],5.0,0.6,0.0,-0.2075986425136112,0.6638365276315696,0.6878796950070429
6.9484124183654785,1.042842951223609,[1.13641514],5.0,0.6,0.0,-0.18818164180978944,0.6766129582001315,0.6735476966505873
6.957144260406494,1.0465555268416058,[1.14284992],5.0,0.6,0.0,-0.17115224159178122,0.6912384981423816,0.6565059297431919
6.965890645980835,1.0500727037428659,[1.14927491],5.0,0.6,0.0,-0.15607340787252175,0.7058112538933331,0.6396877961919254
6.9755167961120605,1.0537852793608626,[1.1556888],5.0,0.6,0.0,-0.14261475407802526,0.7186479012571237,0.6253072687969741
6.983532905578613,1.0569116588286493,[1.16207998],5.0,0.6,0.0,-0.13052356539139368,0.8078431071814446,0.6094605765273217
6.993509531021118,1.0608196331633828,[1.16842836],5.0,0.6,0.0,-0.11960374353518122,0.8052292539418862,0.598663975766417
7.002486944198608,1.0645322087813796,[1.17473637],5.0,0.6,0.0,-0.10970062302865859,0.7729217382178205,0.5881166949009677
7.010476112365723,1.067853986965903,[1.18101577],5.0,0.6,0.0,0.17534829390211498,0.8342174844577337,0.5771954705265956
7.018477201461792,1.0709803664336897,[1.1872474],5.0,0.6,0.0,0.21669232385909173,0.8845695394391904,0.5669287575309649
7.028514862060547,1.0750837394851596,[1.19340558],5.0,0.6,0.0,0.16910770663236152,0.8839545075015217,0.5607880562775222
7.038278102874756,1.078991713819893,[1.19948835],5.0,0.6,0.0,-0.17613850987273527,0.8827965938813631,0.5547866222244411
7.0485007762908936,1.0834858843048365,[1.20550412],5.0,0.6,0.0,0.002555401266368093,0.880195753461671,0.55091029431442
7.0565361976623535,1.0866122637726232,[1.21146056],5.0,0.6,0.0,0.03993716589659804,0.8865087177117641,0.5442700727275442
7.0675718784332275,1.0907156368240933,[1.21736469],5.0,0.6,0.0,0.024234638080424614,0.8898560817217367,0.5404371057496916
7.075595378875732,1.09384201629188,[1.22321366],5.0,0.6,0.0,-0.2819067269540293,0.9477656476597371,0.5351163847091311
7.083472490310669,1.0971637944764034,[1.22899641],5.0,0.6,0.0,-0.3439812978140819,0.9496771326132748,0.5308438084329931
7.092848062515259,1.1010717688111367,[1.23471395],5.0,0.6,0.0,-0.03550605723413844,0.9471375399320344,0.5280973529852859
7.103549480438232,1.105175141862607,[1.24038707],5.0,0.6,0.0,0.05806363992747428,0.8916822559988473,0.5258214421606283
7.11148738861084,1.1083015213303935,[1.24603433],5.0,0.6,0.0,0.06395874596849505,0.9656024998722046,0.5225008878813194
7.122477769851685,1.112795691815337,[1.25165331],5.0,0.6,0.0,0.039735058569286094,0.959396909954679,0.5211451783967563
7.132736444473267,1.1168990648668071,[1.25724305],5.0,0.6,0.0,0.009938799585304747,0.9547891755305636,0.5194620190724571
7.1419172286987305,1.1206116404848039,[1.26281344],5.0,0.6,0.0,-0.01610980383701056,0.9525837598675915,0.5175222910390361
7.150224208831787,1.1239334186693273,[1.26837409],5.0,0.6,0.0,-0.0358091098721553,0.9523907185318001,0.5154108514430237
7.159256935119629,1.1274505955705874,[1.27392415],5.0,0.6,0.0,-0.049291364683477855,1.0235707990374885,0.5136907848807412
7.169876337051392,1.1317493673387942,[1.27946424],5.0,0.6,0.0,-0.05761860421043319,0.9558489972311269,0.5127257106328872
7.179154634475708,1.1354619429567907,[1.28501667],5.0,0.6,0.0,-0.06201233005518893,0.9650590192589764,0.5114064709482751
7.188708543777466,1.1393699172915244,[1.29060157],5.0,0.6,0.0,-0.06356050862304724,0.975245672232363,0.510311513807615
7.197504043579102,1.1426916954760478,[1.29621596],5.0,0.6,0.0,-0.0631355409363783,1.0309088982000403,0.5089664020937616
7.205484867095947,1.1460134736605712,[1.30184744],5.0,0.6,0.0,-0.06139833752503876,1.0092084340684722,0.5077721665864381
7.2135796546936035,1.1493352518450946,[1.30748627],5.0,0.6,0.0,-0.05883188280816935,1.077248027267551,0.5067195643478545
7.223843336105347,1.1534386248965642,[1.31313652],5.0,0.6,0.0,-0.05578005297348643,1.0291221153749448,0.5060902656320173
7.2315895557403564,1.1565650043643512,[1.3188141],5.0,0.6,0.0,-0.052482419383712224,1.0499161054267447,0.5051675797914954
7.244178295135498,1.1616453709995045,[1.32453401],5.0,0.6,0.0,-0.04910239833424447,1.065580102544017,0.504957251328334
7.252135515213013,1.164967149184028,[1.33031028],5.0,0.6,0.0,-0.04574882374218665,1.0391048784070525,0.5042194979413919
7.262496709823608,1.1688751235187615,[1.33614355],5.0,0.6,0.0,-0.04249195819692298,1.0623044416979035,0.5037122858008405
7.272657632827759,1.1731738952869681,[1.34202305],5.0,0.6,0.0,-0.03937513392005061,1.082697250308592,0.5033381022496973
7.283955335617065,1.1774726670551747,[1.34795295],5.0,0.6,0.0,-0.03642309793710215,1.112071396715273,0.5029883434266877
7.291536092758179,1.1800128503727516,[1.35395022],5.0,0.6,0.0,-0.03364793344635211,1.0909349510971136,0.502355035668338
7.300794839859009,1.183920824707485,[1.36003023],5.0,0.6,0.0,-0.031053227627982908,1.1623333538175395,0.5020228261532198
7.308496475219727,1.186851805458535,[1.36620689],5.0,0.6,0.0,-0.028636984876028053,1.1354782349106591,0.5016059664164745
7.31646466255188,1.190368982359795,[1.37247882],5.0,0.6,0.0,-0.02639364953585436,1.1637566084486681,0.5013159548853884
7.3245368003845215,1.1936907605443183,[1.37883161],5.0,0.6,0.0,-0.02431550030248026,1.1451491743096567,0.5010532813912361
7.333561658859253,1.1974033361623153,[1.38525307],5.0,0.6,0.0,-0.022393603346193638,1.1812695269201683,0.5008605504442063
7.344648122787476,1.2018975066472588,[1.39174725],5.0,0.6,0.0,-0.02061845680468928,1.209005635846651,0.5007398874345501
7.353084087371826,1.2050238861150453,[1.39833206],5.0,0.6,0.0,-0.018980420257924416,1.2400660054155601,0.5005676064143091
7.365128517150879,1.2097134553167255,[1.40503794],5.0,0.6,0.0,-0.01746999503029256,1.3099405453371042,0.5004852731168425
7.372549295425415,1.2128398347845122,[1.41189072],5.0,0.6,0.0,-0.016078001500354686,1.2748411432494797,0.5003616683746479
7.382443904876709,1.217138606552719,[1.41888251],5.0,0.6,0.0,-0.014795685729684944,1.299806002885089,0.5002914391548109
7.394458770751953,1.2220235744711359,[1.42600639],5.0,0.6,0.0,-0.013614777965160581,1.320758063441395,0.5002430202838254
7.40366530418396,1.2253453526556592,[1.43328653],5.0,0.6,0.0,0.2635108409602372,1.399525041367016,0.5001238067856929
7.411996364593506,1.2286671308401824,[1.44074277],5.0,0.6,0.0,0.2976362995135212,1.3609934600780622,0.5000580615667998
7.420837163925171,1.2319889090247058,[1.44836002],5.0,0.6,0.0,-0.03257812597086818,1.3922987624712233,0.5000850271345884
7.428881406784058,1.2353106872092292,[1.45610888],5.0,0.6,0.0,-0.14093995608313742,1.370403621622272,0.5000434865612902
7.438569068908691,1.2390232628272257,[1.46396353],5.0,0.6,0.0,0.12045313638738461,1.4127024265098003,0.5000294808889064
7.448963642120361,1.2433220345954328,[1.47193368],5.0,0.6,0.0,0.17375882904487788,1.5010515571694982,0.5000063969321226
7.456587076187134,1.2464484140632193,[1.48004297],5.0,0.6,0.0,0.14784719140910024,1.4695695903679278,0.5000019432395195
7.468531370162964,1.2511379832648997,[1.48829475],5.0,0.6,0.0,0.09957661827281461,1.5554061066939238,0.5000056436101582
7.478460788726807,1.2554367550331063,[1.49669101],5.0,0.6,0.0,0.052082957381945794,1.516849293904749,0.5000067810296505
7.489388704299927,1.2597355268013128,[1.50523246],5.0,0.6,0.0,0.013238262314769711,1.6054163083485862,0.5000056922308691
7.5024871826171875,1.26462049471973,[1.513952],5.0,0.6,0.0,-0.015599832842171084,1.6740206847140415,0.5000038027837732
7.512064456939697,1.2685284690544634,[1.52287582],5.0,0.6,0.0,-0.035549366754021414,1.6236803186578759,0.5000014629264934
7.519477605819702,1.2714594498055134,[1.53195715],5.0,0.6,0.0,-0.04841978010075264,1.6005814654900252,0.4999995307359988
7.530468702316284,1.2759536202904564,[1.54115488],5.0,0.6,0.0,-0.0559843007283344,1.697879891124101,0.4999984450282184
7.541000843048096,1.2802523920586635,[1.55048345],5.0,0.6,0.0,-0.059731253372476006,1.7204278276818987,0.4999977982105662
7.549980878829956,1.2839649676766602,[1.5599537],5.0,0.6,0.0,-0.06082025308303993,1.7470281132453005,0.4999974884833435
7.557532072067261,1.2870913471444472,[1.56953943],5.0,0.6,0.0,-0.06011663896691171,1.7220244551906485,0.49999742740585296
7.565440654754639,1.2900223278954968,[1.57918329],5.0,0.6,0.0,-0.058248090213143255,1.714969720533549,0.4999975289974049
7.5734922885894775,1.2933441060800202,[1.58883614],5.0,0.6,0.0,-0.05566047968667964,1.7742887158997367,0.49999771983985314
7.582534074783325,1.2966658842645435,[1.59849034],5.0,0.6,0.0,-0.05266505151325605,1.8259737765949415,0.4999979475564802
7.590924978256226,1.3003784598825405,[1.60815647],5.0,0.6,0.0,-0.04947545679220617,1.869859667839862,0.4999981837610498
7.59978723526001,1.304091035500537,[1.61782642],5.0,0.6,0.0,-0.04623565795843684,1.8534248188167044,0.49999841149221896
7.60942816734314,1.3081944085520072,[1.62747633],5.0,0.6,0.0,-0.043040427283200205,1.9044367834279625,0.4999986224140547
7.618042230606079,1.3117115854532673,[1.63710333],5.0,0.6,0.0,-0.03995015625591099,1.9517480143547805,0.4999988125629201
7.625583171844482,1.3144471674875808,[1.6467223],5.0,0.6,0.0,-0.03700143185538151,1.998012857817087,0.4999989810949852
7.634479999542236,1.3179643443888407,[1.65632894],5.0,0.6,0.0,-0.31025288560113784,1.9805833339183276,0.49992835159494087
7.646657466888428,1.3226539135905209,[1.6659198],5.0,0.6,0.0,-0.34076162619246775,2.0835637514781555,0.49991356886669036
7.6546173095703125,1.325975691775044,[1.67550924],5.0,0.6,0.0,-0.28322141292140995,2.0584406315577435,0.49994029197094414
7.663522005081177,1.3292974699595674,[1.68509249],5.0,0.6,0.0,-0.2048634200730708,2.105490741091512,0.4999687592246214
7.673553705215454,1.333205444294301,[1.69466569],5.0,0.6,0.0,-0.1322317598012245,2.145506987304493,0.49998698415319026
7.6829752922058105,1.3371134186290345,[1.70424285],5.0,0.6,0.0,-0.07365721295294517,2.182097483878551,0.4999959613587732
7.690894365310669,1.3406305955302946,[1.71383588],5.0,0.6,0.0,-0.029854333972888693,2.218331277071916,0.49999933653099576
7.698700428009033,1.3435615762813446,[1.72343764],5.0,0.6,0.0,0.0012277729551038539,2.1993770171115,0.4999999988781632
7.707820177078247,1.347469550616078,[1.73302501],5.0,0.6,0.0,0.022293457690578687,2.2472982012073275,0.49999963003449294
7.716874361038208,1.350986727517338,[1.7425959],5.0,0.6,0.0,0.03586385288797906,2.2918958640980143,0.4999990425411304
7.7244744300842285,1.353917708268388,[1.75216606],5.0,0.6,0.0,0.04401202353196758,2.335324144275267,0.4999985580549282
7.732619047164917,1.3572394864529114,[1.76173186],5.0,0.6,0.0,0.04833794116506944,2.317163947175166,0.499998260669086
7.741921663284302,1.3611474607876448,[1.77129063],5.0,0.6,0.0,0.05003111368436222,2.4244030259908005,0.49999813668531723
7.749406576156616,1.3642738402554317,[1.7808404],5.0,0.6,0.0,0.04995446613409722,2.457271246017718,0.49999814239011936
7.758473873138428,1.3679864158734283,[1.79034531],5.0,0.6,0.0,0.04872304596242906,2.4853725627656233,0.4999982328444894
7.767404556274414,1.3716989914914248,[1.79979324],5.0,0.6,0.0,0.04676908228766696,2.513789995728151,0.49999837174033573
7.776834487915039,1.375411567109422,[1.80920972],5.0,0.6,0.0,-0.2316458759629551,2.542646206599624,0.4999600572029761
7.784906625747681,1.3785379465772085,[1.81861724],5.0,0.6,0.0,-0.2673643222091473,2.574532960927772,0.4999467903413959
7.792764186859131,1.3814689273282585,[1.8280178],5.0,0.6,0.0,-0.21493961493666008,2.5496679559026587,0.49996561059412814
7.802227735519409,1.3849861042295188,[1.83739608],5.0,0.6,0.0,-0.14151423123372078,2.596750492182316,0.49998509265048535
7.812091588973999,1.388894078564252,[1.84675746],5.0,0.6,0.0,-0.3496176415275728,2.637506808257532,0.4999090183440535
7.822763919830322,1.3935836477659322,[1.85614261],5.0,0.6,0.0,-0.3285999041555391,2.7297670812230095,0.4999196276563314
7.8324291706085205,1.397296223383929,[1.86558619],5.0,0.6,0.0,-0.23385532848594026,2.6899105717611795,0.4999592916466837
7.8427629470825195,1.401399596435399,[1.87508173],5.0,0.6,0.0,-0.13056591631982103,2.7272094654478645,0.4999873100238432
7.85213303565979,1.404916773336659,[1.88462364],5.0,0.6,0.0,-0.04258326411763376,2.7653042095430083,0.49999865015474115
7.863370656967163,1.4096063425383392,[1.89424287],5.0,0.6,0.0,0.024264906627176744,2.85551113895962,0.499999561707808
7.872462272644043,1.413318918156336,[1.90396486],5.0,0.6,0.0,0.07131544302167173,2.8129075148746634,0.49999621407331063
7.881497859954834,1.4172268924910691,[1.91377365],5.0,0.6,0.0,0.10219575392415096,2.849289393140278,0.4999922255620309
7.892396450042725,1.4217210629760126,[1.92365391],5.0,0.6,0.0,0.12077564409959715,2.8805883119509437,0.49998914172880976
7.900932788848877,1.425042841160536,[1.93360845],5.0,0.6,0.0,0.13041531193847516,2.915098855394645,0.49998733928170225
7.9096434116363525,1.4285600180617963,[1.94363674],5.0,0.6,0.0,0.13377970755231644,2.9464552647519064,0.4999866776335939
7.918445348739624,1.4320771949630564,[1.95371811],5.0,0.6,0.0,0.4089172335311714,2.9207612602347397,0.49987554181989713
7.9267661571502686,1.435203574430843,[1.96381506],5.0,0.6,0.0,0.4383442110704311,2.9675961535424453,0.4998569871342807
7.935767412185669,1.438720751332103,[1.97390966],5.0,0.6,0.0,0.3778011357468567,3.0061762134896717,0.49989376024750487
7.944437503814697,1.4422379282333628,[1.98398456],5.0,0.6,0.0,0.2952572740840265,2.9885312408232685,0.49993510971163846
7.952966928482056,1.4455597064178862,[1.99400622],5.0,0.6,0.0,0.2177694056468021,3.0351026669684162,0.4999646991570888
7.960524559020996,1.4486860858856732,[2.00395899],5.0,0.6,0.0,0.15401902916358706,3.0751055081389334,0.49998234174559547
7.969459056854248,1.4522032627869332,[2.0138279],5.0,0.6,0.0,0.10495646827138752,3.0608859357682063,0.49999179985501624
7.978456497192383,1.4561112371216667,[2.02358314],5.0,0.6,0.0,0.0686857929497496,3.1011126609040116,0.49999648812553815
7.9881556034088135,1.4600192114564001,[2.03321093],5.0,0.6,0.0,0.042601303577603326,3.1335404456291736,0.4999986490108361
7.996968746185303,1.4637317870743967,[2.04271066],5.0,0.6,0.0,0.024241603418886655,3.160926672271833,0.4999995625492459
8.007811784744263,1.4680305588426035,[2.05207836],5.0,0.6,0.0,0.011566729176090453,3.1809866573008097,0.4999999004072404
8.0184645652771,1.4721339318940736,[2.06130732],5.0,0.6,0.0,0.0029917942342355024,3.198764193031933,0.49999999333699535
8.027875900268555,1.4758465075120701,[2.07038877],5.0,0.6,0.0,-0.0026696241446413373,3.2161664448186507,0.499999994694737
8.036234140396118,1.4791682856965935,[2.07931246],5.0,0.6,0.0,-0.28232354488721334,3.233827848529694,0.4999406698967375
8.045269250869751,1.4832716587480639,[2.08806722],5.0,0.6,0.0,-0.04160420455363727,3.2462163200434198,0.49999871151145553
8.05624270439148,1.4871796330827973,[2.09664147],5.0,0.6,0.0,0.04539954195890639,3.258474060441352,0.4999984657047113
8.066016912460327,1.4908922087007939,[2.10502364],5.0,0.6,0.0,0.06583136092025738,3.296403978871207,0.49999677395113884
8.0736825466156,1.4938231894518441,[2.11319466],5.0,0.6,0.0,0.06015499727634461,3.394089781638336,0.49999730630184747
8.083003282546997,1.4975357650698409,[2.12113001],5.0,0.6,0.0,0.0464284479586175,3.416982472235278,0.49999839537220564
8.090473413467407,1.5006621445376274,[2.12880998],5.0,0.6,0.0,0.03216064184874029,3.4466680502447122,0.4999992300619971
8.09843111038208,1.5041793214388874,[2.13621923],5.0,0.6,0.0,0.020043506510529142,3.467129017086309,0.4999997009430165
8.108047246932983,1.5082826944903576,[2.14335315],5.0,0.6,0.0,0.01068062079697154,3.4824392391066548,0.4999999150820247
8.117459297180176,1.5119952701083543,[2.15021629],5.0,0.6,0.0,0.003855384298481413,3.497464696051577,0.49999998893523945
8.125428199768066,1.5153170482928777,[2.15681297],5.0,0.6,0.0,-0.0009021988296056636,3.5121076690614697,0.49999999939408574
8.134506464004517,1.518834225194138,[2.16314173],5.0,0.6,0.0,-0.0040792303921444745,3.503506743261646,0.4999999876130855
8.146194458007812,1.5235237943958178,[2.16920232],5.0,0.6,0.0,-0.006094737588965311,3.530098598473977,0.49999997234862786
8.155517339706421,1.5272363700138143,[2.17500187],5.0,0.6,0.0,-0.007280150721538104,3.513105346086569,0.4999999605463307
8.164470434188843,1.5309489456318115,[2.18054267],5.0,0.6,0.0,-0.007885683261562425,3.520329545583487,0.499999953710199
8.174456596374512,1.5350523186832816,[2.18582778],5.0,0.6,0.0,-0.008094814869136019,3.5223993809175114,0.4999999512223924
8.183446407318115,1.5387648943012782,[2.19086643],5.0,0.6,0.0,-0.008039432592535237,3.523399453127411,0.4999999518875524
8.193592071533203,1.5424774699192747,[2.19566776],5.0,0.6,0.0,-0.0078129262866474,3.522092578007397,0.49999995456044083
8.201918840408325,1.5457992481037983,[2.20024082],5.0,0.6,0.0,-0.00748059912607133,3.5206212274726187,0.4999999583438219
8.210289716720581,1.5493164250050584,[2.20459066],5.0,0.6,0.0,-0.007087572621248935,3.487270768858213,0.49999996260601903
8.223441362380981,1.554201392923475,[2.20872289],5.0,0.6,0.0,0.26937373458671254,3.511685564504349,0.4999459875705914
8.232487440109253,1.557913968541472,[2.21265134],5.0,0.6,0.0,0.3029305353178185,3.5017880490916404,0.4999316933300959
8.241384506225586,1.5612357467259954,[2.21638564],5.0,0.6,0.0,0.24826112640053977,3.4653125047462767,0.4999541220299987
8.25327730178833,1.5663161133611485,[2.21993125],5.0,0.6,0.0,-0.10344742752462882,3.482940248639183,0.4999920339577333
8.261498928070068,1.569833290262409,[2.22330076],5.0,0.6,0.0,-0.20669823208758062,3.4704376544081885,0.4999681971246289
8.270395994186401,1.5735458658804056,[2.22650302],5.0,0.6,0.0,0.068190749974773,3.4305738859098818,0.49999653856559606
8.279448509216309,1.576672245348192,[2.2295404],5.0,0.6,0.0,0.13575518806025402,3.428149305802046,0.4999862812801101
8.28751540184021,1.5799940235327155,[2.23241922],5.0,0.6,0.0,0.12209481749222434,3.4223656805706852,0.49998890323686135
8.296650886535645,1.5833158017172388,[2.2351489],5.0,0.6,0.0,-0.19262796854294664,3.414921328580739,0.4999723793834468
8.305710554122925,1.587419174768709,[2.23773844],5.0,0.6,0.0,0.009892731968130203,3.4019868895705954,0.49999992714839425
8.313419103622437,1.590350155519759,[2.24019393],5.0,0.6,0.0,0.06432982958761033,3.369876956505184,0.4999969194366847
8.322415113449097,1.5938673324210193,[2.24251911],5.0,0.6,0.0,0.059969000573253745,3.3657011363890863,0.4999973229336518
8.330642223358154,1.596993711888806,[2.24472063],5.0,0.6,0.0,0.03678416868871042,3.360448946390109,0.49999899277121423
8.338634729385376,1.6003154900733294,[2.24680529],5.0,0.6,0.0,0.011501715913655786,3.3300063303017526,0.49999990152365853
8.346815586090088,1.6036372682578528,[2.24877753],5.0,0.6,0.0,-0.009790525351783774,3.327235170706268,0.49999992864594855
8.354935646057129,1.6069590464423762,[2.25064421],5.0,0.6,0.0,-0.025634906366482302,3.3212472762855283,0.499999510818602
8.362744092941284,1.609890027193426,[2.25241213],5.0,0.6,0.0,-0.03640702511120177,3.294233428207806,0.4999990133192994
8.37045407295227,1.6134072040946863,[2.25408579],5.0,0.6,0.0,-0.043062288542190144,3.289740453253989,0.49999861961481634
8.379393815994263,1.6169243809959462,[2.25566988],5.0,0.6,0.0,-0.04661067704777638,3.2624167304768,0.49999838275135583
8.387833833694458,1.620636956613943,[2.25716921],5.0,0.6,0.0,-0.047925129886785045,3.258140358639151,0.49999829025032455
8.39668345451355,1.624154133515203,[2.25859031],5.0,0.6,0.0,-0.04769540784308936,3.2489981381836466,0.4999983066018792
8.404448747634888,1.6268897155495166,[2.25993923],5.0,0.6,0.0,-0.04643976378124136,3.2258614797289695,0.49999839458993234
8.414412260055542,1.6309930886009865,[2.26122019],5.0,0.6,0.0,-0.04453506803601115,3.2185840503601293,0.499998523578794
8.423511505126953,1.6345102655022465,[2.26243923],5.0,0.6,0.0,-0.04224884902390683,3.20936536976632,0.4999986712726868
8.432521343231201,1.63783204368677,[2.26360336],5.0,0.6,0.0,-0.03976717494384197,3.199090622617901,0.4999988227853888
8.443448066711426,1.6423262141717134,[2.26471871],5.0,0.6,0.0,-0.03721687630785668,3.18146803094135,0.4999989689349504
8.453506231307983,1.6458433910729737,[2.26579063],5.0,0.6,0.0,-0.03468243478992132,3.167494759775798,0.49999910458277774
8.464482307434082,1.650337561557917,[2.26682383],5.0,0.6,0.0,-0.03221845393499999,3.148143820825276,0.4999992272914246
8.474422693252563,1.6546363333261238,[2.26782241],5.0,0.6,0.0,-0.02985869632869429,3.129180025405632,0.4999993363362893
8.484398126602173,1.6587397063775937,[2.26879125],5.0,0.6,0.0,0.24841581148086328,3.1246344757239037,0.49995406484406435
8.493970155715942,1.6624522819955905,[2.26973451],5.0,0.6,0.0,0.2836433629556485,3.089840036851652,0.49994011391566673
8.502963781356812,1.6659694588968506,[2.2706531],5.0,0.6,0.0,-0.04552552032356319,3.075429763236118,0.4999984571779341
8.513080835342407,1.669877433231584,[2.2715478],5.0,0.6,0.0,-0.15290330184814893,3.058634518482917,0.49998259665038847
8.521662950515747,1.6735900088495805,[2.2724206],5.0,0.6,0.0,-0.1666277304957628,3.0423097908743855,0.499979332294826
8.531616926193237,1.677497983184314,[2.27327315],5.0,0.6,0.0,0.13044975437056391,3.0246856614153503,0.4999873325935614
8.541507482528687,1.681601356235784,[2.27410687],5.0,0.6,0.0,0.1935569765326376,3.006135323214945,0.49997211233051136
8.550699234008789,1.6851185331370444,[2.27492293],5.0,0.6,0.0,-0.10902564150373051,2.9904463927902207,0.49999115169398717
8.559397459030151,1.6886357100383043,[2.27572125],5.0,0.6,0.0,-0.19452302328054225,2.963176534912171,0.499971833267848
8.5690438747406,1.692348285656301,[2.27650071],5.0,0.6,0.0,-0.19154018016469948,2.9500521963590782,0.49997269044661297
8.579891920089722,1.6966470574245076,[2.27726252],5.0,0.6,0.0,-0.158334962663549,2.9439054245697602,0.499981338256387
8.588479280471802,1.7001642343257677,[2.27800878],5.0,0.6,0.0,-0.11980711238351546,2.9156303032545097,0.4999893151793523
8.5975182056427,1.7036814112270278,[2.27873925],5.0,0.6,0.0,-0.08544798055337904,2.9018653275684803,0.49999456489521565
8.607637405395508,1.7079801829952348,[2.27945374],5.0,0.6,0.0,-0.05793403534514822,2.883816697595046,0.499997501535689
8.61708402633667,1.711888157329968,[2.28015311],5.0,0.6,0.0,-0.03715668139451981,2.86687902539547,0.4999989722675576
8.624465465545654,1.714819138081018,[2.28083807],5.0,0.6,0.0,-0.022050326902801145,2.8545506106525784,0.49999963805999925
8.63699221611023,1.719508707282698,[2.28150925],5.0,0.6,0.0,-0.011375637667450998,2.833445418122392,0.4999999036707598
8.646672487258911,1.7234166816174314,[2.28216718],5.0,0.6,0.0,-0.004019627947361977,2.815903133572157,0.4999999879724164
8.654451370239258,1.7267384598019548,[2.28281149],5.0,0.6,0.0,0.0009183606574076938,2.791913905720107,0.4999999993721828
8.663145065307617,1.7300602379864782,[2.28344105],5.0,0.6,0.0,0.0041285083002460705,2.7800218957102363,0.4999999873120051
8.671478271484375,1.7333820161710016,[2.28405502],5.0,0.6,0.0,0.006122821001603657,2.758364801793063,0.49999997209321606
8.680496454238892,1.7370945917889984,[2.28465361],5.0,0.6,0.0,0.0072732415865039346,2.7544816690698646,0.49999996062118124
8.69271183013916,1.7417841609906786,[2.28523869],5.0,0.6,0.0,0.007846070099722527,2.733031888519503,0.49999995417409787
8.70162034034729,1.745105939175202,[2.28581187],5.0,0.6,0.0,0.00802992370715475,2.7180831074456737,0.49999995200129804
8.70957612991333,1.7484277173597254,[2.28637296],5.0,0.6,0.0,0.007957236125055764,2.694915083588124,0.499999952866342
8.719268321990967,1.7521402929777221,[2.28692111],5.0,0.6,0.0,0.007720266086972575,2.680570965900767,0.4999999556318629
8.728272914886475,1.7558528685957189,[2.28745642],5.0,0.6,0.0,0.007382778212337869,2.665438919279235,0.49999995942614234
8.736610412597656,1.7591746467802423,[2.28797981],5.0,0.6,0.0,0.006988452951912823,2.651741250760733,0.49999996364461474
8.745424509048462,1.762887222398239,[2.2884921],5.0,0.6,0.0,0.0065668864172678055,2.6354777777437115,0.4999999678984745
8.755853652954102,1.7671859941664456,[2.28899398],5.0,0.6,0.0,0.00613784319696924,2.6161771877056523,0.49999997195611084
8.764063358306885,1.770507772350969,[2.28948541],5.0,0.6,0.0,0.005714256577426625,2.593967891286787,0.4999999756932923
8.772682428359985,1.774024949252229,[2.28996573],5.0,0.6,0.0,-0.2707340223166816,2.580639831307856,0.4999454407174441
8.782405853271484,1.7779329235869625,[2.29043513],5.0,0.6,0.0,-0.3042499111867795,2.564494637244983,0.49993109707322614
8.792757034301758,1.781645499204959,[2.29089451],5.0,0.6,0.0,-0.24952255264959938,2.5486903071095037,0.49995365465105945
8.802985906600952,1.7857488722564294,[2.29134464],5.0,0.6,0.0,-0.17378479593749818,2.5303559422127777,0.4999775187493235
8.811797142028809,1.7890706504409528,[2.29178621],5.0,0.6,0.0,-0.10358644723720498,2.515770114350021,0.4999920125328955
8.821768283843994,1.7933694222091594,[2.29221982],5.0,0.6,0.0,-0.32330479648151306,2.4962700590395177,0.4999221968502391
8.829614400863647,1.7964958016769463,[2.2926454],5.0,0.6,0.0,-0.3147118188711927,2.4755717563302024,0.4999262773798396
8.838454484939575,1.8000129785782062,[2.2930623],5.0,0.6,0.0,-0.23045871793310546,2.46168882258233,0.49996046554208595
8.847350120544434,1.8031393580459931,[2.29347066],5.0,0.6,0.0,-0.13508564184653643,2.448933678435643,0.49998641626635376
8.858046770095825,1.807242731097463,[2.29387121],5.0,0.6,0.0,-0.052631790516469344,2.4308217716603027,0.49999793793633635
8.865891695022583,1.8105645092819864,[2.2942646],5.0,0.6,0.0,0.010627420175459121,2.4162654463425652,0.4999999159258777
8.875977754592896,1.8150586797669297,[2.2946514],5.0,0.6,0.0,0.05555917750835483,2.395591701173917,0.4999977021731854
8.884793043136597,1.8185758566681898,[2.29503211],5.0,0.6,0.0,0.08538575083633168,2.3795685476186645,0.4999945728088032
8.892486095428467,1.8217022361359765,[2.29540661],5.0,0.6,0.0,0.103656776972373,2.359447126526206,0.4999920016831624
8.900726556777954,1.8248286156037634,[2.29577429],5.0,0.6,0.0,0.11349154062307482,2.3470170588763994,0.49999041196756994
8.908369541168213,1.8279549950715501,[2.29613468],5.0,0.6,0.0,0.11737932417237693,2.328238568892652,0.49998974382481337
8.918789386749268,1.8320583681230203,[2.29648743],5.0,0.6,0.0,0.39324330904325905,2.311352674282677,0.4998848989284852
8.9284987449646,1.8359663424577535,[2.29683281],5.0,0.6,0.0,0.4235121942270367,2.2948729741979994,0.49986650022622964
8.93673825263977,1.8390927219255402,[2.29717163],5.0,0.6,0.0,0.3638662227959245,2.2817685079980166,0.4999014521036597
8.945568084716797,1.8428052975435372,[2.29750459],5.0,0.6,0.0,0.006195647754478256,2.2652810042675147,0.4999999714254039
8.956230163574219,1.8471040693117438,[2.29783232],5.0,0.6,0.0,-0.1035174284859248,2.2457668131918394,0.4999920231732247
8.964717388153076,1.8504258474962672,[2.29815485],5.0,0.6,0.0,0.16473786319379552,2.2251839708201504,0.4999797984469308
8.973370790481567,1.853552226964054,[2.29847176],5.0,0.6,0.0,0.2257152498875734,2.2124933409312653,0.49996207618591015
8.982144832611084,1.8572648025820506,[2.29878322],5.0,0.6,0.0,-0.0703834949733072,2.1964127410005516,0.499996312375169
8.992504835128784,1.8615635743502574,[2.29908984],5.0,0.6,0.0,-0.14831903105277122,2.177190974361054,0.4999836245470052
9.000416994094849,1.8644945551013075,[2.29939217],5.0,0.6,0.0,-0.13941843367693424,2.16408119446619,0.4999855309242617
9.008428812026978,1.8680117320025675,[2.29969023],5.0,0.6,0.0,0.17346366605302013,2.142832242181364,0.49997760175508504
9.019488096237183,1.8721151050540379,[2.29998356],5.0,0.6,0.0,-0.02937807275781329,2.1252947068454087,0.49999935752978225
9.030366659164429,1.876609275538981,[2.30027227],5.0,0.6,0.0,-0.08335206065298853,2.1052642176536867,0.49999482825490354
9.038404941558838,1.8797356550067679,[2.30055696],5.0,0.6,0.0,-0.07813535032532605,2.091533956052135,0.49999545535641776
9.046495199203491,1.883252831908028,[2.30083767],5.0,0.6,0.0,-0.053912785928271825,2.070776071872807,0.4999978363386639
9.05626654624939,1.887160806242761,[2.30111402],5.0,0.6,0.0,0.24851268935360862,2.053966262294811,0.49995402901089325
9.065682888031006,1.8906779831440212,[2.30138614],5.0,0.6,0.0,0.30403814968580944,2.038475053709566,0.49993119294773974
9.073976755142212,1.8939997613285446,[2.30165458],5.0,0.6,0.0,0.2658635099448522,2.023689492092164,0.49994738600339755
9.083945035934448,1.8981031343800145,[2.3019198],5.0,0.6,0.0,0.20158025741184504,2.0048213998928834,0.4999697524969291
9.092068672180176,1.9012295138478013,[2.30218222],5.0,0.6,0.0,0.13868488645202046,1.9905532854639003,0.49998568277903804
