t_s,q_rad,q_des_rad,K,B,jerk,tau_Nm,ilc_ff_Nm
0.005246162414550781,-0.009769935836833513,[0.00043872],0.005,0.1,0.0,3.326423880443464,0
0.01537466049194336,-0.009574537120096843,[0.00212009],0.005,0.1,0.0,1.3189345765712146,0
0.024770021438598633,-0.008011347386203481,[0.005269],0.005,0.1,0.276038359678681,0.5334993847805553,0
0.034241676330566406,-0.005471164068626767,[0.00961785],0.005,0.1,1.6893547612335271,0.2278390288203845,0
0.04606199264526367,-0.0015631897338933619,[0.01492479],0.005,0.1,5.0,0.10000497906635866,0
0.0562283992767334,0.0019539871673667024,[0.02097285],0.005,0.1,5.0,0.04743501802185828,0
0.06713294982910156,0.005080366635153426,[0.02756893],0.005,0.1,5.0,0.023744378606523068,0
0.07903385162353516,0.008988340969886831,[0.03454264],0.005,0.1,5.0,0.011622879715440364,0
0.09097027778625488,0.012896315304620235,[0.04174492],0.005,0.1,5.0,0.005593449487275787,0
0.10046696662902832,0.01563189733893362,[0.04904679],0.005,0.1,5.0,0.0027009947974737576,0
0.11314964294433594,0.018953675523457014,[0.05633798],0.005,0.1,5.0,0.0011964588264145929,0
0.12451767921447754,0.0216892575577704,[0.06352531],0.005,0.1,3.919175201397449,0.0005072204124277157,0
0.13413190841674805,0.02383864344187377,[0.07053133],0.005,0.1,0.654870473345952,0.00023728728477785858,0
0.1422872543334961,0.0255972318925038,[0.07729303],0.005,0.1,-2.7001553393384645,0.00016214109808531516,0
0.15134739875793457,0.027355820343133833,[0.08376035],0.005,0.1,-5.0,0.00017942310645814068,0
0.16593003273010254,0.02989600366071055,[0.08989457],0.005,0.1,-5.0,0.00023181294366845425,0
0.17915678024291992,0.03243618697828726,[0.0956671],0.005,0.1,-5.0,0.0002936976453768842,0
0.19134783744812012,0.034194775428917294,[0.10105849],0.005,0.1,-5.0,0.00035831853422676476,0
0.2030339241027832,0.035953363879547326,[0.10605734],0.005,0.1,-5.0,0.00041559383863436244,0
0.2112720012664795,0.03693035746323068,[0.11065917],0.005,0.1,-5.0,0.00047529797819676953,0
0.22344160079956055,0.03829814848038737,[0.11486534],0.005,0.1,-5.0,0.0005301961363192293,0
0.23315691947937012,0.03927514206407072,[0.11868204],0.005,0.1,-5.0,0.0005811126437254472,0
0.24382400512695312,0.040056736931017405,[0.12211953],0.005,0.1,-5.0,0.0006291675278679524,0
0.2518045902252197,0.040642933081227406,[0.12519144],0.005,0.1,-5.0,0.0006750390580945853,0
0.26272058486938477,0.04142452794817409,[0.12791399],0.005,0.1,-5.0,0.0007110020649782063,0
0.27068567276000977,0.04161992666491077,[0.1303055],0.005,0.1,-5.0,0.0007494218321520032,0
0.2826693058013916,0.04220612281512077,[0.13238573],0.005,0.1,-5.0,0.0007825075026431019,0
0.29123497009277344,0.04220612281512077,[0.13417538],0.005,0.1,-5.0,0.0008160102950484489,0
0.30028390884399414,0.042401521531857445,[0.13569571],0.005,0.1,-4.735843665811377,0.0008481999742486357,0
0.3106992244720459,0.042401521531857445,[0.13696813],0.005,0.1,-4.742083022845432,0.0008738459824487663,0
0.3213942050933838,0.04220612281512077,[0.13801397],0.005,0.1,-4.225222598985189,0.0009016380099052884,0
0.33022570610046387,0.042401521531857445,[0.13885429],0.005,0.1,-3.863463214701307,0.0009117174832127999,0
0.3421602249145508,0.04220612281512077,[0.13950957],0.005,0.1,-3.297980729919855,0.0009345181551208963,0
0.3523373603820801,0.04220612281512077,[0.13999939],0.005,0.1,-2.4587269504489404,0.0009450392568561231,0
0.3624882698059082,0.04220612281512077,[0.14034249],0.005,0.1,-1.6612723087820962,0.0009526585452824536,0
0.37112951278686523,0.04220612281512077,[0.14055671],0.005,0.1,-0.7328197440208208,0.000955913293330733,0
0.38313961029052734,0.0420107240983841,[0.14065884],0.005,0.1,0.34624036127916413,0.0009653119365616784,0
0.39377260208129883,0.04220612281512077,[0.1406644],0.005,0.1,1.2646197902902745,0.0009594354075505211,0
0.4027266502380371,0.0420107240983841,[0.1405878],0.005,0.1,1.9415925125407583,0.0009624605860828665,0
0.41017651557922363,0.0420107240983841,[0.14044239],0.005,0.1,2.3889083478362525,0.0009570737068902125,0
0.4201369285583496,0.0420107240983841,[0.1402404],0.005,0.1,2.648617756652051,0.0009512518944812153,0
0.42974376678466797,0.0420107240983841,[0.13999286],0.005,0.1,2.7667896953865685,0.0009442224849514352,0
0.43714427947998047,0.0420107240983841,[0.13970967],0.005,0.1,2.7837324240507058,0.0009361044147365216,0
0.4471464157104492,0.04181532538164743,[0.13939968],0.005,0.1,2.7314554395374,0.0009319722823225334,0
0.4582846164703369,0.04181532538164743,[0.13907075],0.005,0.1,2.6340448691640264,0.0009234297749362682,0
0.4671180248260498,0.04181532538164743,[0.13872975],0.005,0.1,2.5090007540846866,0.0009129804883884343,0
0.475125789642334,0.04181532538164743,[0.1383827],0.005,0.1,2.3687090104260857,0.0009031361457641386,0
0.4859638214111328,0.04181532538164743,[0.13803473],0.005,0.1,2.2217384535349805,0.0008939588197757598,0
0.49517107009887695,0.04181532538164743,[0.13769019],0.005,0.1,2.0738808631499035,0.0008836777755883268,0
0.5041213035583496,0.04181532538164743,[0.13735275],0.005,0.1,1.9289440197951309,0.0008744748261972247,0
0.5149123668670654,0.04181532538164743,[0.13702545],0.005,0.1,1.7893383289839802,0.000865469559201822,0
0.5270969867706299,0.04181532538164743,[0.13671069],0.005,0.1,1.6565022905981912,0.0008567857250975055,0
0.5371789932250977,0.04181532538164743,[0.13641038],0.005,0.1,1.5312069000994868,0.0008485545265858092,0
0.5460991859436035,0.04181532538164743,[0.13612439],0.005,0.1,1.4137712396139848,0.0009373271985345611,0
0.5571177005767822,0.04181532538164743,[0.13584986],0.005,0.1,1.3042139328096116,0.0010007554413102408,0
0.56514573097229,0.04181532538164743,[0.13558487],0.005,0.1,1.2023587769896773,0.0009028909351768342,0
0.5741822719573975,0.04181532538164743,[0.1353304],0.005,0.1,1.1079078880686433,0.0008588783163854759,0
0.5882411003112793,0.04161992666491077,[0.13508783],0.005,0.1,1.0204919473272254,0.0008510458688048019,0
0.5971276760101318,0.04161992666491077,[0.13485772],0.005,0.1,0.93970438527259,0.000840060465554839,0
0.6062207221984863,0.04161992666491077,[0.13464028],0.005,0.1,0.8651243453222082,0.0008249566815053315,0
0.6153671741485596,0.04161992666491077,[0.13443571],0.005,0.1,0.7963318429361013,0.0008181799504103569,0
0.6273229122161865,0.04161992666491077,[0.13424387],0.005,0.1,0.732917520983818,0.0008146041012600866,0
0.636554479598999,0.04161992666491077,[0.13406441],0.005,0.1,0.6744886840503539,0.0008053739900831929,0
0.644542932510376,0.04161992666491077,[0.13389717],0.005,0.1,0.6206727881017042,0.0007957950892366769,0
0.655113935470581,0.04161992666491077,[0.133742],0.005,0.1,0.5711192059231864,0.0007901928048249695,0
0.6641566753387451,0.04161992666491077,[0.13359868],0.005,0.1,0.5254998389214923,0.0007847372888022567,0
0.6762423515319824,0.04142452794817409,[0.13346681],0.005,0.1,0.48350897086999894,0.0007857052587766909,0
0.6845872402191162,0.04142452794817409,[0.133346],0.005,0.1,0.44486263675981474,0.0007804168712909432,0
0.6950054168701172,0.04142452794817409,[0.1332359],0.005,0.1,0.409297694418548,0.0007767670209783759,0
0.7053580284118652,0.04142452794817409,[0.13313608],0.005,0.1,0.37657072693869165,0.0007739855774380088,0
0.7131145000457764,0.04142452794817409,[0.13304606],0.005,0.1,0.34645686246211793,0.0007717064658945069,0
0.7248687744140625,0.04142452794817409,[0.1329654],0.005,0.1,0.3187485690536047,0.0007690076791296308,0
0.734102725982666,0.04142452794817409,[0.13289363],0.005,0.1,0.2932544624479809,0.0007666745909570181,0
0.7442004680633545,0.04142452794817409,[0.13283025],0.005,0.1,0.2697981506985799,0.0007646177772852189,0
0.7531368732452393,0.04142452794817409,[0.13277478],0.005,0.1,0.24821713031688664,0.0007630819075115667,0
0.7640151977539062,0.04142452794817409,[0.13272675],0.005,0.1,0.22836174206431414,0.000761771614793412,0
0.7731842994689941,0.04142452794817409,[0.13268565],0.005,0.1,0.2100941902205355,0.0007607160238265728,0
0.7811534404754639,0.04103373051470075,[0.13265101],0.005,0.1,0.19328762626805981,0.0007695658590604875,0
0.7901871204376221,0.04142452794817409,[0.13262233],0.005,0.1,0.17782529605233766,0.0007592570399384971,0
0.7982878684997559,0.04103373051470075,[0.13259913],0.005,0.1,0.16359974828820917,0.0007683546665980942,0
0.8099410533905029,0.04103373051470075,[0.13258104],0.005,0.1,0.15051210156921954,0.0007683571771341557,0
0.8181447982788086,0.04103373051470075,[0.13256773],0.005,0.1,0.13847136664454224,0.0007680550075280594,0
0.8270831108093262,0.04103373051470075,[0.13255887],0.005,0.1,0.12739382055358778,0.0007684322352892151,0
0.8369917869567871,0.04103373051470075,[0.13255426],0.005,0.1,0.1172024291777303,0.000769452462339353,0
0.8491947650909424,0.04103373051470075,[0.13255397],0.005,0.1,0.107826314831414,0.0007747529371684639,0
0.8595647811889648,0.04103373051470075,[0.13255833],0.005,0.1,0.09920026563643314,0.0007798135753324754,0
0.869112491607666,0.04103373051470075,[0.1325678],0.005,0.1,0.0912642835795916,0.0007869297314319171,0
0.8786969184875488,0.04103373051470075,[0.13258285],0.005,0.1,0.08396316832907573,0.0007983958378931786,0
0.8889508247375488,0.04103373051470075,[0.13260416],0.005,0.1,0.0772461340678457,0.0008147132719211721,0
0.8984372615814209,0.04103373051470075,[0.13263257],0.005,0.1,0.07106645678598543,0.0008376003581088636,0
0.9101169109344482,0.04103373051470075,[0.13266912],0.005,0.1,0.06538114965360368,0.0008689266587162801,0
0.9218103885650635,0.04103373051470075,[0.13271554],0.005,0.1,0.060150664268663424,0.0009848085073194996,0
0.9292092323303223,0.04103373051470075,[0.13277368],0.005,0.1,0.05533861573831396,0.0009467579503154327,0
0.9399659633636475,0.04103373051470075,[0.13284451],0.005,0.1,0.05091152970704932,0.0010176351830879634,0
0.9500930309295654,0.04103373051470075,[0.13292918],0.005,0.1,0.04683860958994579,0.0011016791833558736,0
0.9611608982086182,0.04083833179796408,[0.13302953],0.005,0.1,0.04309152240437232,0.0012075587602483758,0
0.9711298942565918,0.04103373051470075,[0.13314744],0.005,0.1,0.03964420171915809,0.0013160619442434617,0
0.9811263084411621,0.04103373051470075,[0.13328484],0.005,0.1,0.0364726663566204,0.0014449260658661893,0
0.9920914173126221,0.04103373051470075,[0.13344367],0.005,0.1,0.03355485359058725,0.0015907435624138864,0
1.0051720142364502,0.04103373051470075,[0.13362687],0.005,0.1,0.030870465683087742,0.0021430295856068064,0
1.0160176753997803,0.04103373051470075,[0.13383935],0.005,0.1,0.02840082869426397,0.0027439176239038047,0
1.027461290359497,0.04103373051470075,[0.13408561],0.005,0.1,0.026128762584799185,0.0027568143786004186,0
1.0364091396331787,0.04103373051470075,[0.13436757],0.005,0.1,0.02403846170826864,0.002820080440229477,0
1.0454840660095215,0.04083833179796408,[0.13468451],0.005,0.1,0.022115384862784485,0.0023230458272984443,0
1.054516077041626,0.04103373051470075,[0.13503446],0.005,0.1,0.020346154137585924,0.0025904016234319562,0
1.0640676021575928,0.04083833179796408,[0.13541698],0.005,0.1,0.018718461851255967,0.0028564153227646485,0
1.0741081237792969,0.04083833179796408,[0.13583286],0.005,0.1,0.0172209849344293,0.0031220473398920765,0
1.083099603652954,0.04103373051470075,[0.13628276],0.005,0.1,0.015843306161566657,0.0033622909777623515,0
1.0911099910736084,0.04083833179796408,[0.13676567],0.005,0.1,0.014575841683965491,0.0027922151222594957,0
1.1004607677459717,0.04083833179796408,[0.13727908],0.005,0.1,0.013409774359975205,0.0032056947998891925,0
1.1101281642913818,0.04103373051470075,[0.13782384],0.005,0.1,0.012336992418686044,0.004606916142880599,0
1.1220932006835938,0.04103373051470075,[0.13840365],0.005,0.1,0.011350033030447345,0.004707329286781714,0
1.1301076412200928,0.04103373051470075,[0.13901836],0.005,0.1,0.010442030391690888,0.003730858428737022,0
1.13810396194458,0.04103373051470075,[0.13966442],0.005,0.1,0.009606667962931153,0.004144678457644811,0
1.1490349769592285,0.04083833179796408,[0.14034028],0.005,0.1,0.008838134527699548,0.004530824980685759,0
1.1612496376037598,0.04103373051470075,[0.14104775],0.005,0.1,0.008131083766745598,0.00615581817987719,0
1.171177864074707,0.04083833179796408,[0.14178974],0.005,0.1,0.007480597066289346,0.006029000100554105,0
1.1804237365722656,0.04103373051470075,[0.14256489],0.005,0.1,0.0068821493016045805,0.004610428017891582,0
1.1920950412750244,0.04103373051470075,[0.14336973],0.005,0.1,0.0063315773579090805,0.006148705980671513,0
1.2000811100006104,0.04103373051470075,[0.14420237],0.005,0.1,0.005825051169579366,0.004667732090968822,0
1.2092244625091553,0.04103373051470075,[0.14505893],0.005,0.1,0.0053590470762251196,0.004768615598806032,0
1.2191011905670166,0.04103373051470075,[0.14593522],0.005,0.1,0.00493032331027559,0.004739108533601836,0
1.2315795421600342,0.04083833179796408,[0.14681485],0.005,0.1,0.00453589744555748,0.0017695555144245042,0
1.2410778999328613,0.04103373051470075,[0.14766668],0.005,0.1,0.00417302564998563,0.0015787897138407638,0
1.2491905689239502,0.04103373051470075,[0.14847592],0.005,0.1,0.003839183598037704,0.0013227302891597602,0
1.2618608474731445,0.04103373051470075,[0.14924812],0.005,0.1,0.00353204891023034,0.0017528219938753727,0
1.2721827030181885,0.04103373051470075,[0.1499887],0.005,0.1,0.003249484997436874,0.0017225095749649488,0
1.2819747924804688,0.04103373051470075,[0.15069758],0.005,0.1,0.0029895261976593855,0.0016072455071943922,0
1.2910678386688232,0.04083833179796408,[0.15137226],0.005,0.1,0.0027503641018588624,0.0015225778297200832,0
1.30281662940979,0.04103373051470075,[0.15201053],0.005,0.1,0.002530334973718713,0.0015187207311928145,0
1.3121051788330078,0.04103373051470075,[0.1526112],0.005,0.1,0.002327908175827207,0.001497865319131611,0
1.3236184120178223,0.04103373051470075,[0.15317359],0.005,0.1,0.0021416755217652235,0.0014904468501780086,0
1.333505392074585,0.04103373051470075,[0.15369734],0.005,0.1,0.001970341480026945,0.0014897010014369926,0
1.3444409370422363,0.04103373051470075,[0.1541825],0.005,0.1,0.0018127141616268434,0.0014939278232316657,0
1.3560972213745117,0.04083833179796408,[0.15462953],0.005,0.1,0.0016676970286981338,0.0015074514366171423,0
1.365149736404419,0.04083833179796408,[0.15503917],0.005,0.1,0.0015342812664032907,0.0015140309262371995,0
1.3750512599945068,0.04103373051470075,[0.15541238],0.005,0.1,0.0014115387650917325,0.0015140319490434934,0
1.384303331375122,0.04103373051470075,[0.15575033],0.005,0.1,0.0012986156638848884,0.0015221180158908052,0
1.3950977325439453,0.04103373051470075,[0.15605438],0.005,0.1,0.0011947264107744437,0.001530665821735289,0
1.4056682586669922,0.04103373051470075,[0.15632599],0.005,0.1,0.001099148297912729,0.001537921340930112,0
1.4177131652832031,0.04103373051470075,[0.15656669],0.005,0.1,0.0010112164340798802,0.0015456303047360147,0
1.4281980991363525,0.04103373051470075,[0.15677806],0.005,0.1,0.0009303191193536079,0.0015530092238690832,0
1.4385309219360352,0.04103373051470075,[0.15696172],0.005,0.1,0.0008558935898054012,0.0015600097014727805,0
1.4504921436309814,0.04103373051470075,[0.15711933],0.005,0.1,0.0007874221026210274,0.001566563227176244,0
1.4591190814971924,0.04083833179796408,[0.15725254],0.005,0.1,0.0007244283344113865,0.0015804110774498574,0
1.4684991836547852,0.04103373051470075,[0.15736301],0.005,0.1,0.0006664740676585042,0.0015780845044858149,0
1.4788148403167725,0.04103373051470075,[0.15745236],0.005,0.1,0.0006131561422458439,0.0015827277303167545,0
1.4880778789520264,0.04103373051470075,[0.15752221],0.005,0.1,0.0005641036508661902,0.0015868801976430078,0
1.4983444213867188,0.04103373051470075,[0.15757409],0.005,0.1,0.0005189753587969046,0.001590333742188301,0
1.5087242126464844,0.04103373051470075,[0.15760952],0.005,0.1,0.00047745733009315814,0.0015930600614074383,0
1.5160539150238037,0.04103373051470075,[0.15762996],0.005,0.1,0.0004392607436857105,0.001595135856748578,0
1.5250828266143799,0.04083833179796408,[0.15763689],0.005,0.1,0.0004041198841908571,0.0016013775873623,0
1.5333504676818848,0.04103373051470075,[0.15763182],0.005,0.1,0.00037179029345559076,0.0015950007678031536,0
1.543062448501587,0.04103373051470075,[0.15761608],0.005,0.1,0.00034204706997914525,0.0015952657131153248,0
1.5541698932647705,0.04103373051470075,[0.15759084],0.005,0.1,0.0003146833043808153,0.0015958464113108072,0
1.5650925636291504,0.04103373051470075,[0.15755719],0.005,0.1,0.00028950864003035104,0.0015951639692005346,0
1.5734379291534424,0.04103373051470075,[0.15751614],0.005,0.1,0.0002663479488279236,0.0015945209310297753,0
1.5830442905426025,0.04103373051470075,[0.15746864],0.005,0.1,0.00024504011292168966,0.0015932262507801515,0
1.5942649841308594,0.04103373051470075,[0.15741557],0.005,0.1,0.00022543690388795523,0.001591372942405658,0
1.6037425994873047,0.04103373051470075,[0.15735775],0.005,0.1,0.00020740195157691876,0.0015894758185823203,0
1.6120398044586182,0.04103373051470075,[0.15729602],0.005,0.1,0.00019080979545076527,0.001583272464970435,0
1.6220545768737793,0.04103373051470075,[0.15723123],0.005,0.1,0.0001755450118147042,0.0015822275353447647,0
1.6365416049957275,0.04103373051470075,[0.15716384],0.005,0.1,0.00016150141086952814,0.001590561398790874,0
1.644651174545288,0.04083833179796408,[0.15709405],0.005,0.1,0.0001485812979999657,0.0015885736874829627,0
1.6520569324493408,0.04103373051470075,[0.15702248],0.005,0.1,0.00013669479415996853,0.0015736572765701988,0
1.661088466644287,0.04103373051470075,[0.15694983],0.005,0.1,0.00012575921062717098,0.0015719940778005405,0
1.670044183731079,0.04103373051470075,[0.15687653],0.005,0.1,0.00011569847377699755,0.0015700678695890313,0
1.6790289878845215,0.04103373051470075,[0.15680283],0.005,0.1,0.00010644259587483773,0.0015688992765794704,0
1.6905369758605957,0.04103373051470075,[0.15672881],0.005,0.1,9.79271882048507e-05,0.0015724626332140922,0
1.701875925064087,0.04103373051470075,[0.1566544],0.005,0.1,9.009301314846262e-05,0.001568965653315827,0
1.7100515365600586,0.04103373051470075,[0.15657979],0.005,0.1,8.288557209658562e-05,0.0015598565797409066,0
1.7192165851593018,0.04103373051470075,[0.15650533],0.005,0.1,7.625472632885868e-05,0.0015574746287858716,0
1.728595495223999,0.04103373051470075,[0.15643122],0.005,0.1,7.015434822255006e-05,0.0015562070793314182,0
1.737060785293579,0.04103373051470075,[0.15635759],0.005,0.1,6.454200036474611e-05,0.0015485377184229112,0
1.745138168334961,0.04103373051470075,[0.15628466],0.005,0.1,5.937864033556639e-05,0.0015487376355808472,0
1.7530479431152344,0.04103373051470075,[0.15621254],0.005,0.1,5.462834910872109e-05,0.0015423975438146286,0
1.7632646560668945,0.04103373051470075,[0.15614119],0.005,0.1,5.025808118002343e-05,0.0015504707038926798,0
1.7710378170013428,0.04103373051470075,[0.1560704],0.005,0.1,4.623743468562155e-05,0.0015411670915558735,0
1.7804253101348877,0.04103373051470075,[0.15600012],0.005,0.1,4.2538439910771844e-05,0.001541700857917329,0
1.7895655632019043,0.04103373051470075,[0.15593029],0.005,0.1,3.9135364717910045e-05,0.00154115065248666,0
1.800036907196045,0.04103373051470075,[0.15586068],0.005,0.1,3.6004535540477256e-05,0.0015409272142700146,0
1.8117976188659668,0.04103373051470075,[0.15579095],0.005,0.1,3.312417269723908e-05,0.001550585863993368,0
1.8222417831420898,0.04103373051470075,[0.15572061],0.005,0.1,3.0474238881459928e-05,0.0015460201849337263,0
1.833409309387207,0.04103373051470075,[0.15564943],0.005,0.1,2.8036299770943197e-05,0.001543531152904772,0
1.8432936668395996,0.04103373051470075,[0.15557727],0.005,0.1,2.5793395789267762e-05,0.0015415455397134697,0
1.8552930355072021,0.04103373051470075,[0.15550404],0.005,0.1,2.3729924126126293e-05,0.001539088280538228,0
1.867027997970581,0.04103373051470075,[0.15542948],0.005,0.1,2.1831530196036233e-05,0.001549459395925951,0
1.8750789165496826,0.04103373051470075,[0.15535339],0.005,0.1,2.0085007780353315e-05,0.0015309076048990091,0
1.8840358257293701,0.04103373051470075,[0.15527592],0.005,0.1,1.847820715792504e-05,0.001529427716098365,0
1.8960483074188232,0.04103373051470075,[0.1551972],0.005,0.1,1.699995058529101e-05,0.0015285657899401395,0
1.9099328517913818,0.04103373051470075,[0.15511701],0.005,0.1,1.563995453846775e-05,0.0015398107901724424,0
1.922057867050171,0.04103373051470075,[0.15503488],0.005,0.1,1.4388758175390352e-05,0.0015464704019265288,0
1.9320154190063477,0.04103373051470075,[0.15495048],0.005,0.1,1.3237657521359092e-05,0.0015354580635006413,0
1.9453465938568115,0.04103373051470075,[0.15486373],0.005,0.1,1.2178644919650375e-05,0.0015413272470287203,0
1.9538731575012207,0.04103373051470075,[0.15477475],0.005,0.1,1.1204353326078356e-05,0.0015167320483819421,0
1.963552713394165,0.04103373051470075,[0.15468396],0.005,0.1,1.0308005059992085e-05,0.001510647636834492,0
1.9726436138153076,0.04103373051470075,[0.1545918],0.005,0.1,9.483364655192702e-06,0.0015047230749913076,0
1.980466604232788,0.04103373051470075,[0.15449856],0.005,0.1,8.724695482777298e-06,0.0014986924133394406,0
1.9880492687225342,0.04103373051470075,[0.15440463],0.005,0.1,8.02671984415511e-06,0.0014851405785653961,0
1.996150255203247,0.04103373051470075,[0.15431065],0.005,0.1,7.384582256622705e-06,0.001474263423621792,0
2.0047109127044678,0.04103373051470075,[0.15421717],0.005,0.1,6.793815676092886e-06,0.0014734467059640424,0
2.0124900341033936,0.04103373051470075,[0.15412441],0.005,0.1,6.250310422005454e-06,0.0014711408240427664,0
2.0228872299194336,0.04103373051470075,[0.15403246],0.005,0.1,5.750285588245024e-06,0.0014681129777294071,0
2.032025098800659,0.04103373051470075,[0.15394153],0.005,0.1,5.2902627411854225e-06,0.0014583007594116185,0
2.04305362701416,0.04103373051470075,[0.1538518],0.005,0.1,4.86704172189059e-06,0.001462461609372549,0
2.0543923377990723,0.04103373051470075,[0.15376312],0.005,0.1,4.477678384139343e-06,0.0014648973739037532,0
2.065047025680542,0.04103373051470075,[0.15367537],0.005,0.1,4.119464113408196e-06,0.0014508887660305272,0
2.0755317211151123,0.04103373051470075,[0.15358868],0.005,0.1,3.78990698433554e-06,0.0014535864968847733,0
2.084026336669922,0.04103373051470075,[0.15350318],0.005,0.1,3.4867144255886974e-06,0.0014419737600810845,0
2.095252513885498,0.04103373051470075,[0.15341896],0.005,0.1,3.2077772715416016e-06,0.0014437153218426208,0
2.105358362197876,0.04103373051470075,[0.15333603],0.005,0.1,2.9511550898182714e-06,0.0014380664661149264,0
2.114046573638916,0.04103373051470075,[0.1532545],0.005,0.1,2.715062682632811e-06,0.0014286443650546315,0
2.1250228881835938,0.04103373051470075,[0.15317463],0.005,0.1,2.497857668022186e-06,0.0014259584291087075,0
2.1330533027648926,0.04103373051470075,[0.15309662],0.005,0.1,2.2980290545804086e-06,0.0014193751101914721,0
2.143962860107422,0.04103373051470075,[0.15302054],0.005,0.1,2.1141867302139766e-06,0.0014217037150811335,0
2.1544127464294434,0.04103373051470075,[0.15294621],0.005,0.1,1.945051791796856e-06,0.0014194105171757721,0
2.1640522480010986,0.04103373051470075,[0.15287343],0.005,0.1,1.789447648453109e-06,0.0014165949661840934,0
2.1768534183502197,0.04103373051470075,[0.15280202],0.005,0.1,1.6462918365768602e-06,0.001418799382047965,0
2.1878037452697754,0.04103373051470075,[0.15273171],0.005,0.1,1.5145884896507135e-06,0.0014146476094200396,0
2.1980197429656982,0.04103373051470075,[0.15266237],0.005,0.1,1.3934214104786558e-06,0.0014112522494446303,0
2.2103922367095947,0.04103373051470075,[0.15259383],0.005,0.1,1.281947697640362e-06,0.001413296546312479,0
2.219036817550659,0.04103373051470075,[0.15252597],0.005,0.1,1.1793918818291338e-06,0.001403619272505962,0
2.2290713787078857,0.04103373051470075,[0.15245884],0.005,0.1,1.0850405312828065e-06,0.0014013402979453217,0
2.238072633743286,0.04103373051470075,[0.15239248],0.005,0.1,9.982372887801815e-07,0.0013996769808385563,0
2.2483701705932617,0.04103373051470075,[0.15232678],0.005,0.1,9.183783056777677e-07,0.0013977877816635372,0
2.2590503692626953,0.04103373051470075,[0.15226162],0.005,0.1,8.449080412235445e-07,0.0013957559889681626,0
2.2717952728271484,0.04103373051470075,[0.15219677],0.005,0.1,7.773153979256607e-07,0.0014003867489264575,0
2.2827820777893066,0.04103373051470075,[0.15213193],0.005,0.1,7.151301660916083e-07,0.001396612342107233,0
2.2927849292755127,0.04103373051470075,[0.15206693],0.005,0.1,6.579197528042798e-07,0.0013931871500872403,0
2.3020310401916504,0.04103373051470075,[0.15200184],0.005,0.1,6.052861725799372e-07,0.0013841381497575903,0
2.3149361610412598,0.04103373051470075,[0.15193674],0.005,0.1,5.568632787735427e-07,0.0013888418130466897,0
2.3251736164093018,0.04103373051470075,[0.15187137],0.005,0.1,5.123142164716591e-07,0.0013931957068390674,0
2.336596727371216,0.04103373051470075,[0.15180535],0.005,0.1,4.713290791539266e-07,0.0013878965234576182,0
2.3468024730682373,0.04103373051470075,[0.15173864],0.005,0.1,4.336227528216126e-07,0.0013828069039058914,0
2.3551433086395264,0.04103373051470075,[0.15167143],0.005,0.1,3.989329325958837e-07,0.0013727273508109914,0
2.3670053482055664,0.04103373051470075,[0.15160395],0.005,0.1,3.6701829798821246e-07,0.0013758050991768763,0
2.3790555000305176,0.04103373051470075,[0.15153606],0.005,0.1,3.376568341491557e-07,0.0013783595882254109,0
2.387665033340454,0.04103373051470075,[0.15146766],0.005,0.1,3.106442874172228e-07,0.0013668858520239184,0
2.395385265350342,0.04103373051470075,[0.15139908],0.005,0.1,2.85792744423845e-07,0.001358991904261534,0
2.4070215225219727,0.04103373051470075,[0.15133065],0.005,0.1,2.629293248699375e-07,0.0013615971434365727,0
2.4168903827667236,0.04103373051470075,[0.15126236],0.005,0.1,2.4189497888034237e-07,0.001357725153062962,0
2.426628351211548,0.04103373051470075,[0.15119424],0.005,0.1,2.2254338056991533e-07,0.0013541117839736259,0
2.435988426208496,0.04103373051470075,[0.15112651],0.005,0.1,2.047399101243221e-07,0.001346896329848331,0
2.4475345611572266,0.04083833179796408,[0.15105936],0.005,0.1,1.8836071731437626e-07,0.001355273288212323,0
2.457561731338501,0.04103373051470075,[0.15099284],0.005,0.1,1.732918599292262e-07,0.0013441836451683641,0
2.4673454761505127,0.04103373051470075,[0.1509233],0.005,0.1,1.594285111348881e-07,0.002000365005980683,0
2.4766933917999268,0.04103373051470075,[0.15084292],0.005,0.1,1.466742302440971e-07,0.0020285111798322287,0
2.4880197048187256,0.04103373051470075,[0.15074826],0.005,0.1,1.3494029182456943e-07,0.001583465067193867,0
2.5006635189056396,0.04103373051470075,[0.15064241],0.005,0.1,1.2414506847860375e-07,0.001422014073537122,0
2.5090243816375732,0.04103373051470075,[0.15052925],0.005,0.1,1.1421346300031551e-07,0.0013623183626750653,0
2.520014762878418,0.04083833179796408,[0.15041167],0.005,0.1,1.0507638596029039e-07,0.0013368081809628516,0
2.5290119647979736,0.04083833179796408,[0.15029226],0.005,0.1,9.667027508346698e-08,0.0013155467883576588,0
2.5401434898376465,0.04103373051470075,[0.15017388],0.005,0.1,8.89366530767896e-08,0.0013050321715829811,0
2.548448324203491,0.04103373051470075,[0.15005979],0.005,0.1,8.18217208306465e-08,0.0013287573327542955,0
2.5580625534057617,0.04103373051470075,[0.14995363],0.005,0.1,7.527598316419465e-08,0.0013877438804671537,0
2.567997694015503,0.04103373051470075,[0.14985933],0.005,0.1,6.925390451105912e-08,0.001487875025055891,0
2.576101303100586,0.04103373051470075,[0.14978029],0.005,0.1,6.371359215017441e-08,0.001488408400632885,0
2.584918260574341,0.04103373051470075,[0.14971933],0.005,0.1,5.8616504778160535e-08,0.0016644212979662386,0
2.5939855575561523,0.04103373051470075,[0.14968009],0.005,0.1,5.392718439590763e-08,0.001897205938821279,0
2.6070477962493896,0.04103373051470075,[0.14966814],0.005,0.1,4.961300964423503e-08,0.0026496504158140333,0
2.619325637817383,0.04103373051470075,[0.14969143],0.005,0.1,4.564396887269623e-08,0.0036892189923075367,0
2.6269702911376953,0.04103373051470075,[0.14975497],0.005,0.1,4.19924513628805e-08,0.003703245825489064,0
2.637071371078491,0.04103373051470075,[0.14985983],0.005,0.1,3.86330552538501e-08,0.004999062273515308,0
2.647637128829956,0.04103373051470075,[0.15001008],0.005,0.1,3.554241083354209e-08,0.005176974915504855,0
2.6581408977508545,0.04103373051470075,[0.15021087],0.005,0.1,3.269901796685877e-08,0.005480834139179009,0
2.66701602935791,0.04103373051470075,[0.15046358],0.005,0.1,3.0083096529510064e-08,0.004501316880220228,0
2.677703619003296,0.04103373051470075,[0.15076964],0.005,0.1,2.767644880714925e-08,0.006896546571877706,0
2.690124750137329,0.04103373051470075,[0.15113627],0.005,0.1,2.546233290257731e-08,0.009582670925335598,0
2.7000112533569336,0.04103373051470075,[0.15156964],0.005,0.1,2.3425346270371144e-08,0.007330827572139787,0
2.7102630138397217,0.04103373051470075,[0.15206889],0.005,0.1,2.1551318568741455e-08,0.008104748919329819,0
2.720663547515869,0.04103373051470075,[0.15263321],0.005,0.1,1.982721308324211e-08,0.008941759134799594,0
2.728656768798828,0.04103373051470075,[0.15326406],0.005,0.1,1.8241036036582767e-08,0.009802449957513426,0
2.738034963607788,0.04103373051470075,[0.15396251],0.005,0.1,1.6781753153656133e-08,0.01066383052169007,0
2.7482588291168213,0.04103373051470075,[0.15472931],0.005,0.1,1.5439212901363644e-08,0.011527506509812673,0
2.759002923965454,0.04103373051470075,[0.15556479],0.005,0.1,1.4204075869254542e-08,0.01238146577255284,0
2.7710158824920654,0.04103373051470075,[0.15647172],0.005,0.1,1.3067749799714204e-08,0.017317069505263835,0
2.7817327976226807,0.04103373051470075,[0.15745474],0.005,0.1,1.2022329815737054e-08,0.01698407121497443,0
2.790022134780884,0.04103373051470075,[0.15851161],0.005,0.1,1.1060543430478082e-08,0.012712579324507483,0
2.800384283065796,0.04103373051470075,[0.15963408],0.005,0.1,1.0175699956039839e-08,0.013820036183119451,0
2.812976837158203,0.04103373051470075,[0.16082002],0.005,0.1,9.36164395955664e-09,0.01915643617229755,0
2.824373960494995,0.04142452794817409,[0.16207505],0.005,0.1,8.612712442792128e-09,0.023230081867618393,0
2.833961009979248,0.04142452794817409,[0.1633999],0.005,0.1,7.923695447368763e-09,0.01645638619479636,0
2.8421056270599365,0.04142452794817409,[0.16478294],0.005,0.1,7.289799811579254e-09,0.01238026102689523,0
2.852992534637451,0.04142452794817409,[0.16621297],0.005,0.1,6.7066158266529075e-09,0.016987774514003268,0
2.8654751777648926,0.04161992666491077,[0.16768938],0.005,0.1,0.2760383658487675,0.019847998700524363,0
2.876551866531372,0.04161992666491077,[0.16919821],0.005,0.1,0.30916296851660235,0.0031411960499029582,0
2.8873798847198486,0.04181532538164743,[0.17069814],0.005,0.1,0.2540657114706192,0.0022635022401300067,0
2.8959710597991943,0.04181532538164743,[0.17215506],0.005,0.1,0.17798070589787604,0.002377164603148116,0
2.9088737964630127,0.0420107240983841,[0.17356303],0.005,0.1,0.10745802788756294,0.004096204833253511,0
2.919963836669922,0.0420107240983841,[0.17492692],0.005,0.1,0.3268745915183422,0.004542105026086924,0
2.931161880493164,0.0420107240983841,[0.17624682],0.005,0.1,0.31800158909080345,0.0039655419679972305,0
2.939725160598755,0.04220612281512077,[0.1775172],0.005,0.1,0.23348919778462948,0.00341542955444123,0
2.949985980987549,0.04220612281512077,[0.1787319],0.005,0.1,0.13787640723429273,0.0032758057549224294,0
2.960069179534912,0.04220612281512077,[0.17988694],0.005,0.1,0.055201201445087875,0.0033079214802215966,0
2.9729881286621094,0.04220612281512077,[0.18098022],0.005,0.1,-0.008262227368424822,0.003204795152597837,0
2.9823851585388184,0.042401521531857445,[0.18201006],0.005,0.1,-0.05338226579277633,0.003123891054584997,0
2.99098539352417,0.042401521531857445,[0.18297495],0.005,0.1,-0.08338233802167752,0.0030306909222422894,0
3.0019822120666504,0.042401521531857445,[0.18387421],0.005,0.1,-0.10181317935589218,0.003086919831136441,0
3.014073610305786,0.042401521531857445,[0.18470835],0.005,0.1,-0.3878334700149275,0.0030796794316057083,0
3.0249712467193604,0.04259692024859412,[0.18547846],0.005,0.1,-0.4249813468124786,0.00307055736371113,0
3.0343337059020996,0.04259692024859412,[0.18618581],0.005,0.1,-0.3698344335933472,0.003078224850496279,0
3.0429439544677734,0.04259692024859412,[0.18683213],0.005,0.1,-0.2910084982973582,0.0030920477730031724,0
3.0550196170806885,0.04279231896533078,[0.18741959],0.005,0.1,-0.21604274361929104,0.0031068470250652323,0
3.0675835609436035,0.04279231896533078,[0.18795073],0.005,0.1,-0.15397094756559648,0.003116889112140512,0
3.0759902000427246,0.04279231896533078,[0.18842806],0.005,0.1,-0.10599699606836427,0.003125852764069053,0
3.084982395172119,0.04279231896533078,[0.18885414],0.005,0.1,-0.07040563734996674,0.0031452773913681746,0
3.0943808555603027,0.04298771768206745,[0.18923184],0.005,0.1,-0.044718964014649684,0.0031538105657124916,0
3.1039812564849854,0.04298771768206745,[0.18956421],0.005,0.1,-0.026565439738219072,0.003166890364170804,0
3.1135098934173584,0.04298771768206745,[0.18985426],0.005,0.1,-0.013967973794413115,0.003182894497479017,0
3.1220266819000244,0.04298771768206745,[0.19010501],0.005,0.1,-0.00538546147750282,0.0031961988269304394,0
3.13299560546875,0.04318311639880412,[0.19031947],0.005,0.1,0.0003381839690648008,0.00319577400248217,0
3.142904281616211,0.04298771768206745,[0.19050062],0.005,0.1,0.004049723440904852,0.0032186149773559243,0
3.156751871109009,0.04318311639880412,[0.19065132],0.005,0.1,0.006359575607942423,0.0032150056009925673,0
3.165949821472168,0.04318311639880412,[0.19077435],0.005,0.1,0.007702897643801015,0.0032222728687067467,0
3.1769683361053467,0.0433785151155408,[0.19087235],0.005,0.1,0.0083873310188811,0.0032157368945222686,0
3.1849541664123535,0.0433785151155408,[0.19094783],0.005,0.1,0.008628911931699219,0.0032205029484277466,0
3.1932859420776367,0.0433785151155408,[0.19100319],0.005,0.1,0.008578447035052724,0.00322425100388911,0
3.2039737701416016,0.0433785151155408,[0.19104067],0.005,0.1,0.00834059035370107,0.003226943053483392,0
3.2138752937316895,0.04357391383227746,[0.19106234],0.005,0.1,0.00798749920288657,0.003216142083802471,0
3.2235310077667236,0.04357391383227746,[0.19107011],0.005,0.1,0.007568539881125278,0.0032172222488766468,0
3.230992078781128,0.04357391383227746,[0.19106569],0.005,0.1,0.007117150800880625,0.003217880548802532,0
3.23895263671875,0.04376931254901414,[0.19105071],0.005,0.1,0.006655677454039885,0.0032041388717952827,0
3.24698543548584,0.04376931254901414,[0.19102672],0.005,0.1,0.00619876877980623,0.003202469773651697,0
3.255995035171509,0.04376931254901414,[0.19099512],0.005,0.1,0.005755757352898695,0.0032017392585595096,0
3.2683541774749756,0.04376931254901414,[0.19095697],0.005,0.1,0.005332323922508524,0.00320484910091672,0
3.276702404022217,0.04376931254901414,[0.19091301],0.005,0.1,0.00493165907170009,0.0032039909897061242,0
3.28826642036438,0.04376931254901414,[0.19086394],0.005,0.1,0.004555272116310753,0.0032037132823529127,0
3.298959970474243,0.04396471126575081,[0.19081041],0.005,0.1,0.00420355289937497,0.0031907398063002537,0
3.308609962463379,0.04396471126575081,[0.19075297],0.005,0.1,0.003876160710645645,0.0031898850436561463,0
3.3159544467926025,0.04396471126575081,[0.1906922],0.005,0.1,0.0035722924123303013,0.0031818324281542554,0
3.32393217086792,0.04396471126575081,[0.19062868],0.005,0.1,0.00329086627445964,0.0031828518053120722,0
3.3325138092041016,0.044160109982487476,[0.19056281],0.005,0.1,0.003030647083154518,0.0031692080279892955,0
3.34033465385437,0.044160109982487476,[0.19049495],0.005,0.1,0.002790330409993721,0.0031595504581714215,0
3.3485052585601807,0.044160109982487476,[0.19042552],0.005,0.1,0.002568598550655531,0.0031607795587709022,0
3.3577699661254883,0.044160109982487476,[0.19035476],0.005,0.1,0.00236415687203479,0.003159039263832181,0
3.3669393062591553,0.04435550869922414,[0.19028276],0.005,0.1,0.0021757566680788553,0.003144616879710637,0
3.3779520988464355,0.04435550869922414,[0.19020967],0.005,0.1,0.002002208777699666,0.0031405031712792917,0
3.38596510887146,0.04435550869922414,[0.19013573],0.005,0.1,0.0018423909261315544,0.003127771458127491,0
3.3949365615844727,0.04435550869922414,[0.19006133],0.005,0.1,0.0016952508477451533,0.0031251224669071012,0
3.4040448665618896,0.04435550869922414,[0.18998669],0.005,0.1,0.0015598066170436596,0.0031212604636843815,0
3.4167864322662354,0.044550907415960815,[0.18991181],0.005,0.1,0.0014351451737252318,0.0031123388623356643,0
3.4249320030212402,0.044550907415960815,[0.18983675],0.005,0.1,0.0013204197200900017,0.0030963532797683557,0
3.435072183609009,0.044550907415960815,[0.18975928],0.005,0.1,0.0012148464546828694,0.003570489226082398,0
3.4469661712646484,0.044550907415960815,[0.18967459],0.005,0.1,0.0011177009568559032,0.003485572897775585,0
3.459171772003174,0.044746306132697485,[0.18958057],0.005,0.1,0.0010283144332949412,0.0033121431184268153,0
3.4669365882873535,0.044746306132697485,[0.18947864],0.005,0.1,0.0009460699657240518,0.003303857925732166,0
3.4759631156921387,0.044746306132697485,[0.18937072],0.005,0.1,0.0008703988494326304,0.003228376316003291,0
3.484947919845581,0.044746306132697485,[0.18926007],0.005,0.1,0.0008007770781544923,0.003030165781900722,0
3.4939651489257812,0.04494170484943416,[0.18915123],0.005,0.1,0.0007367220075765073,0.003005979584310984,0
3.5049777030944824,0.04494170484943416,[0.18904591],0.005,0.1,0.000677789213942221,0.0030155727262561782,0
3.5129268169403076,0.04494170484943416,[0.18894329],0.005,0.1,0.0006235695537072994,0.0030197912375143302,0
3.5263075828552246,0.04494170484943416,[0.18884279],0.005,0.1,0.0005736864232265223,0.0030205822351680317,0
3.5349533557891846,0.04494170484943416,[0.18874434],0.005,0.1,0.0005277932130397556,0.003002220663202426,0
3.543937921524048,0.04494170484943416,[0.18864827],0.005,0.1,0.00048557094856661697,0.002994816252737251,0
3.554959297180176,0.04513710356617083,[0.18855473],0.005,0.1,0.00044672610748093555,0.002982695373500548,0
3.5663321018218994,0.04513710356617083,[0.18846362],0.005,0.1,0.00041098860324150903,0.002975282756591628,0
3.576805353164673,0.04533250228290749,[0.18837488],0.005,0.1,0.00037810992403384603,0.002957058022492107,0
3.586306095123291,0.04533250228290749,[0.1882885],0.005,0.1,0.0003478614164474348,0.0029518909409024475,0
3.596067428588867,0.04533250228290749,[0.18820451],0.005,0.1,0.00032003270356641275,0.002939985859701968,0
3.604933261871338,0.04533250228290749,[0.188123],0.005,0.1,0.00029443022758556583,0.0029373698597888374,0
3.6129589080810547,0.04533250228290749,[0.18804399],0.005,0.1,0.00027087590759216945,0.00292810686615351,0
3.6256000995635986,0.04533250228290749,[0.18796734],0.005,0.1,0.0002492059037341634,0.0029342729015078717,0
3.636021614074707,0.04552790099964417,[0.18789267],0.005,0.1,0.00022926947956009434,0.002918623777093565,0
3.647490978240967,0.04552790099964417,[0.18781948],0.005,0.1,0.00021092795488229256,0.002924461379481479,0
3.6573610305786133,0.04552790099964417,[0.18774735],0.005,0.1,0.00019405374207300425,0.0029167156156938968,0
3.665921211242676,0.04552790099964417,[0.18767615],0.005,0.1,0.0001785294592133812,0.002902476698997591,0
3.676123857498169,0.04572329971638084,[0.18760598],0.005,0.1,0.00016424711403094274,0.002887342846263528,0
3.685962200164795,0.04552790099964417,[0.1875368],0.005,0.1,0.00015110735299684962,0.002895584491107677,0
3.695244312286377,0.04572329971638084,[0.18746835],0.005,0.1,0.0001390187704190133,0.0028892098544130856,0
3.7029311656951904,0.04572329971638084,[0.18740039],0.005,0.1,0.00012789727274874825,0.0028743124141867864,0
3.71195125579834,0.04572329971638084,[0.18733306],0.005,0.1,0.00011766549370319061,0.002864027046418628,0
3.7236242294311523,0.04591869843311751,[0.18726648],0.005,0.1,0.00010825225614913655,0.0028565994555123987,0
3.7335338592529297,0.04591869843311751,[0.18720045],0.005,0.1,9.959207701638493e-05,0.0028516221900921385,0
3.743990659713745,0.04591869843311751,[0.18713484],0.005,0.1,9.162471180660503e-05,0.0028463071228444865,0
3.754948854446411,0.04611409714985418,[0.18706965],0.005,0.1,8.429473552859132e-05,0.002828598945340669,0
3.7649922370910645,0.04591869843311751,[0.18700267],0.005,0.1,7.755115715243533e-05,0.003220791403321015,0
3.7740085124969482,0.04611409714985418,[0.18692924],0.005,0.1,7.134706490621385e-05,0.0031809413306275545,0
3.7839651107788086,0.04611409714985418,[0.18684752],0.005,0.1,6.563929994205104e-05,0.0029463732661422406,0
3.793826103210449,0.046309495866590854,[0.18675958],0.005,0.1,6.038815610698775e-05,0.002841945935884255,0
3.805208444595337,0.046309495866590854,[0.18666801],0.005,0.1,5.555710373063851e-05,0.0027941223319967096,0
3.8140554428100586,0.046309495866590854,[0.18657504],0.005,0.1,5.11125355103956e-05,0.0027702775116493564,0
3.826807975769043,0.046309495866590854,[0.18648313],0.005,0.1,4.7023532724140314e-05,0.002764941390696384,0
3.836804151535034,0.046504894583327516,[0.18639517],0.005,0.1,4.326165014445797e-05,0.0027759273658928122,0
3.8450047969818115,0.046504894583327516,[0.18631385],0.005,0.1,3.980071816003653e-05,0.0027820596895343033,0
3.8537166118621826,0.046504894583327516,[0.18624142],0.005,0.1,3.6616660725992456e-05,0.002847125403659724,0
3.8636882305145264,0.046504894583327516,[0.18618066],0.005,0.1,3.368732788147275e-05,0.00295350307433699,0
3.8749003410339355,0.046504894583327516,[0.18613488],0.005,0.1,3.099234165982831e-05,0.003099001002621513,0
3.8844895362854004,0.046700293300064186,[0.18610748],0.005,0.1,2.8512954333516665e-05,0.003277379438367355,0
3.8959286212921143,0.046700293300064186,[0.18610191],0.005,0.1,2.623191799170736e-05,0.0035126320309820415,0
3.90879487991333,0.046700293300064186,[0.18612265],0.005,0.1,2.4133364555300573e-05,0.004318249749502049,0
3.9194610118865967,0.046700293300064186,[0.18617515],0.005,0.1,2.2202695393181472e-05,0.004605851307960957,0
3.928478717803955,0.046895692016800855,[0.18626362],0.005,0.1,2.0426479763129178e-05,0.004948744535905436,0
3.9359071254730225,0.046895692016800855,[0.18638978],0.005,0.1,1.8792361383501214e-05,0.004507738680084624,0
3.9460031986236572,0.046895692016800855,[0.18655552],0.005,0.1,1.7288972473360656e-05,0.006222866280300625,0
3.9573793411254883,0.046895692016800855,[0.18676558],0.005,0.1,1.5905854675927657e-05,0.006743420776643313,0
3.9689698219299316,0.04709109073353753,[0.18702429],0.005,0.1,1.4633386302005467e-05,0.007338589208286029,0
3.976928234100342,0.04709109073353753,[0.1873325],0.005,0.1,1.3462715398083078e-05,0.006367832619072465,0
3.984898090362549,0.04709109073353753,[0.18768926],0.005,0.1,1.238569816646889e-05,0.00740959662115984,0
3.9933462142944336,0.04709109073353753,[0.1880957],0.005,0.1,1.1394842313711291e-05,0.008498180778519564,0
4.004903078079224,0.04709109073353753,[0.18855479],0.005,0.1,1.0483254928294197e-05,0.009626913869247506,0
4.0169148445129395,0.0472864894502742,[0.18906931],0.005,0.1,9.64459453433518e-06,0.010747858234787655,0
4.02970027923584,0.0472864894502742,[0.18964421],0.005,0.1,8.873026971311247e-06,0.015429036042548402,0
4.039923906326294,0.0472864894502742,[0.19028631],0.005,0.1,8.163184813895802e-06,0.01590202212947697,0
4.0519187450408936,0.04748188816701086,[0.19100189],0.005,0.1,7.510130028682044e-06,0.021304281501365725,0
4.061226844787598,0.04748188816701086,[0.19179657],0.005,0.1,6.909319626762136e-06,0.021010163121079815,0
4.069951295852661,0.04748188816701086,[0.19266954],0.005,0.1,6.35657405619575e-06,0.016121818617639012,0
4.081899881362915,0.04767728688374754,[0.19361725],0.005,0.1,0.2760442077268128,0.023248811723923516,0
4.09390664100647,0.04787268560048421,[0.1946452],0.005,0.1,0.3091683430444044,0.030226608376242626,0
4.103907108306885,0.04787268560048421,[0.19575764],0.005,0.1,0.2540706560361971,0.022276786087518614,0
4.11229395866394,0.048068084317220885,[0.19694868],0.005,0.1,0.17798525489820755,0.023444759484073815,0
4.124139785766602,0.04826348303395755,[0.19821286],0.005,0.1,0.38350057264654824,0.02466458338676671,0
4.135903358459473,0.048458881750694224,[0.1995515],0.005,0.1,0.36000304495366353,0.033624714528044164,0
4.143908739089966,0.048458881750694224,[0.20096522],0.005,0.1,0.2629078747509081,0.025078497081497265,0
4.151887655258179,0.04865428046743089,[0.202444],0.005,0.1,0.43344581118016867,0.019843871506773893,0
4.161309242248535,0.04884967918416756,[0.20397548],0.005,0.1,0.37651969061053636,0.02304916731384307,0
4.174902677536011,0.0492404766176409,[0.20555899],0.005,0.1,0.25264787030816266,0.033960540580859074,0
4.184427261352539,0.04943587533437757,[0.2072004],0.005,0.1,0.40376176578428014,0.03407880255999705,0
4.193769454956055,0.04943587533437757,[0.20890079],0.005,0.1,0.33382592073251843,0.034412146350957316,0
4.204910039901733,0.0498266727678509,[0.21065711],0.005,0.1,0.47803231842050375,0.03475947074108235,0
4.216881513595581,0.050217470201324256,[0.21246619],0.005,0.1,0.3820185552102444,0.03521116518719637,0
4.228912591934204,0.050412868918060925,[0.21432834],0.005,0.1,0.49835065221685676,0.04592763334645154,0
4.241069793701172,0.050803666351534264,[0.21625033],0.005,0.1,0.3789364502767635,0.05480419854401141,0
4.252947807312012,0.0511944637850076,[0.2182372],0.005,0.1,0.4777917607198089,0.04953370987490962,0
4.261234998703003,0.05158526121848094,[0.2202853],0.005,0.1,0.3463754843587261,0.04615800200841086,0
4.268970489501953,0.05178065993521762,[0.22238368],0.005,0.1,0.4376627034216953,0.03394335465755911,0
4.276903390884399,0.05217145736869095,[0.22451529],0.005,0.1,0.578063923948186,0.026643808735315678,0
4.287196397781372,0.052562254802164296,[0.22666896],0.005,0.1,0.42462849427983795,0.03999570098909316,0
4.297007322311401,0.05314845095237431,[0.2288422],0.005,0.1,0.4766732126330634,0.030692835966896065,0
4.308703184127808,0.05353924838584765,[0.23103283],0.005,0.1,0.30323560393183946,0.044271779171003764,0
4.3197338581085205,0.05412544453605766,[0.2332426],0.005,0.1,0.3625453640038182,0.04404017328125006,0
4.329373598098755,0.05451624196953099,[0.23547297],0.005,0.1,0.4811803780390467,0.04414632474132677,0
4.339923858642578,0.054907039403004336,[0.23772147],0.005,0.1,0.31456494696859794,0.04463619641047841,0
4.348890066146851,0.05549323555321435,[0.23998607],0.005,0.1,0.3600193847925645,0.04528277975451833,0
4.357877016067505,0.05588403298668769,[0.24226133],0.005,0.1,0.18476538491778008,0.03496342662229114,0
4.369903802871704,0.056470229136897705,[0.24454288],0.005,0.1,0.24556270313988499,0.0512000375223642,0
4.379467487335205,0.05705642528710771,[0.24683503],0.005,0.1,0.09183194321062851,0.051533674152607185,0
4.388389348983765,0.05744722272058106,[0.2491417],0.005,0.1,-0.1028699968153425,0.052256203392797074,0
4.396876573562622,0.0578380201540544,[0.25145851],0.005,0.1,0.0035015114129511513,0.04020283251653956,0
4.408296585083008,0.058619615021001076,[0.25378204],0.005,0.1,0.1865660652787843,0.05870110165880285,0
4.419094562530518,0.059401209887947753,[0.25611787],0.005,0.1,0.08126636214336876,0.05918620648137789,0
4.428936958312988,0.059987406038157755,[0.25847101],0.005,0.1,0.17818347518224198,0.05963927373399998,0
4.4384636878967285,0.06057360218836778,[0.26084172],0.005,0.1,0.04362359017098458,0.060510684301460595,0
4.446875810623169,0.06115979833857779,[0.26323023],0.005,0.1,0.1356093665363458,0.061561640105034024,0
4.45713996887207,0.06194139320552447,[0.26563681],0.005,0.1,0.0053998762784465415,0.0627484138499046,0
4.465981721878052,0.06252758935573448,[0.26806171],0.005,0.1,0.10435687448020368,0.0640095684905635,0
4.474940299987793,0.06330918422268116,[0.27050081],0.005,0.1,0.2570513698138635,0.049201832499977324,0
4.486254692077637,0.06409077908962785,[0.27295066],0.005,0.1,0.3949527686728367,0.07173469642804936,0
4.4970033168792725,0.0650677726733112,[0.27541266],0.005,0.1,0.4971500914596869,0.0542367891762121,0
4.50761866569519,0.06584936754025787,[0.27788803],0.005,0.1,0.286429049645615,0.07713699707894654,0
4.515878438949585,0.06663096240720455,[0.28037775],0.005,0.1,0.2875865034576571,0.05793573994068232,0
4.529295921325684,0.06780335470762457,[0.28288266],0.005,0.1,0.35329787859551415,0.08109459614185363,0
4.539898157119751,0.06878034829130793,[0.28541232],0.005,0.1,0.4230708805809482,0.10136293712001443,0
4.551764249801636,0.06995274059172794,[0.28797922],0.005,0.1,0.47581800546710085,0.09369914376654695,0
4.560790300369263,0.07073433545867464,[0.29058023],0.005,0.1,0.5073510281333108,0.06836673906584927,0
4.570113182067871,0.07171132904235797,[0.29320344],0.005,0.1,0.5199736232405263,0.07122016403488224,0
4.581934690475464,0.07307912005951467,[0.29584316],0.005,0.1,0.5178690841244846,0.07370306989706263,0
4.5898613929748535,0.07386071492646136,[0.29849911],0.005,0.1,0.22916948153242123,0.0762999786697433,0
4.5987889766693115,0.07483770851014471,[0.30117109],0.005,0.1,0.1763275188938695,0.0785668569754901,0
4.607903718948364,0.07581470209382805,[0.30385908],0.005,0.1,0.20735575899495592,0.08093265504876197,0
4.618858337402344,0.07698709439424807,[0.30656321],0.005,0.1,0.2570065696510468,0.08295873787708198,0
4.632110118865967,0.07855028412814144,[0.30928845],0.005,0.1,0.3001361151653724,0.10982205711951014,0
4.642802715301514,0.07991807514529814,[0.31204395],0.005,0.1,0.32936956627435254,0.10475060394312294,0
4.651867151260376,0.08089506872898149,[0.31482783],0.005,0.1,0.34462168447880814,0.07768885669909151,0
4.659932613372803,0.0820674610294015,[0.31762889],0.005,0.1,0.3483384508154264,0.08299902456421489,0
4.67087197303772,0.08363065076329486,[0.32044263],0.005,0.1,0.34345458683684527,0.08760580922235112,0
4.679862976074219,0.08460764434697822,[0.32327032],0.005,0.1,0.33260779901066645,0.09194683604702321,0
4.687892436981201,0.08578003664739824,[0.32611331],0.005,0.1,0.3179105458043988,0.09574184393897144,0
4.6958723068237305,0.08695242894781824,[0.32896784],0.005,0.1,0.30095099430529254,0.0741205259435227,0
4.704501628875732,0.08812482124823828,[0.3318258],0.005,0.1,0.006835525930366321,0.08373384046652958,0
4.713863849639893,0.08949261226539497,[0.33468579],0.005,0.1,-0.044685875319809096,0.09178051050193528,0
4.72386908531189,0.09086040328255167,[0.33755208],0.005,0.1,-0.007766690214457604,0.09840761127059798,0
4.732873439788818,0.09222819429970835,[0.34042326],0.005,0.1,0.0507089188099404,0.07706129467572402,0
4.742880821228027,0.09359598531686505,[0.34329312],0.005,0.1,0.10440682359591871,0.08826854021114153,0
4.753716468811035,0.09535457376749508,[0.34616737],0.005,0.1,-0.1309275358540511,0.12865431804949687,0
4.7638843059539795,0.09691776350138845,[0.3490618],0.005,0.1,-0.13700726598358295,0.12755174913167636,0
4.773725748062134,0.0984809532352818,[0.3519844],0.005,0.1,-0.06646776955549101,0.12701472539327302,0
4.783879518508911,0.10023954168591184,[0.35493649],0.005,0.1,0.016138226737469917,0.12701653128901833,0
4.794879674911499,0.10199813013654188,[0.357919],0.005,0.1,0.08674083797039518,0.12777838403647912,0
4.806732177734375,0.1043429147373819,[0.36093801],0.005,0.1,0.13902297302411812,0.16505052498069242,0
4.814887285232544,0.10571070575453859,[0.36399818],0.005,0.1,0.4498423930902989,0.11878182831131527,0
4.825888156890869,0.10786009163864198,[0.36709195],0.005,0.1,0.5034186607221571,0.12179255915397137,0
4.8361077308654785,0.10981407880600867,[0.37021808],0.005,0.1,0.4579421184914402,0.16145615955790266,0
4.845890522003174,0.11157266725663871,[0.37338057],0.005,0.1,0.6597541687655923,0.11683306151476253,0
4.853986501693726,0.11294045827379541,[0.37657126],0.005,0.1,0.6188934465703625,0.12097877937493338,0
4.8618738651275635,0.11450364800768877,[0.37977731],0.005,0.1,0.5002289074982542,0.09305380202754017,0
4.872828960418701,0.1168484326085288,[0.38299301],0.005,0.1,0.6490934146041752,0.13612767524779623,0
4.880870580673218,0.11841162234242215,[0.38621868],0.005,0.1,0.8480288972540309,0.10212290666651021,0
4.889880418777466,0.12036560950978886,[0.38944888],0.005,0.1,0.739074785879872,0.10957478330723285,0
4.90260910987854,0.12310119154410225,[0.39268397],0.005,0.1,0.5428126089605019,0.14894229111296853,0
4.9129638671875,0.1254459761449423,[0.39593459],0.005,0.1,0.6252516569213882,0.14180760042811894,0
4.924790382385254,0.127986159462519,[0.39920377],0.005,0.1,0.7742660602980982,0.13586949940472431,0
4.935015678405762,0.13033094406335904,[0.40248813],0.005,0.1,0.6310754390748532,0.13146248914072672,0
4.948319673538208,0.13345732353114578,[0.40578937],0.005,0.1,0.689466472372658,0.16239054076358353,0
4.957879543304443,0.13560670941524913,[0.40911337],0.005,0.1,0.5173605447524796,0.14835910370563515,0
4.965864896774292,0.13756069658261585,[0.41245428],0.005,0.1,0.021488035748844392,0.10730789467241346,0
4.974602699279785,0.13971008246671923,[0.41579642],0.005,0.1,-0.20864103249986282,0.10961266795302342,0
4.985301733016968,0.1424456645010326,[0.41913625],0.005,0.1,-0.0309341377895542,0.14223144578658573,0
4.997480630874634,0.14537664525208266,[0.42248045],0.005,0.1,0.24470283665207604,0.13241785550992138,0
5.009001731872559,0.14830762600313271,[0.42582916],0.005,0.1,0.496565837583384,0.1249234030389931,0
5.019902467727661,0.15123860675418274,[0.42917712],0.005,0.1,0.41092249913786366,0.11938379651063195,0
5.030833959579468,0.15416958750523282,[0.43251953],0.005,0.1,0.503981643406577,0.114958904384353,0
5.040853261947632,0.15690516953954617,[0.43585677],0.005,0.1,0.35481561029872605,0.14136082618756543,0
5.0528483390808105,0.16003154900733293,[0.43919352],0.005,0.1,0.1517368290424956,0.1286860865942887,0
5.0637078285217285,0.162962529758383,[0.44252868],0.005,0.1,-0.0319377306273584,0.11977620997216881,0
5.0733864307403564,0.16569811179269636,[0.44585627],0.005,0.1,-0.17408271184160612,0.11308173199921114,0
5.083371639251709,0.16843369382700976,[0.449171],0.005,0.1,-0.2737586298202813,0.10828896042537701,0
5.091163396835327,0.17077847842784977,[0.45246826],0.005,0.1,-0.33753598146336344,0.1048927735753539,0
5.098954677581787,0.1727324655952165,[0.45573965],0.005,0.1,-0.6496242258352756,0.07959768185615174,0
5.107819080352783,0.1754680476295299,[0.45897374],0.005,0.1,-0.6985379608465341,0.0840523896127218,0
5.117443799972534,0.1780082309471066,[0.46216566],0.005,0.1,-0.9210717983400754,0.08748053119187327,0
5.127770662307739,0.18074381298141998,[0.46531617],0.005,0.1,-0.8701386584503075,0.08957088299525134,0
5.136816501617432,0.18328399629899667,[0.46842185],0.005,0.1,-1.006423144199447,0.07025817100755292,0
5.1458375453948975,0.18582417961657338,[0.47148027],0.005,0.1,-1.165020575381617,0.0989369832167355,0
5.154523849487305,0.18816896421741344,[0.47449433],0.005,0.1,-1.2866890161640705,0.07603438297393494,0
5.161852121353149,0.19012295138478016,[0.4774626],0.005,0.1,-1.3579090500951025,0.0813397059196679,0
5.173847913742065,0.19344472956930353,[0.48038441],0.005,0.1,-1.3830579819720028,0.08489677042315795,0
5.183854818344116,0.19598491288688025,[0.4832642],0.005,0.1,-1.3719970261471803,0.08779607968360119,0
5.191824674606323,0.19813429877098362,[0.48610187],0.005,0.1,-1.3349141037753331,0.06955941555837622,0
5.2018609046936035,0.20067448208856034,[0.48889354],0.005,0.1,-1.5565172538594072,0.07659536684548654,0
5.2158732414245605,0.20419165898982042,[0.49164988],0.005,0.1,-1.524596154033307,0.13235129623472153,0
5.226671934127808,0.20712263974087047,[0.4943938],0.005,0.1,-1.6748484605333394,0.12154832256919694,0
5.236838102340698,0.2100536204919205,[0.49713174],0.005,0.1,-1.559076124430313,0.08926271864656778,0
5.248859167098999,0.2131799999597072,[0.49986054],0.005,0.1,-1.360931683775555,0.11703406566883268,0
5.26125431060791,0.21689257557770397,[0.50259143],0.005,0.1,-1.4336180486528325,0.14053877431469342,0
5.269855260848999,0.21923736017854403,[0.50533412],0.005,0.1,-1.2864597473222947,0.10096932173799139,0
5.280853748321533,0.22216834092959406,[0.50808324],0.005,0.1,-0.8049956640790866,0.10080871856867532,0
5.294843435287476,0.22588091654759082,[0.51084374],0.005,0.1,-0.5737417065859423,0.16103743491479183,0
5.304913282394409,0.2286164985819042,[0.51362909],0.005,0.1,-0.4601087610289947,0.11302006770006467,0
5.313612222671509,0.23096128318274423,[0.51643668],0.005,0.1,-0.12438037616028134,0.11024455869557234,0
5.32284951210022,0.23350146650032094,[0.51925955],0.005,0.1,-0.05547144812296146,0.10898129955507987,0
5.33374547958374,0.2368232446848443,[0.52209646],0.005,0.1,0.19113293554371422,0.10788149585899796,0
5.343307733535767,0.2395588267191577,[0.52494636],0.005,0.1,0.1697684681211648,0.10754436846575349,0
5.3537375926971436,0.24268520618694442,[0.52780832],0.005,0.1,0.3401784175193455,0.10723163679377824,0
5.363473653793335,0.24522538950452114,[0.53068151],0.005,0.1,0.25984133805927145,0.10746592882782674,0
5.37328028678894,0.24796097153883453,[0.53356518],0.005,0.1,0.3869480240262032,0.10755672641426771,0
5.381860017776489,0.2501103574229379,[0.53645383],0.005,0.1,0.27601959615992677,0.08269737352311184,0
5.390936613082886,0.25265054074051463,[0.53934276],0.005,0.1,0.10620802778002839,0.1166101508467115,0
5.403739929199219,0.2561677176417747,[0.54223758],0.005,0.1,-0.051574210186422095,0.11399018042343503,0
5.415847301483154,0.2596848945430347,[0.54514292],0.005,0.1,0.10115287165482856,0.11157864859063059,0
5.42399525642395,0.26202967914387476,[0.54805766],0.005,0.1,0.04759361478574978,0.11032972726105289,0
5.433808326721191,0.26496065989492484,[0.55098062],0.005,0.1,-0.06278470772035165,0.10907944961536947,0
5.447902679443359,0.2690640329463949,[0.55391532],0.005,0.1,-0.16973347159276841,0.1367258661575244,0
5.455829381942749,0.27121341883049827,[0.55686912],0.005,0.1,0.0228175088883871,0.12692606644105964,0
5.467942953109741,0.274925994448495,[0.55984305],0.005,0.1,-0.0010894490253480354,0.11893996483142395,0
5.475824594497681,0.2772707790493351,[0.56282819],0.005,0.1,0.1858978919683511,0.08833707810301437,0
5.484485864639282,0.2798109623669118,[0.56581204],0.005,0.1,0.1269964680391424,0.09213351416026556,0
5.494808673858643,0.28293734183469854,[0.56878857],0.005,0.1,-0.0014138252651603872,0.09466108209551165,0
5.504979610443115,0.28567292386901194,[0.57175726],0.005,0.1,0.1482473068014315,0.09633620064743255,0
5.515819311141968,0.2889947020535353,[0.57471761],0.005,0.1,0.08119449538451162,0.09703578468143496,0
5.5274269580841064,0.292121081521322,[0.57767367],0.005,0.1,-0.04387450560948308,0.12389375765566663,0
5.537299394607544,0.2952474609891087,[0.58063325],0.005,0.1,-0.16333511539116333,0.11557296805784983,0
5.545849561691284,0.29759224558994873,[0.58359369],0.005,0.1,-0.2563322859592464,0.08567279751155912,0
5.554810285568237,0.3005232263409988,[0.58654349],0.005,0.1,-0.32006277926108795,0.08849533118515103,0
5.567859172821045,0.3042358019589956,[0.58948193],0.005,0.1,-0.35841985540475696,0.11501833556536141,0
5.577899932861328,0.3071667827100456,[0.59241732],0.005,0.1,-0.3770178084913135,0.10874156875120439,0
5.588092565536499,0.3100977634610957,[0.59535211],0.005,0.1,-0.38119549916511997,0.10411146941818454,0
5.596864700317383,0.3126379467786724,[0.5982794],0.005,0.1,-0.3753617581240529,0.07853642764793872,0
5.609210252761841,0.3161551236799325,[0.60119332],0.005,0.1,-0.36290840577108063,0.10531329119042664,0
5.616790294647217,0.31830450956403583,[0.60409341],0.005,0.1,-0.34633477465349644,0.07943116477571077,0
5.6258275508880615,0.32104009159834923,[0.606975],0.005,0.1,-0.32742738639021973,0.08306391193993401,0
5.633821249008179,0.32338487619918926,[0.60983431],0.005,0.1,-0.3074318034593635,0.08600158758833586,0
5.645301342010498,0.327097451817186,[0.61267714],0.005,0.1,-0.2871958009608885,0.11134429243752766,0
5.6548991203308105,0.33002843256823605,[0.61550856],0.005,0.1,-0.26728087422485,0.08248609991842927,0
5.662877082824707,0.33237321716907614,[0.61831989],0.005,0.1,-0.24804579947344835,0.06557020003462018,0
5.670794248580933,0.33452260305317943,[0.62109965],0.005,0.1,-0.505746111348881,0.07298156337494915,0
5.680146217346191,0.33706278637075615,[0.62384732],0.005,0.1,-0.5215492454469393,0.07859643185920612,0
5.68878436088562,0.33960296968833287,[0.62656721],0.005,0.1,-0.45020030187665194,0.08270215557301612,0
5.7003583908081055,0.34272934915611963,[0.62926334],0.005,0.1,-0.6349806446316935,0.08559264887305602,0
5.708472013473511,0.3450741337569596,[0.63193947],0.005,0.1,-0.583468225045773,0.0879689558624536,0
5.7158119678497314,0.3470281209243264,[0.63459909],0.005,0.1,-0.4586552770068517,0.08994689735001327,0
5.723810911178589,0.3491775068084297,[0.637241],0.005,0.1,-0.32845015560939694,0.07063010196971187,0
5.731826543807983,0.35152229140926977,[0.63985568],0.005,0.1,-0.4933446852673195,0.0589445634114619,0
5.739835500717163,0.3536716772933732,[0.64243543],0.005,0.1,-0.43997284602822395,0.06836340867286586,0
5.75266170501709,0.35718885419463325,[0.64498742],0.005,0.1,-0.3211802113073731,0.09714105155776934,0
5.7638421058654785,0.3603152336624199,[0.64752692],0.005,0.1,-0.47607687818135813,0.09646020151467218,0
5.771808624267578,0.36266001826325994,[0.65005822],0.005,0.1,-0.4079198512459655,0.07440822608871289,0
5.782922744750977,0.3657863977310467,[0.65258068],0.005,0.1,-0.5520326914854014,0.1025395235714047,0
5.79384183883667,0.3689127771988334,[0.65510268],0.005,0.1,-0.4544522373331043,0.1000841241020777,0
5.803837537765503,0.37145296051641014,[0.65763134],0.005,0.1,-0.2921334018276316,0.09837123712755944,0
5.811853885650635,0.3736023464005135,[0.66016376],0.005,0.1,-0.4123421451292148,0.07561551040981537,0
5.821852445602417,0.3763379284348269,[0.66269743],0.005,0.1,-0.31969864215916893,0.10359361844038538,0
5.833101987838745,0.3794643079026136,[0.665239],0.005,0.1,-0.17228259774801802,0.10069138738407162,0
5.842854022979736,0.382199889936927,[0.66779395],0.005,0.1,-0.30920981193670083,0.09860698359956209,0
5.851844310760498,0.3847400732545037,[0.67036228],0.005,0.1,-0.23193050727674477,0.09712928019069236,0
5.860657215118408,0.38747565528881706,[0.67293938],0.005,0.1,-0.09757660534556016,0.0744614153038709,0
5.870832443237305,0.3900158386063938,[0.67551684],0.005,0.1,0.03079899480412767,0.07968994726094215,0
5.879173040390015,0.39255602192397054,[0.67809188],0.005,0.1,0.13248862981414278,0.08354034747346842,0
5.888960123062134,0.3950962052415472,[0.68067087],0.005,0.1,0.20467448983946718,0.10978146145218132,0
5.896806240081787,0.397050192408914,[0.68325468],0.005,0.1,-0.024849632641825548,0.11048228200497787,0
5.906799793243408,0.3997857744432273,[0.68583085],0.005,0.1,-0.03157823094842935,0.10490632313318814,0
5.917048454284668,0.40232595776080404,[0.68839758],0.005,0.1,0.035090701978855346,0.12674668223509147,0
5.924837589263916,0.40447534364490745,[0.69096204],0.005,0.1,0.11230545428353703,0.09168528650313382,0
5.933887720108032,0.4068201282457474,[0.6935216],0.005,0.1,0.176897492038425,0.0915152066031584,0
5.943784713745117,0.4095557102800608,[0.69607402],0.005,0.1,0.22302975863039465,0.0913097629363058,0
5.957031726837158,0.4134636846147942,[0.69862598],0.005,0.1,0.2517764911518906,0.1141940173944444,0
5.967869997024536,0.4163946653658443,[0.70118728],0.005,0.1,0.26644188462973906,0.10637822706626583,0
5.9764320850372314,0.41893484868342096,[0.70376173],0.005,0.1,0.2705893595592213,0.10097172811457908,0
5.985782623291016,0.4212796332842611,[0.70634805],0.005,0.1,0.2673149721647976,0.0973473037371269,0
5.99581503868103,0.42401521531857445,[0.70894071],0.005,0.1,0.5351034587197203,0.07390759504874334,0
6.008864641189575,0.4277277909365711,[0.71153494],0.005,0.1,0.5568347770575942,0.09892019164577351,0
6.017784833908081,0.43007257553741124,[0.71413097],0.005,0.1,0.48852471942067455,0.0750212080350587,0
6.025814533233643,0.43241736013825127,[0.71672471],0.005,0.1,0.39833795303784814,0.07881817865056437,0
6.036569595336914,0.4353483408893013,[0.71931277],0.005,0.1,0.3134623166151359,0.08162157330061047,0
6.050795555114746,0.439647112657508,[0.72190099],0.005,0.1,0.2426616871605157,0.10567534872119365,0
6.062739133834839,0.4429688908420314,[0.72450297],0.005,0.1,0.18693338930004616,0.12594638006095352,0
6.070796251296997,0.4451182767261348,[0.72712592],0.005,0.1,0.1444035581348051,0.0906114924920438,0
6.081769943237305,0.44824465619392156,[0.72976285],0.005,0.1,0.11247145846917245,0.08988186521781996,0
6.093768835067749,0.4515664343784449,[0.73241213],0.005,0.1,0.08866926978130549,0.1139203493101101,0
6.103862762451172,0.45430201641275836,[0.73508112],0.005,0.1,0.07094329704154981,0.1069424887760517,0
6.112765312194824,0.4566468010135984,[0.7377672],0.005,0.1,0.05769048109315428,0.07977653999906173,0
6.124789714813232,0.45996857919812173,[0.74046378],0.005,0.1,0.04770377088866401,0.10642751476070862,0
6.133793592453003,0.4623133637989618,[0.74317419],0.005,0.1,0.04009377642189377,0.10289403259553442,0
6.1437811851501465,0.4652443445500118,[0.74590129],0.005,0.1,0.31025221773301936,0.10024574486725293,0
6.151871204376221,0.4673937304341152,[0.74863854],0.005,0.1,0.3387606052239976,0.0764746142145903,0
6.1620752811431885,0.47052010990190196,[0.75138058],0.005,0.1,0.27997595449889623,0.10573503356716081,0
6.1719019412994385,0.4732556919362153,[0.7541321],0.005,0.1,0.20089231765203305,0.10370881077711389,0
6.180269956588745,0.475795875253792,[0.75689263],0.005,0.1,0.1278875904630105,0.07882840342751121,0
6.1878087520599365,0.4779452611378954,[0.75965267],0.005,0.1,0.06917651926418912,0.08493226603640146,0
6.199939966201782,0.4812670393224188,[0.76240906],0.005,0.1,0.3014313502694665,0.08942758095898147,0
6.210526466369629,0.4843934187902056,[0.76516874],0.005,0.1,0.30359324801158083,0.11996169352007116,0
6.219965696334839,0.4869336021077822,[0.7679378],0.005,0.1,0.22761134169583763,0.08904468436205044,0
6.230772972106934,0.490059981575569,[0.77071203],0.005,0.1,0.13817235657305554,0.09307693272400969,0
6.241028070449829,0.49279556360988236,[0.77348805],0.005,0.1,0.059735530968867204,0.09667426551393953,0
6.254824638366699,0.4967035379446158,[0.77627751],0.005,0.1,-0.0009724287771562326,0.16056978709663192,0
6.263800621032715,0.49904832254545584,[0.77909511],0.005,0.1,-0.04442551221974371,0.11298579672159925,0
6.271782398223877,0.5017839045797692,[0.78193376],0.005,0.1,-0.07353333349194943,0.08490270363409272,0
6.279832601547241,0.5039332904638726,[0.78477765],0.005,0.1,-0.09160909430162992,0.09136652459897186,0
6.290782928466797,0.5070596699316593,[0.78762308],0.005,0.1,-0.10159882795694,0.09607572833589627,0
6.2997965812683105,0.5094044545324993,[0.79047178],0.005,0.1,-0.10586762553855225,0.09991240378205418,0
6.307798147201538,0.5115538404166027,[0.79332519],0.005,0.1,-0.10621279865743985,0.10264253889283899,0
6.315913438796997,0.5137032263007061,[0.79617961],0.005,0.1,-0.10395442822288055,0.07968390648326909,0
6.324736833572388,0.5160480109015461,[0.79902699],0.005,0.1,-0.10003935400800806,0.08776011240119218,0
6.333948612213135,0.5185881942191228,[0.80186549],0.005,0.1,0.18090414665008375,0.09392575735936225,0
6.346361398696899,0.5223007698371195,[0.80470328],0.005,0.1,0.21946232605936897,0.1260059719634037,0
6.354615926742554,0.5248409531546963,[0.80754717],0.005,0.1,0.17001283002608847,0.0931239727459473,0
6.363765716552734,0.5277719339057463,[0.81039305],0.005,0.1,0.09958011278629697,0.09671437622817183,0
6.373742341995239,0.5307029146567964,[0.81323728],0.005,0.1,0.03457805324012217,0.09932580284042401,0
6.387016296386719,0.5344154902747932,[0.81608614],0.005,0.1,-0.01673987985382793,0.12874943458380414,0
6.395708322525024,0.5369556735923698,[0.81894944],0.005,0.1,-0.05370023838400359,0.12103057579581887,0
6.403771638870239,0.5393004581932099,[0.82182555],0.005,0.1,-0.07837058692334577,0.0894063580958655,0
6.416300296783447,0.54281763509447,[0.82470797],0.005,0.1,-0.09345573898008949,0.11851133735169851,0
6.4247777462005615,0.54516241969531,[0.82759551],0.005,0.1,0.17457154966780392,0.08770147016992012,0
6.433476448059082,0.5477026030128868,[0.83048231],0.005,0.1,0.20470264110479747,0.09072215357459372,0
6.4410576820373535,0.5500473876137267,[0.83336311],0.005,0.1,0.15004981797359498,0.09290972871944224,0
6.450282335281372,0.5527829696480401,[0.83623339],0.005,0.1,0.3527183726093084,0.07220451717900501,0
6.462287902832031,0.5563001465493002,[0.8390892],0.005,0.1,0.31946640535525334,0.10096280532550193,0
6.4718077182769775,0.5592311273003503,[0.8419361],0.005,0.1,0.21273230696668022,0.09884993554775401,0
6.482778787612915,0.5619667093346636,[0.84477868],0.005,0.1,0.10006365336300777,0.09696199347130176,0
6.49286150932312,0.5648976900857137,[0.84761614],0.005,0.1,0.00569035332444634,0.09530155102791725,0
6.5008673667907715,0.5672424746865538,[0.85044328],0.005,0.1,-0.06492920009873221,0.07304562625748838,0
6.509752511978149,0.5699780567208671,[0.85325137],0.005,0.1,-0.11370318156017745,0.07791775144327572,0
6.521809101104736,0.5734952336221272,[0.85604185],0.005,0.1,-0.144811394193551,0.10382067957509858,0
6.529769420623779,0.5756446195062305,[0.85882046],0.005,0.1,-0.1625829321336269,0.07803662204079886,0
6.5400543212890625,0.5783802015405439,[0.86158345],0.005,0.1,-0.170732473428223,0.08123046398127022,0
6.551869869232178,0.5817019797250673,[0.86433211],0.005,0.1,-0.17218652927588263,0.10643218188811401,0
6.562272310256958,0.5850237579095907,[0.8670764],0.005,0.1,-0.16914212984721114,0.10111452771224833,0
6.569776296615601,0.5871731437936941,[0.86981614],0.005,0.1,-0.16319795815291538,0.07619450832821908,0
6.579785346984863,0.5901041245447443,[0.87254259],0.005,0.1,-0.15549107691312986,0.0798171004070583,0
6.590772390365601,0.5932305040125309,[0.8752529],0.005,0.1,-0.4228533773909432,0.08267149764339297,0
6.60264778137207,0.5963568834803176,[0.87795363],0.005,0.1,-0.4468765170837177,0.10805231756518971,0
6.610853672027588,0.5987016680811577,[0.8806505],0.005,0.1,-0.38261753225705786,0.08038965817981777,0
6.620745897293091,0.601437250115471,[0.88333975],0.005,0.1,-0.29754950006513425,0.08316750850536415,0
6.629014015197754,0.6035866359995743,[0.88601832],0.005,0.1,-0.2183732867373045,0.0856163054002648,0
6.638647794723511,0.6061268193171511,[0.88868817],0.005,0.1,-0.42955559985381775,0.0874122892511335,0
6.649235248565674,0.6094485975016745,[0.89135113],0.005,0.1,-0.4129156921163414,0.08840802123332832,0
6.659838438034058,0.6123795782527245,[0.89401326],0.005,0.1,-0.32112362342859974,0.11347576182160246,0
6.669767141342163,0.6149197615703013,[0.89667973],0.005,0.1,-0.2187195684843838,0.08361305057356407,0
6.679741144180298,0.6176553436046146,[0.89934612],0.005,0.1,-0.40576894926184964,0.08578413262577468,0
6.6893463134765625,0.6205863243556646,[0.90200868],0.005,0.1,-0.3695753669241664,0.08745814536394467,0
6.700937986373901,0.6237127038234513,[0.90467315],0.005,0.1,-0.2639394267044733,0.11285161739487878,0
6.7097344398498535,0.6260574884242914,[0.90734437],0.005,0.1,-0.15284660276808792,0.08333570966807441,0
6.719545125961304,0.6287930704586048,[0.91001756],0.005,0.1,-0.059270139589592034,0.08563126415787073,0
6.729492425918579,0.6317240512096549,[0.91268868],0.005,0.1,0.01159776909601105,0.08748536877265456,0
6.739887237548828,0.6346550319607048,[0.91536328],0.005,0.1,0.06154944735548764,0.11340609980981038,0
6.749786376953125,0.6375860127117551,[0.91804609],0.005,0.1,0.0945366871801599,0.08356639558366062,0
6.7592995166778564,0.6403215947460684,[0.92073221],0.005,0.1,0.11465936201603218,0.08617272520291828,0
6.7687273025512695,0.6428617780636451,[0.9234176],0.005,0.1,0.12544042636244135,0.08853285819597048,0
6.778236627578735,0.6455973600979584,[0.92610343],0.005,0.1,0.1296598047891228,0.09040763087980587,0
6.785752058029175,0.6477467459820617,[0.92878635],0.005,0.1,0.12940872079109966,0.0706759347316686,0
6.797821760177612,0.6508731254498485,[0.93146375],0.005,0.1,0.12621294920245457,0.10057868028654854,0
6.807772159576416,0.6534133087674253,[0.93414281],0.005,0.1,0.12116162942100572,0.10010492556266892,0
6.818521022796631,0.6563442895184753,[0.93682981],0.005,0.1,0.11501863432693546,0.0997630981203987,0
6.82671332359314,0.6584936754025786,[0.93952105],0.005,0.1,0.10831106523816468,0.07673246893768286,0
6.835723876953125,0.6610338587201554,[0.9422089],0.005,0.1,0.10139640866706376,0.0834488090501465,0
6.843730449676514,0.662987845887522,[0.94489181],0.005,0.1,0.0945120977711936,0.08926503925468693,0
6.8517491817474365,0.6651372317716254,[0.94756868],0.005,0.1,-0.1882269275989661,0.0711538703460498,0
6.8597328662872314,0.6672866176557288,[0.95023414],0.005,0.1,-0.22777367339967913,0.08045027274411971,0
6.870249271392822,0.6700221996900422,[0.95288873],0.005,0.1,-0.17876533939608547,0.08776960865350392,0
6.878023862838745,0.6723669842908824,[0.95553799],0.005,0.1,-0.10840866908340499,0.09361139747421653,0
6.888740062713623,0.6752979650419323,[0.95818689],0.005,0.1,-0.04324469780963337,0.09776061873449138,0
6.901872873306274,0.6790105406599292,[0.96084462],0.005,0.1,0.008385006205273382,0.12970293101659158,0
6.913953065872192,0.6823323188444524,[0.96352389],0.005,0.1,-0.23029194735312114,0.1233811042386312,0
6.925298452377319,0.6854586983122393,[0.96623532],0.005,0.1,-0.2382971604271268,0.15112015584202235,0
6.933324098587036,0.6874126854796059,[0.96898269],0.005,0.1,-0.16764551665592553,0.10814175985916258,0
6.94274640083313,0.6899528687971827,[0.97175902],0.005,0.1,-0.08307843109727672,0.10855108960753365,0
6.9555888175964355,0.6936654444151793,[0.97456296],0.005,0.1,0.26693698131272553,0.13915859530440183,0
6.964731931686401,0.6964010264494928,[0.97739791],0.005,0.1,0.35668222315646575,0.1009160170206285,0
6.976135730743408,0.6999182033507527,[0.98026146],0.005,0.1,0.6173270471283197,0.13247805353390182,0
6.984738111495972,0.7020675892348561,[0.98315124],0.005,0.1,0.6000327357466075,0.09729781196432694,0
6.996639251708984,0.7055847661361163,[0.98606488],0.005,0.1,0.7653659087932914,0.12946354901401694,0
7.008424758911133,0.7089065443206396,[0.98900499],0.005,0.1,0.9489074380415241,0.1231668012931222,0
7.015744924545288,0.711055930204743,[0.99196856],0.005,0.1,0.81601391849431,0.09159804547813453,0
7.025749444961548,0.7137915122390565,[0.99494298],0.005,0.1,0.8727242746056758,0.09657829709958635,0
7.036679983139038,0.7171132904235799,[0.99792734],0.005,0.1,0.6932010600440087,0.12992111707056675,0
7.044749975204468,0.7192626763076831,[1.00092572],0.005,0.1,0.7394399934504785,0.0959324729167589,0
7.057692050933838,0.7231706506424166,[1.00393662],0.005,0.1,0.5646773015553752,0.1292899661048554,0
7.065733909606934,0.7255154352432566,[1.00695871],0.005,0.1,0.3451808701545721,0.09569067537300699,0
7.076393127441406,0.7290326121445166,[1.00999089],0.005,0.1,0.42488068583597083,0.1300643057258496,0
7.087536811828613,0.73235439032904,[1.01303733],0.005,0.1,0.30464180018957343,0.1252443116206395,0
7.09575629234314,0.7346991749298801,[1.01609649],0.005,0.1,0.13921233938622601,0.09348675003008275,0
7.104740858078003,0.7372393582474569,[1.01916217],0.005,0.1,-0.011007437137706133,0.13044758893450065,0
7.116675138473511,0.7407565351487168,[1.02223941],0.005,0.1,-0.12765584853845552,0.1268755936790047,0
7.124788522720337,0.7432967184662935,[1.0253223],0.005,0.1,0.06623914765775538,0.12706745752024945,0
7.1337571144104,0.7460323005006069,[1.02839059],0.005,0.1,0.04645584237234006,0.12501994635650238,0
7.141749858856201,0.7485724838181836,[1.03143777],0.005,0.1,0.237107841584246,0.12410466607490922,0
7.150716543197632,0.7513080658524971,[1.03446912],0.005,0.1,0.18041247521636705,0.12388282308531395,0
7.158745050430298,0.7536528504533371,[1.03748959],0.005,0.1,0.05267842703909906,0.12446229162397836,0
7.168084621429443,0.7565838312043872,[1.04049848],0.005,0.1,0.20174561102714111,0.09419606776891562,0
7.1808154582977295,0.7606872042558572,[1.04349556],0.005,0.1,0.40919907948230827,0.13476588769865439,0
7.193463325500488,0.764399779873854,[1.04649699],0.005,0.1,0.3150880238969497,0.1703572299454152,0
7.2007176876068115,0.7663537670412206,[1.04952196],0.005,0.1,0.41401159552366,0.15811119787338077,0
7.2110435962677,0.7696755452257441,[1.05257599],0.005,0.1,0.27529033967863975,0.14909745827854473,0
7.219204664230347,0.7722157285433208,[1.05565278],0.005,0.1,0.08310100392209396,0.10935139854634114,0
7.227698564529419,0.7747559118608975,[1.05874143],0.005,0.1,-0.09078629181924963,0.11564358679742924,0
7.238778591156006,0.7784684874788942,[1.06184354],0.005,0.1,0.051386050695665875,0.15671885076593753,0
7.2487688064575195,0.781594866946681,[1.06496582],0.005,0.1,0.2677002190429453,0.1139065043754593,0
7.259317636489868,0.7853074425646777,[1.06810287],0.005,0.1,0.18753760101502978,0.11854084708235217,0
7.267712354660034,0.788043024598991,[1.07124999],0.005,0.1,0.024889903987442827,0.12289157429930361,0
7.279695510864258,0.7921463976504612,[1.07441408],0.005,0.1,0.1423247547879873,0.1627133086297507,0
7.288874387741089,0.7950773784015112,[1.07760074],0.005,0.1,0.049887307600984324,0.11741588340699999,0
7.297824859619141,0.7978129604358245,[1.08079802],0.005,0.1,-0.09316455226369727,0.09054968737231026,0
7.305721759796143,0.800548542470138,[1.08399018],0.005,0.1,0.05182193466953937,0.10179335203821528,0
7.318777799606323,0.8044565168048715,[1.08718034],0.005,0.1,-0.01465088614030225,0.14469262651487177,0
7.327006578445435,0.8071920988391849,[1.09038202],0.005,0.1,-0.1364079574558662,0.14109366313241792,0
7.334812641143799,0.8093414847232882,[1.09359551],0.005,0.1,-0.251195818394882,0.1049119189428381,0
7.344696998596191,0.8128586616245482,[1.09680995],0.005,0.1,-0.33891555019344066,0.11178435489989429,0
7.354478359222412,0.8161804398090716,[1.10002145],0.005,0.1,-0.39718560876476516,0.1169301733889357,0
7.368182420730591,0.820674610294015,[1.10323739],0.005,0.1,-0.43013533412316424,0.15545287006011896,0
7.37848162651062,0.8238009897618018,[1.1064691],0.005,0.1,-0.44350984035938834,0.14672682883417335,0
7.388450860977173,0.8269273692295884,[1.10972037],0.005,0.1,-0.4427178517691396,0.1401423963336003,0
7.39849328994751,0.8300537486973752,[1.11298855],0.005,0.1,-0.15616375577701136,0.13514009699857962,0
7.406687021255493,0.8329847294484253,[1.11626568],0.005,0.1,-0.10620393404931072,0.09996532979470571,0
7.419033527374268,0.837283501216632,[1.11954463],0.005,0.1,-0.14064538755445627,0.1375575964031744,0
7.429693698883057,0.8409960768346287,[1.12282954],0.005,0.1,-0.19403243086793012,0.13181219387551482,0
7.44186544418335,0.8452948486028355,[1.12612863],0.005,0.1,0.034990332978959524,0.16152211557366247,0
7.4528281688690186,0.8488120255040955,[1.12944814],0.005,0.1,0.034976485926159394,0.1462693493778095,0
7.460695266723633,0.8513522088216723,[1.13278257],0.005,0.1,-0.03920423672741373,0.104996463732698,0
7.470721006393433,0.8548693857229324,[1.13612163],0.005,0.1,0.15333645449913458,0.13733998884267865,0
7.4801013469696045,0.857995765190719,[1.13946625],0.005,0.1,0.1173003125293833,0.12882213686503094,0
7.489025831222534,0.8609267459417691,[1.14281195],0.005,0.1,0.013101693494311187,0.09421675953643809,0
7.499693870544434,0.8644439228430292,[1.14614474],0.005,0.1,-0.0934047258610381,0.09760959744027364,0
7.508914232254028,0.8677657010275525,[1.14945765],0.005,0.1,0.0967411791469972,0.09995579773050939,0
7.521066427230835,0.8716736753622859,[1.15275458],0.005,0.1,0.06908215682010072,0.13005072916294083,0
7.528749704360962,0.8742138586798627,[1.15603883],0.005,0.1,-0.024283823748402128,0.09465405151586484,0
7.538686990737915,0.8773402381476494,[1.15930355],0.005,0.1,-0.1207765026777455,0.097055299698728,0
7.547154903411865,0.8800758201819627,[1.16253827],0.005,0.1,-0.19849305145051288,0.07520560450103987,0
7.556684255599976,0.8833975983664862,[1.16573448],0.005,0.1,-0.2530156254286476,0.08264673551298218,0
7.564720869064331,0.8859377816840628,[1.1688902],0.005,0.1,-0.562712622640629,0.08878914554962393,0
7.573270320892334,0.8886733637183762,[1.17200905],0.005,0.1,-0.6129424435132722,0.09326601204514778,0
7.580726623535156,0.8910181483192163,[1.17508981],0.005,0.1,-0.8387632179952986,0.07333450074924427,0
7.590250492095947,0.8939491290702664,[1.17812715],0.005,0.1,-0.7921148140934045,0.08173520978998414,0
7.6026225090026855,0.8980525021217365,[1.18112683],0.005,0.1,-0.9331275134027651,0.11477719786727009,0
7.612159490585327,0.9011788815895231,[1.1841039],0.005,0.1,-1.0965771449165131,0.11175434437908431,0
7.62006402015686,0.9037190649070999,[1.18706171],0.005,0.1,-1.2230371128735518,0.08432439670951523,0
7.632528305053711,0.9076270392418332,[1.18999865],0.005,0.1,-1.2988825698989455,0.11722593560759566,0
7.6422483921051025,0.9105580199928834,[1.19292352],0.005,0.1,-1.328432926730792,0.11454434232811381,0
7.649738550186157,0.91251200716025,[1.19583914],0.005,0.1,-1.045482138702773,0.086456635281786,0
7.657716989517212,0.9148567917610901,[1.19873844],0.005,0.1,-0.979159205769444,0.09288371763236596,0
7.667799949645996,0.9179831712288767,[1.20161567],0.005,0.1,-0.707403529286003,0.07351730132463255,0
7.677809476852417,0.9211095506966636,[1.20447124],0.005,0.1,-0.6886816052385758,0.10926296178782682,0
7.686688661575317,0.9238451327309769,[1.20731566],0.005,0.1,-0.47069117610297295,0.10995688052572787,0
7.697360515594482,0.9269715121987636,[1.21015803],0.005,0.1,-0.5003445354302005,0.11009603222164667,0
7.7060325145721436,0.9295116955163404,[1.2129963],0.005,0.1,-0.32206256226644,0.08406222181007474,0
7.719567060470581,0.9336150685678104,[1.21582883],0.005,0.1,-0.3828725958732218,0.11873711256075789,0
7.727716445922852,0.9357644544519137,[1.21865926],0.005,0.1,-0.2284835184456467,0.08940801734743505,0
7.7356743812561035,0.9379138403360172,[1.22148577],0.005,0.1,-0.3074308094335657,0.09582711029024993,0
7.744660377502441,0.9406494223703306,[1.22430691],0.005,0.1,-0.4428232560503395,0.10060010874408085,0
7.752701044082642,0.9429942069711705,[1.22712645],0.005,0.1,-0.2893142391711684,0.10416235733784299,0
7.761700391769409,0.9453389915720106,[1.22994264],0.005,0.1,-0.3445122530619886,0.08096875575348805,0
7.770706653594971,0.948074573606324,[1.23274904],0.005,0.1,-0.17625380150604797,0.08935773950402974,0
7.783991813659668,0.9519825479410575,[1.23555012],0.005,0.1,0.03410357174616119,0.12353282744367855,0
7.794674634933472,0.9549135286921074,[1.23835938],0.005,0.1,-0.058398705672904394,0.1195075634700292,0
7.806656122207642,0.9584307055933676,[1.24118788],0.005,0.1,0.045892786248194595,0.14746515267508903,0
7.817526817321777,0.9613616863444175,[1.24404445],0.005,0.1,-0.08285258468180146,0.1347799987314418,0
7.826897859573364,0.9640972683787309,[1.24693106],0.005,0.1,0.014858385721658346,0.1256558607618217,0
7.835673570632935,0.966442052979571,[1.24983909],0.005,0.1,0.1667449130292355,0.09247914792203948,0
7.844677448272705,0.9689822362971477,[1.25275602],0.005,0.1,0.30521659051507455,0.09566071204933056,0
7.854251146316528,0.9717178183314611,[1.25567559],0.005,0.1,0.4093964685499033,0.09769084370543547,0
7.861660003662109,0.9740626029323012,[1.25859693],0.005,0.1,0.4778274527122127,0.09900155299191762,0
7.86986231803894,0.9762119888164045,[1.26151438],0.005,0.1,0.5160114766242363,0.07656259043893292,0
7.87967848777771,0.9789475708507178,[1.2644183],0.005,0.1,0.5310088770728767,0.08270548317841964,0
7.890168190002441,0.9818785516017681,[1.267305],0.005,0.1,0.25328021247751165,0.08701842515552927,0
7.8981969356536865,0.9840279374858714,[1.27017587],0.005,0.1,0.2070611983400324,0.09001636350364157,0
7.905705690383911,0.985981924653238,[1.27302751],0.005,0.1,0.24168516995605274,0.07095773032651871,0
7.913693904876709,0.9883267092540782,[1.27585259],0.005,0.1,0.29286180633817566,0.07753259856658713,0
7.923017978668213,0.9908668925716548,[1.27864944],0.005,0.1,0.06009213850765188,0.08230248702823657,0
7.93371057510376,0.9936024746059682,[1.28142113],0.005,0.1,-0.22060310805363928,0.08535731388713515,0
7.942664861679077,0.9959472592068082,[1.28417031],0.005,0.1,-0.4607510568229652,0.08742605943233801,0
7.952881574630737,0.9984874425243848,[1.28689922],0.005,0.1,-0.3606472930765214,0.08851575350095414,0
7.961226224899292,1.0006368284084883,[1.28960976],0.005,0.1,-0.4417127851735938,0.08919233276047854,0
7.970697402954102,1.0029816130093283,[1.29229932],0.005,0.1,-0.5604117807317489,0.06984726036074017,0
7.9826765060424805,1.0059125937603783,[1.29496576],0.005,0.1,-0.6619510138795348,0.09554979556999146,0
7.995377063751221,1.0092343719449017,[1.29761992],0.005,0.1,-0.7307289370666098,0.11681912299316141,0
8.005236387252808,1.0117745552624784,[1.30027516],0.005,0.1,-0.491082806117282,0.10765617582576478,0
8.014674663543701,1.013923941146582,[1.3029301],0.005,0.1,-0.46780226062161634,0.08030098920927417,0
8.025083303451538,1.016854921897632,[1.30557522],0.005,0.1,-0.5130011101587963,0.08205485389474874,0
8.036694526672363,1.0195905039319453,[1.30821077],0.005,0.1,-0.5655065301626092,0.10533266889653185,0
8.048485279083252,1.0225214846829955,[1.31084534],0.005,0.1,-0.3275641980152784,0.09967694179567604,0
8.059683084487915,1.025061668000572,[1.31348204],0.005,0.1,-0.31341432208577524,0.09584324250936674,0
8.069450616836548,1.0276018513181489,[1.31611936],0.005,0.1,-0.09421476194134543,0.09329535350556854,0
8.07955026626587,1.0299466359189888,[1.31875604],0.005,0.1,-0.1255449024424891,0.09175548194650328,0
8.09066367149353,1.0324868192365655,[1.32139526],0.005,0.1,0.045952018651675516,0.11383907980550527,0
8.099705696105957,1.034636205120669,[1.32403556],0.005,0.1,0.24962341434784047,0.11436782529222649,0
8.110568761825562,1.0375671858717188,[1.3266675],0.005,0.1,0.14592358503269207,0.13203150970124877,0
8.120370388031006,1.039911970472559,[1.32929167],0.005,0.1,0.23724046549206668,0.11877531366313573,0
8.128140211105347,1.0416705589231892,[1.33191293],0.005,0.1,0.37115563362569154,0.11037278603341402,0
8.13567852973938,1.0436245460905555,[1.33452727],0.005,0.1,0.2128513411628091,0.08306975435403446,0
8.143670558929443,1.0453831345411857,[1.3371273],0.005,0.1,0.26401434154055825,0.08598085335289583,0
8.156017780303955,1.048314115292236,[1.33971553],0.005,0.1,0.3697366680426875,0.11178279985563358,0
8.167833089828491,1.0508542986098126,[1.34230301],0.005,0.1,0.4685030155049841,0.10703996371581992,0
8.175668001174927,1.0526128870604428,[1.34489072],0.005,0.1,0.540641895512578,0.08165232400402041,0
8.184373378753662,1.0543714755110727,[1.3474711],0.005,0.1,0.307974281373459,0.08645394626915733,0
8.195484161376953,1.057107057545386,[1.35004675],0.005,0.1,0.2937084911077297,0.11454017412248298,0
8.20479941368103,1.0592564434294893,[1.35262446],0.005,0.1,0.34895408638643577,0.08672156073183221,0
8.214590787887573,1.0616012280303293,[1.35520136],0.005,0.1,0.41189823567084005,0.09077357936051764,0
8.227534055709839,1.064727607498116,[1.35777973],0.005,0.1,0.4604191521529796,0.1194938822849354,0
8.237102031707764,1.0666815946654828,[1.36037058],0.005,0.1,0.21351342403666249,0.11519783478684367,0
8.245734691619873,1.0686355818328495,[1.36297429],0.005,0.1,0.19186860329202382,0.08766180114521799,0
8.256741285324097,1.0711757651504263,[1.36558222],0.005,0.1,-0.03147047225563682,0.09265272876056707,0
8.269325733184814,1.0741067459014764,[1.3681962],0.005,0.1,-0.000904668150080945,0.12316315977330443,0
8.277661085128784,1.076060733068843,[1.37082238],0.005,0.1,0.10562186044152949,0.0928737791735004,0
8.292098045349121,1.0793825112533664,[1.37346598],0.005,0.1,0.2151002395599768,0.1548084316851577,0
8.300551652908325,1.0811410997039963,[1.37613598],0.005,0.1,0.30214701964085233,0.11169678136990792,0
8.3100266456604,1.0834858843048365,[1.37883052],0.005,0.1,0.36180617238055474,0.11096627973700304,0
8.320016384124756,1.085439871472203,[1.38154791],0.005,0.1,0.3969695960272648,0.14085142203548723,0
8.329736471176147,1.0875892573563064,[1.38429112],0.005,0.1,0.41280070926088225,0.10383071553957288,0
8.339486837387085,1.0901294406738833,[1.38705316],0.005,0.1,0.4144452985159157,0.10609392409397919,0
8.348843336105347,1.0918880291245132,[1.38982795],0.005,0.1,0.4062360115092281,0.10863915939497967,0
8.357677936553955,1.0940374150086165,[1.39261025],0.005,0.1,0.3915387087394263,0.0852776530474942,0
8.372211217880249,1.0973591931931401,[1.39540034],0.005,0.1,0.37284628791527724,0.1511206470582041,0
8.383790731430054,1.1002901739441902,[1.39821247],0.005,0.1,0.35194484357921185,0.14003820468131462,0
8.393409013748169,1.1024395598282934,[1.40105389],0.005,0.1,0.3300800299732547,0.13298977890688785,0
8.40413212776184,1.10497974314587,[1.40392104],0.005,0.1,0.30809836568783855,0.12762947149301465,0
8.41313362121582,1.1071291290299736,[1.40681055],0.005,0.1,0.2865584113095767,0.12459439720707943,0
8.425787687301636,1.109864711064287,[1.40972408],0.005,0.1,0.26581457791760166,0.1545300312771054,0
8.434759378433228,1.1120140969483903,[1.41266276],0.005,0.1,0.24607864889269976,0.11281269652710516,0
8.444650411605835,1.1143588815492305,[1.41561781],0.005,0.1,0.5035025074806294,0.11434483541804802,0
8.455655574798584,1.1168990648668071,[1.41858636],0.005,0.1,0.7952192544585147,0.14665899724693177,0
8.467671155929565,1.1196346469011205,[1.42157532],0.005,0.1,0.7569711388399092,0.13805239105329153,0
8.475714921951294,1.1217840327852238,[1.42458074],0.005,0.1,0.6106578257666863,0.10345238196062762,0
8.484943866729736,1.124128817386064,[1.42758961],0.005,0.1,0.7260575143664902,0.10790555594462119,0
8.494736909866333,1.1266690007036406,[1.43059568],0.005,0.1,0.6190517988199533,0.11150829879890853,0
8.50470757484436,1.129404582737954,[1.43359848],0.005,0.1,0.45333400750632896,0.11412261853206546,0
8.515072107315063,1.1319447660555308,[1.43659772],0.005,0.1,0.2947573000551899,0.11639802164812639,0
8.52578091621399,1.1342895506563708,[1.43959333],0.005,0.1,0.44111086810148536,0.11823078932292606,0
8.539193630218506,1.1374159301241575,[1.44259021],0.005,0.1,0.37651311683327926,0.15149815927809884,0
8.549663305282593,1.1399561134417342,[1.44560206],0.005,0.1,0.2517444560847884,0.1780764081228711,0
8.559871673583984,1.1421054993258377,[1.4486353],0.005,0.1,0.12828587455281654,0.1270371328560505,0
8.56964659690857,1.1446456826434142,[1.45168037],0.005,0.1,0.02716683852502305,0.12359353355897053,0
8.579644203186035,1.1471858659609908,[1.45472825],0.005,0.1,-0.04787224906747273,0.11997109183538242,0
8.588768005371094,1.1493352518450946,[1.45777491],0.005,0.1,-0.09968169963238907,0.11559692528179175,0
8.598755836486816,1.1516800364459343,[1.46081555],0.005,0.1,-0.13297123107152342,0.11002655678927242,0
8.609700918197632,1.1542202197635112,[1.46384443],0.005,0.1,0.12366167687284749,0.10323782965281722,0
8.61965036392212,1.1567604030810879,[1.46685481],0.005,0.1,0.14736705798812447,0.09557948819031703,0
8.629667520523071,1.1593005863986645,[1.46984186],0.005,0.1,0.0897973483566361,0.10294354386157448,0
8.638664484024048,1.1614499722827678,[1.47279928],0.005,0.1,0.01591773615441438,0.07507813875459415,0
8.649916648864746,1.164380953033818,[1.47571336],0.005,0.1,-0.04936755119103922,0.06737473384352595,0
8.660253763198853,1.1669211363513945,[1.47857015],0.005,0.1,-0.09888885072266172,0.05987862227293594,0
8.669671297073364,1.1692659209522347,[1.48135841],0.005,0.1,-0.13273843305855867,0.0526715664978624,0
8.681800127029419,1.172001502986548,[1.48406735],0.005,0.1,-0.429555800295597,0.04855533818320355,0
8.690678596496582,1.1739554901539149,[1.4866855],0.005,0.1,-0.4734604652135619,0.03983199205862451,0
8.699676036834717,1.1759094773212815,[1.48919903],0.005,0.1,-0.6979421877464189,0.03572414155516875,0
8.711419343948364,1.1782542619221215,[1.49159392],0.005,0.1,-1.205581248975811,0.032577539968268565,0
8.722733497619629,1.1805990465229617,[1.49385687],0.005,0.1,-1.6934785766441665,0.031130181160651443,0
8.73061752319336,1.182162236256855,[1.49597569],0.005,0.1,-1.7859584712504741,0.03129687219486893,0
8.7406587600708,1.184507020857695,[1.49794022],0.005,0.1,-1.9881496304592683,0.03237053315988311,0
8.749616384506226,1.1860702105915883,[1.49974082],0.005,0.1,-2.163393701054904,0.034815441923096054,0
8.762587785720825,1.1886103939091652,[1.50136653],0.005,0.1,-2.2707037112912323,0.041284359581607845,0
8.770668745040894,1.1899781849263218,[1.50280817],0.005,0.1,-2.3085016076115403,0.040462013615915206,0
8.781613111495972,1.1919321720936886,[1.50406229],0.005,0.1,-2.289032983658645,0.04433747127523294,0
8.792612552642822,1.1936907605443183,[1.50512698],0.005,0.1,-2.5033935426035545,0.048101142687948975,0
8.806145191192627,1.1958401464284218,[1.50599541],0.005,0.1,-2.4462395100521865,0.06754204468511932,0
8.815128087997437,1.1972079374455786,[1.50666127],0.005,0.1,-2.2831621711031245,0.05727308776630357,0
8.822713851928711,1.1981849310292618,[1.50712844],0.005,0.1,-1.813525916162389,0.058379677576747564,0
8.831631660461426,1.1995527220464186,[1.50740739],0.005,0.1,-1.5886846273958335,0.05115678588080186,0
8.843490362167358,1.2011159117803119,[1.50750732],0.005,0.1,-1.1902845873955776,0.06048378804716801,0
8.852729082107544,1.2024837027974689,[1.50743419],0.005,0.1,-0.7974112220493454,0.05862550311801086,0
8.862434148788452,1.203460696381152,[1.507196],0.005,0.1,-0.7474328103716242,0.05640768454853578,0
8.871593475341797,1.2048284873983088,[1.50680673],0.005,0.1,-0.5323549185907361,0.04786354356238576,0
8.883629560470581,1.206391677132202,[1.50628123],0.005,0.1,-0.5746298943106509,0.052111244563071424,0
8.89172887802124,1.2071732719991486,[1.5056328],0.005,0.1,-0.4088063295685834,0.044165842527026634,0
8.903632164001465,1.2087364617330423,[1.50487559],0.005,0.1,-0.20257583614391422,0.04579164117424486,0
8.912594556808472,1.209908854033462,[1.50402321],0.005,0.1,-0.02008719540046708,0.04172683229177054,0
8.920677423477173,1.2108858476171456,[1.50309088],0.005,0.1,0.12032477338322779,0.03584471113364228,0
8.928622484207153,1.211667442484092,[1.50209645],0.005,0.1,0.21906588244636693,0.033630616756514534,0
8.938314437866211,1.2130352335012489,[1.50105606],0.005,0.1,0.28299937336813097,0.031134927097103037,0
8.947652101516724,1.2140122270849323,[1.49998449],0.005,0.1,0.3201814554928238,0.02876711960676656,0
8.958293199539185,1.2151846193853522,[1.49889634],0.005,0.1,0.3378428109152397,0.026550267950785706,0
8.967690229415894,1.2161616129690356,[1.49780596],0.005,0.1,0.617847080756964,0.02464875330272911,0
8.980310678482056,1.2173340052694557,[1.49672759],0.005,0.1,0.3696340734453393,0.022824385698851493,0
8.988187789916992,1.2181156001364022,[1.49567495],0.005,0.1,0.2700983250769055,0.021904918458696916,0
8.995635747909546,1.2185063975698756,[1.49466045],0.005,0.1,0.23410726637723386,0.021243294696484356,0
9.007643461227417,1.219483391153559,[1.49369587],0.005,0.1,0.22260661170729734,0.020889688371337457,0
9.019059658050537,1.2204603847372424,[1.49279264],0.005,0.1,-0.05753264749691145,0.02098697630649426,0
9.03250765800476,1.2214373783209256,[1.49196283],0.005,0.1,-0.37025668634241043,0.02281477815642399,0
9.041402816772461,1.2220235744711359,[1.49121908],0.005,0.1,-0.6296123766156335,0.024013996890099275,0
9.050703525543213,1.2226097706213457,[1.4905698],0.005,0.1,-0.5389121692986298,0.023102957091388293,0
9.05960464477539,1.2231959667715557,[1.49001928],0.005,0.1,-0.34626005631621215,0.0250531471815429,0
9.06868839263916,1.2237821629217658,[1.48957292],0.005,0.1,-0.15322821050038682,0.027353207122288312,0
9.078835010528564,1.2241729603552391,[1.48923712],0.005,0.1,-0.2709497625698931,0.03004815191975055,0
9.08866000175476,1.224759156505449,[1.48901738],0.005,0.1,-0.18707705703574995,0.032945314523387656,0
9.09706449508667,1.2251499539389223,[1.48891832],0.005,0.1,-0.051981889920307556,0.03606820695059016,0
9.105633735656738,1.225540751372396,[1.48894081],0.005,0.1,0.07456261075147338,0.0323253607894631,0
9.114597082138062,1.225931548805869,[1.48908235],0.005,0.1,0.17341559037169574,0.03679889517307062,0
9.126577615737915,1.2263223462393424,[1.48934613],0.005,0.1,0.2424888470010354,0.05114485556626668,0
9.13767385482788,1.2267131436728156,[1.48974035],0.005,0.1,0.2859392479036925,0.05340642367173938,0
9.146599531173706,1.2272993398230259,[1.49026508],0.005,0.1,0.3094522421160228,0.044536375153035074,0
9.157633304595947,1.2276901372564992,[1.49091673],0.005,0.1,0.31836449556835844,0.0625850327512169,0
9.16797685623169,1.2280809346899724,[1.49169823],0.005,0.1,0.3170616083931882,0.0645658325335119,0
9.177783250808716,1.2284717321234457,[1.49261122],0.005,0.1,0.5849506148772112,0.06675753532839923,0
9.186599731445312,1.2286671308401824,[1.49364902],0.005,0.1,0.6055627328303227,0.05454085570646395,0
9.198643445968628,1.2290579282736558,[1.49480514],0.005,0.1,0.8114069971500992,0.0770725252659586,0
9.208125829696655,1.2294487257071294,[1.49608079],0.005,0.1,1.028048718413399,0.07868054251191774,0
9.217834234237671,1.2298395231406025,[1.49747611],0.005,0.1,1.1946687091515167,0.08058754320423617,0
9.228259801864624,1.2302303205740757,[1.49898655],0.005,0.1,1.2991878799104573,0.08285835460439114,0
9.238602638244629,1.2306211180075495,[1.50060739],0.005,0.1,1.3482616896329889,0.08543944844649577,0
9.248461723327637,1.2310119154410226,[1.50233379],0.005,0.1,1.3539789289789197,0.08817239630967214,0
9.258249759674072,1.2314027128744958,[1.50416084],0.005,0.1,1.3284013300401052,0.09104793682749215,0
9.265642404556274,1.2317935103079691,[1.50608364],0.005,0.1,1.2816657210115032,0.09419927142718022,0
9.273577451705933,1.2319889090247058,[1.50809293],0.005,0.1,1.2216170097972845,0.07543488016644449,0
9.281617641448975,1.2325751051749159,[1.51017131],0.005,0.1,1.15403133069243,0.06399453482664742,0
9.29260540008545,1.2333567000418626,[1.51230801],0.005,0.1,1.3590500106670733,0.09826472386979478,0
9.303637027740479,1.233747497475336,[1.51450705],0.005,0.1,1.5965851449421433,0.10304678515758069,0
9.316566705703735,1.234333693625546,[1.51677625],0.005,0.1,1.5042615205716916,0.13655706980961907,0
9.328235149383545,1.234919889775756,[1.5191221],0.005,0.1,1.5812520859795907,0.13243416775999303,0
9.337228298187256,1.235506085925966,[1.521545],0.005,0.1,1.4031202283582007,0.13037931786734389,0
9.346633434295654,1.2360922820761762,[1.52404005],0.005,0.1,1.4358849204078044,0.13009482264652333,0
9.35957932472229,1.2368738769431225,[1.52660761],0.005,0.1,1.2370640312384684,0.16565192514262078,0
9.372008562088013,1.237850870526806,[1.52925246],0.005,0.1,1.2626421451626357,0.15690267091697288,0
9.38344955444336,1.2386324653937526,[1.53197311],0.005,0.1,1.3404651906953613,0.15145826560246503,0
9.391618013381958,1.2394140602606996,[1.5347577],0.005,0.1,1.404239143266481,0.11551500703605731,0
9.399635553359985,1.2401956551276458,[1.53759056],0.005,0.1,1.7105597268749437,0.12336909313065682,0
9.411215543746948,1.2413680474280662,[1.54046821],0.005,0.1,1.7402143383906314,0.16583020718086394,0
9.419461011886597,1.241954243578276,[1.54339233],0.005,0.1,1.6542655586437844,0.1255931269342,0
9.429160594940186,1.2429312371619592,[1.54635364],0.005,0.1,1.8036099280372517,0.13213041228285793,0
9.441574573516846,1.244299028179116,[1.54934903],0.005,0.1,1.7026615824540223,0.17497688758964383,0
9.452169418334961,1.2452760217627994,[1.55238572],0.005,0.1,1.7959055889983269,0.16806098727595853,0
9.46389627456665,1.2464484140632193,[1.55546404],0.005,0.1,1.636373944937635,0.1628331387705394,0
9.47389841079712,1.2476208063636394,[1.55857848],0.005,0.1,1.4061230664144064,0.1593641726029274,0
9.483970165252686,1.2485977999473228,[1.5617237],0.005,0.1,1.179974784516686,0.1568303928581835,0
9.493603944778442,1.2497701922477427,[1.56489451],0.005,0.1,0.9839560148787525,0.15490687651156243,0
9.505637407302856,1.2511379832648997,[1.56809081],0.005,0.1,0.8230750422411193,0.19160606523789195,0
9.514244794845581,1.2521149768485829,[1.57131184],0.005,0.1,0.6941989245318425,0.14152570746397103,0
9.521631002426147,1.2528965717155296,[1.57454636],0.005,0.1,0.591784445379876,0.1428913317123387,0
9.533561706542969,1.2542643627326862,[1.57778426],0.005,0.1,0.5102479515376765,0.1434805246804911,0
9.543023824691772,1.2554367550331063,[1.5810214],0.005,0.1,0.4448031273768015,0.14338310731347645,0
9.554295301437378,1.256804546050263,[1.58425385],0.005,0.1,0.11559834023666332,0.14298603427053813,0
9.562580108642578,1.2577815396339465,[1.58747785],0.005,0.1,-0.23737542550901938,0.14247082399546276,0
9.572815656661987,1.2589539319343666,[1.59068993],0.005,0.1,-0.25205092208920393,0.14152569559549502,0
9.582916975021362,1.2601263242347864,[1.5938868],0.005,0.1,-0.4280197802614659,0.14052646236020908,0
9.592790126800537,1.261494115251943,[1.59706104],0.005,0.1,-0.6173547804505216,0.11131192579957637,0
9.603577136993408,1.2624711088356266,[1.60020621],0.005,0.1,-0.7676117709676745,0.1472570451683868,0
9.613176107406616,1.2636435011360463,[1.60332556],0.005,0.1,-0.8675254729205648,0.14305889249900405,0
9.620609760284424,1.2644250960029932,[1.60641732],0.005,0.1,-0.9218347269096963,0.11266346453329068,0
9.628612756729126,1.2654020895866764,[1.60947096],0.005,0.1,-0.9400785736736281,0.11669322961188948,0
9.640961647033691,1.2667698806038332,[1.61248514],0.005,0.1,-0.931962085541844,0.1422205801125395,0
9.649916172027588,1.2677468741875166,[1.61546207],0.005,0.1,-0.9057161572921355,0.11005048379381431,0
9.660298347473145,1.2689192664879365,[1.61839487],0.005,0.1,-1.1437890414830987,0.10848241020353147,0
9.668213367462158,1.2697008613548835,[1.62127637],0.005,0.1,-1.1319749071071779,0.10476256025674997,0
9.675574779510498,1.2706778549385667,[1.62409985],0.005,0.1,-1.3043964990775674,0.08579978554027848,0
9.683603525161743,1.2714594498055134,[1.62685536],0.005,0.1,-1.211690774789476,0.08483633104734982,0
9.69459867477417,1.2724364433891966,[1.62953608],0.005,0.1,-1.3127262126620738,0.08141593990546785,0
9.704264879226685,1.27341343697288,[1.63213737],0.005,0.1,-1.441196857002712,0.07624572906398931,0
9.713733673095703,1.27399963312309,[1.63465317],0.005,0.1,-1.5367978531172888,0.07047128108231533,0
9.724572658538818,1.2749766267067733,[1.6370762],0.005,0.1,-1.585209059003904,0.06442379111850248,0
9.735586881637573,1.27575822157372,[1.63939811],0.005,0.1,-1.866242874289266,0.05911419950800306,0
9.744413375854492,1.27634441772393,[1.64160977],0.005,0.1,-2.14638983040538,0.054964128538398035,0
9.753901720046997,1.27693061387414,[1.64370156],0.005,0.1,-2.347266618242039,0.052162025759483296,0
9.76557207107544,1.2773214113076135,[1.64566281],0.005,0.1,-2.4562846227848345,0.050742663491310784,0
9.773656845092773,1.2777122087410866,[1.64748313],0.005,0.1,-2.485535262770473,0.051293334710559836,0
9.781601428985596,1.27810300617456,[1.64915564],0.005,0.1,-2.1776784069395125,0.052176613282789504,0
9.791580438613892,1.2782984048912969,[1.6506738],0.005,0.1,-2.3457103185375807,0.056574790859018606,0
9.799606800079346,1.2782984048912969,[1.65203009],0.005,0.1,-2.3308654665430266,0.05738191532267097,0
9.808536052703857,1.2784938036080336,[1.65322025],0.005,0.1,-2.2319844329520837,0.06164503712193391,0
9.81859803199768,1.2784938036080336,[1.65424088],0.005,0.1,-2.0980473320739685,0.06664820088624325,0
9.831385850906372,1.2784938036080336,[1.65508554],0.005,0.1,-2.5051703780686925,0.07971537506377976,0
9.842047929763794,1.2784938036080336,[1.65574704],0.005,0.1,-2.4270226487232973,0.08336794575111081,0
9.85240912437439,1.2784938036080336,[1.65622269],0.005,0.1,-2.1783415265093247,0.08674664856943454,0
9.861593008041382,1.2784938036080336,[1.65651675],0.005,0.1,-1.8958579666942168,0.07928031569846966,0
9.873563766479492,1.2784938036080336,[1.65663452],0.005,0.1,-1.3573732430573955,0.09612630436299927,0
9.884571075439453,1.2784938036080336,[1.65657685],0.005,0.1,-0.822479763244293,0.09730218683188316,0
9.894710063934326,1.2784938036080336,[1.65634651],0.005,0.1,-0.10446430826931102,0.09819024349899559,0
9.90555715560913,1.2784938036080336,[1.65595062],0.005,0.1,0.5373470579617888,0.09859822578930054,0
9.915745973587036,1.2784938036080336,[1.65539742],0.005,0.1,1.0262283833379064,0.0985719109990683,0
9.927778720855713,1.2784938036080336,[1.65469336],0.005,0.1,1.3606640431372077,0.11183063854375135,0
9.939563274383545,1.2784938036080336,[1.65384077],0.005,0.1,1.5654974547412506,0.12091525274274412,0
9.95028281211853,1.2784938036080336,[1.65284415],0.005,0.1,1.6708946247647647,0.11116225337863392,0
9.958553791046143,1.2784938036080336,[1.65172022],0.005,0.1,1.7041971271976981,0.11040906801556143,0
9.970020294189453,1.2784938036080336,[1.65049038],0.005,0.1,1.6875073056778347,0.11650955835022628,0
9.977980613708496,1.2784938036080336,[1.64916682],0.005,0.1,1.6376409342658174,0.10599872176371353,0
9.98652982711792,1.2784938036080336,[1.64775889],0.005,0.1,1.5669146331456127,0.09820552003233117,0
9.995551347732544,1.2784938036080336,[1.64628095],0.005,0.1,1.4841064562744695,0.08230566838734583,0
10.007576942443848,1.2784938036080336,[1.64474647],0.005,0.1,1.3953321915417454,0.0906825882180273,0
10.0200355052948,1.2784938036080336,[1.64316101],0.005,0.1,1.304759970518307,0.0964334529393338,0
10.02988576889038,1.2784938036080336,[1.64152798],0.005,0.1,1.2151604099174942,0.08919010436251659,0
10.038587808609009,1.2784938036080336,[1.63985799],0.005,0.1,1.12831603756791,0.07526323905142301,0
10.046591520309448,1.2784938036080336,[1.63816736],0.005,0.1,1.0453194741308278,0.06675343962792976,0
10.058624029159546,1.2784938036080336,[1.63646803],0.005,0.1,0.966787418527048,0.07537436581616436,0
10.066568374633789,1.2784938036080336,[1.6347659],0.005,0.1,0.893012575987984,0.06633020797354838,0
10.078464269638062,1.2784938036080336,[1.63306604],0.005,0.1,0.8240706252263255,0.07454117371348369,0
10.088581562042236,1.2784938036080336,[1.63137058],0.005,0.1,0.7598949887589892,0.07266340325424779,0
10.099658250808716,1.2784938036080336,[1.62968124],0.005,0.1,0.7003287365581136,0.07115067935407003,0
10.109390258789062,1.2784938036080336,[1.62800146],0.005,0.1,0.6451603491705054,0.0699903973139828,0
10.118802070617676,1.2784938036080336,[1.6263339],0.005,0.1,0.5941481436663676,0.06919263433213846,0
10.129399299621582,1.2784938036080336,[1.62468041],0.005,0.1,0.5470367700504998,0.06863333412914115,0
10.139591932296753,1.2784938036080336,[1.6230421],0.005,0.1,0.5035681840490618,0.06836933182709884,0
10.148728370666504,1.2784938036080336,[1.62141938],0.005,0.1,0.4634887887911552,0.06831763100252511,0
10.158931970596313,1.2784938036080336,[1.61981197],0.005,0.1,0.4265539325861755,0.06853710161005352,0
10.17059588432312,1.2784938036080336,[1.61821643],0.005,0.1,0.3925305934441484,0.07903473802367449,0
10.178583145141602,1.2784938036080336,[1.61662913],0.005,0.1,0.3611988301120485,0.06698843758959012,0
10.186559438705444,1.2784938036080336,[1.61505404],0.005,0.1,0.3323524032624994,0.05954096566144343,0
10.194594621658325,1.2784938036080336,[1.61349646],0.005,0.1,0.30579884702259563,0.06320434402036326,0
10.207450866699219,1.2784938036080336,[1.61195198],0.005,0.1,0.2813591846403085,0.07800410745208146,0
10.219622611999512,1.2784938036080336,[1.61041031],0.005,0.1,0.2588674217171246,0.07854824507111542,0
10.229425191879272,1.2784938036080336,[1.60886455],0.005,0.1,0.23816990831457174,0.07969172237520242,0
10.240509033203125,1.2784938036080336,[1.60731075],0.005,0.1,0.21912463190437179,0.08131016608025379,0
10.253710985183716,1.2784938036080336,[1.6057413],0.005,0.1,0.20160048274079506,0.10040625743999858,0
10.26552438735962,1.2784938036080336,[1.60414542],0.005,0.1,0.18547651909882112,0.09872825713139904,0
10.274031400680542,1.2784938036080336,[1.60251646],0.005,0.1,0.17064125005759298,0.09850010153318951,0
10.281515121459961,1.2784938036080336,[1.60085526],0.005,0.1,0.1569919467949467,0.08082529459513266,0
10.2925386428833,1.2784938036080336,[1.59916181],0.005,0.1,0.1444339887713671,0.10798806004885952,0
10.302889347076416,1.2784938036080336,[1.59742765],0.005,0.1,0.1328802480739911,0.10932362308101638,0
10.313254594802856,1.2784938036080336,[1.59564497],0.005,0.1,0.12225051311126606,0.11154416352566385,0
10.320542573928833,1.2784938036080336,[1.59381478],0.005,0.1,0.11247095148068095,0.09051540722787929,0
10.332544803619385,1.2784938036080336,[1.59193725],0.005,0.1,0.10347361095508809,0.12707186078119925,0
10.34374475479126,1.2784938036080336,[1.59000273],0.005,0.1,0.09519595699370437,0.1299358694358183,0
10.355933904647827,1.2784938036080336,[1.58799732],0.005,0.1,0.08758044487473446,0.16947798577681544,0
10.36409306526184,1.2784938036080336,[1.58591318],0.005,0.1,0.08057412439312917,0.12858585989267812,0
10.3744478225708,1.2784938036080336,[1.58375336],0.005,0.1,0.07412827501754286,0.13676529442181298,0
10.38554573059082,1.2784938036080336,[1.58151397],0.005,0.1,0.06819806941924551,0.1884546692240333,0
10.398555278778076,1.2784938036080336,[1.5791799],0.005,0.1,0.06274226334788076,0.18730322808460775,0
10.409305572509766,1.2784938036080336,[1.57674297],0.005,0.1,0.057722909917573006,0.1897223803169038,0
10.419533252716064,1.2784938036080336,[1.57420107],0.005,0.1,0.05310509647043318,0.1948474471497144,0
10.428990364074707,1.2784938036080336,[1.57155167],0.005,0.1,0.04885670229518479,0.20252504941208088,0
10.437214374542236,1.2784938036080336,[1.56879177],0.005,0.1,0.044948175591240425,0.2119211547411937,0
10.445909261703491,1.2784938036080336,[1.56591798],0.005,0.1,0.041352328179710574,0.22280691696098717,0
10.453522682189941,1.2784938036080336,[1.56293427],0.005,0.1,0.03804414657037227,0.17196086735785202,0
10.463057041168213,1.2784938036080336,[1.55985889],0.005,0.1,0.03500061809626943,0.1406739668946363,0
10.473908185958862,1.2784938036080336,[1.556699],0.005,0.1,0.032200570924636795,0.2427008761093573,0
10.484064817428589,1.2784938036080336,[1.55343636],0.005,0.1,0.029624526843914076,0.2596869149625994,0
10.493538618087769,1.2784938036080336,[1.55005454],0.005,0.1,0.027254565811674715,0.2755341366348678,0
10.506804943084717,1.2784938036080336,[1.54653759],0.005,0.1,0.025074201327432384,0.3870439156670976,0
10.519554376602173,1.2784938036080336,[1.54286206],0.005,0.1,0.023068265767721936,0.37691081226452644,0
10.528332710266113,1.2784938036080336,[1.53901652],0.005,0.1,0.021222804888843087,0.37289627875820164,0
10.53755259513855,1.2788846010415067,[1.53501013],0.005,0.1,0.019524980765512883,0.27328022541039976,0
10.550209522247314,1.2792753984749798,[1.53085063],0.005,0.1,0.2940013421703969,0.40804221317952777,0
10.561959981918335,1.2796661959084534,[1.52651409],0.005,0.1,0.6017272665423932,0.5305053739835468,0
10.56957483291626,1.27986159462519,[1.52198055],0.005,0.1,1.1305092570392925,0.3712405402443842,0
10.578744173049927,1.2804477907754,[1.51726473],0.005,0.1,1.3403982518708473,0.38121525574913884,0
10.588549613952637,1.2812293856423467,[1.51237953],0.005,0.1,1.667678373736396,0.3909534065400327,0
10.600852727890015,1.2820109805092936,[1.50731405],0.005,0.1,2.5026397942249625,0.5298451776663831,0
10.6124849319458,1.2831833728097135,[1.50204785],0.005,0.1,3.036361885767933,0.4979637988312124,0
10.62052321434021,1.284160366393397,[1.49658739],0.005,0.1,3.335241373368041,0.35169529586361636,0
10.630751609802246,1.285332758693817,[1.4909624],0.005,0.1,4.013768262731473,0.3710368192163675,0
10.643553733825684,1.2870913471444472,[1.48517451],0.005,0.1,4.361417927652185,0.5128856763405859,0
10.655147790908813,1.2888499355950767,[1.47918852],0.005,0.1,4.76017303451426,0.6251593498892868,0
10.663798809051514,1.2902177266122334,[1.47298754],0.005,0.1,4.7664601872848,0.42240904447357835,0
10.674701690673828,1.2921717137796,[1.466596],0.005,0.1,4.864018937242743,0.4127158753517493,0
10.683530569076538,1.2939303022302302,[1.46003549],0.005,0.1,4.361986032398738,0.40381711478730276,0
10.69312834739685,1.2958842893975973,[1.4533123],0.005,0.1,4.262003753597439,0.3929237044569703,0
10.704561948776245,1.2982290739984372,[1.44643241],0.005,0.1,4.259334364310982,0.37926958936005756,0
10.713217973709106,1.3003784598825405,[1.43940154],0.005,0.1,3.685318177683615,0.36397515253353174,0
10.722836971282959,1.3027232444833805,[1.43222515],0.005,0.1,3.2682059393181633,0.3462478867265814,0
10.730550765991211,1.3044818329340107,[1.42492245],0.005,0.1,2.665611266631987,0.24043586990721896,0
10.739567518234253,1.3066312188181142,[1.41752419],0.005,0.1,2.361835262384,0.2477224337992091,0
10.748502731323242,1.3085852059854806,[1.41004273],0.005,0.1,1.6315775676742839,0.24579559330901501,0
10.758219242095947,1.3107345918695839,[1.40247462],0.005,0.1,0.8831627998186226,0.23501076000139048,0
10.767551898956299,1.312493180320214,[1.39483137],0.005,0.1,-0.01553605297394317,0.15976330400680447,0
10.77734899520874,1.3144471674875808,[1.38712259],0.005,0.1,-0.7916871664499568,0.21421670869766538,0
10.788390398025513,1.3165965533716841,[1.37932727],0.005,0.1,-1.9234856696655234,0.18236100052054327,0
10.799602031707764,1.3185505405390507,[1.37142778],0.005,0.1,-2.9316790887302977,0.14994178925486515,0
10.809564590454102,1.3206999264231545,[1.36342407],0.005,0.1,-3.949373131690103,0.1160476479015081,0
10.822253227233887,1.3226539135905209,[1.35530148],0.005,0.1,-5.0,0.10136282877334866,0
10.831571340560913,1.3240217046076777,[1.34703304],0.005,0.1,-5.0,0.05497040263913064,0
10.839516639709473,1.3249986981913608,[1.33862722],0.005,0.1,-5.0,0.01533604156536195,0
10.848233699798584,1.325975691775044,[1.33012252],0.005,0.1,-5.0,-0.015432212804208836,0
10.855500221252441,1.326757286641991,[1.32153686],0.005,0.1,-5.0,-0.048561204150823406,0
10.865499258041382,1.327343482792201,[1.31288601],0.005,0.1,-5.0,-0.05602454563980599,0
10.876524209976196,1.3275388815089375,[1.30419906],0.005,0.1,-5.0,-0.09058001965518363,0
10.88549280166626,1.3275388815089375,[1.29546935],0.005,0.1,-5.0,-0.17872210973452532,0
10.897057294845581,1.327343482792201,[1.28665995],0.005,0.1,-5.0,-0.20884418252441292,0
10.908195972442627,1.326757286641991,[1.27775552],0.005,0.1,-5.0,-0.23816525351090376,0
10.916502237319946,1.3257802930583074,[1.26877528],0.005,0.1,-5.0,-0.19002145448731908,0
10.926512479782104,1.3248032994746242,[1.25975197],0.005,0.1,-5.0,-0.23404421962244437,0
10.934512853622437,1.3238263058909407,[1.2506975],0.005,0.1,-5.0,-0.2776944637846373,0
10.944087505340576,1.3222631161570475,[1.24160586],0.005,0.1,-5.0,-0.31809458184919365,0
10.952544212341309,1.3206999264231545,[1.23247188],0.005,0.1,-5.0,-0.3564847479943918,0
10.960963726043701,1.3185505405390507,[1.22330751],0.005,0.1,-5.0,-0.2761698991984848,0
10.972957134246826,1.316010357221474,[1.21412284],0.005,0.1,-5.0,-0.46309473840455984,0
10.983657836914062,1.313079376470424,[1.20489381],0.005,0.1,-5.0,-0.4825607159519536,0
10.994487285614014,1.3099529970026373,[1.19560029],0.005,0.1,-5.0,-0.5025319981458531,0
11.002617597579956,1.3074128136850605,[1.18625821],0.005,0.1,-5.0,-0.3758293519105565,0
11.010654926300049,1.3044818329340107,[1.17689774],0.005,0.1,-5.0,-0.4346410508605379,0
11.019540786743164,1.3007692573160137,[1.16752793],0.005,0.1,-5.0,-0.4846866165376965,0
11.031348943710327,1.2956888906808604,[1.15812333],0.005,0.1,-5.0,-0.7122827193473718,0
11.040378332138062,1.2919763150628636,[1.14866251],0.005,0.1,-5.0,-0.5100176545047737,0
11.053440570831299,1.28689594842771,[1.13914421],0.005,0.1,-5.0,-0.7520344364771575,0
11.062521696090698,1.2829879740929768,[1.12956781],0.005,0.1,-4.597714232612113,-0.5375638472297556,0
11.075504064559937,1.2775168100243501,[1.11993327],0.005,0.1,-3.4450931664299955,-0.7950112431044465,0
11.085230588912964,1.27341343697288,[1.11022431],0.005,0.1,-1.4004059395775392,-0.7827042222326448,0
11.093568325042725,1.2697008613548835,[1.10042789],0.005,0.1,1.111917608541098,-0.7815699652170153,0
11.104223489761353,1.2654020895866764,[1.09055052],0.005,0.1,3.284135566662381,-0.7871223638158379,0
11.113486051559448,1.261494115251943,[1.0805985],0.005,0.1,4.894708485961562,-0.8001316304622558,0
11.122835397720337,1.2577815396339465,[1.0705779],0.005,0.1,5.0,-0.8185449774405366,0
11.130733966827393,1.2546551601661597,[1.06051141],0.005,0.1,5.0,-0.6019626571716177,0
11.142489194869995,1.2497701922477427,[1.05041859],0.005,0.1,5.0,-0.9415899582074994,0
11.154471397399902,1.2446898256125896,[1.04026558],0.005,0.1,5.0,-1.2491876202669758,0
11.167490720748901,1.2392186615439627,[1.03000736],0.005,0.1,5.0,-1.1606700718180762,0
11.175483703613281,1.2357014846427024,[1.01965771],0.005,0.1,5.0,-0.8193832821736233,0
11.184521913528442,1.2317935103079691,[1.00926317],0.005,0.1,5.0,-0.8757383651448649,0
11.196470499038696,1.2267131436728156,[0.99882966],0.005,0.1,5.0,-1.2460783903280528,0
11.207474946975708,1.2222189731878725,[0.98832854],0.005,0.1,5.0,-1.19995049764804,0
11.216489315032959,1.2187017962866122,[0.97777034],0.005,0.1,5.0,-0.858943595657595,0
11.227484941482544,1.2140122270849323,[0.96719855],0.005,0.1,5.0,-0.9338179257485858,0
11.238467931747437,1.2093226578832519,[0.95661596],0.005,0.1,4.794401568628935,-1.3525195177893077,0
11.249476194381714,1.2048284873983088,[0.94597379],0.005,0.1,4.5863739735342515,-1.718837361406093,0
11.261322021484375,1.2003343169133653,[0.93523138],0.005,0.1,4.362052943106169,-1.5722173944776567,0
11.270864963531494,1.1962309438618952,[0.92438959],0.005,0.1,4.122761786964837,-1.4806933561778013,0
11.279338598251343,1.1929091656773718,[0.91348454],0.005,0.1,3.874642428567011,-1.0522283601580975,0
11.290500164031982,1.1880241977589552,[0.90254743],0.005,0.1,3.6243273579954414,-1.5242587527639546,0
11.301575183868408,1.183334628557275,[0.89158789],0.005,0.1,3.377373203216587,-1.0851285047090764,0
11.313196659088135,1.1780588632053848,[0.8806143],0.005,0.1,3.1378940742924017,-1.5773934900574815,0
11.326866865158081,1.1723923004200216,[0.86959951],0.005,0.1,2.908668209297457,-2.005881578647469,0
11.337198495864868,1.1682889273685515,[0.8585038],0.005,0.1,2.6913927911251783,-1.8412043296903986,0
11.344509840011597,1.1653579466175013,[0.84734602],0.005,0.1,2.4869510327891025,-1.2942231996528852,0
11.35625410079956,1.1598867825488746,[0.83616001],0.005,0.1,2.29564223461058,-1.814945547795983,0
11.36852765083313,1.1546110171969846,[0.82494032],0.005,0.1,1.8413248547627399,-1.7373237257229226,0
11.378510475158691,1.1508984415789878,[0.81369989],0.005,0.1,1.6425814752100192,-1.2441875327847998,0
11.386471033096313,1.1475766633944644,[0.80248424],0.005,0.1,1.5441831881648103,-1.3507064488615705,0
11.396628141403198,1.1432778916262578,[0.79129703],0.005,0.1,1.4782614971875954,-1.938772409494325,0
11.405603647232056,1.1397607147249975,[0.78012363],0.005,0.1,1.4175832534637396,-1.384939461425816,0
11.414490222930908,1.135852740390264,[0.76898585],0.005,0.1,1.077072907342701,-1.4829484493237177,0
11.422505855560303,1.132921759639214,[0.75791879],0.005,0.1,0.9742670748034152,-1.1206310767664354,0
11.430485963821411,1.1295999814546906,[0.74695115],0.005,0.1,0.9558439989222058,-1.3074909474354959,0
11.441010475158691,1.1249104122530105,[0.73608851],0.005,0.1,0.9566224271152886,-1.4590186200887298,0
11.450497150421143,1.1208070392015406,[0.72531679],0.005,0.1,0.9519563691382624,-1.5835534554186994,0
11.458518266677856,1.1172898623002805,[0.71464003],0.005,0.1,0.9350002612003588,-1.199918742836523,0
11.468821048736572,1.1129910905320737,[0.70406025],0.005,0.1,0.9060884145489191,-1.9342325438845247,0
11.479501247406006,1.1086923187638669,[0.69354294],0.005,0.1,0.867947009920887,-1.9630515285279009,0
11.491538524627686,1.1036119521287135,[0.68304035],0.005,0.1,0.8236651903846077,-2.6290368649924996,0
11.501864910125732,1.09911778164377,[0.6725115],0.005,0.1,0.7759357206752275,-2.4695455840347718,0
11.510576248168945,1.09560060474251,[0.6619568],0.005,0.1,1.0028918378854577,-1.758213012071329,0
11.518524169921875,1.0922788265579866,[0.65141167],0.005,0.1,0.9871019900805942,-1.8768428168149773,0
11.52848744392395,1.0881754535065165,[0.64088814],0.005,0.1,0.6082644290640075,-1.9776433825558923,0
11.536537647247314,1.084853675321993,[0.6303959],0.005,0.1,0.45324382751645204,-1.4858189653374432,0
11.54448390007019,1.0817272958542066,[0.61996012],0.005,0.1,0.39430727528164633,-1.7101585295653976,0
11.554489135742188,1.0774285240859998,[0.60958338],0.005,0.1,0.3727760445468524,-1.8936233956558481,0
11.56621503829956,1.0723481574508462,[0.59923128],0.005,0.1,0.36290694864013123,-2.738179491424475,0
11.576079607009888,1.0684401831161128,[0.58887401],0.005,0.1,0.35431330498657154,-1.9703112931237907,0
11.585687398910522,1.0645322087813796,[0.57850375],0.005,0.1,0.3435113895929304,-2.847340936595914,0
11.596365690231323,1.0598426395796994,[0.56809563],0.005,0.1,0.3299286379486266,-2.766462756317732,0
11.60547137260437,1.0561300639617026,[0.55764687],0.005,0.1,0.31407203618863666,-2.0031927641678533,0
11.615840911865234,1.0520266909102327,[0.54719162],0.005,0.1,0.2967271445915773,-2.16850337982232,0
11.624055624008179,1.048704912725709,[0.5367415],0.005,0.1,0.2786378273352671,-2.2997061355712325,0
11.631474733352661,1.0455785332579226,[0.52630678],0.005,0.1,0.2604021213673706,-1.7359139233759107,0
11.639577150344849,1.0424521537901357,[0.51591465],0.005,0.1,0.24245923691192162,-1.9715653877336363,0
11.652368545532227,1.0371763884382457,[0.50555464],0.005,0.1,0.22511027818696322,-2.8445440750481845,0
11.663481712341309,1.0320960218030921,[0.49518566],0.005,0.1,0.20854754236674788,-2.7194910429883623,0
