t_s,q_rad,q_des_rad,jerk
0.0056629180908203125,-0.0767916956775114,0.0010975559449845976,-0.276038359678681
0.01443028450012207,-0.0767916956775114,0.005303178555968317,-0.3091629628401227
0.024866580963134766,-0.07659629696077475,0.013175454643614828,0.021972653430422984
0.03383278846740723,-0.0762054995273014,0.024038970039080405,0.13118226174681896
0.04445028305053711,-0.07522850594361805,0.037284966530809795,0.6986844021382637
0.05736279487609863,-0.07386071492646136,0.052367280172653026,2.125662197393883
0.06901001930236816,-0.07190672775909465,0.06879884483269935,4.084834145405835
0.0816044807434082,-0.06917114572478127,0.08615071675647855,5.0
0.09171485900878906,-0.06663096240720455,0.10404865036562361,5.0
0.10251379013061523,-0.06291838678920783,0.12217013026093201,5.0
0.11048030853271484,-0.059987406038157755,0.14024115878549095,5.0
0.12362003326416016,-0.054907039403004336,0.1580309143550358,5.0
0.1338481903076172,-0.050803666351534264,0.17534625821488253,5.0
0.14340901374816895,-0.046895692016800855,0.19203024642493205,5.0
0.1552724838256836,-0.0420107240983841,0.2079598023031084,5.0
0.16444182395935059,-0.0381027497636507,0.22304082542385648,5.0
0.17342901229858398,-0.03458557286239063,0.23720539203564217,5.0
0.18205523490905762,-0.03126379467786724,0.2504081335141874,4.175802159440476
0.1894237995147705,-0.028332813926817187,0.26262325438168294,2.0848887085753542
0.1984083652496338,-0.02462023830882045,0.27384232399577507,-0.04165227764668433
0.2078707218170166,-0.020907662690823715,0.28407081707131826,-2.051161075218415
0.21796894073486328,-0.01680428963935364,0.29332591435547395,-3.6165649036034275
0.2284090518951416,-0.012700916587883566,0.30163493164147376,-4.974179785352662
0.23685216903686523,-0.008988340969886831,0.30903340557168757,-5.0
0.24547314643859863,-0.005275765351890096,0.3155636593143485,-5.0
0.2544064521789551,-0.0015631897338933619,0.32127317799830996,-5.0
0.2663719654083252,0.0029309807510500534,0.32621228933813345,-5.0
0.2760763168334961,0.006838955085783458,0.3304331167213334,-5.0
0.28676581382751465,0.010942328137253534,0.3339895211449086,-5.0
0.2965102195739746,0.015045701188723608,0.33693612156449726,-5.0
0.3084137439727783,0.019930669107140364,0.339327187160351,-5.0
0.3184165954589844,0.02383864344187377,0.34121598154541255,-4.970009790584198
0.3281283378601074,0.027746617776607176,0.34265422508512267,-4.820086521500223
0.3375065326690674,0.031849990828077254,0.34369168124337685,-4.602189190071066
0.3473536968231201,0.035757965162810657,0.34437582826766416,-4.348578433257375
0.35735225677490234,0.040056736931017405,0.3447515841297318,-4.079471056065485
0.37131667137145996,0.04591869843311751,0.3448610690617368,-3.8075505161054672
0.38039374351501465,0.04963127405111425,0.34474354059552254,-3.5406984341332324
0.3893914222717285,0.05314845095237431,0.3444354035106115,-3.283691909998174
0.39879584312438965,0.05705642528710771,0.34397009768524883,-3.0392825921523743
0.41150784492492676,0.06194139320552447,0.34337814146615936,-2.80889595401659
0.42398571968078613,0.06663096240720455,0.34268731023695004,-2.5930913285450563
0.43341755867004395,0.07053893674193797,0.3419224996222907,-2.391867894048439
0.44544243812561035,0.07522850594361805,0.34110577393719754,-2.2048696408714568
0.4554624557495117,0.07952727771182479,0.3402566071441092,-2.0315231284926307
0.4654102325439453,0.08363065076329486,0.3393918696132523,-1.8711300364609489
0.4754030704498291,0.08773402381476494,0.3385261579674701,-1.4468907131506763
0.48451781272888184,0.09144659943276168,0.33767205405189904,-1.2769740459186805
0.4934225082397461,0.09476837761728506,0.336840139932162,-1.4819481118455644
0.5052452087402344,0.0996533455357018,0.33603939340653144,-1.1988318246239547
0.5143723487854004,0.10356131987043524,0.33527711336076066,-1.073994916043917
0.525050163269043,0.10786009163864198,0.3345588710586991,-1.0109550410241064
0.5386872291564941,0.11313585699053208,0.33388933740731247,-1.243698286250876
0.5500154495239258,0.11802082490894884,0.3332721363424026,-1.2364997404902218
0.5594420433044434,0.12153800181020889,0.3327092881092145,-0.862531305161519
0.5674047470092773,0.12466438127799562,0.33220137947386685,-0.7072049521212422
0.5802326202392578,0.1301355453466224,0.3317482437605132,-0.9193452569086098
0.5908620357513428,0.13482511454830248,0.33134956324830006,-0.9224326648453258
0.5983848571777344,0.1379514940160892,0.33100412252849526,-0.5705108808313064
0.6064341068267822,0.14107787348387593,0.33070972151696904,-0.4403335050805969
0.6143875122070312,0.144008854234926,0.3304638711564784,-0.6770458878009816
0.6237277984619141,0.14772142985292272,0.3302638638950741,-0.7027585096998568
0.633392333984375,0.15202020162112945,0.33010711987882385,-0.6472107083370615
0.64292311668396,0.15573277723912618,0.32999121629741285,-0.568284604442888
0.6530153751373291,0.15983615029059628,0.32991363064998397,-0.4900072316201954
0.6604726314544678,0.1627671310416463,0.3298718040601564,-0.42093136425935584
0.6739976406097412,0.16843369382700976,0.32986352750378295,-0.36289162008471354
0.6845552921295166,0.1725370668784798,0.329886940939793,-0.039039999849432266
0.693446159362793,0.17605424377973988,0.32993952523374914,0.033301356952081196
0.7013993263244629,0.17937602196426328,0.33001822957653454,0.010511934852285687
0.710608720779419,0.18289319886552335,0.3301206130729543,-0.3147441107518141
0.7202696800231934,0.18680117320025674,0.3302448100162265,-0.39578047145166945
0.729407548904419,0.1909045462517268,0.3303891525562747,-0.3780318194220721
0.7373576164245605,0.1942263244362502,0.33055169886598906,-0.32731025534610964
0.7453854084014893,0.1975481026207736,0.33072979425335725,-0.2716807877014472
0.7533845901489258,0.20086988080529702,0.33092111937863905,-0.22178040450775516
0.762037992477417,0.2043870577065571,0.3311246379622777,-0.180544494460024
0.7724792957305908,0.20829503204129046,0.3313400027343092,-0.1477668337407709
0.7823681831359863,0.21220300637602388,0.33156700496623676,-0.3982056425158696
0.7917635440826416,0.2161109807107573,0.331805538031189,-0.411439953411864
0.8023257255554199,0.22040975247896405,0.33205557819946174,-0.34084261747965894
0.8126921653747559,0.22470852424717075,0.3323171887514369,-0.2525748736861732
0.821469783782959,0.2280303024316942,0.3325904966547389,-0.17235723139780346
0.8318614959716797,0.23213367548316424,0.3328756509754539,-0.10790478705222419
0.8393621444702148,0.23526005495095098,0.3331720776301462,-0.05947984342517025
0.8493654727935791,0.23936342800242105,0.33347933217298703,-0.024702736197523036
0.858365535736084,0.24327140233715447,0.3337977555701203,-0.000631449829354121
0.8684573173522949,0.24776557282209788,0.33412763393247225,0.015426595210099595
0.8764071464538574,0.2510873510066213,0.33446920231132893,0.025668228841629635
0.8866217136383057,0.25499532534135466,0.33482181812982065,0.031783048863704644
0.8982524871826172,0.2598802932597714,0.3351849211280803,0.03502582251294316
0.9078466892242432,0.26359286887776817,0.3355588002509962,0.036307360366730906
0.9184706211090088,0.2678916406459749,0.3359436561839287,0.03627819977770645
0.929185152053833,0.2723858111309183,0.3363404744737468,0.03539719640465529
0.9404091835021973,0.27687998161586175,0.33675090068736463,0.03398452393915477
0.9510951042175293,0.2811787533840685,0.3371754032531053,0.03226124750712074
0.9593720436096191,0.2846959302853286,0.33761343383939696,0.030378244149827302
0.9696927070617676,0.2887993033367986,0.3380644334214467,0.028437040430694827
0.9788603782653809,0.29251187895479536,0.3385269292728728,0.026504680416560303
0.9883806705474854,0.29622445457279206,0.3389986914103468,0.3006626199918084
0.9993550777435303,0.3005232263409988,0.33947967275289503,0.0559469567181627
1.0082385540008545,0.3044312006757322,0.33997073811186884,-0.033983034452712294
1.017749547958374,0.3089253711606756,0.34047068657617235,-0.056577544470523065
1.0273454189300537,0.31244254806193567,0.3409784938881461,0.22352021755858634
1.0369510650634766,0.3165459211134058,0.3414942586046335,0.26914571411189375
1.0481019020080566,0.3208446928816125,0.34201807835203224,0.22737254826758177
1.0553596019744873,0.3237756736326626,0.3425490192457152,0.16266544406235467
1.067389726638794,0.32885604026781606,0.34308631454251354,0.10091597617524772
1.0783412456512451,0.33295941331928613,0.34363140730731107,0.0506402743669796
1.0871121883392334,0.3364765902205462,0.3441855301617083,-0.26303453439144175
1.0986855030059814,0.3411661594222262,0.34474979418741913,-0.3227308678323752
1.107125997543335,0.3440971401732763,0.3453251315216721,-0.5614694181318616
1.119267463684082,0.34839591194148306,0.345911229902781,-0.8057616046853739
1.1304070949554443,0.35210848755947977,0.34650892110067383,-1.5478341267686435
1.1393449306488037,0.35464867087705654,0.34711770859144775,-2.5666624878541695
1.149359941482544,0.3577750503448432,0.347734859989695,-3.450228890637893
1.1583893299102783,0.3601198349456833,0.3483591763024954,-4.080960579631893
1.1673810482025146,0.36226922082978663,0.34899078139247547,-5.0
1.181006669998169,0.36539560029757334,0.3496309781488993,-5.0
1.1903250217437744,0.3671541887482034,0.35028084430630324,-5.0
1.2023429870605469,0.36930357463230673,0.3509400726302697,-5.0
1.212378978729248,0.37106216308293677,0.3516095904242181,-5.0
1.2248241901397705,0.3728207515335668,0.3522913438337427,-5.0
1.2329914569854736,0.37379774511725017,0.35298567887561255,-5.0
1.243391513824463,0.37497013741767016,0.3536890839369013,-5.0
1.2542355060577393,0.3759471310013535,0.354398521937731,-5.0
1.2623634338378906,0.3765333271515635,0.35511387153252355,-4.557809089988738
1.2718663215637207,0.3769241245850368,0.35583374010219737,-4.224753866415014
1.2801408767700195,0.37731492201851025,0.3565569258045147,-3.663385420277484
1.2898828983306885,0.37751032073524693,0.35728368468100846,-3.643276215554612
1.2993676662445068,0.37751032073524693,0.35801425973813994,-3.205477201520595
1.3122007846832275,0.37751032073524693,0.3587501687108328,-3.5060132341726082
1.3243303298950195,0.37731492201851025,0.3594940148589796,-3.3930424274862467
1.3350999355316162,0.37711952330177356,0.3602480477499179,-2.851632002994791
1.3452510833740234,0.3765333271515635,0.36101285425473595,-1.9648740585088722
1.3540380001068115,0.37614252971809026,0.3617862397393553,-0.8357813736562537
1.3661830425262451,0.37555633356788015,0.3625677579213264,-0.10919349572237119
1.3763718605041504,0.37497013741767016,0.3633598223576316,0.6270848192035768
1.3852534294128418,0.37457933998419685,0.3641617142787776,1.219065557174606
1.3957626819610596,0.37379774511725017,0.3649714926572286,1.6374773484655505
1.4033381938934326,0.3732115489670402,0.3657889863765392,2.176890330077339
1.4133360385894775,0.3724299541000935,0.3666126205760369,2.6266545445052847
1.421360969543457,0.3718437579498835,0.367439635195127,2.9305768006246313
1.4338641166687012,0.3712575617996735,0.3682692777706457,3.3706641555771197
1.4413607120513916,0.37086676436620014,0.36910251005897243,4.0065704647246685
1.451361894607544,0.37047596693272683,0.3699387018628627,4.536629432808298
1.4593279361724854,0.3700851694992534,0.3707774421397786,4.877454799939764
1.4703381061553955,0.3698897707825168,0.37162003451619435,5.0
1.4793744087219238,0.3696943720657801,0.3724677144940668,5.0
1.4875943660736084,0.3696943720657801,0.37332165380579163,5.0
1.499765396118164,0.36949897334904347,0.37418463738454505,5.0
1.508936882019043,0.36930357463230673,0.3750608228734503,5.0
1.5178844928741455,0.36949897334904347,0.37595039495364824,5.0
1.5263638496398926,0.36930357463230673,0.376850187778873,5.0
1.5359792709350586,0.36949897334904347,0.37775937809959914,5.0
1.5470948219299316,0.36930357463230673,0.37867904013578946,4.868241940139389
1.5573558807373047,0.36930357463230673,0.3796101630348084,4.46430710963271
1.5673034191131592,0.36949897334904347,0.38055377917163175,3.995907291458675
1.5753173828125,0.36930357463230673,0.3815090120081189,3.5477948252113136
1.5853123664855957,0.36949897334904347,0.382475397583496,2.872744357290123
1.5943024158477783,0.3696943720657801,0.38345472766424327,2.218406509447504
1.6033382415771484,0.3696943720657801,0.3844445730171777,1.9444797979255943
1.6143345832824707,0.3700851694992534,0.3854433367380963,1.821757789913008
1.6263537406921387,0.3702805682159901,0.3864589237992163,1.749179784473859
1.6368110179901123,0.3706713656494634,0.38750100874229,1.6855478114831095
1.6453008651733398,0.37086676436620014,0.38857390952850207,1.6166599620711897
1.6544289588928223,0.3712575617996735,0.3896767603899011,1.5397684922950625
1.6627073287963867,0.3718437579498835,0.3908065361387473,1.4564320141115839
1.6721324920654297,0.3722345553833568,0.39196374608910567,1.6454153495851431
1.681415319442749,0.3726253528168302,0.39315200987513615,1.5903954874425885
1.6902964115142822,0.3732115489670402,0.39437185270904057,1.7242139833040993
1.6992998123168945,0.37399314383398685,0.3956210787324033,1.5966839887509043
1.7073118686676025,0.37457933998419685,0.3968980352840189,1.6661086310629498
1.7181100845336914,0.3753609348511436,0.3982050386196604,1.7657686808335575
1.727301836013794,0.37614252971809026,0.399551381591358,1.8350398981794027
1.7353167533874512,0.3769241245850368,0.4009417080256263,1.8593439014106192
1.7453820705413818,0.3780965168854569,0.4023732082611703,1.8422385742660579
1.7563145160675049,0.37907351046914023,0.4038514389062152,1.7929425920067752
1.7683439254760742,0.3804413014862969,0.4053891965318083,1.9971705040044145
1.7813470363616943,0.3820044912201903,0.40699804206044915,2.22026376062518
1.790727138519287,0.3831768835206103,0.40868390962901435,2.104362414650457
1.8003218173980713,0.3845446745377671,0.4104431883570623,1.8760737133993817
1.8093385696411133,0.38591246555492376,0.41227733817718104,1.632458252426243
1.8183386325836182,0.38708485785534374,0.4141964230293982,1.134566653699678
1.8263390064239502,0.3884526488725004,0.4161947537513767,0.9118211022088524
1.8383488655090332,0.39040663603986714,0.4182578937764239,1.0850907391633793
1.8483929634094238,0.3919698257737605,0.42039256912906037,1.0638965872272916
1.8603355884552002,0.3941192116578639,0.4226140391910558,1.2473835847682437
1.8683130741119385,0.3956824013917572,0.42491506168159654,1.1709084202121285
1.8803086280822754,0.3980271859925973,0.42727897560031397,1.2872431793625314
1.8899574279785156,0.3997857744432273,0.42971180450901675,1.1520738518768456
1.9011902809143066,0.4019351603273307,0.4322287281659319,1.2238158541727888
1.909348487854004,0.4036937487779607,0.43482649363959214,0.7817898146147086
1.9193310737609863,0.4058431346620641,0.4374911835268936,0.8010106546777058
1.9283027648925781,0.4077971218294308,0.44021595757099763,0.6794505428318846
1.939110517501831,0.4101419064302709,0.4430057287659735,0.5275019792081455
1.9493427276611328,0.41268208974784754,0.44586999539983174,0.38830853744991933
1.9582862854003906,0.4150268743486876,0.448805143366436,0.5510476560957588
1.9692375659942627,0.4179578550997376,0.4518021643952468,0.7734760547758257
1.9779350757598877,0.42030263970057774,0.45485872827343743,0.41150457386302075
1.9852840900421143,0.42225662686794435,0.4579666782797936,0.20123121788709952
1.9942512512207031,0.4247968101855211,0.46111300762916024,0.3533801808402795
2.0043270587921143,0.4277277909365711,0.4642864958595841,0.3130419056788182
2.014345407485962,0.4306587716876212,0.46748359847162,0.4906688689355871
2.027479410171509,0.4345667460223547,0.4707134676021287,0.6988434895170773
2.0385630130767822,0.43808392292361464,0.4739900302954913,0.8689151559723891
2.049351692199707,0.4414057011081381,0.4773188818174962,0.9839770727009065
2.0590431690216064,0.4451182767261348,0.48069843976514287,1.0476563609665772
2.068351984024048,0.4480492574771848,0.48412712684415266,0.7940811420864843
2.0823752880096436,0.45273882667886495,0.487609737141796,1.0290770091449495
2.0933122634887695,0.4566468010135984,0.4911563890261388,1.0883562673461342
2.105502128601074,0.4607501740650684,0.4947753118999617,1.0667314432288681
2.1142988204956055,0.46407195224959186,0.4984664984492533,1.0103634438685751
2.1296730041503906,0.4697385150349553,0.5022294543917272,0.9413937006320912
2.1383068561553955,0.4730602932194786,0.5060696948158171,0.5941353629961474
2.1493356227874756,0.47755446370442206,0.5099780393034482,0.2161175577584311
2.1609530448913574,0.48204863418936544,0.5139462794541801,0.1734635359337091
2.17134690284729,0.4863474059575722,0.5179735435847039,-0.031219005595248706
2.180363893508911,0.48966918414209565,0.5220452926927093,-0.24881041951126276
2.191056489944458,0.49435875334377566,0.5261557294549248,-0.7022687563364793
2.2013449668884277,0.4982667276785091,0.5303132090299264,-0.8610535735869018
2.2122671604156494,0.5027608981634525,0.5345177462915569,-0.8844517593736784
2.2246906757354736,0.5080366635153426,0.5387691578888929,-1.1252347330957844
2.2332472801208496,0.5115538404166027,0.5430669600933419,-1.3767640267287733
2.243281602859497,0.5156572134680728,0.5473966479448911,-1.8434802609407561
2.2528092861175537,0.5195651878028061,0.5517527802052128,-1.9926504827088747
2.2632787227630615,0.5234731621375396,0.556144518450639,-2.263355100220299
2.2713067531585693,0.5271857377555363,0.560565385810893,-2.494599654631288
2.2809770107269287,0.5310937120902697,0.564995704704816,-2.639266407530206
2.2882726192474365,0.5344154902747932,0.5694117536922036,-2.6968972284011437
2.2962839603424072,0.5377372684593165,0.5737866645988163,-2.683189856452743
2.3082683086395264,0.5424268376609965,0.5781194341008853,-2.6169177088093623
2.3188791275024414,0.5467256094292033,0.5824380247217666,-2.5149083989386445
2.3272695541381836,0.5500473876137267,0.5867522115894377,-2.3905945909188944
2.339348793029785,0.5547369568154068,0.5910491676991919,-2.2540312229279778
2.3493452072143555,0.5588403298668769,0.5953394556101131,-2.1124221618693975
2.3572685718536377,0.5619667093346636,0.5996391147867572,-1.9707450433017062
2.3652920722961426,0.5654838862359236,0.6039333006541132,-1.8323157222244233
2.378038167953491,0.5709550503045504,0.6082094428444628,-1.6992459742769488
2.3913800716400146,0.5766216130899139,0.6124851305758706,-1.5727943092959655
2.4033467769622803,0.5811157835748574,0.6167820438536733,-1.4536259516651104
2.413703680038452,0.5856099540598008,0.6211040051192981,-1.3420012955308493
2.423001289367676,0.5893225296777974,0.6254467425503433,-1.2379103803976088
2.4326157569885254,0.5936213014460042,0.6298061931032453,-1.1411676791771868
2.442298173904419,0.5977246744974742,0.6341785032319898,-1.0514782039185322
2.4508743286132812,0.6010464526819976,0.6385600356616137,-1.2445214889503715
2.4592583179473877,0.6045636295832577,0.6429405631724632,-1.2009538810936236
2.4692656993865967,0.6082762052012545,0.6473044317883975,-1.075063964646318
2.4782679080963135,0.6119887808192512,0.6516452538539609,-0.933684581382186
2.490327835083008,0.6172645461711412,0.6559712709844704,-0.8029754576465278
2.4992642402648926,0.6207817230724014,0.6602894178294266,-0.6909011854971516
2.511310577392578,0.6256666909908181,0.6645986684584057,-0.5978306330409571
2.521474838256836,0.6295746653255516,0.6689047356956537,-0.5213887156961028
2.52939772605896,0.6328964435100749,0.6732056697283492,-0.45856851856431874
2.5372586250305176,0.6362182216945983,0.677486382652576,-0.4065675305733707
2.548281192779541,0.6409077908962785,0.681740865913662,-0.3630517052772283
2.557253360748291,0.6448157652310118,0.6859708520336188,-0.32617948871166685
2.567652702331543,0.6491145369992186,0.6901779547444955,-0.29453808144033244
2.5783169269561768,0.6534133087674253,0.6943701919917926,-0.26705840516602203
2.5873024463653564,0.6571258843854221,0.6985543880501974,-0.24293524390280677
2.595583438873291,0.660643061286682,0.7027232514246777,-0.22156105818637797
2.6053547859191895,0.6643556369046788,0.7068707019888164,-0.2024744051839861
2.6165781021118164,0.6686544086728856,0.7109982848668988,-0.4613594686023404
2.6261518001556396,0.6729531804410924,0.7151074594349544,-0.4789885893568465
2.6353065967559814,0.6766657560590891,0.719193137378282,-0.13379754087917872
2.6453475952148438,0.6809645278272958,0.7232447841751973,-0.011797486307717493
2.656337261199951,0.6854586983122393,0.7272667733313123,0.015296627693080156
2.6656675338745117,0.6893666726469726,0.731276011420929,0.006499587637668967
2.674234390258789,0.6928838495482326,0.7352740370451858,-0.012260961464965345
2.6852571964263916,0.6973780200331761,0.7392494212763213,-0.030518124613712016
2.694281578063965,0.7010905956511728,0.7431992714576698,-0.04477811899169389
2.70430588722229,0.7053893674193795,0.7471279983575513,-0.05450428866576584
2.712815046310425,0.7089065443206396,0.7510397182944747,-0.0602685430831726
2.7208144664764404,0.7120329237884264,0.7549382568444879,-0.06293862993159449
2.728231906890869,0.7149639045394763,0.7588206359611671,-0.06334981476233745
2.739825487136841,0.7194580750244197,0.7626847174456918,-0.06219531024852177
2.748182773590088,0.7227798532089431,0.7665355937681326,-0.06000966590031098
2.7583518028259277,0.7270786249771499,0.7703713228215823,-0.05718715096085125
2.766265392303467,0.7304004031616733,0.7741906384054195,-0.05400959571797648
2.777263641357422,0.7352853710800901,0.7779994079472576,-0.0506733378448826
2.7852485179901123,0.7386071492646135,0.7817962386159082,-0.04731178666659408
2.7942676544189453,0.7421243261658735,0.7855735957501117,-0.044013044328021805
2.80635404586792,0.747204692801027,0.7893388145559966,-0.04083313094815405
2.8143250942230225,0.7503310722688137,0.7931050259898578,-0.03780566646375952
2.8222336769104004,0.7536528504533371,0.7968700997301669,-0.034948840778187225
2.830354690551758,0.7571700273545973,0.8006256692028006,-0.032270371576802785
2.8395655155181885,0.7610780016893307,0.8043715386250794,-0.02977099785263829
2.849330186843872,0.764985976024064,0.8081211499005467,-0.027446921905431576
2.8599321842193604,0.7692847477922707,0.8118858588958091,-0.025291503209615953
2.869281768798828,0.7729973234102675,0.8156616335324236,-0.023296423662397876
2.877863645553589,0.7763191015947909,0.8194381812967153,-0.02145248135107751
2.8872735500335693,0.7802270759295242,0.8232134836071772,0.2562882351861089
2.895923137664795,0.7835488541140476,0.826992536930232,0.2909831583809824
2.9032273292541504,0.7866752335818344,0.8307727759470656,0.23733350281203336
2.912112236022949,0.7903878091998312,0.8345452685769766,0.16258232540554274
2.9213569164276123,0.7942957835345645,0.8383025268571955,0.09328819376966041
2.9342052936553955,0.799962346319928,0.8420450583374566,0.03779765755748241
2.9453036785125732,0.8042611180881346,0.8457867955173775,-0.003158490938612233
2.9533586502075195,0.8073874975559214,0.8495394644299252,-0.031614996484546694
2.962374448776245,0.8111000731739182,0.8533060695712746,-0.050260500989070755
2.9725139141082764,0.8152034462253882,0.8570888809965872,-0.061601091290498865
2.9842426776885986,0.820088414143805,0.8608895041855146,0.2083427857128803
2.996339797973633,0.8249733820622217,0.8647155570829108,-0.03700590822810869
3.0054707527160645,0.8286859576802185,0.8685730585267925,-0.12518012758693597
3.0182907581329346,0.8339617230321086,0.8724599636277637,-0.14448890292117336
3.02938175201416,0.8388466909505254,0.8763871624112304,-0.1362204711308904
3.038252592086792,0.8425592665685222,0.8803632165233082,-0.11900853503313485
3.050489664077759,0.8476396332036755,0.8843749072621205,-0.10075895598648582
3.064368963241577,0.8533061959890389,0.8884234488902563,-0.0844335684573652
3.073239326477051,0.8570187716070357,0.8925222900879113,-0.07081639140595654
3.0812816619873047,0.8601451510748225,0.8966560443734587,-0.059808725071187376
3.09330153465271,0.8648347202765025,0.9008046403479887,-0.05101507308999799
3.103320360183716,0.8687426946112359,0.904970282436079,0.23204541294865916
3.116168975830078,0.8740184599631259,0.9091609947727644,0.2708154225724623
3.12682843208313,0.8783172317313327,0.9133831414499826,0.22030781189124377
3.1348750591278076,0.8820298073493293,0.9176287479904099,0.1480055597585847
3.146327018737793,0.8867193765510096,0.9218778396889271,0.08064679426668736
3.159334659576416,0.8917997431861631,0.9261263395331479,0.026710235385349
3.171694278717041,0.8968801098213164,0.9303901332546405,-0.012976949604632727
3.1793456077575684,0.9002018880058399,0.9346760441658527,-0.040379547658158765
3.188451051712036,0.9039144636238364,0.9389702781492101,-0.058135460516038316
3.200258731842041,0.90899483025899,0.9432676248942573,-0.06871389177184668
3.20827317237854,0.9123166084435134,0.9475701902133341,-0.07414670531187234
3.2179057598114014,0.9162245827782467,0.9518668623661709,-0.07600063491102871
3.2292110919952393,0.9205233545464535,0.9561484822877775,-0.07543790963848643
3.239253520965576,0.9244313288811868,0.9604141576446009,-0.07329868438339171
3.2482833862304688,0.9283393032159203,0.9646635384459049,-0.07017869471971905
3.258265733718872,0.9328334737008638,0.9688967536935263,-0.06649355261597889
3.266340732574463,0.9359598531686504,0.9731143492885367,-0.06252868579494578
3.2743093967437744,0.9392816313531739,0.977310546066702,-0.05847672808130796
3.2835988998413086,0.9426034095376973,0.9814742608533431,-0.33050323800747017
3.295258045196533,0.9476837761728507,0.9856101332566097,-0.3597375790930409
3.3062615394592285,0.9521779466577941,0.9897360992938231,-0.3009214660564663
3.3142576217651367,0.9554997248423175,0.9938542125565112,-0.22131711067694249
3.323275327682495,0.9592123004603142,0.997952993848534,-0.14748796345694518
3.3352322578430176,0.9639018696619943,1.0020367601453628,-0.0877761156746116
3.3453121185302734,0.9680052427134643,1.0061231787177578,-0.04290197600172717
3.3539772033691406,0.9715224196147245,1.010213667661742,0.26522151851269715
3.364177703857422,0.9758211913829312,1.0142958215746438,0.32034682342757453
3.3733158111572266,0.9797291657176646,1.018366273550151,0.2796887414764635
3.384427309036255,0.9842233362026079,1.0224362933333677,0.21255717962743448
3.3932230472564697,0.9879359118206047,1.026515539502171,0.1471054678470921
3.403916358947754,0.9924300823055481,1.030598306471177,0.09286522741300349
3.411947011947632,0.9957518604900715,1.0346798295119148,0.051426343705882664
3.4192075729370117,0.9986828412411217,1.0387561352332755,-0.25467259103387196
3.428218364715576,1.002590815575855,1.042817010425833,-0.30873883383455836
3.4397125244140625,1.0072803847775351,1.0468679673764947,-0.26767309769273295
3.449209213256836,1.0106021629620585,1.0509207653721124,-0.20056527702609944
3.458158016204834,1.0143147385800553,1.0549713856406535,-0.13541560774476163
3.4683141708374023,1.0188089090649985,1.0590233724766707,-0.3576882727587225
3.481173515319824,1.023889275700152,1.0630935421941103,-0.3499485041113224
3.4919936656951904,1.028188047468359,1.0671888186367136,-0.2654159058185378
3.5003271102905273,1.0315098256528823,1.071300759366855,-0.16903221918584252
3.511263608932495,1.0360039961378256,1.0754218694419575,-0.08511699593771456
3.521130084991455,1.0401073691892957,1.0795593365516754,-0.020139106365212545
3.5333974361419678,1.045773931974659,1.0837256794342163,0.02663683202132834
3.542743444442749,1.0494865075926558,1.0879240175301321,0.058344671848261205
3.5530667304992676,1.053589880644126,1.092142740589017,0.0784759583097105
3.564668893814087,1.0584748485625428,1.0963715586741922,0.09011293866002576
3.5763750076293945,1.0633598164809595,1.1006149437807486,0.09572237091221206
3.5861945152282715,1.067267790815693,1.1048829977022019,0.09717647209785225
3.5970141887664795,1.0717619613006362,1.109177006858472,0.09585015978956549
3.607254981994629,1.076060733068843,1.113490796748268,0.0927303517574372
3.619199514389038,1.0807503022705232,1.1178187267629929,0.08851303740718047
3.63142991065979,1.0858306689056765,1.1221623081511163,0.08368145930021892
3.641195297241211,1.08973864324041,1.126522501475493,0.07856591059223189
3.6560609340667725,1.0957960034592467,1.1308997895567572,0.3494264463569018
3.6666572093963623,1.1000947752274535,1.1353074814198234,0.10141794281270095
3.675238847732544,1.1036119521287135,1.13974319643931,0.008276568649459248
3.6845109462738037,1.1077153251801837,1.1441913509227584,-0.017400047585881245
3.6924684047698975,1.111037103364707,1.1486452292738438,-0.016265654112755545
3.7023537158966064,1.1149450776994405,1.153092498128265,-0.006518462423964578
3.7131824493408203,1.1190484507509104,1.1575228586254287,0.004228305418454531
3.7222015857696533,1.1225656276521707,1.161927868491632,0.013204311227224229
3.7312839031219482,1.1266690007036406,1.1662941664849873,0.019746238822825814
3.7402760982513428,1.1303815763216374,1.170624373907025,0.024024472124722383
3.75319242477417,1.1352665442400542,1.1749346110397674,0.02647263787122224
3.7656219005584717,1.1405423095919442,1.1792389415892026,0.027548698718551444
3.775566577911377,1.144841081360151,1.1835495836102266,0.02764790584270254
3.785212278366089,1.1481628595446745,1.1878635448470578,0.02708194184433245
3.794214963912964,1.151875435162671,1.192171719584983,0.026084342602052196
3.803196668624878,1.155588010780668,1.196473361985762,0.02482428855609814
3.8126211166381836,1.1594959851154014,1.2007612500098517,0.02342124286940253
3.821180820465088,1.163208560733398,1.2050296085948835,0.2979960373190739
3.8325092792510986,1.1677027312183414,1.2092876048854584,0.3296521732206927
3.840878963470459,1.1712199081196015,1.2135432592396298,0.2731180091698992
3.8481850624084473,1.1741508888706513,1.2177829164111982,0.19565064359405765
3.8593087196350098,1.1788404580723315,1.2219884563371202,0.12381377886347172
3.872093677520752,1.1841162234242217,1.2261657194503581,0.06595317435741127
3.884993076324463,1.1891965900593753,1.2303408407083019,0.02279500240757716
3.89611554145813,1.1938861592610552,1.2345361333066593,-0.007702473617631211
3.905222177505493,1.1975987348790518,1.23874959302115,-0.02823625542684888
3.914246082305908,1.2011159117803119,1.2429655524503291,-0.0413214740896873
3.925236225128174,1.2054146835485189,1.2471848190507604,-0.04902620618431952
3.93320631980896,1.2085410630163056,1.2514151299533005,-0.05294620803181396
3.9412662982940674,1.2120582399175657,1.255649020357151,-0.05426737189239762
3.9510581493377686,1.2161616129690356,1.2598802849737987,0.22218887935371678
3.9592573642730713,1.2192879924368225,1.2641037929642234,0.25685814429656506
3.9709675312042236,1.224759156505449,1.268315431413613,-0.07203581809957807
3.9803736209869385,1.2284717321234457,1.2725261178067584,-0.17860449734784778
3.989229202270508,1.2317935103079691,1.2767380699116735,0.08484522728158289
3.99823260307312,1.235506085925966,1.2809390401126883,0.1403289278739426
4.009217739105225,1.2400002564109094,1.2851330464435913,-0.15941664119924687
4.018206596374512,1.2439082307456428,1.2893306706257905,-0.23864301760783957
4.026296615600586,1.2474254076469027,1.2935195126845147,-0.2289454862495388
4.034187078475952,1.250356388397953,1.297682069279424,0.0863287179652921
4.04316258430481,1.253873565299213,1.301818002182994,0.1630222077448646
4.0527472496032715,1.2575861409172095,1.3059343809401787,-0.12967368175336985
4.060746669769287,1.2607125203849965,1.3100373244588392,-0.20810628851474663
4.068222284317017,1.263838899852783,1.314125030009605,-0.20014664748797673
4.076192617416382,1.2671606780373064,1.318189014301202,-0.16347927469869744
4.088775634765625,1.2724364433891966,1.3222362595408326,-0.12257306181549879
4.097610950469971,1.2759536202904564,1.3262797073826968,-0.08660324612799328
4.107982873916626,1.2804477907754,1.3303161231795462,-0.05801797636460441
4.117086172103882,1.284160366393397,1.3343425619130658,-0.03654551592750968
4.130259275436401,1.2892407330285505,1.3383701227698428,-0.021004601385396223
4.142159938812256,1.2941257009469669,1.3424145852035962,-0.010074363167813561
4.15203332901001,1.2980336752817005,1.3464818329312092,-0.002584615630036761
4.161194086074829,1.301746250899697,1.3505626848118126,0.002405257264165444
4.171167373657227,1.306045022667904,1.3546422050073417,0.005613231586158142
4.183873891830444,1.311320788019794,1.3587206843978379,0.007570560667596945
4.195234775543213,1.316010357221474,1.362817680228819,0.008662442728146154
4.205350399017334,1.3201137302729442,1.366948912790891,0.009164243943746785
4.214842081069946,1.323630907174204,1.3711073045095394,0.009270725968944935
4.226759672164917,1.3287112738093576,1.3752796231994864,0.009118434918401835
4.23826003074646,1.3337916404445112,1.3794669394743624,0.00880233301803577
4.2483601570129395,1.3380904122127177,1.3836758971687289,0.008387915388906483
4.2561750411987305,1.3408259942470313,1.3878989043403627,0.007919924460029749
4.268234968185425,1.3455155634487113,1.3921165946013299,-0.2686097975671424
4.2801833152771,1.350400531367128,1.3963309668535526,-0.3022290725732809
4.293271541595459,1.3556762967190181,1.4005557527704684,-0.2476167725166377
4.306182622909546,1.3609520620709084,1.404795818874669,-0.17199884103031116
4.318981647491455,1.3662278274227981,1.4090608064681576,-0.10192051711364156
4.330504894256592,1.3713081940579517,1.413358194505688,-0.045717782173241746
4.338255882263184,1.374239174809002,1.417675499605735,0.27192546654292177
4.34620475769043,1.3775609529935253,1.4219896988888945,0.33409887816158546
4.355663299560547,1.3816643260449955,1.4262871992525465,0.2981888674893657
4.364190340042114,1.3849861042295188,1.4305565985334345,0.23394063045735083
4.37418270111084,1.3892848759977254,1.434782498572752,0.1699673620080399
4.386173486709595,1.394169843916142,1.4389640514353734,0.11619794610365225
4.394192695617676,1.3976870208174021,1.443106862391921,-0.2015023752914
4.403055429458618,1.4012041977186624,1.4472042399239637,-0.2653689990071898
4.41217565536499,1.404916773336659,1.4512508699455346,-0.23218208557610742
4.421901702880859,1.4086293489546555,1.4552485441776273,-0.17126326170874462
4.429471492767334,1.4117557284224425,1.4591934610689323,-0.11093418007525675
4.437225580215454,1.4146867091734927,1.4630714376589233,-0.3369646704692427
4.449185609817505,1.4197670758086463,1.4668769160584347,-0.33217521415677387
4.457779169082642,1.423284252709906,1.4706231075218237,-0.2499856291344444
4.466033697128296,1.4266060308944293,1.4743217027108735,-0.15548939627206915
4.479619264602661,1.4320771949630564,1.4779828236953245,-0.07311883429381552
4.4879889488220215,1.4355943718643163,1.4816152754768197,-0.009425719104574778
4.497875928878784,1.439893143632523,1.485215443781791,0.036264674961886186
4.507172107696533,1.4436057192505198,1.4887804093696555,0.06704184185455864
4.518912076950073,1.4486860858856732,1.4923189051548371,0.08636478578550531
4.527737140655518,1.4520078640701966,1.4958383837181306,0.09729173314649703
4.5351738929748535,1.4551342435379833,1.499334231173564,0.1022715488155003
4.543838262557983,1.4586514204392433,1.502797194445656,0.10316296451692983
4.55235743522644,1.4619731986237665,1.5062196882361005,0.10133059087119593
4.564385414123535,1.4668581665421834,1.5096009281251295,0.09775334095801044
4.576265573501587,1.4715477357438635,1.5129510736095388,0.09312087827863477
4.585334300994873,1.4752603113618603,1.5162787929865973,0.08791135445836683
4.598114252090454,1.4807314754304872,1.5195860380060746,0.08245089022296881
4.608166694641113,1.485030247198694,1.5228794336888858,0.07695770069603224
4.616159200668335,1.4881566266664805,1.5261643765642998,0.07157418722696252
4.625535011291504,1.4922599997179506,1.5294349976168577,0.06638996676097221
4.635156154632568,1.4959725753359474,1.5326812019092386,0.06145824092932
4.644254684448242,1.4994897522372075,1.5359043397196754,0.05680734738679676
4.656238317489624,1.504374720155624,1.539115357568488,0.05244886344582089
4.666864395141602,1.5090642893573043,1.5423183249504087,0.04838326098400213
4.674561500549316,1.512190668825091,1.545506689805445,0.04460383169435952
4.683191537857056,1.5153170482928777,1.5486700021216566,0.04109939575086742
4.692055940628052,1.518834225194138,1.5518042189841954,0.03785615774511555
4.701223611831665,1.5221560033786614,1.5549060806907093,0.03485896680345418
4.710844993591309,1.526454775146868,1.5579682930594474,0.03209216169370081
4.723261833190918,1.5319259392154947,1.5609941077148406,0.02954012785236721
4.731902599334717,1.535247717400018,1.5639955757290311,0.02718765525513636
4.7419798374176025,1.539546489168225,1.5669782551546412,0.025020159308862214
4.750175476074219,1.5428682673527483,1.5699422030222057,0.02302380816222191
4.759115695953369,1.5465808429707448,1.5728830360486088,0.021185586661085283
4.771266222000122,1.5516612096058984,1.5757971018142636,0.0194933179510305
4.781352758407593,1.5557645826573687,1.578690221871981,0.017935657279188787
4.7902069091796875,1.5592817595586286,1.5815673581154865,0.016502068035994626
4.7985827922821045,1.5627989364598887,1.5844240007629922,0.015182786932566637
4.812201976776123,1.567879303095042,1.587256374996637,0.013968783016600539
4.820183277130127,1.5710056825628287,1.590069974615103,-0.2631866459757716
4.830589771270752,1.5751090556142986,1.5928695079566888,-0.29733908290386013
4.839245557785034,1.5784308337988222,1.5956504429532097,-0.2431875243760661
4.849138259887695,1.5821434094168187,1.5984048126648256,-0.4440109848179925
4.85816764831543,1.5854651876013421,1.601130306728387,-0.6834518120663301
4.868022203445435,1.5895685606528125,1.603829420832962,-0.8816322525042855
4.878144979476929,1.5930857375540726,1.60650447360262,-1.018292977676148
4.888667583465576,1.5971891106055427,1.6091576270551085,-1.372997660696188
4.898493528366089,1.6009016862235392,1.6117950199086912,-1.1619659170838053
4.908416271209717,1.604028065691326,1.614421976860524,-1.6230345634131933
4.9194910526275635,1.6077406413093227,1.617038970968575,-1.9174017180616154
4.927999496459961,1.610671622060373,1.619646522069179,-1.803114052710131
4.9366254806518555,1.6134072040946863,1.6222411144015325,-1.833355182781593
4.9471282958984375,1.6167289822792097,1.6248199705489201,-1.8823885080724356
4.957435846328735,1.620050760463733,1.627385069283663,-2.181606286000347
4.969421625137329,1.623567937364993,1.6299382872592985,-2.4783528044391305
4.980722427368164,1.6264989181160432,1.632485542660525,-2.4121431454869686
4.988592863082886,1.6288437027168832,1.6350319540915526,-2.4887340745487796
4.998250722885132,1.6313838860344596,1.6375736145236928,-2.8429280672134865
5.008950233459473,1.6339240693520367,1.6401073112698985,-3.1850982509452987
5.018139123916626,1.63607345523614,1.64263457479179,-3.1441248946018563
5.026875972747803,1.6380274424035066,1.6451567548587,-2.9498347573241093
5.037871360778809,1.64017682828761,1.6476750336553925,-2.9837320852590272
5.046976804733276,1.6421308154549765,1.65019041124036,-3.324898859340447
5.057490825653076,1.6440848026223436,1.6527036832537523,-3.6602859216934593
5.066151142120361,1.6456479923562366,1.655211367875572,-3.610126584283861
5.075165271759033,1.6470157833733936,1.6577104749641638,-3.1259917015683945
5.084123611450195,1.6483835743905502,1.6602025655030193,-2.8326287802402907
5.092953205108643,1.649751365407707,1.6626848457218344,-2.346403480489669
5.1015331745147705,1.6507283589913901,1.6651548705316337,-1.8623024600737401
5.111775875091553,1.6519007512918102,1.6676145415408379,-1.7245553816403807
5.119231939315796,1.6526823461587568,1.6700613676898777,-1.4277731931694295
5.1301727294921875,1.6540501371759135,1.6724930150303172,-1.395075396436471
5.138243198394775,1.6546363333261238,1.6749113730223282,-0.8848077311078437
5.147013425827026,1.6558087256265437,1.6773141710111652,-0.5831340914091953
5.1560962200164795,1.6565903204934902,1.679699264175792,-0.1229097507305304
5.164103031158447,1.657371915360437,1.682064741497191,0.30240020794347433
5.174588441848755,1.6581535102273839,1.684405125520921,0.6320300409685722
5.1851277351379395,1.6589351050943304,1.6867193511734375,0.5845984850896736
5.197133779525757,1.6599120986780134,1.6890134700502224,0.6937883354583074
5.207616567611694,1.6606936935449603,1.6912956398410683,1.1003771067218038
5.216446399688721,1.6612798896951704,1.6935686647500312,1.2362335790139778
5.2264885902404785,1.662061484562117,1.6958308457307987,1.5203050780324294
5.2341389656066895,1.6626476807123272,1.6980771114627244,1.5038462102281571
5.243252754211426,1.6630384781458003,1.7002996663441954,1.6517359543457077
5.254230260848999,1.6636246742960106,1.702494780241237,1.8046260686676119
5.263214826583862,1.6640154717294837,1.704662091147791,1.9084216676501553
5.2728941440582275,1.6646016678796938,1.7068008659067002,1.6777482491962448
5.28314471244812,1.664992465313167,1.7089100237561936,1.6391091373223599
5.2911763191223145,1.6653832627466405,1.7109881433716625,1.6499771937754488
5.299132823944092,1.6657740601801139,1.713031073412199,1.6549219013783927
5.3081018924713135,1.666164857613587,1.7150324675303463,1.6371607333905165
5.318126201629639,1.6665556550470606,1.7169911087380711,1.5958169665793736
5.326491832733154,1.6669464524805337,1.7189078420979977,1.8116234747210116
5.334120273590088,1.6671418511972707,1.7207766754752496,1.7714512934751754
5.34311580657959,1.6671418511972707,1.7225884354916259,1.6352292731616156
5.35212254524231,1.6675326486307438,1.7243373885331383,1.4743386372498561
5.361250162124634,1.6677280473474807,1.7260221040605013,1.3183818642917235
5.370109796524048,1.6681188447809538,1.7276425125886967,1.4538633593738859
5.380128860473633,1.668509642214427,1.7291976364249293,1.3639617727082443
5.388378858566284,1.6687050409311641,1.7306856070090089,1.4782389535924616
5.398556232452393,1.6690958383646373,1.7321039887789083,1.6188101658166185
5.410149812698364,1.669682034514847,1.7334494816702681,1.721713803819854
5.418094158172607,1.669877433231584,1.7347173931123552,1.7722762260574936
5.427190065383911,1.6702682306650571,1.735902430320863,1.7751106018807725
5.438100576400757,1.6708544268152674,1.7369991425685227,2.0167750478083155
5.446906566619873,1.6712452242487406,1.738001721988828,2.265225231009497
5.457278490066528,1.671636021682214,1.738904154015297,2.1654338243537756
5.46522855758667,1.6722222178324238,1.7397003604038535,2.2225221468151473
5.474550008773804,1.6726130152658973,1.740386188045455,2.2926086950227793
5.486253023147583,1.6733946101328439,1.7409573977926163,2.3260529234209977
5.49731707572937,1.6741762049997908,1.7414061356278387,2.3134312863638686
5.5081799030303955,1.6749577998667373,1.7417254013603574,2.2606133762345917
5.52024245262146,1.6759347934504207,1.741908131521297,2.453798668264528
5.529175043106079,1.6765209896006308,1.741948471588685,2.3840078422061786
5.537568807601929,1.6771071857508406,1.74184757906521,1.9381525092893312
5.547130346298218,1.6778887806177873,1.7416037530578634,1.7086974479854613
5.555814266204834,1.678670375484734,1.7412135102138435,1.5720153664128804
5.563772916793823,1.679256571634944,1.7406848989827464,1.1962732357369201
5.572025537490845,1.6800381665018909,1.7400293266494309,1.076627854927965
5.580680847167969,1.6808197613688374,1.739251048672049,0.7732203559920512
5.590086936950684,1.6814059575190474,1.7383515542877825,0.4590102355451795
5.601632118225098,1.6821875523859942,1.73733344575395,0.19551347103014416
5.610774517059326,1.682773748536204,1.736200336690769,-0.003935369269344929
5.621173858642578,1.6833599446864143,1.734956727919128,-0.14481827388329244
5.632394790649414,1.6839461408366243,1.7336078871094918,-0.7904140954006138
5.643097639083862,1.684532336986834,1.7321596826373933,-1.1903409412490442
5.6551902294158936,1.6849231344203075,1.730614906223242,-1.420892184925886
5.664164304733276,1.6849231344203075,1.728977159667107,-1.8120874018644613
5.672178745269775,1.6851185331370444,1.7272576169931597,-2.158937838152601
5.683079719543457,1.6853139318537809,1.725463123652146,-2.675738777797417
5.692425727844238,1.6853139318537809,1.7235931418872434,-2.8409243759783074
5.70110297203064,1.6853139318537809,1.7216586118344028,-2.827413478041713
5.714181900024414,1.6851185331370444,1.7196764364735748,-3.2770771365840945
5.725441217422485,1.6851185331370444,1.7176464755678298,-2.9230069025145955
5.736114263534546,1.6853139318537809,1.7155611861474311,-2.6183699763458073
5.745988845825195,1.6853139318537809,1.7134254676531229,-2.080072791898263
5.757062196731567,1.6853139318537809,1.7112470302345317,-1.5438525958272191
5.767207622528076,1.6851185331370444,1.709023977744915,-0.8156184364382992
5.778092384338379,1.6851185331370444,1.7067543179553963,-0.1541328499076587
5.790942430496216,1.6851185331370444,1.7044355047755948,0.3620270289206837
5.799084424972534,1.6851185331370444,1.7020649007174333,0.7289773285444557
5.81151556968689,1.6851185331370444,1.6996439596089825,0.9694138587933041
5.8191139698028564,1.6851185331370444,1.6971682715397316,1.111797048250624
5.82814884185791,1.6851185331370444,1.6946387505715252,1.1822126913971722
5.837989807128906,1.6849231344203075,1.6920656883963403,1.2018892601370499
5.848674297332764,1.6847277357035708,1.6894521387531298,0.9110282680570702
5.856658935546875,1.6843369382700975,1.6867948329296159,0.840543790350291
5.865077495574951,1.6841415395533608,1.6840960608980284,0.568287715873087
5.874084234237671,1.6839461408366243,1.6813629759050537,-6.797088268450935e-05
5.884074926376343,1.6835553434031507,1.6785953886684157,-0.2797409769792847
5.893078565597534,1.6833599446864143,1.6757867993286515,-0.40996339702152496
5.902371644973755,1.682969147252941,1.672931188492289,-0.4624009077819785
5.911786079406738,1.6825783498194673,1.670023151925621,-0.47427973981582744
5.9231038093566895,1.6821875523859942,1.6670579562995589,-0.4651503423354879
5.9360926151275635,1.681210558802311,1.6640250715628682,-0.7214474360434986
5.944058656692505,1.6806243626521005,1.6609158645382538,-1.0058580428771142
5.9540815353393555,1.679256571634944,1.6577299684430773,-1.2332128891242633
5.96607780456543,1.6776933819010509,1.6544610215390794,-2.212314884042163
5.9741222858428955,1.6765209896006308,1.65110444890333,-2.668825583831776
5.982132911682129,1.6751531985834738,1.647670605506771,-3.1143373063027537
5.994055271148682,1.6730038126993705,1.64416916211407,-4.262403162168056
6.005058765411377,1.671049825532004,1.6406024347621937,-5.0
6.013129234313965,1.6690958383646373,1.6369798700714404,-5.0
6.02310037612915,1.6669464524805337,1.6333101235062655,-5.0
6.03307580947876,1.6640154717294837,1.6295943181360475,-5.0
6.042898416519165,1.661475288411907,1.6258338011309537,-5.0
6.053310394287109,1.657958111510647,1.6220300195238058,-5.0
6.063413858413696,1.6548317320428605,1.6181843744757216,-5.0
6.072058439254761,1.6519007512918102,1.6142980866625471,-5.0
6.0819642543792725,1.6481881756738137,1.6103721372833055,-5.0
6.09271240234375,1.6434986064721333,1.6064072405801146,-5.0
6.102080345153809,1.6397860308541365,1.6024038178809081,-5.0
6.112243175506592,1.6350964616524568,1.5983619956583097,-4.873321728517208
6.121670961380005,1.6311884873177231,1.594281631258164,-4.061512086082757
6.129464626312256,1.6278667091331998,1.5901623512695584,-3.134595829231387
6.141077756881714,1.6227863424980462,1.5860035518290723,-2.3091141813887592
6.151892423629761,1.6180967732963663,1.5818043675030802,-1.3693882608817036
6.163198471069336,1.6132118053779496,1.5775636587856308,-0.2789525906637804
6.176046133041382,1.6077406413093227,1.573271890240848,0.9322146323862595
6.185107469558716,1.604028065691326,1.5689205416579646,2.21698742715881
6.1970460414886475,1.5991430977729093,1.5645096893344845,3.5307888955720115
6.20815372467041,1.5940627311377558,1.5600214345099566,4.561945851152082
6.218051910400391,1.5899593580862856,1.5554401474701947,5.0
6.22808575630188,1.5854651876013421,1.5507779657371792,5.0
6.238637447357178,1.580971017116399,1.5460445612621854,5.0
6.24796986579895,1.5770630427816656,1.5412386762799402,5.0
6.256811618804932,1.5731550684469322,1.536358598583284,5.0
6.2709784507751465,1.567293106944832,1.5313924453178789,5.0
6.280078649520874,1.5637759300435718,1.5263298663642546,4.919451232583675
6.293617248535156,1.557913968541472,1.5211716650421536,4.994405476089765
6.301083326339722,1.5543967916402117,1.5159186382549428,4.493180797776192
6.317175388336182,1.5475578365544282,1.5105615080651245,4.399817745300461
6.326034784317017,1.5440406596531684,1.5050826425387571,4.126688943692542
6.334087371826172,1.5403280840351714,1.4994889832487828,3.7980497758452634
6.344433784484863,1.5360293122669648,1.493797949183812,3.468401114649694
6.357050180435181,1.5303627494816012,1.4880048239642838,3.159439828847446
6.3659281730651855,1.5262593764301313,1.4820968235754763,2.8779292442780475
6.375079154968262,1.5219606046619245,1.4760855860045081,2.624209645642438
6.384657859802246,1.518052630327191,1.4700033087400513,2.396154952470602
6.3928446769714355,1.515121649576141,1.4638685068496007,2.1909408911311345
6.405811548233032,1.5096504855075141,1.4576780553070354,2.0057808942025868
6.4150354862213135,1.505742511172781,1.4514308099045083,1.8381893347003178
6.4243268966674805,1.5016391381213108,1.4451473194602718,1.6860389363383474
6.434040546417236,1.4975357650698409,1.438846492217953,1.5475367003162743
6.442103385925293,1.4942139868853175,1.4325358048662626,1.4211741570081053
6.451070308685303,1.4905014112673207,1.4262230080532905,1.58171374777692
6.460067510604858,1.4863980382158504,1.4199251227777852,1.5091143788204118
6.469077110290527,1.482490063881117,1.4136667051936314,1.357128772388245
6.482467412948608,1.476628102379017,1.4074516357573015,1.1921725174423585
6.4940454959869385,1.4715477357438635,1.4012585296527773,1.0400753319055178
6.5039756298065186,1.4672489639756567,1.3950798557978197,0.9085363279874932
6.514090538024902,1.4633409896409235,1.3889284864931615,0.7977070333592984
6.525278091430664,1.4584560217225064,1.3828094109850626,0.7050313467014351
6.534092903137207,1.45474344610451,1.3767284565487778,0.6273491261146917
6.5440592765808105,1.4506400730530398,1.3707070786609308,0.5617262340008673
6.555819988250732,1.4453643077011498,1.364764692744358,0.505714080348952
6.565822124481201,1.4410655359329432,1.358904782219952,0.457370324711515
6.576165437698364,1.4361805680145263,1.353131264794347,0.4151926629092645
6.58505654335022,1.432663391113266,1.3474612976438012,0.37803192710939393
6.595692873001099,1.427973821911586,1.3419100160295223,0.345010798159079
6.60604453086853,1.423870448860116,1.3364841505805434,0.3154565075369154
6.615490674972534,1.4197670758086463,1.3311895979228943,0.2888483759841711
6.626547336578369,1.4146867091734927,1.3260263552614222,0.2647782721349946
6.63545560836792,1.410778734838759,1.3209944074795763,0.24292139367209067
6.6444993019104,1.4074569566542359,1.3161038717200042,0.22301492396746306
6.654059410095215,1.4033535836027657,1.311367536385357,0.20484253603929664
6.663583755493164,1.3994456092680323,1.3067906193965786,0.18822316571693748
6.675400257110596,1.394169843916142,1.3023678169304567,-0.10303549024236303
6.684418439865112,1.3902618695814086,1.2980939993929574,-0.15011406598280014
6.692555665969849,1.3867446926801488,1.293972482020196,-0.10782035771036348
6.701099157333374,1.3828367183454155,1.2900090567720712,-0.04349073426505968
6.710090637207031,1.3789287440106817,1.2862071658366678,0.016233714222566916
6.721076011657715,1.374239174809002,1.2825644922169923,0.06293284659050813
6.7300567626953125,1.3707219979077419,1.2790739010950183,0.09580979785883564
6.738330125808716,1.3668140235730084,1.275728140872985,0.11683966849780618
6.750410556793213,1.3617336569378549,1.2725163897692549,0.1286570277308555
6.7580201625823975,1.3584118787533315,1.2694282533981576,0.1337187757040385
6.767678737640381,1.3545039044185982,1.266460581981421,0.1340388594282215
6.77703595161438,1.350400531367128,1.2636093413184468,0.13116284504348635
6.788071632385254,1.3457109621654482,1.2608661585914793,-0.14980818401842894
6.801218509674072,1.3400443993800844,1.2582188298798376,-0.18910525439772152
6.814831733703613,1.3345732353114577,1.2556481471168852,-0.14084760365632482
6.824420928955078,1.3302744635432509,1.2531396832419255,-0.07187611511111863
6.833118200302124,1.3265618879252543,1.2506904811218713,-0.008476840235355144
6.843842267990112,1.3214815212901008,1.2482964199239621,0.04118404169529709
6.852633953094482,1.3181597431055774,1.2459487151962916,0.07649138503052255
6.860017776489258,1.314837964921054,1.243642556950384,0.09955059708390822
6.871006965637207,1.3103437944361107,1.2413723140256698,0.11309005340936806
6.881049156188965,1.306045022667904,1.2391277831204224,0.11963457104775589
6.893003225326538,1.3007692573160137,1.236898958838063,0.3972860049036862
6.903032541275024,1.296470485547807,1.234671426542684,0.42867430161151443
6.9110307693481445,1.2931487073632837,1.2324319717939418,0.09361964048510854
6.918999671936035,1.2898269291787603,1.2301780014766512,-0.020854343456998437
6.9290406703948975,1.2857235561272902,1.2279116386513023,-0.042301040275343614
6.938311815261841,1.28162018307582,1.2256241044953853,-0.029210465760961046
6.949384689331055,1.27693061387414,1.2232973402790892,-0.007135573446068013
6.957064628601074,1.2738042344063532,1.2209260756470819,0.013723666542095857
6.9681456089019775,1.2691146652046732,1.218516272729436,0.030063526884786633
6.97800087928772,1.2648158934364664,1.216067829408537,0.04148281119392642
6.9900641441345215,1.2595401280845764,1.2135700672879117,0.048650212267165815
7.001040697097778,1.2548505588828962,1.2110088596489421,0.05250289818740038
7.0100297927856445,1.2515287806983728,1.2083837817798209,0.05392620072520411
7.0190088748931885,1.247816205080376,1.2057061953178383,0.053649699923006576
7.030524253845215,1.2427358384452227,1.202975854824022,0.05223460119868341
7.0410449504852295,1.2382416679602795,1.2001829083440818,0.0500949274866064
7.050128698348999,1.234333693625546,1.197330938670114,0.04752733950404788
7.05951714515686,1.230034921857339,1.1944297482282051,0.32077783644763175
7.072170257568359,1.2251499539389223,1.191478678639206,0.07499810892339134
7.084649562835693,1.219483391153559,1.188473836589609,-0.016072820278227054
7.092891454696655,1.2161616129690356,1.185418635509088,-0.03983116602832827
7.1058313846588135,1.2102996514669355,1.182322443226918,0.23911555945647467
7.115071773529053,1.206391677132202,1.1791899993866488,0.007587333965973608
7.12568998336792,1.202288304080732,1.1760309249074063,-0.0683761512242221
7.133838891983032,1.1989665258962086,1.1728633609392478,-0.07899421403697825
7.1433188915252686,1.1948631528447384,1.1696986683981077,0.210432671337395
7.15302586555481,1.1907597797932685,1.1665422895170274,0.26291937007219107
7.161543369293213,1.1870472041752715,1.1633989392437185,0.22598382350847251
7.169038534164429,1.183920824707485,1.160272472651018,0.16456026192370365
7.180092096328735,1.1792312555058049,1.1571658210151758,0.104947313060165
7.189648389816284,1.175127882454335,1.154080967101204,0.05598447402020945
7.1978065967559814,1.171610705553075,1.1510234578331289,0.019082096072833416
7.209215402603149,1.1669211363513945,1.1480017255401134,-0.007154346745704599
7.219981670379639,1.1624269658664512,1.1450128822449446,-0.024885582156206086
7.230502605438232,1.1577373966647713,1.1420444299053865,-0.03621057906747338
7.24006462097168,1.1536340236133011,1.1390943525561084,-0.0428864908199802
7.253342390060425,1.1479674608279375,1.1361648808004443,-0.046282336028659984
7.263011693954468,1.1440594864932043,1.1332478443910206,0.22861695849057864
7.2761101722717285,1.1385883224245774,1.1303312371795824,0.2621146588628882
7.2855565547943115,1.1346803480898442,1.127409634283782,0.2083711069428199
7.297283411026001,1.1295999814546906,1.1244834715944538,0.13424669336607853
7.3077392578125,1.1254966084032205,1.1215487562720778,0.34207068027373605
7.317013502120972,1.1217840327852238,1.1186026457187916,0.3210522867830269
7.325541734695435,1.1184622546007006,1.1156526648432288,0.5025258738045155
7.33825945854187,1.113968084115757,1.1127058410412618,0.9847299462098643
7.3498008251190186,1.109864711064287,1.1097597686146925,2.0124104211547276
7.362299919128418,1.105175141862607,1.106809049659593,2.720287722745187
7.371047258377075,1.1022441611115568,1.1038505309062954,3.158048262540383
7.379989862442017,1.0993131803605067,1.100890878202804,3.3877601233259793
7.389687776565552,1.09618680089272,1.09794477571013,3.466181934441279
7.399121522903442,1.0934512188584067,1.09502132402352,3.439394022237595
7.407010078430176,1.0911064342575667,1.0921285189837155,3.342545554176956
7.4183149337768555,1.0875892573563064,1.0892737931012868,3.4774666090904764
7.427125692367554,1.0852444727554664,1.0864601698335112,3.0675761313017675
7.435004234313965,1.0828996881546264,1.083693926070111,2.799362976865787
7.444512844085693,1.080164106120313,1.0809778017670681,2.594138064169737
7.453407049179077,1.0780147202362098,1.078311111196156,2.1410200822775836
7.461757659912109,1.0758653343521063,1.0756997910821318,1.944519067355141
7.471932649612427,1.0735205497512663,1.0731492104408784,1.8446496798239163
7.483273506164551,1.0707849677169528,1.070661137918896,1.7727350637856958
7.494975328445435,1.0680493856826394,1.0682372944658618,1.702212840450065
7.506006956100464,1.0655092023650627,1.0658770462968061,1.6251116359130608
7.517973184585571,1.062969019047486,1.0635778692236384,1.541039888660236
7.528020143508911,1.0610150318801193,1.0613402913334975,1.4522047799670768
7.53800368309021,1.0590610447127526,1.0591672497764655,1.0852497225035596
7.5470147132873535,1.0573024562621227,1.0570630797533958,0.9614768654626699
7.555006742477417,1.0557392665282292,1.0550330757775532,0.651949437731373
7.5639967918396,1.054176076794336,1.0530794181593417,0.33359585625401156
7.574013948440552,1.0522220896269692,1.0511999703648591,0.06888428347600706
7.583781480789185,1.0506588998930757,1.0493908184396092,-0.12908597507471875
7.5929036140441895,1.0490957101591825,1.0476513926160902,-0.26640214961864533
7.602980613708496,1.0473371217085525,1.045983753500289,-0.630939169832343
7.611996412277222,1.0459693306913957,1.0443871296287894,-0.7157696387944323
7.624022006988525,1.0440153435240291,1.0428566018032872,-0.6858275734851893
7.633621454238892,1.0426475525068724,1.0413869573807393,-0.6163878136674694
7.6410157680511475,1.0414751602064523,1.039976005943307,-0.5400266968193657
7.651984930038452,1.039911970472559,1.038620671941633,-0.4694651948468648
7.664965629577637,1.0379579833051924,1.0373134004010705,-0.4085442719008578
7.676077127456665,1.036394793571299,1.036044407106047,-0.35740005949832
7.683979034423828,1.035222401270879,1.0348080984172083,-0.5908709072119797
7.693958282470703,1.034050008970459,1.0336003356711398,-0.8645378923309175
7.703845262527466,1.0328776166700389,1.0324143830358783,-1.0887768518137768
7.717111587524414,1.0315098256528823,1.0312433175181293,-1.2414292625183034
7.72748875617981,1.0303374333524622,1.0300774585481474,-1.3271296953321228
7.734987020492554,1.0295558384855157,1.0289075474047245,-1.359062952686584
7.745211362838745,1.028188047468359,1.0277301344609748,-1.3513071052134529
7.7590601444244385,1.0268202564512021,1.026541340357052,-1.316029291743227
7.767960786819458,1.0260386615842554,1.0253310745727586,-1.2627998382803407
7.778961658477783,1.0248662692838355,1.0240899707590976,-1.1987499548384144
7.793217420578003,1.0234984782666787,1.0228087395871124,-0.8529620116604721
7.804213523864746,1.0225214846829955,1.0214751855371256,-1.0239952976687552
7.81600546836853,1.0211536936658387,1.020077887948261,-1.0406223918827142
7.82519793510437,1.020372098798892,1.018610304926541,-1.2679224354143577
7.838026523590088,1.0190043077817355,1.0170703403417924,-1.2286187314516188
7.850801229476929,1.0176365167645787,1.0154473242944293,-1.3722312594498738
7.859978437423706,1.0166595231808953,1.013732251300374,-1.5309896587064968
7.867982625961304,1.0158779283139485,1.0119305716976743,-1.3700506970664175
7.876695871353149,1.0150963334470018,1.0100471325665268,-1.3963453392430942
7.88712477684021,1.0141193398633186,1.0080819323125905,-1.461177075764267
7.8979833126068115,1.0131423462796352,1.006035420499003,-1.232527242137506
7.907944440841675,1.012165352695952,1.0039085339589806,-1.2140678440852128
7.919842481613159,1.0111883591122686,1.0016978127026765,-0.9761898781101372
7.92897367477417,1.0104067642453218,0.9994011280531944,-0.9771800279405665
7.936957359313965,1.009625169378375,0.997027367502234,-1.0431714222572637
7.9478325843811035,1.0084527770779552,0.9945849289816427,-0.828998435632615
7.961223602294922,1.0072803847775351,0.992071976204845,-1.1074341239333005
7.971850156784058,1.0059125937603783,0.9894829885006463,-1.478297815295634
7.9823267459869385,1.0045448027432218,0.9868192522238926,-1.7907196485014207
7.990003824234009,1.003177011726065,0.9840878542021299,-2.279512778968348
7.998954772949219,1.0016138219921717,0.9813006702779365,-2.980910978695711
8.00795292854309,1.000246030975015,0.9784734931058806,-3.857769780711069
8.01708722114563,0.9982920438076482,0.9756156287287144,-4.302192127233048
8.029325246810913,0.9957518604900715,0.972726225478999,-5.0
8.038182020187378,0.9936024746059682,0.9698054182071116,-5.0
8.052108764648438,0.9902806964214448,0.966859038567957,-5.0
8.06259536743164,0.9873497156703948,0.9638885085169308,-5.0
8.070128917694092,0.9852003297862914,0.9608959894689555,-5.0
8.078924179077148,0.9826601464687146,0.957893091040557,-4.973534180220879
8.088367700576782,0.9797291657176646,0.9548946305818766,-4.996412890707669
8.097966432571411,0.9767981849666146,0.9519093990556426,-4.418799910901727
8.108579635620117,0.9736718054988278,0.948941069820044,-4.256626193411217
8.117027044296265,0.9707408247477777,0.9459932641962652,-4.207957410388513
8.127929210662842,0.9670282491297811,0.9430695066044567,-3.8785504364354044
8.136602878570557,0.9639018696619943,0.9401731666460393,-3.4747904848165936
8.146983623504639,0.9603846927607341,0.937307392441812,-3.6341824987365774
8.158970832824707,0.9556951235590542,0.9344750393694908,-3.348938053573023
8.167032241821289,0.9523733453745308,0.9316786143653923,-2.934529856522776
8.174922704696655,0.9492469659067441,0.928923753536685,-2.522054130526332
8.184929132461548,0.9449481941385374,0.9262185646103236,-1.8822680389035074
8.193023920059204,0.9418218146707505,0.923566042858992,-1.2682601504904445
8.202558279037476,0.9379138403360172,0.9209648401543015,-0.7639952205035622
8.212039470672607,0.933810467284547,0.9184134670701513,-0.6577482768600575
8.220921516418457,0.929707094233077,0.9159103034876669,-0.13988034543165784
8.231460332870483,0.9250175250313969,0.9134536268225153,0.1377748415585333
8.23897099494934,0.9218911455636103,0.9110449097571796,0.8357504605701105
8.247917413711548,0.9183739686623502,0.9086850400574324,1.52642488555362
8.260931253433228,0.9129028045937233,0.9063678795749178,2.065203086686533
8.27286434173584,0.9082132353920432,0.9040879887572811,2.427920408484032
8.283942461013794,0.9033282674736265,0.9018438786115633,2.9119331507709743
8.299576044082642,0.8972709072547898,0.8996281728300345,3.58413575929033
8.30790114402771,0.8939491290702664,0.8974317209201799,4.1462073800064
8.31697392463684,0.8908227496024795,0.8952561172945476,4.5162687261537044
8.328983545303345,0.8865239778342728,0.8931032109752689,5.0
8.34036374092102,0.8828114022162762,0.8909690823629994,5.0
8.351855993270874,0.8787080291648061,0.8888536806854136,5.0
8.362596035003662,0.8751908522635461,0.8867601805760913,5.0
8.371793270111084,0.8722598715124958,0.8846915971672039,5.0
8.38163161277771,0.8695242894781825,0.8826507975168216,5.0
8.389935970306396,0.8671795048773426,0.8806428239863819,5.0
8.400044679641724,0.8646393215597659,0.8786744134280979,5.0
8.411100625991821,0.8617083408087157,0.8767467490708778,5.0
8.422953605651855,0.8587773600576656,0.8748564784680506,5.0
8.435375928878784,0.8560417780233522,0.8730013304084533,5.0
8.445209741592407,0.8536969934225123,0.8711799592996188,5.0
8.454007625579834,0.8517430062551457,0.8693953505420385,4.690054820590206
8.467070579528809,0.8493982216543056,0.8676522403208686,4.734341682816185
8.477954387664795,0.8470534370534655,0.865951150455317,4.551426298753389
8.490092754364014,0.8447086524526255,0.8642910831500055,4.275488598772546
8.499076128005981,0.8429500640019953,0.8626730728657742,3.6946816531984776
8.508178949356079,0.8415822729848388,0.8611011008365685,3.3577623100427747
8.518981456756592,0.8400190832509454,0.8595772237232471,2.8470579426661686
8.528221845626831,0.8388466909505254,0.8581016050591991,2.343263931980024
8.542267322540283,0.8368927037831586,0.8566757591773747,2.4613734703521697
8.553083181381226,0.835524912766002,0.855299766911872,2.4517202979074346
8.562060832977295,0.8347433178990552,0.8539735590586452,2.0973026320906367
8.571016788482666,0.8337663243153719,0.8526981482555888,1.6740425243281123
8.581526279449463,0.8329847294484253,0.8514741906703218,1.5649844201206964
8.588992357254028,0.8323985332982152,0.8503028940411712,1.2830022281372921
8.597949028015137,0.8316169384312686,0.849185857053099,0.9835190696292379
8.606931209564209,0.8312261409977952,0.8481231596558879,0.7235001711812252
8.618171453475952,0.8304445461308485,0.8471136259866313,0.5169103531234849
8.626949548721313,0.8300537486973752,0.8461566576453429,0.36057384014487637
8.634948492050171,0.8296629512639019,0.8452520866806836,-0.030242416892710233
8.646974563598633,0.8292721538304285,0.8443979686274392,0.1301335656799193
8.661038160324097,0.828881356396955,0.8435903273173341,0.15992205025141853
8.669928550720215,0.8286859576802185,0.8428261804089253,-0.13595587588375155
8.679710149765015,0.8284905589634819,0.8421040427207324,-0.47885010979019016
8.690928220748901,0.8282951602467451,0.8414218517757088,-0.4899491293605586
8.701253175735474,0.8280997615300084,0.8407775716219301,-0.6622602463227224
8.713006973266602,0.8280997615300084,0.8401697729861081,-0.8457954234663341
8.72391676902771,0.8279043628132718,0.8395969805824751,-1.2639618789281997
8.732948780059814,0.8279043628132718,0.8390576885164749,-1.6630604369236137
8.741655826568604,0.8277089640965352,0.838550381814841,-2.236272040351328
8.749297857284546,0.8277089640965352,0.8380739193944983,-2.4537642155940786
8.757845163345337,0.8277089640965352,0.8376274523327759,-2.7619844107567015
8.77105164527893,0.8277089640965352,0.8372093072240734,-2.7316750186448635
8.779905319213867,0.8277089640965352,0.8368174814266387,-2.5653377837081406
8.793038368225098,0.8275135653797985,0.8364504518161717,-2.6320579642939808
8.80390453338623,0.8275135653797985,0.8361064728664368,-2.7295611027952464
8.812911748886108,0.8275135653797985,0.8357838953467172,-2.509657664517825
8.825805902481079,0.8273181666630619,0.8354812332431503,-2.475253429494832
8.838444232940674,0.8275135653797985,0.8351966364264036,-2.477413701420194
8.845931053161621,0.8275135653797985,0.8349288973933601,-2.4612083285000717
8.855903625488281,0.8275135653797985,0.834677567123209,-2.136595379173843
8.86685585975647,0.8275135653797985,0.8344417083829122,-2.024750865745422
8.87900972366333,0.8273181666630619,0.83422002858969,-1.978371235838555
8.888526201248169,0.8273181666630619,0.834011562556621,-1.9381429732778677
8.895912647247314,0.8273181666630619,0.833815764181023,-1.884281105209848
8.905094146728516,0.8273181666630619,0.8336322453716685,-1.813651597838871
8.9175124168396,0.8271227679463251,0.833460434702901,-2.005317057517442
8.926884651184082,0.8271227679463251,0.8332994911170487,-1.9449228948781512
8.93496060371399,0.8271227679463251,0.8331486353753822,-1.7915013500154342
8.943645715713501,0.8271227679463251,0.8330074050317356,-1.6157770654005101
8.954906463623047,0.8271227679463251,0.8328754634664426,-1.4468695878774023
8.962960004806519,0.8271227679463251,0.8327523460399602,-1.294887107912718
8.975923776626587,0.8271227679463251,0.832637397655128,-1.161692503060185
8.985014200210571,0.8271227679463251,0.8325300181549703,-0.7698758992003422
8.995805740356445,0.8271227679463251,0.832429756397645,-0.6360280152817934
9.006587743759155,0.8269273692295884,0.8323361176300798,-0.6030448209454843
9.01699423789978,0.8269273692295884,0.8322486389793363,-0.6015703257272094
9.02775502204895,0.8269273692295884,0.8321669650397999,-0.6033029418076855
9.03658938407898,0.8269273692295884,0.8320907609913146,-0.5984994153693792
9.045445442199707,0.8269273692295884,0.8320197662648371,-0.5853219280788686
9.053666591644287,0.8267319705128519,0.8319537667673118,-0.564927884842199
9.064613342285156,0.8267319705128519,0.8318924321920459,-0.539305844187729
9.073562860488892,0.8267319705128519,0.8318353915136031,-0.5103969059588226
9.084562540054321,0.8267319705128519,0.8317823494768475,-0.47979752210293347
9.092381477355957,0.8267319705128519,0.8317330308534474,-0.4487101274225395
9.099889755249023,0.8267319705128519,0.8316872090992813,-0.41798767671686
9.11200213432312,0.8267319705128519,0.8316446594997294,-0.3882041514845156
9.120997667312622,0.8265365717961152,0.8316051658520771,-0.6357617399095972
9.129725217819214,0.8267319705128519,0.8315685530311923,-0.6419197245740078
9.140141010284424,0.8265365717961152,0.8315345726942576,-0.5614739830463564
9.148898363113403,0.8265365717961152,0.8315029585299272,-0.46168884477855865
9.158081293106079,0.8265365717961152,0.8314735268762251,-0.36909533089397295
9.165927410125732,0.8265365717961152,0.831446102447645,-0.2919811437281248
9.177889108657837,0.8265365717961152,0.8314204940252443,-0.23099922160248393
9.190582752227783,0.8263411730793784,0.8313964964976344,-0.18402646336443154
9.199923992156982,0.8263411730793784,0.8313739182476203,-0.14828116240303904
9.21089768409729,0.8263411730793784,0.83135264506035,-0.12116333591855981
9.219009399414062,0.8263411730793784,0.8313325757985276,-0.10052198321667494
9.22922945022583,0.8263411730793784,0.8313135576061468,-0.08468164828754346
9.237433433532715,0.8261457743626417,0.8312954495356001,-0.07238072493832312
9.24689531326294,0.8261457743626417,0.8312781779367083,-0.06268809885492567
9.2600257396698,0.8261457743626417,0.831261656179039,-0.05492468626070961
9.27135682106018,0.8261457743626417,0.83124576403432,-0.04859843256778326
9.278975486755371,0.8261457743626417,0.8312304368461592,-0.043353751051913844
9.286880016326904,0.8261457743626417,0.8312156606853913,-0.03893358025244973
9.295947074890137,0.8261457743626417,0.8312014226187554,-0.03515153139253656
9.307575941085815,0.8261457743626417,0.8311876858211068,0.24416663097484892
9.31487774848938,0.8259503756459051,0.8311743775252861,0.2801686117914587
9.323925018310547,0.8259503756459051,0.8311614536163413,0.22762038245206487
9.332444429397583,0.8259503756459051,0.8311489167864842,0.1538117044274977
9.339985370635986,0.8259503756459051,0.8311367469247758,0.0853350702978426
9.35189962387085,0.8259503756459051,0.8311249033531368,0.030561893943409853
9.362534284591675,0.8257549769291685,0.831113357097227,-0.009758608227380354
9.376225471496582,0.8259503756459051,0.8311020709238357,-0.31368571027853975
9.38784646987915,0.8257549769291685,0.8310909956930104,-0.36494539989943436
9.396956443786621,0.8257549769291685,0.8310801079649969,-0.3207274968910206
9.406730890274048,0.8257549769291685,0.8310694057578373,-0.2503184806648758
9.414869546890259,0.8257549769291685,0.8310589015932572,-0.18184981729761052
9.422898292541504,0.8257549769291685,0.831048623763423,-0.12483279578311371
9.433976173400879,0.8257549769291685,0.8310385812932284,-0.08083844348356525
9.44261360168457,0.8257549769291685,0.8310287704650524,0.22761210339233956
9.449909687042236,0.8255595782124316,0.8310191942069997,0.28384223609602005
9.45796537399292,0.8255595782124316,0.8310098610291704,0.24476756338939254
9.46731448173523,0.8255595782124316,0.8310007869473461,0.17949172039423278
9.475969076156616,0.8255595782124316,0.8309919817626926,0.11602761009051495
9.487226486206055,0.8253641794956951,0.8309834527895812,0.06381272735006127
9.497872114181519,0.8255595782124316,0.830975217692006,0.024375170877464585
9.511104822158813,0.8255595782124316,0.8309673117299246,-0.27978581253629936
9.519874811172485,0.8253641794956951,0.830959785937718,-0.3320013631473876
9.529935836791992,0.8253641794956951,0.8309527013257171,-0.28918551342213883
9.539012908935547,0.8253641794956951,0.8309461437301945,-0.22043433807532106
9.551265716552734,0.8253641794956951,0.8309402520715536,-0.1537494991373496
9.559264183044434,0.8253641794956951,0.8309351815289532,-0.09855514593159306
9.571966171264648,0.8251687807789585,0.8309310912990101,-0.05636499448952459
9.58369517326355,0.8251687807789585,0.8309282546462512,-0.025701944855481912
9.59518313407898,0.8251687807789585,0.8309270030097984,-0.004268178095826311
9.604996919631958,0.8251687807789585,0.8309275254856059,0.01017256203109226
9.613607406616211,0.8251687807789585,0.83092991421494,0.019495736213781957
9.625899076461792,0.8251687807789585,0.8309344165552607,0.02516570223315339
9.635172605514526,0.8251687807789585,0.8309414139016291,0.028280053253457862
9.645917177200317,0.8249733820622217,0.8309511920178849,0.029640408911163568
9.654868364334106,0.8249733820622217,0.8309638387838931,0.029821825580214123
9.663879156112671,0.8249733820622217,0.830979334986769,0.029231292820835975
9.674720525741577,0.8247779833454851,0.8309978735870023,0.028153618055935387
9.683876276016235,0.8249733820622217,0.8310197082613321,0.026785998353916627
9.691957712173462,0.8249733820622217,0.8310448193402069,0.025263432145281962
9.704987287521362,0.8247779833454851,0.8310732917509277,0.023677099555414707
9.713868141174316,0.8247779833454851,0.8311052840669261,0.022087512188200133
9.723496675491333,0.8245825846287484,0.8311406614444793,0.020533848236191612
9.731553792953491,0.8245825846287484,0.8311792748817849,0.019040541595927784
9.744154930114746,0.8245825846287484,0.8312211998729576,0.017621911772543995
9.755571126937866,0.8245825846287484,0.8312665735675349,0.01628540460936808
9.762830972671509,0.8245825846287484,0.8313152199907242,0.015033852448469925
9.772862911224365,0.8245825846287484,0.8313668178279094,0.013867044479494276
9.785870552062988,0.8243871859120117,0.8314212740991866,0.01278281312066916
9.794837713241577,0.8243871859120117,0.8314783438132705,0.011777781631041524
9.804828405380249,0.8243871859120117,0.8315375510143237,0.010847875102752454
9.812858819961548,0.8243871859120117,0.8315985633917039,0.009988666551155965
9.822192668914795,0.8243871859120117,0.8316611693936289,0.009195608374243953
9.833131551742554,0.8241917871952751,0.8317251586678392,0.008464184371102457
9.843951225280762,0.8241917871952751,0.8317903267248286,0.007790006920058776
9.852859020233154,0.8241917871952751,0.8318564811217628,0.007168876491448211
9.861761569976807,0.8241917871952751,0.8319234525199336,0.006596815467599843
9.871586561203003,0.8241917871952751,0.8319910994893557,0.006070084601005464
9.880868196487427,0.8239963884785384,0.8320593050678915,0.0055851878944867496
9.89156460762024,0.8239963884785384,0.8321279733414878,0.00513886990701784
9.90199327468872,0.8239963884785384,0.8321970202954954,0.004728108245817252
9.91220498085022,0.8239963884785384,0.8322663630284439,0.004350103138353729
9.922866821289062,0.8238009897618018,0.8323358974898709,0.00400226537395173
9.93168592453003,0.8238009897618018,0.832405456378033,0.0036822034847638525
9.939862251281738,0.8238009897618018,0.8324747168310354,0.0033877107445238405
9.949361801147461,0.823605591045065,0.8325432210923447,0.0031167523619557084
9.961719989776611,0.823605591045065,0.8326105295077217,0.002867453106903515
9.972941160202026,0.8234101923283283,0.8326761645506139,-0.2734002741665932
9.981843709945679,0.8234101923283283,0.8327395421650625,-0.30673590411138496
9.990833282470703,0.8234101923283283,0.832800051755463,-0.2518327981774858
9.99897050857544,0.8232147936115918,0.8328570515919125,-0.17592641583995985
10.007895231246948,0.8230193948948551,0.8329098543250546,-0.38160643383319626
10.017866611480713,0.8228239961781183,0.8329577377198907,-0.35826043242954486
10.029763221740723,0.822433198744645,0.8329999159636273,-0.5373430275363169
10.042195558547974,0.8220424013111718,0.8330352618048203,-0.7411338213187204
10.054391622543335,0.8216516038776983,0.8330618694565273,-0.9052667984001969
10.063067197799683,0.8214562051609617,0.833077827014299,-1.014581491277693
10.073166608810425,0.8210654077274883,0.8330818438603804,-1.0732999270994492
10.082828283309937,0.820674610294015,0.8330721092088764,-1.0916902662179329
10.09157419204712,0.8202838128605418,0.8330458553537227,-0.8044621508921517
10.0988450050354,0.820088414143805,0.8330007218341636,-0.739783049015192
10.111175298690796,0.819502217993595,0.8329335523912926,-0.47413800255850963
10.11889123916626,0.8193068192768583,0.8328398102911104,-0.18856482474322744
10.131699800491333,0.818916021843385,0.8327142887550382,-0.22460927419714485
10.139858961105347,0.8185252244099116,0.8325493317882359,-0.07863248326644635
10.147930383682251,0.8183298256931749,0.8323392180631658,0.0991631465904575
10.1576669216156,0.8179390282597016,0.8320815575252434,0.2522333151497089
10.16888689994812,0.8173528321094915,0.8317713361737398,0.36523175336305425
10.18062949180603,0.8169620346760184,0.8313982783512021,0.16343625042544846
10.19185471534729,0.8165712372425449,0.8309494779933075,0.17269536866895552
10.205035209655762,0.8161804398090716,0.8304121131798919,0.2460824980424908
10.213243007659912,0.8157896423755981,0.8297773312069122,0.32322230244241146
10.224814891815186,0.815398844942125,0.8290401872481133,0.6590735974142173
10.23418927192688,0.8150080475086516,0.8281961328494539,0.7304710034578712
10.242435216903687,0.814812648791915,0.8272453513754796,0.694383098076873
10.249839305877686,0.8146172500751782,0.8261922067096653,0.622209027262604
10.257853031158447,0.814226452641705,0.8250409144924749,0.5446617763063852
10.270796537399292,0.8136402564914949,0.8237863361764972,0.47358239771045585
10.284324169158936,0.8132494590580216,0.8224104489062287,0.13636940749656162
10.295424461364746,0.8126632629078115,0.8208977713888107,0.051933789271048386
10.302912712097168,0.8122724654743383,0.8192500347355665,0.06431204681738927
10.31685733795166,0.8118816680408648,0.817474210869522,0.10474075886665013
10.329384803771973,0.8112954718906548,0.8155668699686915,-0.13077498680858135
10.337387084960938,0.8107092757404448,0.8135260219683244,-0.13278919667242634
10.344817399978638,0.8105138770237083,0.8113614805131395,-0.05763974177080666
10.352803707122803,0.8101230795902348,0.8090879773682647,-0.24726866602344197
10.36285400390625,0.8095368834400247,0.8067134418223977,-0.2071211490847905
10.373234272003174,0.8089506872898149,0.8042398939119372,-0.3741665521905495
10.38180136680603,0.8083644911396048,0.8016697212813555,-0.295661090655546
10.391564130783081,0.8077782949893948,0.799005626450155,-0.4254947149886858
10.401346921920776,0.8073874975559214,0.7962505742796775,-0.5926391997682008
10.40892481803894,0.8068013014057114,0.793407733919274,-0.7329286591061279
10.420990943908691,0.8058243078220281,0.7904804340162062,-0.829120659068382
10.43003511428833,0.8048473142383447,0.7874781340983219,-1.1589257088887024
10.441826343536377,0.8034795232211881,0.7844093700503232,-1.763422452469472
10.455980062484741,0.8013301373370847,0.781263640554075,-2.596392830409804
10.46500039100647,0.8001577450366647,0.7780326339135164,-3.3135106328403547
10.477155208587646,0.7980083591525613,0.7747220074670174,-3.8173093959008417
10.485836505889893,0.7960543719851946,0.7713371012973443,-4.662966669909246
10.494839429855347,0.794100384817828,0.7678892613707647,-4.849995182984998
10.502798795700073,0.7919509989337246,0.7643883339569763,-4.731209875360233
10.511838436126709,0.7898016130496212,0.7608429797774428,-5.0
10.521730661392212,0.786870632298571,0.7572604073792294,-5.0
10.533201217651367,0.7835488541140476,0.7536333803687469,-5.0
10.543904066085815,0.7804224746462608,0.749948656941471,-5.0
10.55592942237854,0.7765145003115275,0.7461944581771016,-5.0
10.567811012268066,0.7722157285433208,0.7423675122457335,-5.0
10.581039190292358,0.767330760624904,0.7384646168468827,-5.0
10.594099044799805,0.762641191423224,0.734468355204208,-5.0
10.603183507919312,0.7587332170884905,0.730371428401969,-4.93556941174175
10.611859798431396,0.7548252427537571,0.7261902442142372,-4.567421774581073
10.622744083404541,0.7501356735520771,0.7219390876954693,-4.1166162374393975
10.631473779678345,0.7466184966508169,0.7176229253315644,-2.847333434675448
10.63886022567749,0.7432967184662935,0.7132540790770154,-1.5214966836901713
10.651237726211548,0.7380209531144034,0.7088433074351976,-0.9631773032178771
10.658915042877197,0.7346991749298801,0.704392300262429,0.08159400833413483
10.667449474334717,0.7305958018784101,0.6999105736475434,1.3595555240776018
10.677857398986816,0.7261016313934666,0.6954063484721839,2.4534769312905422
10.688899040222168,0.7212166634750498,0.6908789393935694,3.250850633010687
10.698824882507324,0.7171132904235799,0.6863279226047004,3.762224762639207
10.707899570465088,0.7135961135223197,0.6817530785631392,4.315237607951831
10.717894315719604,0.7096881391875862,0.6771464393825287,4.724802827809873
10.727821588516235,0.7051939687026428,0.6725014944012964,4.953662886564848
10.737894535064697,0.7008951969344361,0.6678288532366297,5.0
10.748105525970459,0.6965964251662294,0.663137607672177,4.9534424720702
10.758100032806396,0.6922976533980226,0.6584194146168573,5.0
10.765811681747437,0.6889758752134992,0.6536672211705213,4.8752348845502205
10.774805068969727,0.6850679008787659,0.6488993944084774,4.60342950686387
10.783848524093628,0.6809645278272958,0.6441394248665142,4.28067903241536
10.791831254959106,0.6776427496427724,0.6393987254698736,3.951478678565599
10.803759098052979,0.6723669842908824,0.6346780425375182,3.6353317866374097
10.813795566558838,0.6678728138059389,0.6299521536689077,3.3398320374746193
10.82581639289856,0.6631832446042588,0.6251906126496786,3.0670476361734824
10.836731433868408,0.6586890741193153,0.6203840616218715,2.816602041496977
10.84687614440918,0.6543903023511087,0.6155329617345998,2.5871349810441884
10.856919527053833,0.6498961318661652,0.6106377121495082,2.3769761303249695
10.866790533065796,0.6455973600979584,0.6056986847445284,2.1844409912126252
10.8776535987854,0.641103189613015,0.6007163088295747,2.007949071774558
10.886793613433838,0.6368044178448083,0.5957000388653807,1.846061144903454
10.898853063583374,0.6317240512096549,0.5906580324305438,1.6974816760056797
10.910580396652222,0.6268390832912382,0.585579525203552,1.5610478495538065
10.923282146453857,0.6213679192226114,0.5804467189997269,1.4357147728006434
10.933033466339111,0.6172645461711412,0.5752449944824656,1.3205408447600022
10.943162202835083,0.612770375686198,0.5699716370008457,1.214674718795421
10.955591917037964,0.6076900090510444,0.5646249466709106,1.1173441724070972
10.96480417251587,0.6037820347163111,0.5592041854168434,1.0278467563871607
10.974640846252441,0.5998740603815778,0.5537275091119304,0.9455419563129969
10.988006353378296,0.5940120988794776,0.5481921459815122,0.8698445871117109
10.99786925315857,0.5897133271112708,0.5425777299643668,0.8002191757543617
11.005789756774902,0.586000751493274,0.5369044939231348,0.7361751328716506
11.018067598342896,0.5809203848581206,0.5311988771685388,0.6772625571910285
11.029833793640137,0.5758400182229672,0.5254455485364418,0.3470301929637687
11.040627002716064,0.5713458477380239,0.5196219383983923,0.2640510033908086
11.050668716430664,0.5670470759698171,0.5137377308012085,0.5493231297134586
11.062516927719116,0.561771310617927,0.5078108333261093,0.34030187883916707
11.070858478546143,0.5580587349999302,0.5018370043786627,0.28378693530623633
11.082835674285889,0.5533691657982501,0.49580298376780385,0.2837114187848252
11.095811367034912,0.5475072042961501,0.48969794750279083,0.29841920887480367
11.104788064956665,0.5437946286781532,0.4835331426840783,0.3115117130700026
11.11478066444397,0.5396912556266832,0.4773384419716286,0.04182001917438495
11.12378215789795,0.5359786800086865,0.4711296780746744,0.007849754782369246
11.136771440505981,0.530312117223323,0.4649009615212951,0.0561419438676342
11.147462844848633,0.5254271493049063,0.4586382087279609,0.12107342371993501
11.157190322875977,0.5213237762534362,0.4523403740529089,0.17757289294264852
11.164769411087036,0.5181973967856495,0.4460176058835087,0.218491480875057
11.175115823745728,0.5137032263007061,0.4396796893986391,0.24399659555426925
11.184759140014648,0.5097952519659726,0.4333452786478966,0.2567646409103041
11.19275188446045,0.5064734737814492,0.4270402400061338,0.25992424563565575
11.204462766647339,0.5011977084295592,0.42076873697462075,0.5323088763111623
11.215350151062012,0.49650813922787906,0.41451689063467095,0.5572048193199555
11.226090431213379,0.4920139687429357,0.40828322261987765,0.21495435821772052
11.234756231307983,0.4884967918416756,0.4020851130341981,0.09296924998133926
11.245771408081055,0.48400262135673217,0.3959382969878659,0.34000948461154257
11.25792908668518,0.47853145728810537,0.3898322259809262,0.3788197615710625
11.266254425048828,0.47520967910358203,0.38375893286486934,0.0626218427207178
11.275795698165894,0.4709109073353753,0.37774461211509863,-0.03252421303281332
11.28392505645752,0.46758912915085193,0.3718195582650665,-0.03802352771956929
11.292250394821167,0.4638765535328551,0.36599369717950603,-0.013155439659731639
11.30284309387207,0.45938238304791174,0.3602676858040155,0.01692388062914993
11.314159393310547,0.4548882125629683,0.35464212942682044,0.0427630602732731
11.322450399398804,0.4515664343784449,0.3491175616389417,0.061814313774091356
11.32974648475647,0.4486354536273949,0.3437011894890798,0.07431834512640412
11.33776044845581,0.4453136754428715,0.33840561764012395,0.35748494452702506
11.346545696258545,0.4412103023914014,0.3332342240973653,0.39367505794013913
11.356775522232056,0.43691153062319465,0.3281827026787597,0.33873852062155263
11.366872072219849,0.43261275885498784,0.32324721170658804,0.2608322816103547
11.377299785614014,0.4283139870867812,0.3184243623066414,0.18720199668697923
11.387794733047485,0.42381981660183776,0.31371120284071485,-0.1493464605236562
11.401096820831299,0.4179578550997376,0.3090995914249805,-0.22877984513583494
11.409836292266846,0.4140498807650042,0.30458262008148357,0.0684538845254164
11.423288583755493,0.40838331797964084,0.30016042847892843,0.15364021005409967
11.431275367736816,0.4050615397951174,0.2958281308438037,0.15251818708090037
11.440727472305298,0.401153565460384,0.2915816543366001,0.12198784201006863
11.448813676834106,0.3980271859925973,0.2874278249825983,0.08632492868319308
11.462023258209229,0.3923606232072338,0.28337241707150834,0.05474938276570619
11.47269344329834,0.3878664527222904,0.2794106653029507,0.029832330285219765
11.484580278396606,0.38278608608713705,0.27553419432018567,0.01143556469931725
11.495797872543335,0.3780965168854569,0.27173657504490123,-0.0015035098216261604
11.50485634803772,0.37399314383398685,0.26802103064808375,-0.01020874154279406
11.513914585113525,0.3700851694992534,0.2643947502673,-0.015774176956958742
11.522625207901001,0.36656799259799333,0.26085946766514334,-0.019081875107980345
11.532002449035645,0.3624646195465233,0.2574201068374456,-0.02080513671034328
11.544263124465942,0.3573842529113699,0.25408059537589983,-0.021441128399085033
11.552281379699707,0.3540624747268465,0.2508401038745163,-0.021348887213994167
11.560774326324463,0.3503498991088497,0.24770093605918442,-0.020783494222121834
11.57214093208313,0.34566032990716966,0.24466463088396626,-0.019923769086259493
11.581742525100708,0.34155695685569953,0.2417253707466488,0.2571448281319919
11.592551231384277,0.33706278637075615,0.2388778006588598,0.2913855510729212
11.603529214859009,0.33237321716907614,0.2361203174210097,0.23743333452491452
11.613557577133179,0.328269844117606,0.2334511249076094,0.16248471259130604
11.623791933059692,0.3239710723493993,0.23086822051668435,0.09306566973977719
11.63529109954834,0.3190861044309825,0.22836676216144128,0.03749998145763769
11.646705627441406,0.3143965352293024,0.22593963486800142,-0.003497445657040351
11.656707286834717,0.3100977634610957,0.22358323652239634,-0.03197241217617566
11.667017936706543,0.30560359297615225,0.2212968614674535,-0.05062123379874985
11.677761554718018,0.3011094224912088,0.21907952160032754,-0.061955305850760534
11.68979287147522,0.29583365713931875,0.21692766578260134,-0.06803709118097861
11.701799392700195,0.2907532905041653,0.2148356408112854,-0.07045565587977962
11.712770938873291,0.2862591200192219,0.21280074566846735,-0.0703896683720448
11.7208411693573,0.2827419431179618,0.21082490627914202,-0.06869151665979717
11.733365058898926,0.27746617776607174,0.20890938521721786,-0.0659661586990193
11.741515159606934,0.27394900086481166,0.207050522168981,0.21340209524414575
11.750827074050903,0.2700410265300783,0.20524486251820323,0.250170208622925
11.761808633804321,0.26554685604513484,0.2034913129482981,-0.07720526698409425
11.769782781600952,0.26222507786061144,0.20179055996790513,-0.1826688149967712
11.780046224594116,0.25792630609240474,0.20014286220984723,0.08159173725693296
11.787775039672852,0.25460452790788135,0.19854606028690067,0.13767648434252172
11.801915645599365,0.24854716768904456,0.19699801013314489,0.11442040240556854
11.812743425369263,0.24405299720410112,0.1954948614891287,0.06866218426248111
11.824548721313477,0.23877723185221103,0.1940313346547319,0.023528393497105428
11.836270093917847,0.23350146650032094,0.19260285784230308,-0.013111252129151114
11.844851016998291,0.23017968831579752,0.19120884728769058,-0.039896915326162734
11.85282564163208,0.22685791013127415,0.18985204249037813,-0.05794155718960456
11.862165451049805,0.22314533451327742,0.1885328495561434,-0.06904780954323117
11.872151374816895,0.21884656274507067,0.18724971878789462,-0.07498113881302275
11.879845380783081,0.2155247845605473,0.18600114157090483,-0.07722168062282936
11.889653444290161,0.21122601279234052,0.1847871563682689,-0.07692078175919362
11.903966426849365,0.2055594500069771,0.18360619859018254,-0.07493566040165656
11.913345575332642,0.2016514756722437,0.18245382850313407,-0.07188616453419217
11.922229290008545,0.19793890005424694,0.18132905376910713,-0.06821071031499906
11.930845022201538,0.19442172315298686,0.1802337805484746,-0.06421350528432608
11.938788175582886,0.1909045462517268,0.17916941180369092,-0.06010160338486912
11.948952436447144,0.18621497705004675,0.17813556765858338,-0.056012811213825515
11.960834264755249,0.18152540784836665,0.1771291316726495,-0.05203617715334334
11.968728065490723,0.1780082309471066,0.17614739864430434,-0.04822678435010341
11.978235244750977,0.17429565532910984,0.17519052408160204,-0.04461630645212318
11.987726211547852,0.1705830797111131,0.17425854205957267,0.23481788540192236
11.998732805252075,0.16647970665964307,0.17335014210981536,0.5471570020726859
12.00675916671753,0.163548725908593,0.17246527154729724,1.0802195480207917
12.021764278411865,0.15846835927343958,0.17160270737845978,2.122187239247235
12.03194284439087,0.15514658108891616,0.17075800691274653,2.828543919370559
12.042726755142212,0.1516294041876561,0.16992852691669455,3.5347219173414164
12.054314851760864,0.14811222728639603,0.16911328144477447,4.0642518970367165
12.063436031341553,0.14518124653534598,0.16831144556558653,4.111481136262089
12.071751356124878,0.14283646193450597,0.1675252938212354,4.221136567646695
12.083063125610352,0.1399054811834559,0.1667567046336741,4.279405062131917
12.091128587722778,0.1379514940160892,0.16600518148306764,4.25870308823773
12.099371910095215,0.1359975068487225,0.1652711401350856,3.8893632018277104
12.10785460472107,0.1338481209646191,0.16455576615539821,3.7073024872621647
12.122491121292114,0.13052634278009573,0.1638581309836202,4.127726291308258
12.132968187332153,0.12837695689599235,0.16317465834493808,4.33669851240421
12.142236232757568,0.126813767162099,0.16250319115686895,4.109799859954409
12.150726079940796,0.1252505774282056,0.16184369112923522,4.01238229154765
12.162724733352661,0.12349198897757559,0.16119526675684848,4.479095102058752
12.174670219421387,0.12192879924368223,0.1605563208611184,4.432956600002203
12.184826374053955,0.12075640694326222,0.1599271174252427,4.177250811489664
12.198938131332397,0.11977941335957885,0.1593086969396956,4.956674885532481
12.209984302520752,0.11899781849263219,0.15870030999533796,5.0
12.219699382781982,0.11841162234242215,0.15810127491935694,4.516665656268584
12.230276107788086,0.1182162236256855,0.1575117874314024,3.8796615892405084
12.239725589752197,0.11782542619221216,0.1569319857306338,3.5436890646539965
12.248727083206177,0.11782542619221216,0.15636195454367016,2.7738824882719437
12.256743907928467,0.11782542619221216,0.15580173411457768,1.9773580068650343
12.268550395965576,0.11782542619221216,0.15525131940729556,1.851918434782411
12.278742790222168,0.11782542619221216,0.15471066016252513,1.1160636219444873
12.287783861160278,0.11782542619221216,0.15417966669538374,0.5861131122379025
12.298715829849243,0.11782542619221216,0.15365757621588258,-0.059917332041683535
12.310722589492798,0.11782542619221216,0.15314307138490774,-0.8958990825348412
12.321513414382935,0.11802082490894884,0.1526357024241832,-1.6234578320446313
12.330785512924194,0.11802082490894884,0.15213639778609983,-2.7104634382037656
12.342528104782104,0.11782542619221216,0.1516459572466869,-3.674154305775299
12.354009628295898,0.11782542619221216,0.1511638028621238,-4.370946711013711
12.362640142440796,0.11782542619221216,0.1506894179888328,-4.79695589385341
12.372323036193848,0.11782542619221216,0.1502229827386737,-4.9972676636149425
12.37973427772522,0.11782542619221216,0.1497646862458763,-5.0
12.392743825912476,0.11802082490894884,0.14931471288293469,-4.922135652323193
12.4022958278656,0.11802082490894884,0.14887323187230003,-4.756738069322349
12.409723997116089,0.11802082490894884,0.14844091785698887,-4.537499468485471
12.4207124710083,0.11782542619221216,0.14801835458095744,-4.288129400442563
12.43171215057373,0.11802082490894884,0.14760502574853776,-4.024979760082161
12.44355058670044,0.11802082490894884,0.14720005044382659,-3.7590917719830124
12.453458309173584,0.11802082490894884,0.1468032125271989,-3.4977316523870363
12.46286416053772,0.11802082490894884,0.14641526962540763,-3.245515149343664
12.471385717391968,0.11802082490894884,0.14603688574378645,-3.0052178446163507
12.479839086532593,0.11802082490894884,0.14566816577037434,-2.7783523955095992
12.488896369934082,0.11802082490894884,0.14530956526110678,-2.56557621049684
12.498678207397461,0.11802082490894884,0.14496183673308322,-2.366977329148809
12.509849786758423,0.11802082490894884,0.14462485447165105,-2.1822735990871562
12.518107414245605,0.11802082490894884,0.1442981011609711,-2.0109505332623887
12.526691436767578,0.11802082490894884,0.14398214033102982,-1.8523560174294567
12.535995960235596,0.11802082490894884,0.14367742309184722,-1.705764780492999
12.544832706451416,0.11802082490894884,0.1433836056787293,-1.5704217570132126
12.555663585662842,0.11802082490894884,0.1431003566629352,-1.4455707716434785
12.567702293395996,0.1182162236256855,0.14282680561806088,-1.330473060505709
12.577703475952148,0.1182162236256855,0.14255378904975124,-1.224418792060738
12.587203025817871,0.1182162236256855,0.1422525386427088,-1.1267337976626655
12.59581184387207,0.11841162234242215,0.14189585702848856,-0.7607446931926941
12.607689142227173,0.11841162234242215,0.14148464963421337,-0.6448090184892354
12.61672568321228,0.11841162234242215,0.14103156331733457,-0.6236806181423797
12.625733852386475,0.11860702105915884,0.14054567262764842,-0.35357202910786223
12.635627746582031,0.11880241977589551,0.14003205010861092,-0.32640794656186284
12.644812107086182,0.11899781849263219,0.13949238939894154,-0.10267791575148391
12.656547546386719,0.11919321720936885,0.13892882158172404,-0.13296858014360946
12.664693355560303,0.11919321720936885,0.13834403866890183,-0.237703059194716
12.677839040756226,0.1195840146428422,0.13774113353877543,-0.0676180991572843
12.68639588356018,0.11977941335957885,0.13712268000516614,-0.11658436462925018
12.696634292602539,0.11997481207631551,0.13649155168978885,0.05065583777866413
12.707667827606201,0.12017021079305219,0.1358517333848114,-0.020907345345628263
12.716702699661255,0.12036560950978886,0.13520713544187582,-0.15551732567352958
12.725722312927246,0.12056100822652555,0.1345621412416025,-0.006947910851926878
12.738810300827026,0.12056100822652555,0.13392085379340138,-0.0713779043567471
12.751895904541016,0.12095180565999888,0.13328534414693277,-0.19129547372447964
12.762758731842041,0.12114720437673555,0.13265715881830237,-0.30400015865550456
12.771667957305908,0.12153800181020889,0.13203901713209004,-0.11328204307846945
12.78218960762024,0.12153800181020889,0.13143394935778138,-0.13577720285921577
12.79128384590149,0.12173340052694555,0.1308446424162174,-0.22102363051251278
12.798685550689697,0.12192879924368223,0.13027373908131284,-0.3076268616004978
12.807395219802856,0.1221241979604189,0.1297237818447011,-0.3745208471485282
12.814714670181274,0.12231959667715558,0.12919680774604173,-0.6939027078914632
12.824835538864136,0.12231959667715558,0.12869439365715393,-0.7495379187326231
12.83573603630066,0.12231959667715558,0.12821723799981924,-0.9767199228994805
12.84877347946167,0.12231959667715558,0.12776515971844235,-1.204254774650717
12.857589721679688,0.1221241979604189,0.12733818447182643,-1.3742205641955794
12.86700701713562,0.12231959667715558,0.12693680624209275,-1.47686496892612
12.876328945159912,0.12231959667715558,0.12656129645892406,-1.5206070712205313
12.88469934463501,0.12231959667715558,0.1262116668626377,-1.2427859881612422
12.892768621444702,0.12231959667715558,0.12588784103844247,-1.1753324930200746
12.902279615402222,0.12231959667715558,0.12558942981810242,-0.8982911756704408
12.91572904586792,0.1221241979604189,0.1253157723385384,-0.5956209357580662
12.925926446914673,0.12231959667715558,0.12506612079660537,-0.3350580771347442
12.9358069896698,0.1221241979604189,0.12483974998778098,-0.13354004149931092
12.946765899658203,0.12231959667715558,0.12463593442610811,0.012279614861281471
12.958826065063477,0.1221241979604189,0.12445388025790481,0.11231130300852679
12.968828916549683,0.1221241979604189,0.12429273941467815,0.17724550900699604
12.978698253631592,0.1221241979604189,0.12415161325937185,0.21641388050576638
12.986705303192139,0.1221241979604189,0.12402955516667044,0.23724669614479776
12.998769044876099,0.12231959667715558,0.12392560544299928,0.24537026747184
13.0097017288208,0.12231959667715558,0.12383879465224884,0.24491354036862104
13.020725011825562,0.12231959667715558,0.12376812691298222,0.23884177283604657
13.028979539871216,0.1221241979604189,0.12371258636100022,0.22924949684237603
13.037652730941772,0.1221241979604189,0.12367114902625816,0.21759515560092202
13.051515579223633,0.1221241979604189,0.1236428991270505,0.20488001231834616
13.064883947372437,0.12231959667715558,0.12362711961783145,0.19178060785439874
13.073441982269287,0.1221241979604189,0.12362298778778169,0.17874499084394674
13.082692623138428,0.12231959667715558,0.12362942818262576,0.16606174073537847
13.092216491699219,0.1221241979604189,0.1236454315759693,0.15390902940102097
13.101459980010986,0.12231959667715558,0.1236701235734457,0.14238925835267427
13.111805438995361,0.12231959667715558,0.12370267484930603,0.13155337947537715
13.121712446212769,0.12231959667715558,0.12374232341646606,0.12141789031014004
13.132678508758545,0.1221241979604189,0.12378837620283026,0.11197665488985933
13.142175674438477,0.12231959667715558,0.12384023050831425,0.10320908404663004
13.149652481079102,0.12231959667715558,0.12389740432275602,0.09508576264886487
13.157742738723755,0.12231959667715558,0.12395939173569016,0.08757229148632839
13.16681694984436,0.1221241979604189,0.12402566951156103,0.08063188412258138
13.175699710845947,0.12231959667715558,0.12409603528197115,0.07422709809168564
13.186654090881348,0.12231959667715558,0.12417063739575836,0.06832096629873788
13.196212768554688,0.1221241979604189,0.12424982815975405,0.06287771461548472
13.203670978546143,0.12231959667715558,0.1243338108283513,0.05786319557198538
13.212185144424438,0.1221241979604189,0.12442264183203271,0.053245128709887846
13.219647407531738,0.1221241979604189,0.12451651851947881,0.0489932106094816
13.228636503219604,0.1221241979604189,0.1246157968349334,0.04507913832210349
13.23749828338623,0.12231959667715558,0.12472148163807442,0.04147657646125684
13.250699043273926,0.1221241979604189,0.12483578514312,0.038161088793779184
13.259634733200073,0.12231959667715558,0.12496096182663848,0.035110048607861724
13.26763105392456,0.12231959667715558,0.12509811120281247,0.03230253756303663
13.277474641799927,0.1221241979604189,0.1252485993848254,0.029719239549403628
13.290868759155273,0.12231959667715558,0.12541552560517313,0.027342333879811914
13.299641609191895,0.1221241979604189,0.1256019163052865,0.025155390615666177
13.311637878417969,0.12231959667715558,0.12581001406024706,0.023143269778873737
13.320651054382324,0.12231959667715558,0.12604213273589937,0.02129202548533312
13.330832242965698,0.12231959667715558,0.12630062577574772,0.019588815548668315
13.339714288711548,0.12231959667715558,0.12658788198623816,0.01802181677629978
13.351773262023926,0.12231959667715558,0.12690633357922823,0.016580145964269127
13.361711025238037,0.12231959667715558,0.12725998425614668,0.015253786458181848
13.371514320373535,0.12231959667715558,0.1276525736268575,0.014033520061266694
13.382665872573853,0.12231959667715558,0.1280861977688703,0.01291086402018371
13.391692399978638,0.1221241979604189,0.12856292426658716,0.011878012793242205
13.40428638458252,0.1221241979604189,0.12908683458335368,0.01092778429605425
13.413630723953247,0.12231959667715558,0.12966161121463668,0.010053570320759975
13.424710750579834,0.12231959667715558,0.13028870778529475,0.009249290832972296
13.433927536010742,0.12231959667715558,0.13096949969741448,0.008509351862845706
13.446627140045166,0.1221241979604189,0.131705293974468,0.007828606721375902
13.456658124923706,0.1221241979604189,0.13249989479559202,0.007202320288956319
13.466615915298462,0.12231959667715558,0.13335659309165337,0.006626136139543163
13.476027011871338,0.12231959667715558,0.13427583275325927,0.006096046279972071
13.486660957336426,0.12231959667715558,0.13525797929420622,0.005608363299688949
13.49734878540039,0.12251499539389225,0.13630334700044613,0.005159694741194085
13.505727052688599,0.12251499539389225,0.13741221174211138,0.004746919515734742
13.516858100891113,0.12271039411062891,0.13858476941381123,0.2804055258808422
13.527696371078491,0.12290579282736558,0.13982115539330733,0.3131807559194907
13.53733515739441,0.12310119154410225,0.1411214833523555,0.5338004356813234
13.54749345779419,0.12349198897757559,0.1424858322225671,0.7665826838710974
13.557063817977905,0.12388278641104894,0.14391424585408094,1.2258920194108387
13.569091558456421,0.12407818512778561,0.14540673747642507,1.3801252394131076
13.58095121383667,0.12485977999473229,0.1469670822417994,1.6662964952176043
13.59304666519165,0.1254459761449423,0.14860622470280238,1.6445453423262704
13.604757308959961,0.12622757101188897,0.1503335987684608,1.7840797084549984
13.61500859260559,0.12700916587883565,0.15214515096439654,1.9276275256422677
13.626620769500732,0.127986159462519,0.15403321701103034,2.0220620584971014
13.637547969818115,0.1287677543294657,0.15599934120061054,2.334513167531184
13.646644115447998,0.12974474791314905,0.15804453673873306,2.353747385689454
13.659052848815918,0.13091714021356907,0.16016970828421992,2.2466662949073726
13.66843581199646,0.1318941337972524,0.16237527520809208,2.368335446034884
13.677916526794434,0.13345732353114578,0.16465211766818907,2.5121250109906335
13.689674615859985,0.13482511454830248,0.1669968841944313,2.6055718317256
13.697624683380127,0.1359975068487225,0.169410990543214,2.3577481712224424
13.707799434661865,0.13756069658261585,0.17188586048270896,2.018828933201548
13.716711282730103,0.13892848759977253,0.17441402926575955,1.966783986924158
13.728699445724487,0.14088247476713922,0.17699879545247535,1.9933996945378114
13.73865556716919,0.14225026578429595,0.17964776774876287,2.016366351923321
13.748043060302734,0.1438134555181893,0.18235698476321663,2.0095979540090263
13.758263349533081,0.14615824011902934,0.1851125923402421,1.9704256884438207
13.770705938339233,0.14869842343660605,0.18791284971065966,1.9046169996910882
13.779383659362793,0.1504570118872361,0.19076637962396248,1.8198796295386868
13.790227174758911,0.1531925939215495,0.19367501051197747,1.7233087687500743
13.798606157302856,0.15514658108891616,0.19662941033848227,2.1726730016588305
13.810644149780273,0.15807756183996624,0.19962136943486594,2.4103386947868675
13.81863284111023,0.16003154900733293,0.2026489693650947,1.9536801927163865
13.827138662338257,0.16257173232490962,0.20570499333502482,1.6128086125514458
13.836652755737305,0.165307314359223,0.2087832335798387,1.6306706777995248
13.847251176834106,0.16843369382700976,0.21188373817330072,1.4650447766611434
13.854721546173096,0.17038768099437648,0.21500100525277255,1.2542241342427003
13.86463212966919,0.1733186617454265,0.21813037888053532,1.3298943772593672
13.873619556427002,0.17624964249647657,0.22127340627520117,1.4674786066858574
13.883264303207397,0.17957142068099996,0.22442587235172967,1.0291716735076453
13.89066743850708,0.18211160399857668,0.22758431506379426,0.752394402871226
13.90239691734314,0.18621497705004675,0.23075142426386097,0.847226991838379
13.915537595748901,0.1910999449684635,0.23393509531204187,1.3095713994706937
13.92620587348938,0.19539871673667025,0.23714755833843032,1.2346175991121227
13.933726072311401,0.198525096204457,0.24038771983629792,0.9860795866592345
13.946707248687744,0.2036054628396104,0.24364884165898726,0.9930750849167759
13.956854343414307,0.20731803845760713,0.24693644310208662,0.7930679682564963
13.966458797454834,0.21122601279234052,0.2502550204031506,0.8309289058177552
13.974628448486328,0.2145477909768639,0.25359666184553165,0.37614191247446654
13.986639499664307,0.2194327588952807,0.25695447533344934,-0.15538188883448453
13.998715162277222,0.22470852424717075,0.2603397483439814,-0.3327224777150149
14.007806301116943,0.2280303024316942,0.2637617736327044,-0.6343670502524245
14.018089771270752,0.23213367548316424,0.26721080753560866,-1.4631893514995542
14.028608560562134,0.23623704853463434,0.2706783584528441,-2.0106900122575677
14.037631034851074,0.24034042158610439,0.2741628581784446,-2.6154900587656527
14.0507230758667,0.24600698437146784,0.2776686351779726,-3.0924426179435285
14.058699131011963,0.24932876255599123,0.28119915330867656,-3.40049798854203
14.068775177001953,0.2534321356074613,0.28474552192788,-3.554831968141654
14.080678462982178,0.25831710352587806,0.2883059304408395,-3.3116478604193844
14.08861231803894,0.26163888171040145,0.29188453210695964,-3.2229664944003105
14.097277164459229,0.2651560586116615,0.29547301588119523,-3.1622088728205107
14.106895208358765,0.2690640329463949,0.2990643487062758,-3.0840401385765412
14.114624977111816,0.2721904124141816,0.30265263113746316,-2.9781086038980265
14.123064756393433,0.2755121905987051,0.3062270729774881,-2.847627135821831
14.132689476013184,0.2792247662167018,0.30978464210535667,-2.6998605424961255
14.143097639083862,0.28352353798490854,0.3133289715071731,-2.5422054650620063
14.153142213821411,0.2876269110363786,0.31686338772614525,-2.3808142948767417
14.160595178604126,0.2907532905041653,0.32039089383612124,-2.2203146536223066
14.171276807785034,0.2952474609891087,0.3239141735182354,-2.0639532406784173
14.179678201675415,0.2985692391736321,0.3274296695536481,-1.9138655668218372
14.191923141479492,0.3038450045255222,0.33093449702120875,-1.7713483081821702
14.202612400054932,0.30833917501046565,0.33443819493064897,-1.6370908226856722
14.213927745819092,0.3132241429288824,0.33795477150345116,-1.511356816513425
14.223263263702393,0.3167413198301425,0.3414899893476534,-1.394120550058161
14.232163667678833,0.32045389544813924,0.3450366217222919,-1.2851659998175624
14.239575624465942,0.32338487619918926,0.34858248600429914,-1.1841575347459297
14.250657320022583,0.32787904668413265,0.3521173042490696,-0.8146510673666989
14.26667308807373,0.3343272043364428,0.35565039524805897,-0.6951570189167962
14.2756028175354,0.33803977995443946,0.3592075687288061,-0.9465673140193086
14.284659147262573,0.3417523555724363,0.3627925818180119,-0.9822436842293238
14.293704509735107,0.345464931190433,0.3663905166822099,-0.6538499363945439
14.303239107131958,0.34937290552516637,0.36999469471243185,-0.5388125830799627
14.310615062713623,0.35210848755947977,0.3736055084597984,-0.5078673349336439
14.319605827331543,0.3558210631774765,0.37721733042366684,-0.7798232934588714
14.328400135040283,0.3595336387954733,0.38081949278297195,-0.5362072095335214
14.337618827819824,0.36324621441346994,0.38440928164015076,-0.44246785704933933
14.34934949874878,0.3681311823318867,0.3879968619486459,-0.4094896747765262
14.362763404846191,0.3736023464005135,0.39160325115860234,-0.39742856784632286
14.374876499176025,0.3786827130356669,0.3952461663600354,-0.3896252266789998
14.383490562438965,0.3820044912201903,0.3989218719851588,-0.38000001818897383
14.397756099700928,0.3878664527222904,0.4026207461302608,-0.6430953174945645
14.407461881637573,0.3917744270570238,0.4063466961903992,-0.6602630099536937
14.419683694839478,0.39665939497544056,0.41010268726601234,-0.5870569953215204
14.430491209030151,0.40076276802691063,0.4138908650282147,-0.7676534655209951
14.438613653182983,0.4038891474946974,0.41771262294074213,-0.710410805233362
14.4496488571167,0.4079925205461675,0.42156240368288983,-0.8549734803993068
14.457590103149414,0.41092350129721755,0.4254349908632017,-1.0267908835350923
14.470691442489624,0.41600386793237093,0.42932548555663513,-0.8863791522002696
14.481541395187378,0.42049803841731437,0.4332352836382937,-0.9375096783718306
14.490646362304688,0.42401521531857445,0.43715901786220746,-1.0293518953472456
14.49859619140625,0.4269461960696245,0.44107963739892275,-1.1045010327921818
14.511597633361816,0.43163576527130454,0.444994329955878,-1.1467426501201472
14.519586324691772,0.4345667460223547,0.4489063768973714,-1.1566012268766954
14.528094053268433,0.43769312549014133,0.4528064521758201,-1.14028012026303
14.537577152252197,0.4412103023914014,0.45668644870006603,-1.1049468044175292
14.547191143035889,0.44492287800939817,0.4605452486286372,-1.0569455255570914
14.556647300720215,0.4484400549106582,0.464376142323831,-0.7252636996039665
14.57170820236206,0.4537158202625483,0.4681790213699989,-0.6325914797015021
14.581479549407959,0.4570375984470717,0.4719706432149759,-0.626896976972263
14.591551780700684,0.46016397791485847,0.47575932577010105,-0.6427684909678917
14.602085590362549,0.46407195224959186,0.4795405722919296,-0.6548554527980872
14.611385107040405,0.4673937304341152,0.48331042512684935,-0.37953064097098926
14.620705604553223,0.4707155086186386,0.48706001699376195,-0.3354549442603447
14.631362199783325,0.47442808423663535,0.4907818654722592,-0.09415202598251393
14.641583442687988,0.4781406598546321,0.4944806186795129,-0.11009803219976128
14.650559663772583,0.4812670393224188,0.4981549599646999,0.07151108514196816
14.66058874130249,0.4847842162236789,0.5017984676682452,0.2813690869531249
14.668566703796387,0.48751979825799224,0.505411296871627,0.18103542049706184
14.677284240722656,0.49045077900904227,0.5089885180555564,0.27374936811840933
14.686777114868164,0.4935771584768291,0.5125262157829148,0.13168564532854443
14.698566436767578,0.4974851328115624,0.5160266786346962,0.2154737519310766
14.708591222763062,0.5010023097128224,0.5194921009523833,0.35348072232034644
14.718482971191406,0.5047148853308193,0.522924567799638,0.47848307380704735
14.731813669204712,0.5092090558157627,0.526331146367129,0.29376733466024657
14.74258303642273,0.5129216314337594,0.5297229825532219,0.31693151243017115
14.752686738967896,0.5164388083350194,0.533104260210352,0.39882865152183256
14.762574195861816,0.5197605865195428,0.5364732312211338,0.7553297635921528
14.77216625213623,0.5228869659873295,0.5398282647776936,0.5713774671476916
14.781607151031494,0.5262087441718529,0.5431678272362729,0.5175319395589022
14.79058837890625,0.5295305223563763,0.5464856010597895,0.5096010585087021
14.798571348190308,0.5324615031074265,0.549771346190231,0.5118463483414383
14.809663772583008,0.5363694774421598,0.5530262262571883,0.5107996039501794
14.818565845489502,0.5393004581932099,0.5562562085575077,0.5027621107256346
14.828282117843628,0.5424268376609965,0.5594567548649563,0.48796757476082464
14.83554720878601,0.5449670209785733,0.5626240898801419,0.19191426229111314
14.846489429473877,0.5486795965965701,0.5657599414749744,0.13528114168728825
14.856132984161377,0.5520013747810935,0.5688659080294164,0.16487824207870472
14.865740060806274,0.5553231529656169,0.5719434826146993,0.21463948565131244
14.8756582736969,0.5584495324334036,0.5749940794408204,0.25886327322158564
14.88674283027649,0.5625529054848736,0.5780190591737043,0.2897951210421592
14.896575212478638,0.5656792849526604,0.5810197437028193,0.3070923717249117
14.906869649887085,0.5695872592873937,0.5839974426441708,0.3130276960389134
14.918846845626831,0.5736906323388637,0.5869534747532186,0.31042043608999703
14.927284479141235,0.5762308156564405,0.5898891756833217,0.3018327981656119
14.934598207473755,0.5789663976907539,0.5928059095396944,0.2893291361607549
14.943547487258911,0.581897378441804,0.5957050775092367,0.2744682605490396
14.955408334732056,0.5858053527765374,0.5985881030579383,-0.017660050283125978
14.965332269668579,0.5893225296777974,0.601456407735411,-0.06731381591612147
14.973567485809326,0.5920581117121109,0.6043068686841048,-0.30468715641241495
14.984582424163818,0.5959660860468443,0.6071371075005565,-0.5537490194434117
14.993559837341309,0.5987016680811577,0.6099499345613058,-0.7526078445213726
15.003558158874512,0.6020234462656809,0.6127434249336444,-0.6124484608007377
15.011523723602295,0.6045636295832577,0.6155162078656047,-0.3824061152242165
15.02195119857788,0.6076900090510444,0.6182719264627295,-0.43857898788566474
15.030332565307617,0.6104255910853578,0.6210138688533656,-0.5709773671594693
15.039577007293701,0.6131611731196712,0.6237449533602611,-0.41987457941580253
15.051605939865112,0.6170691474544047,0.6264677321407158,-0.47719381028948715
15.062556743621826,0.6205863243556646,0.629184460007601,-0.30896959188980555
15.070579767227173,0.6229311089565047,0.6318926006433871,-0.37241370889598124
15.081563234329224,0.6262528871410281,0.6345855746670427,-0.49393168316504066
15.09063172340393,0.6289884691753416,0.6372625253953116,-0.6051338441636116
15.103550910949707,0.6325056460766015,0.639931966354337,-0.960662656248013
15.113639831542969,0.6352412281109149,0.6426056898620786,-1.315786223811079
15.122545003890991,0.6377814114284917,0.6452890791164273,-1.5875163901155669
15.134519338607788,0.640516993462805,0.6479865424555494,-2.0377533126141927
15.142764329910278,0.6424709806301717,0.6507015980379283,-2.4354713555812824
15.150520086288452,0.6438387716473285,0.6534234280748276,-2.711486234908481
15.15942907333374,0.6454019613812219,0.6561382635427745,-3.415408753009909
15.173591136932373,0.6481375434155352,0.6588525391813133,-4.634464066678621
15.182555675506592,0.6497007331494286,0.6615806737346748,-4.904042983086728
15.190649032592773,0.6510685241665852,0.664316656875483,-4.481783629983713
15.199114561080933,0.6526317139004786,0.6670462712174876,-3.8632002276278374
15.208218574523926,0.654194903634372,0.6697665176187084,-3.252572925128649
15.217533826828003,0.6559534920850019,0.6724794648652996,-2.445457439477899
15.227550268173218,0.6579074792523687,0.675186974732317,-1.4230408521736153
15.237586498260498,0.6596660677029987,0.6778906748791692,-0.2324416118199376
15.251101732254028,0.6622062510205755,0.6805964963419704,0.7888878864903173
15.259849071502686,0.6637694407544688,0.683314000017089,1.5521932685457225
15.271772146224976,0.6661142253553088,0.6860467383648491,2.3447989030327
15.282633066177368,0.6680682125226756,0.6887931700212595,2.6920682017350472
15.294234991073608,0.6704129971235157,0.6915566126321868,3.073691574819131
15.304535865783691,0.6727577817243556,0.6943445299746293,3.3569842200703297
15.315667629241943,0.6752979650419323,0.6971586477167913,3.5145049577207486
15.32388973236084,0.6770565534925623,0.6999910970430276,3.83546250115621
15.33660340309143,0.6799875342436125,0.7028353364173859,3.8260008531091287
15.347626447677612,0.6823323188444524,0.7057003550902802,3.9420682879750366
15.35641622543335,0.6846771034452925,0.7085938743706098,3.7531600957799798
15.36569595336914,0.6868264893293958,0.7115031049947192,3.4569043870390392
15.375546216964722,0.689171273930236,0.7144174069852663,3.1408885099865733
15.386604070663452,0.6919068559645494,0.7173427691510227,3.1169005729366055
15.39455533027649,0.6940562418486528,0.7202794268735755,3.154100533731752
15.404517889022827,0.6964010264494928,0.7232177693137556,2.890047438998448
15.414961814880371,0.6991366084838061,0.7261600777770941,2.8205187387950623
15.426630020141602,0.7022629879515929,0.7291187344865739,2.7929911218033743
15.434556007385254,0.7046077725524329,0.7320940486042422,2.4746638476939493
15.442545413970947,0.7069525571532729,0.7350760335251981,2.0934852999010567
15.45356822013855,0.7100789366210597,0.7380615870291282,2.015409102142619
15.462602615356445,0.7126191199386365,0.7410535004893195,2.025581429443662
15.47351861000061,0.7157454994064231,0.7440543514267521,2.313968422152028
15.487171649932861,0.7196534737411566,0.74707189230021,2.333341027762497
15.49506425857544,0.7218028596252599,0.7501181792926097,1.9583717536495373
15.503304719924927,0.7243430429428366,0.7531925480261913,1.7802064549820598
15.513281345367432,0.7280556185608333,0.7562835032196515,1.6779009656950346
15.524535417556763,0.73176819417883,0.7593922869997229,1.5993255664047055
15.533515691757202,0.7348945736466168,0.7625254004268117,1.2480903154829708
15.545568227767944,0.7389979466980869,0.7656828085472248,1.4128929255825298
15.554502010345459,0.7421243261658735,0.7688644176395291,1.1435157965477856
15.566524982452393,0.7462276992173437,0.7720700926420481,1.047830616148416
15.578856229782104,0.7503310722688137,0.7753110316129453,1.0136804600918015
15.587539434432983,0.7534574517366005,0.7786022437766846,0.7176305863244847
15.595522403717041,0.7565838312043872,0.7819332892225598,0.6609252721129188
15.60654354095459,0.7604918055391207,0.7852836401397595,0.40809345283446374
15.615968942642212,0.7640089824403806,0.7886532063380661,0.4112881828320458
15.623599290847778,0.7665491657579574,0.7920418695602376,0.2153426451242907
15.63155221939087,0.7692847477922707,0.7954379423354142,-0.2861188780402582
15.642400026321411,0.7733881208437408,0.79883762738302,-0.5112070729054836
15.653509616851807,0.7774914938952109,0.802243949681946,-0.32236345448038417
15.662523031234741,0.7806178733629977,0.8056597513595627,-0.30828407790147716
15.676612377166748,0.785698239998151,0.809093797118035,-0.3494544598122012
15.687544584274292,0.7899970117663577,0.8125598073225178,-0.6724377975545134
15.699442625045776,0.794686580968038,0.8160632438587982,-0.46465209997555085
15.711490392684937,0.7995715488864547,0.8196086646160647,-0.39590059004205136
15.722964763641357,0.8036749219379247,0.8232121505429432,-0.6562684280159761
15.730609655380249,0.8066059026889748,0.826874284081608,-0.6892292259861594
15.74028468132019,0.8099276808734982,0.8305698998930297,-0.6344316547490484
15.752550840377808,0.8150080475086516,0.834289886968784,-0.8302126069838529
15.763542413711548,0.818916021843385,0.8380450582481808,-0.7834805518895558
15.771534204483032,0.8222378000279084,0.841831534648714,-0.9341749919591507
15.780225992202759,0.8253641794956951,0.8456330221745231,-1.1085987199548373
15.789500713348389,0.8290767551136919,0.849441692328487,-1.2442195857040956
15.801429510116577,0.8337663243153719,0.8532630783103926,-1.050608970610438
15.81587028503418,0.8394328871007354,0.8571136712276257,-1.05120288758462
15.827541589736938,0.8439270575856788,0.8610065316323361,-1.1016033850084466
15.838586568832397,0.848421228070622,0.8649393932414856,-1.145246266206496
15.852123260498047,0.8535015947057756,0.8689091928669623,-1.1646780923576725
15.860535860061646,0.8566279741735624,0.8729183110260579,-1.1586457747067964
15.869526386260986,0.859754353641349,0.8769559809352913,-1.4076947534874433
