t_s,q_rad,q_des_rad,K,B,jerk,tau_Nm,ilc_ff_Nm
0.005299568176269531,-0.04748188816701086,[0.00058755],0.005,0.1,0.0,9.998999999999999,0
0.01601266860961914,-0.04748188816701086,[0.0028378],0.005,0.1,0.0,5.136822380776731,0
0.02531147003173828,-0.04748188816701086,[0.00704761],0.005,0.1,0.0,2.2896314571371046,0
0.03435087203979492,-0.04611409714985418,[0.01285366],0.005,0.1,0.276038359678681,1.0547395764693903,0
0.04458475112915039,-0.042401521531857445,[0.01992903],0.005,0.1,2.24143148059089,0.49585630806184994,0
0.0537114143371582,-0.038884344630597374,[0.02798185],0.005,0.1,5.0,0.23651674000687323,0
0.06340312957763672,-0.0347809715791273,[0.03675221],0.005,0.1,5.0,0.11267258017560347,0
0.07334208488464355,-0.030482199810920558,[0.04601068],0.005,0.1,5.0,0.053027227860334286,0
0.08424091339111328,-0.026574225476187156,[0.05555682],0.005,0.1,5.0,0.023441698569390733,0
0.09511256217956543,-0.022275453707980408,[0.06521694],0.005,0.1,5.0,0.009705179731043652,0
0.10477781295776367,-0.018953675523457014,[0.07484365],0.005,0.1,5.0,0.004361287241529732,0
0.11345028877258301,-0.01563189733893362,[0.08431454],0.005,0.1,5.0,0.0019890304259427877,0
0.12153148651123047,-0.012700916587883566,[0.09352846],0.005,0.1,5.0,0.001330462254788096,0
0.12997865676879883,-0.009965334553570182,[0.10240338],0.005,0.1,3.8477386430482463,0.0014210918946100147,0
0.13948750495910645,-0.007034353802520129,[0.11087485],0.005,0.1,1.1187356386834035,0.001775813468945262,0
0.1494159698486328,-0.003907974334733405,[0.11889345],0.005,0.1,-2.1649691523407153,0.002210571457903253,0
0.15730524063110352,-0.0013677910171566918,[0.12642306],0.005,0.1,-4.977404378546453,0.002662104198484864,0
0.16741418838500977,0.0019539871673667024,[0.13343958],0.005,0.1,-5.0,0.0030206748031311637,0
0.17536163330078125,0.0042987717682067455,[0.13992955],0.005,0.1,-5.0,0.0032774205775493773,0
0.18486356735229492,0.006838955085783458,[0.14588867],0.005,0.1,-5.0,0.0035830472148974755,0
0.19432353973388672,0.009183739686623501,[0.15131989],0.005,0.1,-5.0,0.0038506863344335332,0
0.20409584045410156,0.011919321720936885,[0.15623224],0.005,0.1,-5.0,0.004037186888364192,0
0.2143266201019287,0.014264106321776927,[0.16063999],0.005,0.1,-5.0,0.004197167327088996,0
0.22633051872253418,0.016999688356090312,[0.16456132],0.005,0.1,-5.0,0.004441139400509391,0
0.23438191413879395,0.018953675523457014,[0.16801779],0.005,0.1,-5.0,0.00437017516770277,0
0.24534296989440918,0.02129846012429706,[0.17103381],0.005,0.1,-5.0,0.004604624067743691,0
0.2553231716156006,0.0236432447251371,[0.17363557],0.005,0.1,-5.0,0.004429057621528693,0
0.2654409408569336,0.025401833175767132,[0.17585084],0.005,0.1,-5.0,0.004495330360725279,0
0.2733154296875,0.027355820343133833,[0.17770793],0.005,0.1,-5.0,0.004520767047303862,0
0.2848358154296875,0.029309807510500538,[0.17923447],0.005,0.1,-5.0,0.004742600116723719,0
0.29433131217956543,0.03106839596113057,[0.18045793],0.005,0.1,-5.0,0.004449933244942885,0
0.3054778575897217,0.0328269844117606,[0.18140611],0.005,0.1,-5.0,0.004436490643792383,0
0.31334853172302246,0.033999376712180625,[0.18210591],0.005,0.1,-4.638543515981203,0.0044551357364485365,0
0.3233039379119873,0.03536716772933732,[0.18258317],0.005,0.1,-4.591871648080112,0.0041860834280204985,0
0.3312957286834717,0.036539560029757334,[0.18286297],0.005,0.1,-4.0482489023358035,0.004224873541136323,0
0.3409848213195801,0.03790735104691403,[0.18296783],0.005,0.1,-3.399317308789384,0.004518618678337582,0
0.3482780456542969,0.038884344630597374,[0.18291837],0.005,0.1,-2.7989814613190607,0.00415496242637048,0
0.3591177463531494,0.040056736931017405,[0.18273501],0.005,0.1,-2.5708078372474295,0.00413312959360754,0
0.3692967891693115,0.04122912923143742,[0.18243664],0.005,0.1,-2.198935383958103,0.004085544782806267,0
0.37860774993896484,0.0420107240983841,[0.18204012],0.005,0.1,-2.101098808856898,0.0040237373852564364,0
0.3862781524658203,0.04279231896533078,[0.18156155],0.005,0.1,-1.8088391904164967,0.0036703429256307522,0
0.3979811668395996,0.04396471126575081,[0.18101572],0.005,0.1,-1.763836968918254,0.003869902912938879,0
0.40731239318847656,0.044746306132697485,[0.18041495],0.005,0.1,-1.5097976480143054,0.003701328152342631,0
0.415316104888916,0.04533250228290749,[0.17977112],0.005,0.1,-1.218598280297348,0.0033186841754413473,0
0.42411375045776367,0.04591869843311751,[0.1790961],0.005,0.1,-1.2321764376878945,0.0032165189800358756,0
0.4332592487335205,0.046700293300064186,[0.17840007],0.005,0.1,-1.0504886313279513,0.003079442095370406,0
0.4456369876861572,0.04748188816701086,[0.17769127],0.005,0.1,-0.8278400042728039,0.003068516897385451,0
0.4543623924255371,0.04787268560048421,[0.17697714],0.005,0.1,-0.6243711520429922,0.0027512268759121417,0
0.46228957176208496,0.04826348303395755,[0.17626513],0.005,0.1,-0.4582448154060983,0.0026210197738192375,0
0.47304296493530273,0.04884967918416756,[0.17556182],0.005,0.1,-0.33020783496624695,0.0024794808779506246,0
0.4826483726501465,0.0492404766176409,[0.17487261],0.005,0.1,-0.23480015948581323,0.0023490186950456673,0
0.49028825759887695,0.04963127405111425,[0.17420224],0.005,0.1,0.11082938304889473,0.0022268236374745733,0
0.49962639808654785,0.0498266727678509,[0.17355485],0.005,0.1,0.1939924414182286,0.0021186929579326344,0
0.5090909004211426,0.05002207148458758,[0.17293411],0.005,0.1,0.17451240149912473,0.0020032541984702193,0
0.5172879695892334,0.050412868918060925,[0.17234322],0.005,0.1,0.39962670237643644,0.001920079473354862,0
0.5252976417541504,0.050217470201324256,[0.17178472],0.005,0.1,0.3798947837163523,0.0018643526080851154,0
0.5338146686553955,0.050412868918060925,[0.17126055],0.005,0.1,0.5565510691846891,0.0018079082948789641,0
0.5432906150817871,0.050412868918060925,[0.1707724],0.005,0.1,0.48016268963451314,0.001755927409228746,0
0.5533719062805176,0.050412868918060925,[0.17032417],0.005,0.1,0.055007408108615874,0.0019317274553934726,0
0.5614876747131348,0.050412868918060925,[0.16992304],0.005,0.1,0.1497453180965063,0.002235301041710367,0
0.5714702606201172,0.050412868918060925,[0.16957891],0.005,0.1,0.11605332935830683,0.004161202667763487,0
0.580317497253418,0.050412868918060925,[0.16930315],0.005,0.1,0.04601575113825374,0.00471734895714562,0
0.5906593799591064,0.050412868918060925,[0.16911164],0.005,0.1,0.2530682036318802,0.013957836738560509,0
0.5983066558837891,0.050412868918060925,[0.16902385],0.005,0.1,0.5069668615979497,0.012867646652144772,0
0.6083090305328369,0.050412868918060925,[0.16905432],0.005,0.1,0.9976640100520896,0.0198844308132471,0
0.6173169612884521,0.050412868918060925,[0.16921813],0.005,0.1,1.459405846116479,0.02798464240109437,0
0.6274290084838867,0.050412868918060925,[0.16953429],0.005,0.1,1.8065802525857375,0.03669839102988718,0
0.6361994743347168,0.050412868918060925,[0.17002025],0.005,0.1,2.0292218464651786,0.04538924483052325,0
0.6442697048187256,0.050217470201324256,[0.17068483],0.005,0.1,2.1451113096960155,0.03657523165588102,0
0.655817985534668,0.050217470201324256,[0.1715337],0.005,0.1,2.1788662531277936,0.06281259797025923,0
0.6634118556976318,0.050217470201324256,[0.17257441],0.005,0.1,2.1536140468947007,0.04579861302288201,0
0.6747760772705078,0.050412868918060925,[0.17380595],0.005,0.1,2.0883160890910704,0.05771280248528088,0
0.6828291416168213,0.050412868918060925,[0.17521867],0.005,0.1,1.9974702181953288,0.03748778266981777,0
0.6921541690826416,0.050217470201324256,[0.17679086],0.005,0.1,1.8916889921357756,0.02826663836769022,0
0.7026581764221191,0.050412868918060925,[0.17849082],0.005,0.1,1.7784967467591546,0.016976606662399658,0
0.7121109962463379,0.050412868918060925,[0.18028137],0.005,0.1,1.6630827188228912,0.007274242659052609,0
0.7206752300262451,0.050412868918060925,[0.18212034],0.005,0.1,1.548924949584433,0.003766972806542833,0
0.7292881011962891,0.050412868918060925,[0.18396991],0.005,0.1,1.4382745724069659,0.002841573380282119,0
0.7383100986480713,0.050412868918060925,[0.18580066],0.005,0.1,1.3325178522679721,0.0026369137086654434,0
0.7486326694488525,0.050412868918060925,[0.18758863],0.005,0.1,1.2324404522945585,0.0025899231237388274,0
0.7592036724090576,0.050412868918060925,[0.18931247],0.005,0.1,1.1384172139818771,0.0027936066792454725,0
0.7692704200744629,0.050412868918060925,[0.19095404],0.005,0.1,1.0505468244355785,0.0030981175600454146,0
0.7772817611694336,0.050217470201324256,[0.19249958],0.005,0.1,0.9687464643126237,0.00321634670167579,0
0.786250114440918,0.050412868918060925,[0.19393909],0.005,0.1,0.8928177645155964,0.0035615508384353504,0
0.7950081825256348,0.050412868918060925,[0.19526439],0.005,0.1,0.8224923791307666,0.0039032951390561795,0
0.8042445182800293,0.050412868918060925,[0.19646912],0.005,0.1,0.7574631756602126,0.004185856390933502,0
0.8142969608306885,0.050412868918060925,[0.19754952],0.005,0.1,0.697405333317537,0.004379087316221549,0
0.8226470947265625,0.050412868918060925,[0.19850505],0.005,0.1,0.6419903953033372,0.004136147622693881,0
0.8316199779510498,0.050412868918060925,[0.19933803],0.005,0.1,0.5908954259619639,0.004261299436925448,0
0.8402836322784424,0.050412868918060925,[0.20005236],0.005,0.1,0.5438087855965577,0.0040434014859009396,0
0.8492889404296875,0.050412868918060925,[0.20065334],0.005,0.1,0.5004335834036824,0.004079187263614721,0
0.8572757244110107,0.050412868918060925,[0.20114705],0.005,0.1,0.4604895497181637,0.004016217250554088,0
0.8672580718994141,0.050412868918060925,[0.20154026],0.005,0.1,0.42371384409564444,0.003936569433318648,0
0.8767552375793457,0.050412868918060925,[0.20184111],0.005,0.1,0.38986115804854227,0.0037305113503464707,0
0.8842470645904541,0.050412868918060925,[0.20205923],0.005,0.1,0.35870336075709114,0.003604295458158475,0
0.8922512531280518,0.050217470201324256,[0.20220501],0.005,0.1,0.33002885880125005,0.0035415645968199967,0
0.9012668132781982,0.050217470201324256,[0.20229481],0.005,0.1,0.30364178700947053,0.005298185599700746,0
0.9092803001403809,0.050217470201324256,[0.20236093],0.005,0.1,0.2793611099268432,0.016925474557736197,0
0.9212827682495117,0.050412868918060925,[0.20245256],0.005,0.1,0.25701968726713975,0.04352585596599367,0
0.9312572479248047,0.050217470201324256,[0.20262935],0.005,0.1,0.23646333858975566,0.08695012631423289,0
0.9430027008056641,0.050412868918060925,[0.2029698],0.005,0.1,0.21754992992030475,0.23101880606551,0
0.9523622989654541,0.050412868918060925,[0.20355274],0.005,0.1,0.20014849642156005,0.19654032271593688,0
0.9617919921875,0.050803666351534264,[0.20442871],0.005,0.1,0.18413840933548564,0.2878056568130705,0
0.9710156917572021,0.05099906506827094,[0.20564867],0.005,0.1,0.16940859142861897,0.3894247496708452,0
0.9792695045471191,0.0511944637850076,[0.20725702],0.005,0.1,0.43189514218130015,0.3242727372151632,0
0.9895327091217041,0.05217145736869095,[0.20929478],0.005,0.1,1.0046285369718508,0.6614101258793632,0
0.9972751140594482,0.05275765351890097,[0.21181416],0.005,0.1,1.556386528088729,0.5135377807661864,0
1.0066471099853516,0.05393004581932099,[0.21485794],0.005,0.1,2.529956501930775,0.9020021123151677,0
1.014253854751587,0.05529783683647768,[0.21845956],0.005,0.1,3.424012161157168,0.6714107234563124,0
1.0223956108093262,0.05686102657037104,[0.22260261],0.005,0.1,4.909620568926462,0.5287139113286224,0
1.0334434509277344,0.05959660860468442,[0.22724781],0.005,0.1,5.0,0.6662695536118097,0
1.0427935123443604,0.06233219063899781,[0.23239458],0.005,0.1,5.0,0.7769919637328074,0
1.0513057708740234,0.0650677726733112,[0.23805492],0.005,0.1,5.0,0.8595621267903697,0
1.0603549480438232,0.06858494957457126,[0.24421191],0.005,0.1,5.0,0.6429044424960115,0
1.0683112144470215,0.07190672775909465,[0.25082416],0.005,0.1,5.0,0.7501299797556342,0
1.0783324241638184,0.07601010081056472,[0.25786808],0.005,0.1,5.0,0.8258767409653258,0
1.0883381366729736,0.08011347386203481,[0.265335],0.005,0.1,5.0,0.8757370459114201,0
1.096787691116333,0.0834352520465582,[0.2732095],0.005,0.1,5.0,0.9099183537569243,0
1.1072683334350586,0.08773402381476494,[0.28147033],0.005,0.1,5.0,0.9223251456629704,0
1.1193139553070068,0.09261899173318171,[0.29010826],0.005,0.1,5.0,1.2222424973220956,0
1.1272456645965576,0.09554997248423175,[0.29910746],0.005,0.1,4.395091811146732,0.8443225788783564,0
1.1376652717590332,0.09984874425243849,[0.3084292],0.005,0.1,2.4172771923910474,1.1396725606925668,0
1.1476919651031494,0.10356131987043524,[0.31804966],0.005,0.1,0.34416415446170356,1.0623750902914615,0
1.155277967453003,0.10668769933822195,[0.32792694],0.005,0.1,-1.6459118267672757,0.7466212197532535,0
1.165283203125,0.11079107238969202,[0.33800406],0.005,0.1,-3.4874228570626493,1.0565967411921953,0
1.1772816181182861,0.1156760403081088,[0.3482603],0.005,0.1,-4.889359803116544,1.0043635364811119,0
1.1852498054504395,0.11899781849263219,[0.35865917],0.005,0.1,-5.0,0.7146794244643293,0
1.1935148239135742,0.12231959667715558,[0.36913589],0.005,0.1,-5.0,0.768539348289034,0
1.203516960144043,0.12642296972862566,[0.37964913],0.005,0.1,-5.0,0.810265375165724,0
1.212052822113037,0.12974474791314905,[0.39017787],0.005,0.1,-5.0,0.8464275864036107,0
1.2212657928466797,0.13345732353114578,[0.40068849],0.005,0.1,-5.0,0.6267791896912714,0
1.23081636428833,0.13716989914914252,[0.41113747],0.005,0.1,-5.0,0.7171989630158981,0
1.2392725944519043,0.14088247476713922,[0.42148866],0.005,0.1,-5.0,0.5530863075968994,0
1.2482800483703613,0.14459505038513598,[0.43171275],0.005,0.1,-5.0,0.6715334987030446,0
1.2573063373565674,0.14791682856965938,[0.44180164],0.005,0.1,-4.955808622799783,0.7729730847766387,0
1.2702128887176514,0.15280179648807612,[0.45178062],0.005,0.1,-4.766604287626951,1.1632114479999616,0
1.2783222198486328,0.15592817595586284,[0.46168813],0.005,0.1,-4.509455352218211,1.152040476710661,0
1.287261724472046,0.15964075157385957,[0.47154325],0.005,0.1,-4.22517308903457,1.1523357148210902,0
1.2958920001983643,0.16335332719185633,[0.48133325],0.005,0.1,-3.6594270875652244,0.8409155567533362,0
1.3042569160461426,0.1668705040931164,[0.49101811],0.005,0.1,-3.342666737274948,0.6533346179152411,0
1.3133230209350586,0.1705830797111131,[0.50056578],0.005,0.1,-3.4021905920507667,0.8050060439618612,0
1.3222987651824951,0.17429565532910984,[0.50999772],0.005,0.1,-3.2547037816673248,1.285200032313652,0
1.3315527439117432,0.1780082309471066,[0.51936487],0.005,0.1,-2.7534872260166967,1.2923797343774512,0
1.3392608165740967,0.18133000913162997,[0.52868007],0.005,0.1,-2.476597350930131,0.9428500637141849,0
1.3482615947723389,0.18484718603289005,[0.53792347],0.005,0.1,-2.2948305750404208,1.0442175908942024,0
1.3562698364257812,0.18797356550067676,[0.54707873],0.005,0.1,-2.1506911576107814,0.795148522161512,0
1.3642470836639404,0.19129534368520015,[0.55611725],0.005,0.1,-2.0202459450255366,0.6386983037315414,0
1.3732378482818604,0.1950079193031969,[0.56501532],0.005,0.1,-1.8947519054510835,0.8054895716512911,0
1.3818461894989014,0.19872049492119365,[0.57378345],0.005,0.1,-1.7719589882397926,0.9302635991120374,0
1.392148733139038,0.20243307053919038,[0.58244508],0.005,0.1,-1.6521029788407464,1.01330858905471,0
1.402820110321045,0.2067318423073971,[0.59101889],0.005,0.1,-1.5361400597969834,1.061178554029088,0
1.411867618560791,0.21024901920865718,[0.59951921],0.005,0.1,-1.4250299897483316,1.0874600439719178,0
1.4192464351654053,0.2131799999597072,[0.60794344],0.005,0.1,-1.3194930905084146,0.8033384294233143,0
1.4282383918762207,0.2166971768609673,[0.61627524],0.005,0.1,-1.2199688460383693,0.890209958239423,0
1.4384539127349854,0.22080054991243736,[0.62452733],0.005,0.1,-1.1266506567010546,1.2729530060185155,0
1.4482543468475342,0.22509932168064412,[0.63273673],0.005,0.1,-1.0395414652101822,1.2184630023671956,0
1.4572405815124512,0.22900729601537753,[0.64090798],0.005,0.1,-0.9585078198265984,0.8738662651611353,0
1.466585636138916,0.2325244729166376,[0.64901821],0.005,0.1,-0.8833247990745398,0.9267174905864364,0
1.4749329090118408,0.23565085238442432,[0.65706043],0.005,0.1,-0.8137105558077753,0.9626437444268977,0
1.4830632209777832,0.2389726305689477,[0.6650408],0.005,0.1,-0.7493516384423142,0.9795168752046503,0
1.4922852516174316,0.24248980747020776,[0.67295134],0.005,0.1,-0.6899209106551766,0.724046499077977,0
1.5002107620239258,0.24581158565473116,[0.68074877],0.005,0.1,-0.6350898472640356,0.7308178083147581,0
1.5122277736663818,0.2506965535731479,[0.68839612],0.005,0.1,-0.3084983400068182,1.0471619758329302,0
1.520242691040039,0.2540183317576713,[0.69590828],0.005,0.1,-0.2287887358022133,0.9847368998789043,0
1.5292468070983887,0.2573401099421947,[0.70330707],0.005,0.1,-0.2409744643497978,0.9140995006451358,0
1.5376739501953125,0.26105268556019146,[0.71059575],0.005,0.1,-0.2775435080472557,0.8408782905410308,0
1.5458853244781494,0.26417906502797817,[0.71777374],0.005,0.1,-0.31168533882401817,0.771183943598858,0
1.5547263622283936,0.2678916406459749,[0.72483759],0.005,0.1,-0.334818435126784,0.7059959071040687,0
1.562659740447998,0.27101802011376164,[0.73178199],0.005,0.1,-0.3459936094098428,0.6493260778323452,0
1.57289719581604,0.2753167918819684,[0.73860075],0.005,0.1,-0.34704312637588963,0.5985583454356435,0
1.5822563171386719,0.27942016493343846,[0.74528761],0.005,0.1,-0.3404682559458092,0.5573190955217966,0
1.5911865234375,0.28293734183469854,[0.75182966],0.005,0.1,-0.32860193908452784,0.4128898159768291,0
1.600266933441162,0.28645451873595856,[0.75820209],0.005,0.1,-0.3133431534069758,0.32840810769138956,0
1.611633062362671,0.290948689220902,[0.76439368],0.005,0.1,-0.29613104420848557,0.4766967022836176,0
1.6192262172698975,0.29387966997195203,[0.77041288],0.005,0.1,-0.2780066930534716,0.37431959779421603,0
1.6292154788970947,0.2977876443066855,[0.7762628],0.005,0.1,-0.2596961463912877,0.4186478484015359,0
1.6392717361450195,0.30169561864141886,[0.78195086],0.005,0.1,-0.24168829488493127,0.46577291807785043,0
1.6492969989776611,0.30560359297615225,[0.78749615],0.005,0.1,-0.22429914346627322,0.5143871485481919,0
1.6572520732879639,0.308729972443939,[0.79291973],0.005,0.1,-0.2077215625237872,0.5648078758560386,0
1.66575026512146,0.3122471493451991,[0.79824387],0.005,0.1,-0.1920623889034585,0.6140349236331205,0
1.677260160446167,0.31713211726361584,[0.80349124],0.005,0.1,-0.17736943676194236,0.6596225373305754,0
1.6862201690673828,0.3208446928816125,[0.8086843],0.005,0.1,0.11238752407647466,0.7054124734776693,0
1.6942648887634277,0.3239710723493993,[0.81384489],0.005,0.1,0.1582742631882535,0.7506602593559767,0
1.7042224407196045,0.32787904668413265,[0.81899376],0.005,0.1,0.11501701931464133,0.7921999622806463,0
1.7123920917510986,0.3310054261519194,[0.82415029],0.005,0.1,0.04989408502389045,0.8330296530959387,0
1.7203216552734375,0.33452260305317943,[0.82932137],0.005,0.1,-0.010494973086153048,0.6423049534504861,0
1.7282419204711914,0.3378443812377029,[0.83449189],0.005,0.1,-0.05775986234815668,0.5270690201637364,0
1.7362468242645264,0.3411661594222262,[0.83964977],0.005,0.1,-0.09112532193302958,0.6462212756274283,0
1.7446720600128174,0.3446833363234863,[0.84480745],0.005,0.1,-0.11258222397766075,0.746178631864343,0
1.753152847290039,0.3476143170745364,[0.84998705],0.005,0.1,-0.12477677241804228,0.8260102296989353,0
1.7612392902374268,0.3509360952590598,[0.85519621],0.005,0.1,-0.1301745575251533,0.6494115273799195,0
1.7702155113220215,0.35464867087705654,[0.8604299],0.005,0.1,-0.13079611097837474,0.7506887430945638,0
1.7807908058166504,0.35875204392852655,[0.86570542],0.005,0.1,-0.12819206935116773,1.0930921662953967,0
1.7902741432189941,0.36266001826325994,[0.87104738],0.005,0.1,-0.12350584918498496,0.8054617392231731,0
1.7992947101593018,0.36656799259799333,[0.87646266],0.005,0.1,-0.11755747917060352,1.0964622726335782,0
1.8103129863739014,0.37106216308293677,[0.88196277],0.005,0.1,-0.110922197457794,1.0028597668901358,0
1.8182389736175537,0.3741885425507235,[0.88753317],0.005,0.1,-0.38003372701277394,1.0085693951786867,0
1.828582525253296,0.3779011181687203,[0.89313509],0.005,0.1,-0.40620577477764624,1.0953397332094506,0
1.8381128311157227,0.3818090925034536,[0.89875508],0.005,0.1,-0.3443041510334397,0.8793008799115161,0
1.8477997779846191,0.38591246555492376,[0.90438209],0.005,0.1,-0.26167246376228115,0.6965398785138779,0
1.8552331924438477,0.38903884502271047,[0.90998432],0.005,0.1,-0.18492564705192666,0.4745369441123949,0
1.865549087524414,0.39314221807418054,[0.91552297],0.005,0.1,-0.12243654607238873,0.39458968162004293,0
1.8748369216918945,0.39685479369217724,[0.92096366],0.005,0.1,-0.07494212019143731,0.3197548473960167,0
1.8855948448181152,0.40095816674364737,[0.92627547],0.005,0.1,-0.040400615167327555,0.25874946534221926,0
1.893235683441162,0.404084546211434,[0.93142386],0.005,0.1,-0.01610802923171705,0.19760137472273245,0
1.9045135974884033,0.4087741154131142,[0.93636926],0.005,0.1,0.27650046945914103,0.16186282794383602,0
1.9141030311584473,0.4122912923143742,[0.94106897],0.005,0.1,0.3205547119937629,0.15242358455328128,0
1.9221782684326172,0.4156130704988976,[0.94548305],0.005,0.1,-0.0036808382581961785,0.15971616018602627,0
1.9311814308166504,0.4191302474001577,[0.94957647],0.005,0.1,-0.10881841750178069,0.19060859609745046,0
1.9402310848236084,0.42323362045162777,[0.95331623],0.005,0.1,-0.12212448901431289,0.22172783007277289,0
1.9491920471191406,0.4269461960696245,[0.95667411],0.005,0.1,-0.10186716758195,0.2606076631135402,0
1.9602386951446533,0.43163576527130454,[0.95962144],0.005,0.1,-0.0734289186824431,0.3792801849711596,0
1.968658208847046,0.43476214473909125,[0.9621336],0.005,0.1,-0.04687853140527285,0.3403562380226723,0
1.978593349456787,0.4386701190738247,[0.96420327],0.005,0.1,-0.02541806677625407,0.38917160832795783,0
1.9862349033355713,0.4416010998248747,[0.96583441],0.005,0.1,-0.009369028718138567,0.3462761122262196,0
1.9962143898010254,0.4457044728763448,[0.96703599],0.005,0.1,-0.2740377185808981,0.3895734942636909,0
2.005283832550049,0.44922164977760487,[0.96781565],0.005,0.1,-0.29948365345871103,0.41496424738502635,0
2.0155587196350098,0.453325022829075,[0.9681811],0.005,0.1,-0.2394713297630155,0.41925457699216523,0
2.023219108581543,0.45645140229686165,[0.9681523],0.005,0.1,-0.16047013235173962,0.3444384448738682,0
2.034245491027832,0.46094557278180515,[0.9677595],0.005,0.1,-0.08843910352396164,0.3444948547798092,0
2.043421506881714,0.46446274968306517,[0.96703127],0.005,0.1,-0.03127709521503371,0.3310496230963343,0
2.056175470352173,0.46915231888474523,[0.96599177],0.005,0.1,-0.2654267276280245,0.3431827848495265,0
2.0669901371002197,0.47384188808642536,[0.96466742],0.005,0.1,-0.26966679778469205,0.2916451480191337,0
2.0759005546569824,0.4779452611378954,[0.96309349],0.005,0.1,-0.19583437399168058,0.2453985660783796,0
2.0846612453460693,0.48146243803915545,[0.96131185],0.005,0.1,-0.10854075517968753,0.20566407227026123,0
2.093357563018799,0.4849796149404155,[0.95936628],0.005,0.1,-0.032195930083691614,0.16739771884044183,0
2.1029574871063232,0.4886921905584123,[0.95730081],0.005,0.1,0.02650421782855505,0.14514236096244584,0
2.1131975650787354,0.49279556360988236,[0.95515673],0.005,0.1,0.06805170097033482,0.1259171578855187,0
2.125221014022827,0.49787593024503574,[0.95297337],0.005,0.1,0.09536538384748197,0.10805796814918711,0
2.135807991027832,0.5021747020132425,[0.95079045],0.005,0.1,0.11176179868653303,0.09489700068706045,0
2.1442067623138428,0.5053010814810293,[0.94864501],0.005,0.1,0.39622475249245553,0.09001438805477904,0
2.1544299125671387,0.5095998532492361,[0.94656969],0.005,0.1,0.4321641139138329,0.08548377120345643,0
2.1662089824676514,0.514289422450916,[0.94459807],0.005,0.1,0.37606443055050226,0.08775952627446183,0
2.1764917373657227,0.5181973967856495,[0.94276892],0.005,0.1,0.29647434143886575,0.10927410770584502,0
2.185634136199951,0.5217145736869095,[0.94111693],0.005,0.1,-0.05515359316850041,0.10014716638973356,0
2.194213628768921,0.5250363518714329,[0.93966394],0.005,0.1,-0.1508682036533835,0.11219842507519347,0
2.2031967639923096,0.5287489274894297,[0.9384337],0.005,0.1,-0.14418252933482192,0.1576235453195329,0
2.2118895053863525,0.5320707056739531,[0.93745029],0.005,0.1,-0.38010241075683643,0.13262486953369462,0
2.2203011512756348,0.5355878825752132,[0.93671844],0.005,0.1,-0.36871691504929205,0.1171639030719842,0
2.229189157485962,0.5389096607597365,[0.93623608],0.005,0.1,-0.5514760887884579,0.14089961803256396,0
2.237623929977417,0.5426222363777332,[0.93601123],0.005,0.1,-0.4793695303350182,0.16600301408730705,0
2.2461931705474854,0.5459440145622566,[0.93605578],0.005,0.1,-0.3331440178575765,0.19259621251803122,0
2.254197359085083,0.5490703940300434,[0.93637266],0.005,0.1,-0.18683732134093567,0.16169071208922497,0
2.262169599533081,0.5520013747810935,[0.93694957],0.005,0.1,-0.0660607080456835,0.14325918745395552,0
2.271149158477783,0.5557139503990901,[0.93776724],0.005,0.1,0.024340390422718648,0.13214724756112647,0
2.2826528549194336,0.5604035196007703,[0.93881507],0.005,0.1,0.36353063940143276,0.18074518905894374,0
2.291222095489502,0.5637252977852937,[0.94009857],0.005,0.1,0.7140224798657175,0.2330095506841712,0
2.3054583072662354,0.5695872592873937,[0.94164915],0.005,0.1,0.716953353663067,0.533175915851166,0
2.313213586807251,0.5725182400384438,[0.94350373],0.005,0.1,0.5988092899282766,0.3917211262955832,0
2.322192430496216,0.576035416939704,[0.94566643],0.005,0.1,0.4569407569386048,0.4337183852342539,0
2.3302083015441895,0.5791617964074907,[0.94813128],0.005,0.1,0.604943036712262,0.47614719873214256,0
2.339268684387207,0.5828743720254873,[0.95091189],0.005,0.1,0.5348656089195393,0.6933733217199664,0
2.348128318786621,0.5863915489267474,[0.95400702],0.005,0.1,0.4014628392639652,0.6945540041789606,0
2.358222007751465,0.5904949219782174,[0.9573807],0.005,0.1,0.26819828169196436,0.6716538812974455,0
2.3692758083343506,0.5951844911798975,[0.96101949],0.005,0.1,0.1570801149692941,0.8423351088209873,0
2.380167245864868,0.5994832629481043,[0.96492854],0.005,0.1,0.3483589360763738,0.5743845053653216,0
2.3916707038879395,0.6039774334330478,[0.96909557],0.005,0.1,0.32044794434274493,0.7235439370439238,0
2.400254726409912,0.6074946103343077,[0.97351309],0.005,0.1,0.2234155459716214,0.6437637492019808,0
2.4131503105163574,0.6129657744029345,[0.97817677],0.005,0.1,0.11988122380218506,0.7220207505743338,0
2.4243502616882324,0.617459944887878,[0.98307503],0.005,0.1,0.03248622869623508,0.6113657974765037,0
2.432573080062866,0.6205863243556646,[0.98818346],0.005,0.1,-0.033496688769533,0.5348360947990236,0
2.4406027793884277,0.623908102540188,[0.99346026],0.005,0.1,-0.07964620265146219,0.37156018230844995,0
2.44953989982605,0.6276206781581847,[0.998859],0.005,0.1,-0.10968519850990799,0.36885632812662406,0
2.457282543182373,0.6305516589092349,[1.00433836],0.005,0.1,-0.12751297596965167,0.2758866798718034,0
2.466400384902954,0.6342642345272317,[1.00986984],0.005,0.1,-0.13649130767601608,0.3968605480768847,0
2.4742040634155273,0.6373906139950184,[1.01543631],0.005,0.1,-0.1392763391333945,0.29380955262860187,0
2.4858527183532715,0.6418847844799619,[1.02102289],0.005,0.1,-0.13786665586419677,0.41534328973005735,0
2.496657371520996,0.6461835562481684,[1.02662508],0.005,0.1,-0.1337197144038152,0.40684195841464793,0
2.5061748027801514,0.6500915305829019,[1.03223149],0.005,0.1,-0.12787465811041607,0.3025716671733976,0
2.5191173553466797,0.6555626946515287,[1.03782568],0.005,0.1,-0.12105887363926271,0.43919863478911925,0
2.5281805992126465,0.6590798715527887,[1.04341134],0.005,0.1,-0.11377280726070704,0.4376468629030658,0
2.53855037689209,0.6633786433209955,[1.04899273],0.005,0.1,-0.10635438903277498,0.4380856124229391,0
2.5475988388061523,0.6668958202222556,[1.05456609],0.005,0.1,-0.09902660030426749,0.44150149495555224,0
2.5551838874816895,0.6698268009733056,[1.06012871],0.005,0.1,-0.09193195492930335,0.44529238404542953,0
2.5671939849853516,0.6747117688917224,[1.06567827],0.005,0.1,-0.0851571808762916,0.4429436945829877,0
2.5775718688964844,0.6794013380934025,[1.07121198],0.005,0.1,-0.07875072628852858,0.43476857388868445,0
2.586202621459961,0.6827231162779259,[1.07671806],0.005,0.1,-0.07273508822474509,0.32065745973075976,0
2.595717191696167,0.6864356918959225,[1.08218372],0.005,0.1,-0.0671154432551348,0.42629313405617175,0
2.605602741241455,0.6901482675139192,[1.08760972],0.005,0.1,-0.061885655286959385,0.38297845192301966,0
2.613719940185547,0.693274646981706,[1.09298634],0.005,0.1,-0.05703243312380908,0.27090880353908653,0
2.623009204864502,0.6969872225997028,[1.09828741],0.005,0.1,-0.052538188163409716,0.2512318514766741,0
2.6311986446380615,0.7005043995009628,[1.1034881],0.005,0.1,-0.04838298214673782,0.18509881663022654,0
2.639167070388794,0.7036307789687495,[1.10856481],0.005,0.1,-0.04454584002744621,0.1721461690581215,0
2.648169755935669,0.7073433545867464,[1.11349829],0.005,0.1,-0.041005621405403855,0.15178560335786884,0
2.660653829574585,0.7124237212218996,[1.11827455],0.005,0.1,-0.037741586230802274,0.14032207763090218,0
2.6694676876068115,0.7159408981231598,[1.12287762],0.005,0.1,-0.03473374977460802,0.10613963903881812,0
2.6784608364105225,0.7196534737411566,[1.12728711],0.005,0.1,0.24407526644348734,0.09156210659236491,0
2.6866366863250732,0.7227798532089431,[1.13148411],0.005,0.1,0.2797512865875049,0.08191886866729896,0
2.6941800117492676,0.7257108339599934,[1.13545369],0.005,0.1,0.22700302272919962,0.07515563359690723,0
2.7041397094726562,0.7296188082947267,[1.13918388],0.005,0.1,0.15308027328252388,0.07239895649011362,0
2.714143991470337,0.73352678262946,[1.1426677],0.005,0.1,0.08454769859183428,0.07090795188614274,0
2.7236108779907227,0.7374347569641935,[1.14590337],0.005,0.1,-0.24628098269794857,0.07016406251929896,0
2.7341690063476562,0.7415381300156635,[1.14889396],0.005,0.1,-0.31971782939658877,0.06980068967805614,0
2.7441673278808594,0.7454461043503969,[1.15164781],0.005,0.1,-0.5685232502099169,0.07029300516483879,0
2.7552616596221924,0.7495494774018672,[1.15417876],0.005,0.1,-0.8197020429312198,0.0722815079249872,0
2.7643930912017822,0.753066654303127,[1.15650601],0.005,0.1,-1.0140846662747185,0.07721605278249578,0
2.7732386589050293,0.7561930337709138,[1.15865348],0.005,0.1,-1.1410772086479257,0.08576008942620307,0
2.78218674659729,0.7597102106721738,[1.1606487],0.005,0.1,-1.2085486353940482,0.0978306761995415,0
2.790148973464966,0.762641191423224,[1.16251692],0.005,0.1,-1.2295321082017843,0.09238313199563951,0
2.7981855869293213,0.7657675708910107,[1.16428044],0.005,0.1,-1.2168052147093151,0.11167163704729571,0
2.808748960494995,0.7698709439424808,[1.16596758],0.005,0.1,-1.1810400304554447,0.13460218694105403,0
2.816547393798828,0.7728019246935308,[1.16760585],0.005,0.1,-1.1304794212190687,0.12180993961269566,0
2.8261704444885254,0.7761237028780542,[1.16921696],0.005,0.1,-1.071195447838559,0.1549336948490052,0
2.834167003631592,0.7790546836291042,[1.17082942],0.005,0.1,-0.7314738010932624,0.19328958356205733,0
2.845142126083374,0.7831580566805743,[1.17247787],0.005,0.1,-0.3572206507930286,0.2350943944513084,0
2.8551313877105713,0.7870660310153078,[1.17419617],0.005,0.1,-0.038669807095586234,0.2807285969908472,0
2.8657174110412598,0.7909740053500411,[1.17602618],0.005,0.1,0.2018842712583968,0.4519377685046691,0
2.875246047973633,0.794686580968038,[1.17800642],0.005,0.1,0.6452338647081208,0.3447702256979527,0
2.884134292602539,0.7983991565860346,[1.18015311],0.005,0.1,1.0619043848866825,0.39930749156852496,0
2.8941731452941895,0.8025025296375047,[1.18248092],0.005,0.1,1.3780739920194294,0.4477647708364718,0
2.906202793121338,0.807582896272658,[1.18501104],0.005,0.1,1.8613115515705754,0.483562288051023,0
2.9142508506774902,0.8107092757404448,[1.18775938],0.005,0.1,2.0081557571882818,0.5083545962415827,0
2.922729015350342,0.8140310539249681,[1.19073573],0.005,0.1,2.2707213943644167,0.5166521272641182,0
2.9305505752563477,0.8173528321094915,[1.19394322],0.005,0.1,1.9413364853491406,0.5097406456054274,0
2.9393086433410645,0.820674610294015,[1.19736969],0.005,0.1,1.736668955027739,0.36931742260404726,0
2.9471933841705322,0.8241917871952751,[1.2009901],0.005,0.1,1.5902072239463223,0.3830543916475855,0
2.955214738845825,0.8275135653797985,[1.20477041],0.005,0.1,1.1951946427597708,0.38359897197354936,0
2.9661853313446045,0.8322031345814787,[1.20867748],0.005,0.1,0.5048203828729904,0.4878254225810611,0
2.975214958190918,0.835524912766002,[1.21269566],0.005,0.1,0.12049128690742136,0.3395349044639634,0
2.9859511852264404,0.8400190832509454,[1.21681483],0.005,0.1,-0.09371463348500488,0.4118589763183954,0
2.994157075881958,0.8429500640019953,[1.2210215],0.005,0.1,-0.21131719086650144,0.2867624840210638,0
3.003157377243042,0.8464672409032555,[1.22529389],0.005,0.1,-0.27293317316553933,0.27243430208822295,0
3.0139901638031006,0.8507660126714622,[1.22961523],0.005,0.1,-0.5775776032519484,0.31825996316158667,0
3.025282382965088,0.8554555818731422,[1.23398012],0.005,0.1,-0.6196254608917804,0.27776640825176896,0
3.0342953205108643,0.8589727587744024,[1.23837507],0.005,0.1,-0.5616926237215183,0.2476452440661753,0
3.043424606323242,0.8628807331091358,[1.24278061],0.005,0.1,-0.47583293040007413,0.22376818267048185,0
3.053452730178833,0.8665933087271326,[1.24718302],0.005,0.1,-0.3915841359641997,0.24758566063694612,0
3.0615131855010986,0.869915086911656,[1.25156881],0.005,0.1,-0.3191623122807842,0.17599320154794126,0
3.0701520442962646,0.8736276625296527,[1.25591128],0.005,0.1,-0.26047897193212344,0.13431820388848095,0
3.0791447162628174,0.877535636864386,[1.26017824],0.005,0.1,-0.21424351022029725,0.10971549487742058,0
3.090726137161255,0.8822252060660662,[1.26435073],0.005,0.1,-0.17823008103218507,0.13706212169483395,0
3.1001663208007812,0.8859377816840628,[1.26842443],0.005,0.1,-0.15021193688997728,0.1290348737583793,0
3.111680746078491,0.890627350885743,[1.27239772],0.005,0.1,-0.1282891786769537,0.13750939125939196,0
3.1201648712158203,0.894144527787003,[1.27626382],0.005,0.1,-0.11095498864943189,0.10455678232522943,0
3.1284496784210205,0.8974663059715264,[1.28000951],0.005,0.1,0.17897800585956883,0.09601792952337922,0
3.1371819972991943,0.9007880841560499,[1.28362233],0.005,0.1,0.22341445070587101,0.08792532410225051,0
3.145780086517334,0.9039144636238364,[1.28709196],0.005,0.1,0.17767710863154973,0.07472428298557335,0
3.1552364826202393,0.90782243795857,[1.29040765],0.005,0.1,-0.16657658281939952,0.07152378240494829,0
3.1641407012939453,0.9115350135765666,[1.29356288],0.005,0.1,-0.2635070587213634,0.06856090037469639,0
3.1767778396606445,0.9166153802117202,[1.29655651],0.005,0.1,-0.25922058409055787,0.06915263262114223,0
3.1842527389526367,0.9197417596795069,[1.29938889],0.005,0.1,-0.22004603455892696,0.0628448049928884,0
3.1926181316375732,0.9230635378640303,[1.30205912],0.005,0.1,-0.4504784965842561,0.06200511261325358,0
3.2021517753601074,0.9265807147652902,[1.30456886],0.005,0.1,-0.442498146908433,0.06167487726035462,0
3.2115306854248047,0.930293290383287,[1.30692218],0.005,0.1,-0.6299935202189239,0.058528131594348845,0
3.2195839881896973,0.9332242711343369,[1.30912386],0.005,0.1,-0.8372480331594641,0.06009875090128889,0
3.2279651165008545,0.9361552518853872,[1.31118334],0.005,0.1,-1.001439655204284,0.062490274184189704,0
3.2382614612579346,0.9400632262201205,[1.31311443],0.005,0.1,-1.1085513423296918,0.06541131694261024,0
3.246116876602173,0.9431896056879073,[1.31492988],0.005,0.1,-1.163629453749261,0.06186282395776937,0
3.254134178161621,0.9459251877222207,[1.31664118],0.005,0.1,-1.177524359176931,0.06772027482730252,0
3.2631123065948486,0.9490515671900073,[1.31826437],0.005,0.1,-1.4374263076123859,0.07462659509102224,0
3.2741222381591797,0.952764142808004,[1.31981919],0.005,0.1,-1.4338736783235302,0.08167516750515526,0
3.2830843925476074,0.9556951235590542,[1.32132511],0.005,0.1,-1.3289571904325919,0.0887022329913816,0
3.293163537979126,0.9594076991770509,[1.32280049],0.005,0.1,-1.1953881864858573,0.09434381814744708,0
3.302842617034912,0.9629248760783109,[1.32426195],0.005,0.1,-0.7875881652024325,0.09854020774610926,0
3.3121328353881836,0.966442052979571,[1.32572392],0.005,0.1,-0.6355550620766814,0.10082376969326137,0
3.3212454319000244,0.9697638311640945,[1.32719449],0.005,0.1,-0.5871385354467601,0.08347177295253101,0
3.3323090076446533,0.9734764067820911,[1.3286794],0.005,0.1,-0.5742400240828838,0.10432386801958285,0
3.340163230895996,0.9764073875331412,[1.33018598],0.005,0.1,-0.29229979082599916,0.08331365021759196,0
3.3502156734466553,0.9799245644344012,[1.33171521],0.005,0.1,0.02621083005149502,0.08189101087223279,0
3.36220383644104,0.9840279374858714,[1.33326767],0.005,0.1,0.01962720813672679,0.08806538729964511,0
3.3717474937438965,0.9873497156703948,[1.33484408],0.005,0.1,0.18541696138782826,0.0685009857630584,0
3.382155418395996,0.9912576900051281,[1.33643628],0.005,0.1,0.37298588478789285,0.06129474361798287,0
3.394122362136841,0.9953610630565983,[1.33803293],0.005,0.1,0.5274537749124713,0.05329319240432956,0
3.4061973094940186,0.999659834824805,[1.33962166],0.005,0.1,0.635584787899676,0.04534943422291548,0
3.4161908626556396,1.0027862142925916,[1.34118527],0.005,0.1,0.4245850568477183,0.03978434682948481,0
3.426755905151367,1.0063033911938517,[1.34269907],0.005,0.1,0.4218585141114592,0.04177553422924745,0
3.4345614910125732,1.0088435745114284,[1.34413484],0.005,0.1,0.20561331928473384,0.04530128952302254,0
3.4441721439361572,1.0119699539792153,[1.34546568],0.005,0.1,0.23527270534922934,0.0626741387152911,0
3.455899953842163,1.0156825295972118,[1.34665446],0.005,0.1,0.05961645096553006,0.12386226170634321,0
3.4641354084014893,1.0182227129147887,[1.34766024],0.005,0.1,-0.42553050839979484,0.11807057663946662,0
3.475131034851074,1.0217398898160488,[1.34845459],0.005,0.1,-0.6370108267103637,0.1656145705319379,0
3.4831173419952393,1.0246708705670988,[1.34901682],0.005,0.1,-0.7125450962016864,0.15420046703905732,0
3.491114854812622,1.0270156551679388,[1.3493282],0.005,0.1,-0.44536432593680636,0.2189341892268089,0
3.5001728534698486,1.0303374333524622,[1.34935296],0.005,0.1,-0.3892876469882248,0.39739542172161485,0
3.5098605155944824,1.0336592115369856,[1.34904099],0.005,0.1,-0.1311312430012056,0.44052760049195916,0
3.5181288719177246,1.0365901922880356,[1.34837963],0.005,0.1,0.4206570502854407,0.4352333828370186,0
3.5261149406433105,1.0395211730390856,[1.3473906],0.005,0.1,0.9571071515986215,0.46894094959515537,0
3.536195993423462,1.043429147373819,[1.34606516],0.005,0.1,1.651245909706362,0.6378814187753833,0
3.5440988540649414,1.0463601281248691,[1.34437992],0.005,0.1,2.2444591003449332,0.4591000301462388,0
3.5521328449249268,1.0496819063093925,[1.34235123],0.005,0.1,2.9415686025117447,0.34615840840899675,0
3.5615696907043457,1.0533944819273893,[1.34000935],0.005,0.1,3.7804214480274503,0.3727580204959545,0
3.571228265762329,1.0573024562621227,[1.337367],0.005,0.1,4.184130192398467,0.37451263436927484,0
3.5811471939086914,1.0614058293135928,[1.33442659],0.005,0.1,4.320808312461706,0.4373735524343163,0
3.5901334285736084,1.0651184049315896,[1.33120079],0.005,0.1,4.293684028936234,0.2939445271851182,0
3.599731206893921,1.0692217779830595,[1.32772185],0.005,0.1,3.6153680576204685,0.2955933681869388,0
3.6091299057006836,1.0727389548843196,[1.32402962],0.005,0.1,2.81286398069477,0.1897157150974263,0
3.618091583251953,1.076646929219053,[1.320176],0.005,0.1,2.0890927406101802,0.12493054906553325,0
3.6261110305786133,1.0799687074035764,[1.31621864],0.005,0.1,1.227082537038517,0.09707183960968815,0
3.6391122341156006,1.085439871472203,[1.3122062],0.005,0.1,0.7456546951367891,0.07132055827649655,0
3.6471338272094727,1.0883708522232534,[1.30818592],0.005,0.1,0.19325944763388714,0.04248705566318741,0
3.6551079750061035,1.0916926304077768,[1.30420829],0.005,0.1,-0.27935132081866715,0.025579428347466387,0
3.6640756130218506,1.0950144085923001,[1.30032324],0.005,0.1,-0.6331232251612284,0.013730647301374901,0
3.6765689849853516,1.0998993765107168,[1.29658218],0.005,0.1,-0.8738148747333004,0.0077825527200401775,0
3.6861398220062256,1.1032211546952402,[1.29303434],0.005,0.1,-1.0218774903538452,0.007458418429753358,0
3.6980912685394287,1.107519926463447,[1.28972305],0.005,0.1,-1.3757574898684926,0.016662958204380632,0
3.70615553855896,1.110450907214497,[1.28668707],0.005,0.1,-1.9882027568895482,0.01524335007608917,0
3.71509051322937,1.113968084115757,[1.28395508],0.005,0.1,-2.267644646552262,0.024007339409571248,0
3.7245070934295654,1.1172898623002805,[1.28155237],0.005,0.1,-2.911630473268444,0.03439090923297652,0
3.734128713607788,1.1206116404848039,[1.27950481],0.005,0.1,-3.2396642152818904,0.04521737363574259,0
3.7431459426879883,1.123542621235854,[1.27783338],0.005,0.1,-3.3647590044550517,0.056053880508521475,0
3.751333713531494,1.1260828045534306,[1.27654721],0.005,0.1,-3.3603623328173198,0.04363267375971045,0
3.761186361312866,1.1295999814546906,[1.27564469],0.005,0.1,-3.2747804304157953,0.05730617420692,0
3.7711188793182373,1.1327263609224774,[1.27512871],0.005,0.1,-3.140020079999715,0.07034347143152948,0
3.7816290855407715,1.1362435378237374,[1.27501401],0.005,0.1,-2.9773484949419045,0.11659309762022216,0
3.7892112731933594,1.1387837211413143,[1.27530214],0.005,0.1,-2.800868911551248,0.1154314726466709,0
3.799804449081421,1.1421054993258377,[1.27597526],0.005,0.1,-2.343825486924268,0.15930922794590055,0
3.8130791187286377,1.146599669810781,[1.2770398],0.005,0.1,-2.131191209933889,0.19766939420933435,0
3.8224778175354004,1.149530650561831,[1.27851447],0.005,0.1,-1.7360445369128912,0.178565234839704,0
3.831606388092041,1.152461631312881,[1.28039498],0.005,0.1,-1.0603358461223102,0.1675406150458236,0
3.839257001876831,1.155001814630458,[1.28265647],0.005,0.1,-0.4099468067066962,0.11670507731218109,0
3.849160671234131,1.1585189915317178,[1.2852746],0.005,0.1,0.38967310883640915,0.17580420065655739,0
3.8585591316223145,1.1616453709995045,[1.28822508],0.005,0.1,0.8047031455546296,0.1761276764729593,0
3.867621660232544,1.164967149184028,[1.29146523],0.005,0.1,1.2834214562468522,0.17290847654736402,0
3.875096321105957,1.1678981299350781,[1.29495608],0.005,0.1,1.9523282143308296,0.12288184104167169,0
3.8851330280303955,1.171610705553075,[1.29867155],0.005,0.1,2.2559170701884033,0.13709879655985827,0
3.894219398498535,1.1749324837375983,[1.30259739],0.005,0.1,2.633159033752525,0.15000720034028456,0
3.9020979404449463,1.1776680657719116,[1.30672934],0.005,0.1,2.6548050568372217,0.16139365415690296,0
3.912863254547119,1.1817714388233818,[1.31107151],0.005,0.1,2.5259787820194743,0.22862108903914016,0
3.9221062660217285,1.1852886157246416,[1.3156244],0.005,0.1,2.6189040337869454,0.15702824751511396,0
3.9331085681915283,1.1895873874928484,[1.32036493],0.005,0.1,2.7341506308735566,0.16103942962846415,0
3.942600727081299,1.1932999631108452,[1.32526927],0.005,0.1,2.5258396804573655,0.1619230981206625,0
3.953110694885254,1.1974033361623153,[1.33032249],0.005,0.1,2.498650563837507,0.1582223938421836,0
3.969261407852173,1.2038514938146252,[1.33552287],0.005,0.1,2.7810031627704834,0.24568529822039653,0
3.979210376739502,1.2077594681493586,[1.34087869],0.005,0.1,2.7999708026822376,0.1987051078019641,0
3.9871504306793213,1.2108858476171456,[1.34637368],0.005,0.1,2.4208866248951098,0.16480248412899015,0
3.9983317852020264,1.2151846193853522,[1.35197874],0.005,0.1,1.956605116089761,0.17450059010224034,0
4.00676155090332,1.2187017962866122,[1.35766493],0.005,0.1,1.253585932297784,0.11051847649160972,0
4.015443563461304,1.222414371904609,[1.36338496],0.005,0.1,0.8682621905716819,0.07342527065600787,0
4.023428201675415,1.225540751372396,[1.36909007],0.005,0.1,0.3719903861532042,0.07195759678476801,0
4.032339096069336,1.2292533269903925,[1.37474956],0.005,0.1,-0.07017893624650359,0.06841327232958068,0
4.040112257003784,1.2325751051749159,[1.38034132],0.005,0.1,-0.4100729409453176,0.06308760293753532,0
4.049030780792236,1.2358968833594395,[1.38583938],0.005,0.1,-0.9235719168389742,0.04242363225128289,0
4.058164596557617,1.2394140602606996,[1.39121077],0.005,0.1,-1.1082856653567918,0.029638147888477316,0
4.0661396980285645,1.2421496422950127,[1.39642268],0.005,0.1,-1.4147738901357334,0.021670247233284482,0
4.075484752655029,1.2458622179130094,[1.40145354],0.005,0.1,-1.685263446880938,0.02705312346644399,0
4.0855865478515625,1.2495747935310062,[1.40629196],0.005,0.1,-1.872545255375303,0.019599074650386922,0
4.096221208572388,1.253287369149003,[1.41092302],0.005,0.1,-2.2510184419329975,0.012504585452427414,0
4.109229803085327,1.2579769383506831,[1.41532473],0.005,0.1,-2.5921331254780657,0.006266067492269717,0
4.119173049926758,1.2611033178184698,[1.41947214],0.005,0.1,-2.8253009836736256,0.0040252089455944835,0
4.12804102897644,1.2640342985695197,[1.42334193],0.005,0.1,-2.9455044592454875,0.004446199787490258,0
4.13911771774292,1.267356076754043,[1.42691411],0.005,0.1,-3.247187049421562,0.008186185703675146,0
4.149457693099976,1.2706778549385667,[1.43015918],0.005,0.1,-3.2349816180950297,0.03164588968295806,0
4.160969018936157,1.2743904305565632,[1.43303531],0.005,0.1,-3.3612418560582453,0.052924362678606646,0
4.17378306388855,1.2786892023247702,[1.43549619],0.005,0.1,-3.4677636920469883,0.11338166884398224,0
4.181715488433838,1.2812293856423467,[1.43749538],0.005,0.1,-3.506077449457604,0.13886309316787165,0
4.1911725997924805,1.2837695689599238,[1.4390092],0.005,0.1,-3.197037302585941,0.11429517157290366,0
4.201987028121948,1.2867005497109734,[1.44003621],0.005,0.1,-3.0725407384885544,0.14643294453893096,0
4.21468448638916,1.2908039227624437,[1.44055806],0.005,0.1,-2.7182127066823876,0.23741771337108122,0
4.222409009933472,1.2931487073632837,[1.44054269],0.005,0.1,-2.048544356158349,0.24386528968367632,0
4.230133771896362,1.2954934919641234,[1.43997807],0.005,0.1,-1.1039525176540832,0.24671144935641948,0
4.240690469741821,1.2986198714319104,[1.43887067],0.005,0.1,-0.5130986948029853,0.24386380213407827,0
4.249040126800537,1.301355453466224,[1.43724377],0.005,0.1,0.4098231643612796,0.17628490258126403,0
4.259107828140259,1.3046772316507471,[1.43513538],0.005,0.1,1.2593979000046973,0.18386003096194167,0
4.271631956100464,1.3087806047022175,[1.43256546],0.005,0.1,2.184861246980814,0.2342386742777203,0
4.280074596405029,1.3117115854532673,[1.42954913],0.005,0.1,2.9327043559167953,0.15878760793742785,0
4.2880566120147705,1.3144471674875808,[1.42613651],0.005,0.1,3.1700327455564086,0.11235290120242333,0
4.300872087478638,1.3189413379725243,[1.42237719],0.005,0.1,3.7119193279617186,0.15120497075919812,0
4.3135621547698975,1.3234355084574676,[1.41828034],0.005,0.1,4.204372165845043,0.17668552844280985,0
4.322112321853638,1.3263664892085176,[1.41385695],0.005,0.1,3.984812113446919,0.11693433766184841,0
4.330968856811523,1.3292974699595674,[1.40914704],0.005,0.1,3.5298825749724405,0.11047221312699781,0
4.342234373092651,1.3334008430110378,[1.40418608],0.005,0.1,3.0432420833918687,0.10151574790221753,0
4.350706338882446,1.3363318237620878,[1.39899555],0.005,0.1,2.602333453310779,0.0930390335006898,0
4.360358238220215,1.3396536019466112,[1.39359434],0.005,0.1,1.952656761229471,0.08239338526951868,0
4.368852138519287,1.3429753801311346,[1.38799891],0.005,0.1,1.3357634435447956,0.06998730652520938,0
4.377072811126709,1.3457109621654482,[1.38222349],0.005,0.1,0.8306069414534785,0.05678536568705124,0
4.386068344116211,1.348641942916498,[1.37629199],0.005,0.1,0.17140378640434792,0.03143612749389567,0
4.398945093154907,1.3523545185344947,[1.37022486],0.005,0.1,-0.4142106368746494,0.02355275244360981,0
4.4090657234191895,1.3556762967190181,[1.36401653],0.005,0.1,-0.8598922204582212,0.0020006841899920225,0
4.417100191116333,1.3580210813198583,[1.35766311],0.005,0.1,-1.1655172221335157,-0.01810284071870101,0
4.425530672073364,1.3607566633541714,[1.35118617],0.005,0.1,-1.6300274071289698,-0.02710502046575034,0
4.435431718826294,1.3632968466717486,[1.34461752],0.005,0.1,-2.0378813571189385,-0.04740119384366531,0
4.446671009063721,1.3660324287060617,[1.33797395],0.005,0.1,-2.601583532332367,-0.06904995467551406,0
4.456120729446411,1.368181814590165,[1.33126012],0.005,0.1,-3.6292231397464345,-0.08880570353061604,0
4.46466588973999,1.3699404030407951,[1.32448293],0.005,0.1,-4.0153716778861925,-0.10575725602855277,0
4.474086761474609,1.3716989914914248,[1.31765196],0.005,0.1,-4.62548412869582,-0.11951544713106668,0
4.483827114105225,1.3732621812253185,[1.31077981],0.005,0.1,-5.0,-0.12866060194751372,0
4.49457859992981,1.3748253709592118,[1.30387362],0.005,0.1,-5.0,-0.16932748949856002,0
4.503081560134888,1.3756069658261585,[1.29694531],0.005,0.1,-5.0,-0.1217542736136221,0
4.513072490692139,1.3763885606931052,[1.29002855],0.005,0.1,-5.0,-0.11898492777953092,0
4.52480149269104,1.3771701555600517,[1.28315122],0.005,0.1,-5.0,-0.1401021901033149,0
4.532456159591675,1.3773655542767886,[1.27633371],0.005,0.1,-5.0,-0.09614493495357503,0
4.541068077087402,1.3775609529935253,[1.26961147],0.005,0.1,-5.0,-0.08660990705498085,0
4.549106597900391,1.3775609529935253,[1.26302392],0.005,0.1,-5.0,-0.06054423792410156,0
4.557113885879517,1.3775609529935253,[1.25661024],0.005,0.1,-5.0,-0.04385345899124653,0
4.5671093463897705,1.3775609529935253,[1.25040457],0.005,0.1,-4.923921959436837,-0.04280802788738398,0
4.576849699020386,1.3771701555600517,[1.24442749],0.005,0.1,-4.883850899277224,-0.03927431703292013,0
4.589718818664551,1.3767793581265784,[1.23869056],0.005,0.1,-4.804381377446639,-0.04132558195885258,0
4.600358486175537,1.3763885606931052,[1.23320228],0.005,0.1,-4.3936338238977175,-0.0327903636170621,0
4.611065626144409,1.3761931619763685,[1.22797355],0.005,0.1,-3.3494564540656544,-0.025969858229883045,0
4.620721340179443,1.3756069658261585,[1.22301465],0.005,0.1,-1.9834765465310582,-0.02365877424948483,0
4.629180908203125,1.3752161683926851,[1.21833305],0.005,0.1,-0.7496106857294285,-0.016053747782038535,0
4.638102054595947,1.374629972242475,[1.21393632],0.005,0.1,0.4923136263793042,-0.013463639484844112,0
4.648064613342285,1.3740437760922652,[1.20982846],0.005,0.1,1.494959376991706,-0.011705447068576262,0
4.657278776168823,1.373457579942055,[1.20600956],0.005,0.1,2.2121152256620285,-0.009341994744011128,0
4.665919065475464,1.372871383791845,[1.20247736],0.005,0.1,2.674538331951699,-0.009200430583257856,0
4.676884412765503,1.3720897889248986,[1.19922474],0.005,0.1,2.934982645016352,-0.009384942868721732,0
4.686352729797363,1.3713081940579517,[1.19623998],0.005,0.1,3.3217239351187438,-0.009968799166736752,0
4.694143772125244,1.3707219979077419,[1.19351003],0.005,0.1,3.6357913194864127,-0.009124882595401914,0
4.704904079437256,1.3701358017575318,[1.19101853],0.005,0.1,3.8231554073437968,-0.013339808991916077,0
4.716228008270264,1.3691588081738484,[1.18873988],0.005,0.1,3.888243992143855,-0.01988602555751329,0
4.72655463218689,1.3683772133069014,[1.18664416],0.005,0.1,4.13097246562039,-0.022235207475745308,0
4.734029054641724,1.3677910171566916,[1.18471132],0.005,0.1,4.059172544024083,-0.022463645095011982,0
4.7447755336761475,1.3668140235730084,[1.18292603],0.005,0.1,4.1270647534680025,-0.03294877553171942,0
4.755056619644165,1.365837029989325,[1.1812599],0.005,0.1,3.901475172592245,-0.04298864791822009,0
4.763024568557739,1.365250833839115,[1.17968705],0.005,0.1,3.5774287735288377,-0.043303268144773165,0
4.773041486740112,1.3642738402554317,[1.17819722],0.005,0.1,3.2403189495487057,-0.040437672695497674,0
4.781782388687134,1.3632968466717486,[1.1767779],0.005,0.1,2.92416974190703,-0.037871661203122714,0
4.791151285171509,1.362319853088065,[1.17541176],0.005,0.1,2.639748165275372,-0.03555039325201728,0
4.802140474319458,1.3611474607876448,[1.17408429],0.005,0.1,2.1118676477269633,-0.03341418211233843,0
4.812604904174805,1.3597796697704883,[1.17278053],0.005,0.1,1.8565865974435278,-0.03937276392672805,0
4.822138547897339,1.3586072774700682,[1.17148507],0.005,0.1,1.715306936003933,-0.03574585997336384,0
4.8301355838775635,1.3576302838863845,[1.17019339],0.005,0.1,1.3409568145348567,-0.0356580885567331,0
4.8390724658966064,1.3564578915859649,[1.16891003],0.005,0.1,0.9465930462409964,-0.033573522346290866,0
4.849171161651611,1.355090100568808,[1.16762907],0.005,0.1,0.8853932427691645,-0.042035903805486344,0
4.859806060791016,1.3535269108349148,[1.1663351],0.005,0.1,0.6564371200377743,-0.040506576717785,0
4.869747638702393,1.3521591198177578,[1.16501634],0.005,0.1,0.6851262400619986,-0.04094116653811445,0
4.8781397342681885,1.3511821262340749,[1.16366417],0.005,0.1,0.7831046805681686,-0.04299476330379761,0
4.887607574462891,1.3496189365001814,[1.16226958],0.005,0.1,0.5993427627278665,-0.04598356435209113,0
4.896291971206665,1.3484465441997613,[1.16082793],0.005,0.1,0.6286214604156124,-0.0360945978363543,0
4.906023740768433,1.346883354465868,[1.15933858],0.005,0.1,0.7133928262177179,-0.043205178238491126,0
4.917154312133789,1.345124766015238,[1.15779032],0.005,0.1,0.5153271980569529,-0.06943473090855976,0
4.925071954727173,1.3437569749980813,[1.15616799],0.005,0.1,0.5336749604926888,-0.05281073752937909,0
4.93323278427124,1.3423891839809245,[1.15446771],0.005,0.1,0.8878560199904808,-0.06193204236864857,0
4.942100524902344,1.3406305955302946,[1.15268491],0.005,0.1,0.7201500082404312,-0.07133189558738492,0
4.951944589614868,1.3388720070796645,[1.15080925],0.005,0.1,0.6836570613608834,-0.08119839413947438,0
4.9600653648376465,1.3373088173457712,[1.14883716],0.005,0.1,0.41210613686170716,-0.06377668102299615,0
4.97092342376709,1.3349640327449313,[1.14676429],0.005,0.1,0.11151594558155331,-0.11190936451896966,0
4.979069948196411,1.3334008430110378,[1.14457988],0.005,0.1,-0.14265094460584582,-0.08528666797534273,0
4.9891157150268555,1.3312514571269343,[1.14228129],0.005,0.1,-0.055827651691818414,-0.10149763231127494,0
4.9981489181518555,1.3294928686763046,[1.13986554],0.005,0.1,-0.15107037333116283,-0.11727137412182088,0
5.006160259246826,1.3277342802256742,[1.13733044],0.005,0.1,-0.008991030386592727,-0.09149740080617799,0
5.016118049621582,1.3253894956248342,[1.13468162],0.005,0.1,-0.09341952511947146,-0.11321432523617098,0
5.026104927062988,1.323240109740731,[1.13190796],0.005,0.1,-0.23362109528383196,-0.1854455162609711,0
5.034075021743774,1.3210907238566276,[1.12900066],0.005,0.1,-0.638378203941176,-0.18641705294161662,0
5.0461390018463135,1.3179643443888407,[1.1259688],0.005,0.1,-1.0437578069010718,-0.2542162675393454,0
5.0559165477752686,1.3154241610712643,[1.12280378],0.005,0.1,-1.3597906347811843,-0.24124184385010422,0
5.068532705307007,1.3117115854532673,[1.11948196],0.005,0.1,-1.5706900761710227,-0.30726673244650465,0
5.0776543617248535,1.3087806047022175,[1.11598354],0.005,0.1,-1.9648557520115715,-0.2830827399443694,0
5.086650848388672,1.3056542252344305,[1.1123012],0.005,0.1,-2.043525048232682,-0.26930151037864386,0
5.094267129898071,1.3031140419168539,[1.10844761],0.005,0.1,-2.5332117627129147,-0.19138284553464308,0
5.107021808624268,1.2986198714319104,[1.10443406],0.005,0.1,-3.3078454286474477,-0.28498348538946344,0
5.1165382862091064,1.2949072958139138,[1.10025191],0.005,0.1,-3.7113191116002913,-0.2805541767129738,0
5.125149488449097,1.2915855176293904,[1.09590448],0.005,0.1,-3.8740834509327495,-0.2007625825294298,0
5.134036540985107,1.2878729420113935,[1.09141492],0.005,0.1,-3.8819251557351206,-0.22204702245831917,0
5.1435418128967285,1.2839649676766602,[1.08679426],0.005,0.1,-3.79180874643748,-0.2393862086750552,0
5.1520302295684814,1.2804477907754,[1.08205317],0.005,0.1,-3.3657318775303224,-0.1774920456929722,0
5.162054777145386,1.2761490190071934,[1.07721186],0.005,0.1,-2.872041563190859,-0.20674578067152838,0
5.170143127441406,1.272631842105933,[1.07227839],0.005,0.1,-2.1398780207097214,-0.23145415831210295,0
5.181365728378296,1.2679422729042533,[1.06724019],0.005,0.1,-1.168320275911185,-0.3422444536674823,0
5.1890504360198975,1.265011292153203,[1.0620875],0.005,0.1,-0.29025372616719536,-0.24224268594466075,0
5.199980020523071,1.2605171216682596,[1.05683334],0.005,0.1,0.6703974187104967,-0.2608926790966778,0
5.208936929702759,1.2571953434837364,[1.05148939],0.005,0.1,1.467072316669969,-0.2790025259974755,0
5.218081712722778,1.253287369149003,[1.04605581],0.005,0.1,2.3180121243881184,-0.2941479716306477,0
5.2281248569488525,1.2487931986640595,[1.04053321],0.005,0.1,2.7208921644107953,-0.3060769107753103,0
5.237082004547119,1.245471420479536,[1.03493333],0.005,0.1,3.146337405336981,-0.2246423117879485,0
5.245919227600098,1.2417588448615395,[1.02927743],0.005,0.1,3.4604579963140236,-0.25715979659644433,0
5.254083633422852,1.2388278641104893,[1.0235842],0.005,0.1,3.6375236417661148,-0.19638767291224182,0
5.263568878173828,1.234919889775756,[1.01785967],0.005,0.1,3.6931648384219633,-0.33202894452055715,0
5.2711029052734375,1.2317935103079691,[1.01209912],0.005,0.1,3.654817557139919,-0.2422313204319465,0
5.28009033203125,1.2278855359732357,[1.00630979],0.005,0.1,3.2735957990409057,-0.2710715084537152,0
5.289596319198608,1.2239775616385025,[1.00049859],0.005,0.1,3.0911558035359326,-0.2932488159301698,0
5.297107219696045,1.2206557834539788,[0.99466163],0.005,0.1,3.24633162476845,-0.3102581927831961,0
5.305034160614014,1.2173340052694557,[0.9888066],0.005,0.1,2.889703634101631,-0.22862246199065867,0
5.314033269882202,1.213621429651459,[0.98295082],0.005,0.1,2.677396050299377,-0.26132404178031093,0
5.323089361190796,1.2101042527501988,[0.97709911],0.005,0.1,2.5197693258263696,-0.2869770467649879,0
5.333081960678101,1.2060008796987287,[0.9712456],0.005,0.1,2.379461683797373,-0.3051357465097286,0
5.34099817276001,1.2026791015142053,[0.96539575],0.005,0.1,2.5188740577739783,-0.22623839730868886,0
5.350167512893677,1.1989665258962086,[0.95956449],0.005,0.1,2.139564717798141,-0.2599856828305496,0
5.361076831817627,1.1944723554112653,[0.95374461],0.005,0.1,1.9156593435900848,-0.38840426375243314,0
5.369994640350342,1.191150577226742,[0.94792028],0.005,0.1,1.7613481553357835,-0.275891602573023,0
5.380100250244141,1.1870472041752715,[0.9420985],0.005,0.1,1.6376292428628516,-0.2949459285831265,0
5.388684511184692,1.183334628557275,[0.93628566],0.005,0.1,1.5276160856470145,-0.30978844585402177,0
5.396019458770752,1.180403647806225,[0.9304873],0.005,0.1,1.424587288467249,-0.22915699267384565,0
5.405025243759155,1.1764956734714915,[0.924718],0.005,0.1,1.0502495195429713,-0.2604551426833568,0
5.413588762283325,1.1731738952869681,[0.91898032],0.005,0.1,0.9231098032567115,-0.28500090511516457,0
5.421087980270386,1.1702429145359179,[0.91327627],0.005,0.1,0.8886470883751277,-0.21456632727851077,0
5.429120302200317,1.1669211363513945,[0.90761697],0.005,0.1,0.8799105187129135,-0.25071028983506877,0
5.438455581665039,1.162622364583188,[0.90200178],0.005,0.1,0.8705587898226543,-0.27818603443565987,0
5.448327541351318,1.1583235928149813,[0.89642009],0.005,0.1,0.8523391026721232,-0.29908851558587285,0
5.4561192989349365,1.155392612063931,[0.89086244],0.005,0.1,0.8244976042884158,-0.31700829287035526,0
5.4651734828948975,1.151875435162671,[0.88533001],0.005,0.1,0.7889537961290425,-0.23538654681442547,0
5.473501443862915,1.1485536569781476,[0.879833],0.005,0.1,0.7482157222186405,-0.2702341223551484,0
5.481964349746704,1.1452318787936242,[0.87436992],0.005,0.1,0.7045667401126967,-0.29841463946857794,0
5.491337537765503,1.141128505742154,[0.86892937],0.005,0.1,0.6598189512866849,-0.3195399906987561,0
5.500006675720215,1.1376113288408942,[0.86351089],0.005,0.1,0.6153015991582536,-0.23925647043963452,0
5.509049415588379,1.1338987532228972,[0.85812318],0.005,0.1,0.8479714850394899,-0.2780176574603726,0
5.518232345581055,1.1297953801714273,[0.85276315],0.005,0.1,0.5634360060647835,-0.30971311424812764,0
5.527681112289429,1.1260828045534306,[0.84741756],0.005,0.1,0.4356992682175037,-0.33616833942502244,0
5.53502082824707,1.1233472225191172,[0.8420743],0.005,0.1,0.37749331398559827,-0.360107474317135,0
5.544200658798218,1.1194392481843838,[0.83673238],0.005,0.1,0.3482054836140815,-0.2692846230641284,0
5.5530383586883545,1.1159220712831237,[0.83140035],0.005,0.1,0.3296155110928456,-0.3127787979216021,0
5.563436031341553,1.1112325020814438,[0.82607476],0.005,0.1,0.314046957445268,-0.3476018848683103,0
5.5731847286224365,1.1073245277467103,[0.82074198],0.005,0.1,0.29864076237871434,-0.3763712967831221,0
5.582041263580322,1.1038073508454502,[0.81539005],0.005,0.1,0.28263033468939464,-0.39938881971223794,0
5.591033697128296,1.1004855726609268,[0.81001918],0.005,0.1,0.26607576134022576,-0.2976999703784132,0
5.600424528121948,1.0965775983261934,[0.80463998],0.005,0.1,0.24929843288886794,-0.34143044411468493,0
5.610026121139526,1.09266962399146,[0.79925126],0.005,0.1,0.23264548850562694,-0.375346732247317,0
5.618999004364014,1.0891524470901999,[0.79384204],0.005,0.1,0.2164049093631643,-0.40036114310969834,0
5.628012180328369,1.085439871472203,[0.78840369],0.005,0.1,0.20078596295288903,-0.41708071006739666,0
5.6360862255096436,1.0823134920044164,[0.78293993],0.005,0.1,0.18592535054489578,-0.30844950968670254,0
5.6450207233428955,1.078405517669683,[0.77745502],0.005,0.1,0.17190133383664719,-0.47246856369956153,0
5.652978897094727,1.0750837394851596,[0.77195331],0.005,0.1,0.15874844811217398,-0.47791202972661884,0
5.6614484786987305,1.0713711638671628,[0.76645912],0.005,0.1,0.14647013347483684,-0.4660919711343827,0
5.670657396316528,1.067853986965903,[0.76098386],0.005,0.1,0.1350486689069669,-0.45595202081517466,0
5.67799711227417,1.0645322087813796,[0.75552757],0.005,0.1,0.12445260430245372,-0.328293578110282,0
5.687452077865601,1.0608196331633828,[0.75010045],0.005,0.1,0.11464213950936951,-0.3531176207025788,0
5.696303367614746,1.0569116588286493,[0.74470203],0.005,0.1,0.10557292049210565,-0.369591866314549,0
5.70445990562439,1.053589880644126,[0.7393229],0.005,0.1,0.09719865918206747,-0.37953353820962665,0
5.7139763832092285,1.0498773050261292,[0.73394689],0.005,0.1,0.08947289999242508,-0.5058816246296907,0
5.723839044570923,1.045773931974659,[0.72856126],0.005,0.1,0.3583885376104162,-0.3524660244160797,0
5.732663154602051,1.0420613563566625,[0.72317433],0.005,0.1,0.38494971172298226,-0.3594183983242995,0
5.741055250167847,1.038739578172139,[0.71779393],0.005,0.1,0.0477683692861349,-0.3644980846189688,0
5.749418258666992,1.0354177999876155,[0.71242701],0.005,0.1,-0.06700846916935309,-0.268823830352363,0
5.757988214492798,1.0320960218030921,[0.70709719],0.005,0.1,0.18847900327226486,-0.21083229202929965,0
5.766620635986328,1.0283834461850954,[0.70182432],0.005,0.1,0.2363488563410131,-0.2525666322991627,0
5.773985147476196,1.0252570667173089,[0.6966159],0.005,0.1,0.20543437761247302,-0.2019024601615679,0
5.785481214523315,1.020372098798892,[0.69146913],0.005,0.1,-0.1234784772062775,-0.3359449215016686,0
5.793990612030029,1.016854921897632,[0.68637255],0.005,0.1,-0.20833326530544466,-0.25187232245005114,0
5.8019678592681885,1.0137285424298452,[0.68132466],0.005,0.1,0.08005941268024755,-0.28240262420595447,0
5.814113140106201,1.0088435745114284,[0.67631555],0.005,0.1,0.15684409329718355,-0.4057255117803306,0
5.823997259140015,1.0047402014599582,[0.67131979],0.005,0.1,0.1490197803245627,-0.39092807556583276,0
5.834541082382202,1.0006368284084883,[0.66631628],0.005,0.1,0.11364975351708767,-0.49199124764245616,0
5.843632221221924,0.9969242527904917,[0.66129615],0.005,0.1,0.07476651490591152,-0.3408132227886388,0
5.852004528045654,0.9934070758892316,[0.65626912],0.005,0.1,0.04124263925122287,-0.34190679883705055,0
5.862999200820923,0.9889129054042881,[0.65124396],0.005,0.1,0.015319103171935883,-0.34146040739731565,0
5.8730762004852295,0.9846141336360814,[0.64622025],0.005,0.1,-0.003415480947120365,-0.3401266460022305,0
5.882612705230713,0.9809015580180845,[0.64119814],0.005,0.1,-0.01623466578090958,-0.3385046916232151,0
5.891913175582886,0.976602786249878,[0.63617829],0.005,0.1,-0.024518630937171874,-0.33526114483056296,0
5.900097131729126,0.9736718054988278,[0.63116181],0.005,0.1,-0.02947407840622798,-0.3335462256173369,0
5.90946626663208,0.9695684324473578,[0.6261579],0.005,0.1,-0.03206251922009495,-0.24543732794390832,0
5.919007062911987,0.9656604581126244,[0.62118261],0.005,0.1,-0.03301222990562849,-0.26473221043323664,0
5.927973031997681,0.9615570850611541,[0.61624958],0.005,0.1,-0.032857677700776404,-0.20381397241444943,0
5.936560392379761,0.9578445094431576,[0.61137022],0.005,0.1,-0.031982625631736095,-0.23184865329250462,0
5.946442604064941,0.953936535108424,[0.60654632],0.005,0.1,-0.030658040991884024,-0.2523038264961261,0
5.9540040493011475,0.9510055543573741,[0.60177904],0.005,0.1,-0.029072481453979813,-0.19624180511985076,0
5.961967468261719,0.9478791748895873,[0.59707652],0.005,0.1,-0.027355274533656836,-0.2241676622221288,0
5.971706390380859,0.9441665992715907,[0.59243052],0.005,0.1,0.25044467650208385,-0.3236000866939098,0
5.978971242904663,0.9412356185205405,[0.58782639],0.005,0.1,0.2853175846494004,-0.237877135087473,0
5.988011598587036,0.9371322454690706,[0.58326639],0.005,0.1,0.23191832142292448,-0.25097632153399496,0
5.9979939460754395,0.9330288724176004,[0.57875959],0.005,0.1,0.15745825917008618,-0.19280950287863788,0
6.00700044631958,0.9295116955163404,[0.57431338],0.005,0.1,0.08847453234867758,-0.2156529524259805,0
6.017815589904785,0.9250175250313969,[0.56991988],0.005,0.1,0.03329939924410935,-0.3025524212434017,0
6.02700662612915,0.9213049494134001,[0.56555855],0.005,0.1,-0.00734568418467435,-0.29016179478111687,0
6.036064386367798,0.9173969750786667,[0.5612262],0.005,0.1,-0.035501377556253676,-0.2125752893180697,0
6.046393871307373,0.9129028045937233,[0.55693407],0.005,0.1,-0.05385988905807143,-0.22243462536134975,0
6.053983211517334,0.9099718238426734,[0.55269157],0.005,0.1,-0.064929272143767,-0.17266057991297126,0
6.065992116928101,0.9048914572075198,[0.54849984],0.005,0.1,-0.07076922182756057,-0.2514318252413568,0
6.074685573577881,0.9013742803062598,[0.54434015],0.005,0.1,-0.0729664728540235,-0.31743819329095185,0
6.082016468048096,0.8986386982719464,[0.54020316],0.005,0.1,-0.07269769954350312,-0.3197161711485277,0
6.091994524002075,0.8945353252204764,[0.53610684],0.005,0.1,-0.07081356093104424,-0.29232206148615264,0
6.102355003356934,0.8902365534522696,[0.5320534],0.005,0.1,-0.06791749829646247,-0.34506442832884915,0
6.1099724769592285,0.8871101739844829,[0.52803158],0.005,0.1,-0.06443083804782353,-0.2414997000877604,0
6.118954658508301,0.8833975983664862,[0.52404434],0.005,0.1,-0.0606433007581523,-0.23700135662870783,0
6.12734317779541,0.879880421465226,[0.52009395],0.005,0.1,-0.05675079353715173,-0.23434524624647768,0
6.13496208190918,0.8767540419974394,[0.51618193],0.005,0.1,-0.0528830528478907,-0.17730943599140114,0
6.143988847732544,0.8728460676627059,[0.5123155],0.005,0.1,-0.04912356107854142,-0.19032724510222188,0
6.151954650878906,0.8695242894781825,[0.50850031],0.005,0.1,-0.04552374616467754,-0.15098378218608702,0
6.160571098327637,0.8658117138601857,[0.50474061],0.005,0.1,-0.04211302707794466,-0.17001376983668742,0
6.170980215072632,0.8617083408087157,[0.50103331],0.005,0.1,-0.03890587714910851,-0.18377409253421886,0
6.179986000061035,0.8581911639074556,[0.49737532],0.005,0.1,-0.035906764449758065,-0.14612436507099508,0
6.188992500305176,0.8542831895727223,[0.49376975],0.005,0.1,-0.033113589977768185,-0.16430746569924612,0
6.198378086090088,0.8501798165212522,[0.49020677],0.005,0.1,-0.03052006768500318,-0.23051659575538386,0
6.205970287322998,0.8472488357702022,[0.48667169],0.005,0.1,-0.02811736181732727,-0.17308954469227092,0
6.213958978652954,0.8441224563024156,[0.4831641],0.005,0.1,-0.025895204611533926,-0.1829410249252049,0
6.223529815673828,0.8404098806844187,[0.47968354],0.005,0.1,-0.023842651488702356,-0.18954022342332202,0
6.2329370975494385,0.8365019063496852,[0.47622356],0.005,0.1,-0.021948584156014746,-0.19360281720274003,0
6.240996360778809,0.8333755268818985,[0.47277865],0.005,0.1,-0.020202039031045334,-0.1965244635953541,0
6.24907660484314,0.8298583499806385,[0.46935585],0.005,0.1,-0.018592415162436086,-0.19647704911381345,0
6.256991624832153,0.8265365717961152,[0.46597266],0.005,0.1,-0.017109599491391382,-0.19807179224890353,0
6.265948057174683,0.8228239961781183,[0.46263173],0.005,0.1,-0.015744035843574245,-0.19851061922439198,0
6.276880264282227,0.8179390282597016,[0.45931737],0.005,0.1,-0.014486756010235394,-0.25204603497952976,0
6.284950017929077,0.8146172500751782,[0.45601609],0.005,0.1,-0.013329385661360115,-0.18320712306184353,0
6.292951822280884,0.8114908706073914,[0.45272808],0.005,0.1,-0.2883024935835019,-0.1864281117352372,0
6.300951719284058,0.808169092422868,[0.44945922],0.005,0.1,-0.32044673540199575,-0.14452171180778858,0
6.308970928192139,0.8050427129550815,[0.44621439],0.005,0.1,0.01159104411392925,-0.1577453436841502,0
6.317402362823486,0.8015255360538213,[0.44299755],0.005,0.1,0.12163080418334785,-0.1271989801883841,0
6.325701713562012,0.7980083591525613,[0.43981189],0.005,0.1,0.1378200779276949,-0.1433448979161089,0
6.333948373794556,0.7944911822513011,[0.43665986],0.005,0.1,-0.15697866754986908,-0.11788742173168501,0
6.342955589294434,0.7907786066333043,[0.43354337],0.005,0.1,-0.21798168988696304,-0.1346442108175362,0
6.353976726531982,0.7864798348650976,[0.43045279],0.005,0.1,-0.18949613485006428,-0.1891209795415125,0
6.364384412765503,0.7819856643801543,[0.42736899],0.005,0.1,-0.13533355973750982,-0.1841714485511674,0
6.372571706771851,0.7786638861956309,[0.42428175],0.005,0.1,-0.357608230393796,-0.17990645965756044,0
6.3814074993133545,0.7751467092943709,[0.42118844],0.005,0.1,-0.3463338483196124,-0.17592200896244206,0
6.392377853393555,0.7708479375261642,[0.41808735],0.005,0.1,-0.2578427976804471,-0.1717455509218697,0
6.399944543838501,0.7677215580583774,[0.41498274],0.005,0.1,-0.1582071658127003,-0.1313295452351232,0
6.407979488372803,0.7642043811571174,[0.41188905],0.005,0.1,-0.07201526285438323,-0.10699329597172642,0
6.415943145751953,0.7604918055391207,[0.40881854],0.005,0.1,-0.2817028786914898,-0.12022872039820233,0
6.427137136459351,0.7559976350541772,[0.40576589],0.005,0.1,-0.2674042583487151,-0.16601003373388235,0
6.436164617538452,0.7524804581529171,[0.40271632],0.005,0.1,0.09554840295782879,-0.1621980240028981,0
6.444941520690918,0.7485724838181836,[0.39966784],0.005,0.1,0.22462171929224248,-0.12367794341989569,0
6.455462217330933,0.7444691107667136,[0.39662421],0.005,0.1,0.25116649581059136,-0.16607250250268432,0
6.463946104049683,0.7409519338654537,[0.39358366],0.005,0.1,0.23663957701995064,-0.12563684454278126,0
6.472972393035889,0.7372393582474569,[0.39054985],0.005,0.1,0.20880801198577448,-0.130812874247219,0
6.482541561126709,0.7331359851959867,[0.38753101],0.005,0.1,0.17947465207387395,-0.10412283517245013,0
6.49049186706543,0.7298142070114633,[0.3845341],0.005,0.1,0.1530773567697108,-0.11398179963186214,0
6.500239133834839,0.7261016313934666,[0.38155991],0.005,0.1,0.1308040320957535,-0.1216379376019257,0
6.508683919906616,0.7227798532089431,[0.37860397],0.005,0.1,0.11252090926762542,-0.12661938385543908,0
6.516079902648926,0.7198488724578932,[0.37566735],0.005,0.1,0.09764617386007376,-0.10117909307705858,0
6.5239458084106445,0.716331695556633,[0.37275103],0.005,0.1,0.085523384842975,-0.14095947467498107,0
6.5339531898498535,0.712228322505163,[0.36985092],0.005,0.1,0.07556377185873517,-0.10857721645189526,0
6.543021202087402,0.7083203481704297,[0.36696833],0.005,0.1,0.06728626276183997,-0.11483410792249145,0
6.551944971084595,0.7048031712691696,[0.36410438],0.005,0.1,0.06031568269191439,-0.11898411615478886,0
6.562011241912842,0.7006997982176995,[0.36125533],0.005,0.1,0.054366555789659265,-0.12089615920211035,0
6.572139739990234,0.6965964251662294,[0.3584182],0.005,0.1,0.04922427224933326,-0.12139619278866932,0
6.5811686515808105,0.692688450831496,[0.35559532],0.005,0.1,0.04472813487721172,-0.0950993844603588,0
6.589441299438477,0.6895620713637093,[0.35279341],0.005,0.1,0.040757585053435214,-0.10167884659332431,0
6.5992960929870605,0.6856540970289758,[0.35001368],0.005,0.1,0.03722158786612881,-0.10558865379229958,0
6.608849763870239,0.6819415214109791,[0.34725273],0.005,0.1,0.03405069703896375,-0.10753766265677844,0
6.617967128753662,0.6780335470762457,[0.34450797],0.005,0.1,0.03119123135239471,-0.10775105689652772,0
6.625918865203857,0.6747117688917224,[0.34178188],0.005,0.1,0.028601048265366944,-0.0851383148041326,0
6.634932518005371,0.6708037945569889,[0.33908111],0.005,0.1,0.02624649638273567,-0.0898950922934364,0
6.6454548835754395,0.6667004215055189,[0.33640717],0.005,0.1,0.30013858432759705,-0.09252077368672797,0
6.652940034866333,0.6635740420377321,[0.33376139],0.005,0.1,0.33130257089690296,-0.07494059842679501,0
6.661919355392456,0.6598614664197354,[0.33114921],0.005,0.1,0.2744113205243358,-0.07987682158323489,0
6.6719512939453125,0.6559534920850019,[0.32856751],0.005,0.1,-0.07935567409767852,-0.10165668885296801,0
6.682661294937134,0.6514593216000585,[0.32600628],0.005,0.1,-0.18451030162200355,-0.0955361846562836,0
6.690505504608154,0.6481375434155352,[0.32346169],0.005,0.1,0.08862011558681634,-0.09052760881661,0
6.698171615600586,0.6448157652310118,[0.32093506],0.005,0.1,0.1545617368644248,-0.08595875827414742,0
6.706733703613281,0.641689385763225,[0.31843155],0.005,0.1,0.1394049169670445,-0.06752462260192377,0
6.715914011001587,0.6379768101452282,[0.31596268],0.005,0.1,0.09934133578812228,-0.05637399727611753,0
6.7280192375183105,0.6332872409435483,[0.31353504],0.005,0.1,0.33371612154988434,-0.07112315151651079,0
6.736954212188721,0.6297700640422882,[0.31114752],0.005,0.1,0.3318858990345167,-0.057461667102023065,0
6.745956659317017,0.6260574884242914,[0.30880255],0.005,0.1,0.25036277534338597,-0.05835767547953934,0
6.754041910171509,0.622735710239768,[0.30650255],0.005,0.1,0.43170193734950324,-0.0582715500860416,0
6.763097524642944,0.6194139320552446,[0.30424647],0.005,0.1,0.3820095316421784,-0.058066219618623155,0
6.771296262741089,0.6160921538707212,[0.30203325],0.005,0.1,0.5388207635143605,-0.05732608920943553,0
6.7810163497924805,0.6123795782527245,[0.29986184],0.005,0.1,0.4498278237906207,-0.05622970832863002,0
6.789167165756226,0.6092531987849378,[0.29773397],0.005,0.1,0.5692350251537899,-0.0470795799754936,0
6.796990633010864,0.6061268193171511,[0.29565635],0.005,0.1,0.7262288833860766,-0.04162651145586392,0
6.8072381019592285,0.6024142436991544,[0.29363132],0.005,0.1,0.580743705786735,-0.05183539617857309,0
6.815014362335205,0.5994832629481043,[0.29165463],0.005,0.1,0.6345718976026427,-0.04413831124714453,0
6.823824644088745,0.5963568834803176,[0.28972488],0.005,0.1,0.7347367751541038,-0.04603442821131105,0
6.834020376205444,0.5922535104288476,[0.28784027],0.005,0.1,0.8219738974757886,-0.04711212902641076,0
6.8429975509643555,0.5887363335275874,[0.28599582],0.005,0.1,0.8786095426025735,-0.04797229289350677,0
6.85099458694458,0.586000751493274,[0.28418958],0.005,0.1,0.9040874249874264,-0.041288398456415715,0
6.861376047134399,0.5820927771585406,[0.28241924],0.005,0.1,0.9038426610163199,-0.05156605836317615,0
6.869949102401733,0.5789663976907539,[0.2806795],0.005,0.1,0.8845155981408523,-0.04299659314482454,0
6.879009246826172,0.5758400182229672,[0.27896821],0.005,0.1,0.8521019897869155,-0.0447874488554716,0
6.887948274612427,0.5727136387551806,[0.27728312],0.005,0.1,0.5353695158199846,-0.046032721167921065,0
6.896940469741821,0.5693918605706572,[0.27562199],0.005,0.1,0.45687946266826435,-0.0392260045444323,0
6.908971786499023,0.5652884875191869,[0.27398265],0.005,0.1,0.4645340255658481,-0.0492718291025998,0
6.9189629554748535,0.5619667093346636,[0.27235739],0.005,0.1,0.49289837957400495,-0.04855920105132114,0
6.928774118423462,0.5584495324334036,[0.2707396],0.005,0.1,0.5166272785032328,-0.047657168899868346,0
6.940959930419922,0.5541507606651968,[0.26912389],0.005,0.1,0.5281555427585203,-0.055480811008109386,0
6.952672243118286,0.5504381850472001,[0.26750316],0.005,0.1,0.527226965927206,-0.05135537368956503,0
6.963934898376465,0.5465302107124667,[0.26587464],0.005,0.1,0.516136992272848,-0.047983812751972214,0
6.9724280834198,0.5435992299614166,[0.26423924],0.005,0.1,0.22165014024971724,-0.04548255907612979,0
6.980959415435791,0.5404728504936299,[0.26259825],0.005,0.1,0.16524055327203438,-0.04333236639254503,0
6.992666482925415,0.5367602748756332,[0.26095326],0.005,0.1,0.19422678052540315,-0.04128260790468219,0
6.999942064285278,0.5340246928413197,[0.25930856],0.005,0.1,-0.03316600426189456,-0.033767285350098895,0
7.010323762893677,0.5307029146567964,[0.25766818],0.005,0.1,-0.02347185008691595,-0.040016639218304804,0
7.018491506576538,0.527967332622483,[0.25603333],0.005,0.1,0.06100407134172416,-0.032666174648690524,0
7.027990102767944,0.5248409531546963,[0.25440993],0.005,0.1,0.1527772478986122,-0.02819414136126268,0
7.037957191467285,0.5217145736869095,[0.25280551],0.005,0.1,-0.04840844959265264,-0.02932036537068438,0
7.0492308139801025,0.5180019980689128,[0.25121937],0.005,0.1,-0.029082360930188664,-0.034799117081353526,0
7.057950735092163,0.5152664160345994,[0.2496486],0.005,0.1,0.057925554359004656,-0.028902508347710958,0
7.065897464752197,0.5129216314337594,[0.24809532],0.005,0.1,0.14950040726485678,-0.029393399713178628,0
7.076932430267334,0.5094044545324993,[0.24655914],0.005,0.1,0.22335258714388617,-0.03416669030287203,0
7.086379289627075,0.5064734737814492,[0.24503528],0.005,0.1,0.2747859210855052,-0.03252886615302189,0
7.094935417175293,0.5039332904638726,[0.24352411],0.005,0.1,0.30593062213348954,-0.02699513805343341,0
7.102909803390503,0.5015885058630325,[0.24203245],0.005,0.1,0.32095372272491707,-0.023781684343351487,0
7.117751836776733,0.4970943353780891,[0.24056172],0.005,0.1,0.3240798341842194,-0.032724793503782726,0
7.130619049072266,0.4935771584768291,[0.23910245],0.005,0.1,0.5949305556342938,-0.035576334312076525,0
7.138946533203125,0.4910369751592523,[0.23764878],0.005,0.1,0.6173494380794762,-0.0279570076866635,0
7.148312568664551,0.4884967918416756,[0.23620424],0.005,0.1,0.548105487443583,-0.027171090625176336,0
7.156950235366821,0.4859566085240989,[0.23477189],0.005,0.1,0.1798868296484451,-0.026473080719171982,0
7.168014049530029,0.4828302290563122,[0.23335232],0.005,0.1,0.33527793853063115,-0.025691469841051903,0
7.178886651992798,0.47970384958852547,[0.23194616],0.005,0.1,0.3496853866542969,-0.02487225936918244,0
7.186976432800293,0.4771636662709487,[0.23055416],0.005,0.1,0.3117624562303327,-0.024138430070270712,0
7.196331024169922,0.4748188816701087,[0.22917901],0.005,0.1,0.2604533512198539,-0.020651873295174792,0
7.2059166431427,0.4720832996357954,[0.227825],0.005,0.1,-0.06458117194881946,-0.020671478220990597,0
7.214901685714722,0.4695431163182186,[0.22649411],0.005,0.1,-0.13918538662036525,-0.020463601378466336,0
7.225997447967529,0.4664167368504319,[0.22518496],0.005,0.1,-0.11730601652875043,-0.02223796048497949,0
7.2345170974731445,0.46446274968306517,[0.22389527],0.005,0.1,-0.06710834026245868,-0.020851926143217358,0
7.241999864578247,0.46250876251569845,[0.22262666],0.005,0.1,-0.016524427815374373,-0.01793280946499082,0
7.252019643783569,0.46016397791485847,[0.22138514],0.005,0.1,0.024771202450740083,-0.016171685134896377,0
7.2609686851501465,0.45801459203075506,[0.22017581],0.005,0.1,0.054932581674637895,-0.01616933902963409,0
7.271307945251465,0.4554744087131783,[0.21899912],0.005,0.1,0.07511887903032516,-0.01710904790906591,0
7.282813549041748,0.45273882667886495,[0.21785313],0.005,0.1,0.3633947366571174,-0.016241587592797414,0
7.294984579086304,0.4494170484943415,[0.21673775],0.005,0.1,0.40282392322360455,-0.015335023017519024,0
7.307008266448975,0.44668146646002815,[0.21565338],0.005,0.1,0.34979904918235016,-0.015445262992163275,0
7.3148932456970215,0.44492287800939817,[0.21460051],0.005,0.1,0.27288110510301067,-0.013927684228731514,0
7.328059673309326,0.44199189725834814,[0.21358054],0.005,0.1,0.19960942858534203,-0.014021026768988185,0
7.339856863021851,0.439647112657508,[0.21259382],0.005,0.1,0.4150765152964374,-0.013348827425569898,0
7.350253105163574,0.437302328056668,[0.21164065],0.005,0.1,0.40155945942995425,-0.012761046657177248,0
7.360909938812256,0.4351529421725646,[0.21072229],0.005,0.1,0.3120590367548959,-0.012283589983829966,0
7.368904113769531,0.4331989550051979,[0.20983978],0.005,0.1,0.21135234183464968,-0.011902179805701765,0
7.378036022186279,0.4312449678378312,[0.20899388],0.005,0.1,0.12363527118436468,-0.011591543209512455,0
7.389983892440796,0.4287047845202545,[0.20818488],0.005,0.1,0.05528347971827163,-0.011249129559298163,0
7.400726079940796,0.4263599999194144,[0.20741256],0.005,0.1,0.005490746771455723,-0.010975249571253832,0
7.411486625671387,0.424210614035311,[0.20667614],0.005,0.1,-0.028931239033526263,-0.010762797883120576,0
7.425041198730469,0.4212796332842611,[0.20597356],0.005,0.1,-0.051516492087447865,-0.010762453264772192,0
7.432933330535889,0.4199118422671044,[0.2053024],0.005,0.1,-0.06538092121025244,-0.010337519012995173,0
7.4413087368011475,0.41815325381647434,[0.20466135],0.005,0.1,-0.07301843243940705,-0.010267905578164758,0
7.449581146240234,0.4165900640825809,[0.20404857],0.005,0.1,-0.07632352778392429,-0.010246641611583271,0
7.458874702453613,0.41463607691521426,[0.20346102],0.005,0.1,-0.07668973476478526,-0.010194967048048592,0
7.468778133392334,0.41307288718132085,[0.20289541],0.005,0.1,-0.0751197635490285,-0.010216251197185182,0
7.48058557510376,0.41072810258048087,[0.20234721],0.005,0.1,-0.07232320032228728,-0.01079456165891394,0
7.487896203994751,0.4095557102800608,[0.20181302],0.005,0.1,-0.06879514307728482,-0.010734019493126459,0
7.496952295303345,0.4079925205461675,[0.20129246],0.005,0.1,-0.06487633391803026,-0.010662762832709612,0
7.508026599884033,0.40603853337880075,[0.20078256],0.005,0.1,-0.06079776037562545,-0.011526210323256758,0
7.516791105270386,0.4046707423616441,[0.20027708],0.005,0.1,-0.05671309855032364,-0.011344035621912187,0
7.526527643203735,0.4031075526277507,[0.19977138],0.005,0.1,-0.05272200486218667,-0.011221992797769899,0
7.536896467208862,0.4013489641771207,[0.19926236],0.005,0.1,-0.04888668385664645,-0.01112836870006155,0
7.547903776168823,0.3997857744432273,[0.1987459],0.005,0.1,-0.04524359243960576,-0.012366249101384612,0
7.558841228485107,0.3978317872758606,[0.1982184],0.005,0.1,-0.04181166321009634,-0.010702976042869055,0
7.566874027252197,0.39685479369217724,[0.19768068],0.005,0.1,-0.31463641447870344,-0.009793925254254704,0
7.577377557754517,0.3950962052415472,[0.19713473],0.005,0.1,-0.3447651174742442,-0.010069486658367864,0
7.586869716644287,0.3939238129411272,[0.19657967],0.005,0.1,-0.2868840579469763,-0.010361812936562714,0
7.595609426498413,0.3923606232072338,[0.19601344],0.005,0.1,-0.20821864750222444,-0.010542258980569385,0
7.603729009628296,0.3913836296235505,[0.19543436],0.005,0.1,-0.41134683995521437,-0.01072801635359584,0
7.614931106567383,0.38962504117292046,[0.19484108],0.005,0.1,-0.38564369421706624,-0.010773069284377771,0
7.623783588409424,0.3884526488725004,[0.1942326],0.005,0.1,-0.010474371262268578,-0.010871619436933192,0
7.634693622589111,0.38688945913860706,[0.19360823],0.005,0.1,0.13002822217127252,-0.01088398469117094,0
7.643918991088867,0.3857170668381871,[0.19296758],0.005,0.1,-0.1093260623980945,-0.010902357383930483,0
7.655476331710815,0.383958478387557,[0.19230917],0.005,0.1,-0.1481666751887758,-0.01229947951001598,0
7.663826942443848,0.38278608608713705,[0.19163199],0.005,0.1,-0.38932252881291274,-0.010421477399116892,0
7.673487424850464,0.381613693786717,[0.19093817],0.005,0.1,-0.3690940477724056,-0.010490777842889909,0
7.6828954219818115,0.38024590276956033,[0.19022978],0.005,0.1,-0.5401524534730028,-0.01049978653305273,0
7.692315101623535,0.37907351046914023,[0.18950739],0.005,0.1,-0.4577839505007258,-0.010507821618448036,0
7.701862573623657,0.37770571945198356,[0.1887731],0.005,0.1,-0.5800069507732014,-0.009270155552887328,0
7.714985370635986,0.3763379284348269,[0.18802885],0.005,0.1,-0.4618876019507556,-0.01077990022264215,0
7.725956678390503,0.37516553613440684,[0.18727254],0.005,0.1,-0.28327804177263743,-0.012060641866160649,0
7.7359185218811035,0.37399314383398685,[0.18650127],0.005,0.1,-0.11572711347051165,-0.011461457043120914,0
7.746948003768921,0.3726253528168302,[0.18571554],0.005,0.1,0.017816984351755674,-0.011003131064322927,0
7.7559309005737305,0.37164835923314676,[0.1849186],0.005,0.1,0.11482370036105335,-0.009493665954121157,0
7.766349792480469,0.37047596693272683,[0.18411342],0.005,0.1,0.18025621898049338,-0.010900664147791487,0
7.7742860317230225,0.36930357463230673,[0.18330129],0.005,0.1,-0.05511176680373353,-0.009397356331479919,0
7.785864353179932,0.3681311823318867,[0.18248474],0.005,0.1,-0.06591789682661986,-0.00954023888147227,0
7.795929670333862,0.36695879003146675,[0.18166465],0.005,0.1,-0.27760928950677355,-0.010912769358101756,0
7.804887533187866,0.3659817964477834,[0.18083929],0.005,0.1,-0.2343947010005849,-0.01061680241935957,0
7.815088987350464,0.36480940414736335,[0.18000854],0.005,0.1,-0.3905367816352343,-0.010357658177785604,0
7.8232011795043945,0.36383241056368,[0.17917502],0.005,0.1,-0.3004799133543458,-0.009035481439507973,0
7.832994699478149,0.3628554169799967,[0.1783423],0.005,0.1,-0.4206903892144579,-0.009225109759436006,0
7.841326951980591,0.36187842339631326,[0.17751343],0.005,0.1,-0.30468031512529903,-0.00835646455513833,0
7.855915546417236,0.3605106323791566,[0.17668981],0.005,0.1,-0.13099297424790762,-0.0096666748632979,0
7.866894960403442,0.3593382400787366,[0.17587033],0.005,0.1,-0.24620059221910126,-0.009494740712076361,0
7.876399755477905,0.3585566452117899,[0.17505431],0.005,0.1,-0.1535501727397126,-0.009315053060787462,0
7.884729862213135,0.35757965162810657,[0.17424281],0.005,0.1,-0.28576880250813175,-0.009052780822223268,0
7.896935701370239,0.3566026580444232,[0.1734372],0.005,0.1,-0.1858061411695558,-0.008752530394012251,0
7.905534505844116,0.3558210631774765,[0.17263917],0.005,0.1,-0.027844336054824587,-0.008438553283426334,0
7.913963317871094,0.35503946831052985,[0.17185077],0.005,0.1,-0.1569237772620024,-0.008089940063598125,0
7.926914930343628,0.3540624747268465,[0.17107377],0.005,0.1,-0.07598396094964652,-0.008110419162118077,0
7.936157703399658,0.3532808798598998,[0.17031038],0.005,0.1,-0.217923060962609,-0.007258861486389847,0
7.947889804840088,0.35210848755947977,[0.16956404],0.005,0.1,-0.1260073066196625,-0.007082511575172926,0
7.955867052078247,0.35152229140926977,[0.16883819],0.005,0.1,-0.25078055449849723,-0.0066955546705973635,0
7.964836835861206,0.3507406965423231,[0.1681366],0.005,0.1,-0.14257301766310276,-0.006371347859021872,0
7.972876071929932,0.3503498991088497,[0.16746368],0.005,0.1,-0.254232583615177,-0.006238442649851709,0
7.984186172485352,0.34956830424190305,[0.16682367],0.005,0.1,-0.41242324813054726,-0.0061326687502670715,0
7.992684841156006,0.3487867093749564,[0.16622634],0.005,0.1,-0.5505916211478153,-0.008440837283048156,0
8.000925302505493,0.3482005132247464,[0.16569082],0.005,0.1,-0.373415366296969,-0.01225235392980764,0
8.013578653335571,0.347223519641063,[0.16525505],0.005,0.1,-0.3999190049773501,-0.06398104132227227,0
8.022930383682251,0.346637323490853,[0.16498295],0.005,0.1,-0.20613449028709357,-0.11784435870341045,0
8.03192138671875,0.34605112734064297,[0.16493055],0.005,0.1,-0.251800993797882,-0.11492418742812462,0
8.041349411010742,0.34526953247369635,[0.1651366],0.005,0.1,-0.08683411789809631,-0.19838375914215153,0
8.050914525985718,0.34429253889001293,[0.16565483],0.005,0.1,-0.16038335051298672,-0.2982846883084042,0
8.060889959335327,0.34331554530632963,[0.16655206],0.005,0.1,-0.5708741753453018,-0.408787002774479,0
8.071731090545654,0.34214315300590964,[0.16791288],0.005,0.1,-1.0050164460493438,-0.7478374902530273,0
8.079930782318115,0.34097076070548954,[0.16981519],0.005,0.1,-1.3522272535376976,-0.5753759603491667,0
8.08829116821289,0.33940757097159613,[0.17228997],0.005,0.1,-2.141326068762749,-0.695493798166716,0
8.095890998840332,0.33764898252096615,[0.17534356],0.005,0.1,-2.8970881347610824,-0.5494059740508024,0
8.103931188583374,0.33549959663686285,[0.1789789],0.005,0.1,-4.015832636708973,-0.6898093807815928,0
8.111905574798584,0.3331548120360227,[0.1831957],0.005,0.1,-5.0,-0.5457878144747046,0
8.121104001998901,0.32983303385149937,[0.18799027],0.005,0.1,-5.0,-0.679291062458191,0
8.130864381790161,0.32612045823350266,[0.19338052],0.005,0.1,-5.0,-0.7666554831107205,0
8.143530368804932,0.32143088903182254,[0.19942643],0.005,0.1,-5.0,-1.0649605756330092,0
8.154968023300171,0.31713211726361584,[0.20622076],0.005,0.1,-5.0,-1.2013575736806155,0
8.163370847702026,0.31361494036235577,[0.21380507],0.005,0.1,-5.0,-0.7578996478604647,0
8.170931577682495,0.3102931621778323,[0.22212585],0.005,0.1,-5.0,-0.6428171672767099,0
8.183089256286621,0.3052127955426789,[0.2311421],0.005,0.1,-5.0,-0.6253223825156614,0
8.193858861923218,0.30130482120794555,[0.24082581],0.005,0.1,-5.0,-0.34717808841076137,0
8.203900814056396,0.2973968468732121,[0.25109364],0.005,0.1,-4.699149591343675,-0.23285733394976468,0
8.21471643447876,0.2930980751050054,[0.26185879],0.005,0.1,-3.024441837997071,-0.12243778482391206,0
8.223897218704224,0.28958089820374533,[0.27305466],0.005,0.1,-0.9132148310614425,-0.026335301592755343,0
8.235613584518433,0.2848913290020652,[0.28462973],0.005,0.1,1.2244351818635342,0.096385316586071,0
8.244360446929932,0.2815695508175418,[0.29653049],0.005,0.1,2.949746678078939,0.12939801325845607,0
8.25589919090271,0.2770753803325984,[0.30867016],0.005,0.1,4.179079027496037,0.20423040096557882,0
8.268554210662842,0.2727766085643917,[0.32098637],0.005,0.1,5.0,0.3673624007888645,0
8.277859926223755,0.26965022909660497,[0.33347307],0.005,0.1,5.0,0.5476207874043021,0
8.286906719207764,0.2671100457790282,[0.34609044],0.005,0.1,5.0,0.655905650620718,0
8.294915199279785,0.2653514573283982,[0.35873824],0.005,0.1,5.0,0.6700753396318261,0
8.302880048751831,0.2637882675945048,[0.3713328],0.005,0.1,5.0,0.5221827379408795,0
8.313549280166626,0.26222507786061144,[0.3838407],0.005,0.1,5.0,0.8172870868014047,0
8.323375225067139,0.26163888171040145,[0.39627383],0.005,0.1,5.0,0.8674219553508878,0
8.332950115203857,0.26124808427692814,[0.40864779],0.005,0.1,5.0,0.9354700887004909,0
8.340924739837646,0.26183428042713813,[0.42094416],0.005,0.1,5.0,0.728834260011872,0
8.352079391479492,0.2632020714442948,[0.43313304],0.005,0.1,5.0,0.8740905599983335,0
8.367068767547607,0.2661330521953449,[0.44525672],0.005,0.1,5.0,1.8544518447824632,0
8.37584662437439,0.2684778367961849,[0.45739758],0.005,0.1,5.0,1.335369046941153,0
8.38383412361145,0.27121341883049827,[0.46956667],0.005,0.1,5.0,1.4369444750727745,0
8.391836643218994,0.27433979829828503,[0.48173351],0.005,0.1,5.0,1.092128902973351,0
8.404327154159546,0.27961556365017515,[0.49389664],0.005,0.1,5.0,1.7898821953322588,0
8.41380786895752,0.28352353798490854,[0.50610269],0.005,0.1,5.0,1.8652080387480858,0
8.424017667770386,0.28723611360290524,[0.51839423],0.005,0.1,5.0,1.960668147082611,0
8.431820631027222,0.29036249307069195,[0.53076369],0.005,0.1,5.0,1.4730457947413893,0
8.444276094436646,0.2952474609891087,[0.54320833],0.005,0.1,5.0,2.428739451160504,0
8.45283317565918,0.2985692391736321,[0.55577834],0.005,0.1,4.611251765829669,2.542977826661828,0
8.462142705917358,0.30228181479162886,[0.56849287],0.005,0.1,2.255518043506637,1.8957597860728679,0
8.470630407333374,0.30560359297615225,[0.58131954],0.005,0.1,-1.1411768943183054,2.227281953348401,0
8.480211019515991,0.309316168594149,[0.59425859],0.005,0.1,-4.21399518261633,2.5437784010647184,0
8.488613605499268,0.31283334549540903,[0.60733812],0.005,0.1,-5.0,2.841936285671535,0
8.498284101486206,0.31693671854687916,[0.62058337],0.005,0.1,-5.0,3.1118531705165906,0
8.507858037948608,0.3208446928816125,[0.63401616],0.005,0.1,-5.0,3.365998795380035,0
8.51714825630188,0.3245572684996093,[0.64765468],0.005,0.1,-5.0,3.6078245065840955,0
8.525909423828125,0.3280744454008694,[0.66148539],0.005,0.1,-5.0,2.7157907567721358,0
8.535038709640503,0.3315916223021294,[0.67546741],0.005,0.1,-5.0,3.1913955923096924,0
8.544829368591309,0.3356949953535995,[0.68959282],0.005,0.1,-5.0,3.5970235539476203,0
8.556581735610962,0.34057996327201623,[0.7039096],0.005,0.1,-5.0,5.332927170163435,0
8.563891410827637,0.3435109440230663,[0.71845602],0.005,0.1,-5.0,3.8479782880096236,0
8.571887493133545,0.346637323490853,[0.73314891],0.005,0.1,-5.0,3.952547236574069,0
8.58190131187439,0.3507406965423231,[0.74785948],0.005,0.1,-5.0,4.299786824848597,0
8.589961767196655,0.3540624747268465,[0.76256219],0.005,0.1,-5.0,4.5861046850158775,0
8.600888967514038,0.3579704490615799,[0.77729065],0.005,0.1,-5.0,4.8119151135566955,0
8.608824253082275,0.36148762596283995,[0.79207163],0.005,0.1,-5.0,4.99502099488781,0
8.619427919387817,0.3657863977310467,[0.80695267],0.005,0.1,-5.0,6.8174065511410085,0
8.628842115402222,0.3696943720657801,[0.82202459],0.005,0.1,-5.0,8.301943032829952,0
8.639827966690063,0.3741885425507235,[0.83733225],0.005,0.1,-5.0,5.660992200286721,0
8.647839069366455,0.37731492201851025,[0.85280123],0.005,0.1,-5.0,4.105428901851208,0
8.65893030166626,0.3818090925034536,[0.86836426],0.005,0.1,-5.0,6.081345346403766,0
8.672066688537598,0.38708485785534374,[0.88404002],0.005,0.1,-4.8326163693384165,5.909750722659023,0
8.680875301361084,0.3906020347566038,[0.89983973],0.005,0.1,-4.506688392687799,5.773561884062823,0
8.690465927124023,0.3945100090913372,[0.91574133],0.005,0.1,-4.137555191480123,5.648198295501456,0
8.70000696182251,0.39822258470933397,[0.93172089],0.005,0.1,-3.7749945538966845,5.53559372959428,0
8.710702657699585,0.40291215391101404,[0.94777649],0.005,0.1,-3.1620985086158027,7.043701804663438,0
8.72390103340149,0.4079925205461675,[0.96394698],0.005,0.1,-2.823137888234895,8.115517706486488,0
8.734357357025146,0.41209589359763754,[0.98025739],0.005,0.1,-2.6029093378853814,7.03935496777209,0
8.743729829788208,0.41600386793237093,[0.99665395],0.005,0.1,-2.431521026597726,4.82666073504803,0
8.75721788406372,0.4214750320009977,[1.01306274],0.005,0.1,-2.2792447991134965,6.150143537707053,0
8.766923427581787,0.42557840505246775,[1.0294602],0.005,0.1,-2.1347042082465473,5.621065600611323,0
8.778332948684692,0.43046337297088455,[1.04582289],0.005,0.1,-2.2705391138149267,5.22044533801586,0
8.788918256759644,0.43476214473909125,[1.06210678],0.005,0.1,-2.1675614681329494,4.937199955250263,0
8.797115325927734,0.437888524206878,[1.07827301],0.005,0.1,-1.981241196010362,4.74539672620063,0
8.804858922958374,0.4412103023914014,[1.09426864],0.005,0.1,-1.7797105555250523,3.457733712146943,0
8.816718578338623,0.44550907415960816,[1.11004957],0.005,0.1,-1.8662548311314615,4.899215363949958,0
8.827066659927368,0.44961244721107824,[1.12561906],0.005,0.1,-1.7306823997019958,4.748745748808998,0
8.836209535598755,0.4535204215458116,[1.14096252],0.005,0.1,-1.528578961782193,3.480722251909796,0
8.844517946243286,0.45684219973033496,[1.15603115],0.005,0.1,-1.3251092454358941,3.746010645210437,0
8.85183835029602,0.45996857919812173,[1.17078666],0.005,0.1,-1.1439575225967598,2.89979485542616,0
8.862299919128418,0.4638765535328551,[1.18521873],0.005,0.1,-0.9906835307351931,4.458453251568784,0
8.872837781906128,0.4679799265843252,[1.19935935],0.005,0.1,-0.8636200243332985,4.473729385935482,0
8.881470441818237,0.47149710348558527,[1.21321965],0.005,0.1,-0.7587749201738295,3.350609798521334,0
8.891862869262695,0.47599127397052876,[1.22677435],0.005,0.1,-0.6718994122846044,3.6603059397937936,0
8.900855779647827,0.47970384958852547,[1.24002348],0.005,0.1,-0.5992536679459317,3.9016498769067165,0
8.908822774887085,0.4832210264897855,[1.25298828],0.005,0.1,-0.5378015548795135,4.073009660595538,0
8.917922973632812,0.48673820339104557,[1.26567116],0.005,0.1,-0.4851760739068536,3.1245203525319005,0
8.931838512420654,0.4926001648931457,[1.27807615],0.005,0.1,-0.4395694969662868,4.587252639312328,0
8.943614721298218,0.4970943353780891,[1.29026128],0.005,0.1,-0.3996134227791929,5.792722670588013,0
8.957416772842407,0.5027608981634525,[1.30231073],0.005,0.1,-0.3642731035009481,6.663736807691081,0
8.96490216255188,0.5058872776312392,[1.31427687],0.005,0.1,-0.05672408104553123,5.866325264282437,0
8.972783327102661,0.5090136570990259,[1.32613544],0.005,0.1,0.004684158860325444,5.939805438101787,0
8.980778932571411,0.5123354352835494,[1.33781577],0.005,0.1,-0.024888708703159387,5.3800645989247045,0
8.989799737930298,0.5158526121848095,[1.34929226],0.005,0.1,-0.07783998353034888,4.976730908598889,0
8.999396085739136,0.5195651878028061,[1.36057716],0.005,0.1,-0.4033626431555677,4.680381004452021,0
9.008877992630005,0.5234731621375396,[1.37168119],0.005,0.1,-0.4739252719604303,4.456107500629883,0
9.019715070724487,0.527967332622483,[1.38261365],0.005,0.1,-0.4432967681046426,4.278641474879355,0
9.029558658599854,0.5316799082404797,[1.39338266],0.005,0.1,-0.38058457404754914,4.141782280911357,0
9.03680682182312,0.5346108889915298,[1.40398038],0.005,0.1,-0.3148897337278659,3.1324741179815967,0
9.049262523651123,0.5398866543434199,[1.41440033],0.005,0.1,-0.256937824167621,4.203765667585984,0
9.059075355529785,0.54399002739489,[1.42466694],0.005,0.1,-0.2094067472383902,4.030253507049782,0
9.068318128585815,0.5478980017296233,[1.43480092],0.005,0.1,-0.17174920206605243,3.889281227149365,0
9.07582712173462,0.5508289824806734,[1.44480502],0.005,0.1,-0.14236487727732572,3.7883934500164833,0
9.08533501625061,0.5543461593819334,[1.45466806],0.005,0.1,-0.11951917263466871,2.9099186084257505,0
9.092804908752441,0.5574725388497203,[1.46435374],0.005,0.1,-0.10168535748954824,2.3860442111909537,0
9.103834390640259,0.5619667093346636,[1.47384676],0.005,0.1,-0.08763357135032951,3.4407534748536857,0
9.114783763885498,0.566460879819607,[1.48317716],0.005,0.1,0.19962052461737773,3.45965829812444,0
9.122805833816528,0.5695872592873937,[1.49235806],0.005,0.1,0.24183368014194226,2.7265816096978863,0
9.133943557739258,0.5740814297723372,[1.5013745],0.005,0.1,0.19422114913240096,2.9312149307431543,0
9.142805814743042,0.5775986066735972,[1.51022884],0.005,0.1,0.12440047416116146,3.092235501057656,0
9.151855707168579,0.581311182291594,[1.51893812],0.005,0.1,0.059201899388850183,3.2123943317276544,0
9.163646936416626,0.5858053527765374,[1.52753146],0.005,0.1,0.007168947294640026,4.123874951162439,0
9.173523187637329,0.5899087258280075,[1.53604783],0.005,0.1,-0.030824440766780682,3.939701981315872,0
9.182836532592773,0.5938167001627408,[1.54450753],0.005,0.1,-0.056708452188821826,3.8100440448776145,0
9.190866470336914,0.5971384783472642,[1.55288867],0.005,0.1,-0.07309478073656912,3.8420751768299595,0
9.199884176254272,0.6006556552485243,[1.56114729],0.005,0.1,-0.08243231560582638,3.757682581855734,0
9.210513830184937,0.6047590282999944,[1.56928666],0.005,0.1,-0.08673681949826086,4.566224031526318,0
9.222577571868896,0.6096439962184113,[1.57736244],0.005,0.1,-0.08756198984253022,5.17089081354924,0
9.231376647949219,0.6135519705531445,[1.58542122],0.005,0.1,-0.08605928854077552,4.620652060877018,0
9.24020266532898,0.616873748737668,[1.59346314],0.005,0.1,-0.08305981435385514,3.442328322172418,0
9.250877857208252,0.6213679192226114,[1.60146235],0.005,0.1,-0.07915156162119996,3.436057092266286,0
9.26084280014038,0.6254712922740814,[1.60942199],0.005,0.1,-0.07474343147660162,4.234649784674395,0
9.269371271133423,0.6287930704586048,[1.61735726],0.005,0.1,-0.07011496435502543,3.234881641090243,0
9.276966333389282,0.6319194499263915,[1.62524359],0.005,0.1,-0.06545357790782479,2.64253379591861,0
9.285308599472046,0.6350458293941783,[1.633048],0.005,0.1,-0.06088181192771739,2.8654028520755133,0
9.292829513549805,0.638172208861965,[1.64075567],0.005,0.1,-0.05647695753117841,2.434589082391884,0
9.302130937576294,0.641689385763225,[1.64836672],0.005,0.1,-0.05228504750947345,3.3388415381758154,0
9.312760353088379,0.6457927588146952,[1.65590546],0.005,0.1,-0.04833074791052526,3.342844778013346,0
9.323299407958984,0.6502869292996385,[1.6633917],0.005,0.1,-0.04462430681655529,3.313916535947563,0
9.333711385726929,0.6547810997845819,[1.67082882],0.005,0.1,-0.04116640828721063,3.267371210559792,0
9.34285831451416,0.6584936754025786,[1.6782181],0.005,0.1,-0.03795154428481091,3.210796879910223,0
9.350802659988403,0.6616200548703655,[1.68554828],0.005,0.1,-0.03497034302914237,2.608185834948097,0
9.363005876541138,0.6665050227887822,[1.69280799],0.005,0.1,0.24382719437854783,3.2260334402686275,0
9.371785402297974,0.6700221996900422,[1.70000689],0.005,0.1,0.27950177390845227,3.0922700957128333,0
9.381563663482666,0.6739301740247756,[1.7071512],0.005,0.1,0.22675856960418306,2.9658300164186917,0
9.389778137207031,0.6776427496427724,[1.71422451],0.005,0.1,0.15284494488784423,2.4244145229852356,0
9.397896528244019,0.6807691291105592,[1.72121153],0.005,0.1,0.08432389415623917,2.9009940662633156,0
9.407784700393677,0.6846771034452925,[1.72810824],0.005,0.1,0.029546365156948418,2.383729522011898,0
9.417146682739258,0.6883896790632892,[1.73490226],0.005,0.1,-0.010752575716695096,2.4210795266185205,0
9.426790475845337,0.6922976533980226,[1.74158328],0.005,0.1,-0.03860358153918101,2.445342351371208,0
9.435474157333374,0.6956194315825459,[1.74814355],0.005,0.1,-0.05669141819046504,2.120303546761989,0
9.446116924285889,0.6999182033507527,[1.75457745],0.005,0.1,-0.06751852838659245,2.581587002468433,0
9.455819606781006,0.704021576402223,[1.76089019],0.005,0.1,-0.07314031138633612,2.204701261388542,0
9.465831995010376,0.7079295507369562,[1.76708759],0.005,0.1,-0.07514015652220352,2.6562561067785193,0
9.475388526916504,0.7118375250716897,[1.77317595],0.005,0.1,-0.07469208521174835,2.2569642686409765,0
9.483534336090088,0.7151593032562131,[1.77915352],0.005,0.1,-0.07264461333216263,2.3367906427793934,0
9.49277377128601,0.7190672775909466,[1.78502908],0.005,0.1,-0.06959941876632234,2.7899844921082897,0
9.501484632492065,0.7225844544922065,[1.79082019],0.005,0.1,-0.06597635143786514,2.3499487730392747,0
9.508801698684692,0.7253200365265199,[1.79651686],0.005,0.1,-0.06206387565501113,2.0931925133938085,0
9.520521879196167,0.7298142070114633,[1.80210332],0.005,0.1,-0.05805681424073676,2.2268128957977,0
9.528447389602661,0.7331359851959867,[1.80758507],0.005,0.1,-0.054083956150975034,2.3363534565625397,0
9.536794900894165,0.7366531620972468,[1.81296807],0.005,0.1,-0.050227947094936054,2.093066669719117,0
9.544757843017578,0.7399749402817702,[1.81824974],0.005,0.1,-0.046539469783283924,2.231040376416507,0
9.552789211273193,0.743101319749557,[1.82342894],0.005,0.1,-0.0430472747450956,2.033212486366019,0
9.560755968093872,0.7464230979340803,[1.82850563],0.005,0.1,-0.3158035920379637,2.180019743251541,0
9.56978964805603,0.7499402748353403,[1.83349739],0.005,0.1,-0.34586022723270493,2.6322747350645415,0
9.582044124603271,0.7546298440370205,[1.83843632],0.005,0.1,-0.011868121699299655,2.6008046693413363,0
9.589780330657959,0.7579516222215439,[1.84333294],0.005,0.1,0.09999323607888362,2.2498191342772835,0
9.601114511489868,0.7624457927064873,[1.8481878],0.005,0.1,0.11787491626909732,2.6584828579977997,0
9.609863996505737,0.7663537670412206,[1.85300972],0.005,0.1,-0.17535523763407806,2.2822401157283614,0
9.619787693023682,0.7704571400926907,[1.85779801],0.005,0.1,0.04113130933534037,2.334115202296196,0
9.628761529922485,0.7739743169939507,[1.86255178],0.005,0.1,0.10408225467071408,2.37021526380569,0
9.637290000915527,0.7774914938952109,[1.86727799],0.005,0.1,0.10438506961025237,2.3876461739487804,0
9.644765615463257,0.7804224746462608,[1.87197429],0.005,0.1,-0.19283332879024,2.1182761352560666,0
9.655239820480347,0.7843304489809945,[1.87663048],0.005,0.1,-0.25102970256601936,2.19034198822841,0
9.662806034088135,0.7876522271655179,[1.88123788],0.005,0.1,-0.21819131696435756,1.9971103892933024,0
9.675956010818481,0.7927325938006711,[1.88579646],0.005,0.1,0.1163776233748133,2.339603624778795,0
9.685759782791138,0.7968359668521413,[1.89032075],0.005,0.1,-0.0689375471629743,2.3294639765067067,0
9.695070028305054,0.800548542470138,[1.89482271],0.005,0.1,-0.10957990875627077,2.316322514759023,0
9.703391790390015,0.8042611180881346,[1.89930473],0.005,0.1,0.18143774141708688,2.3030329305938375,0
9.710756778717041,0.8071920988391849,[1.9037686],0.005,0.1,0.24574094927066437,2.296497096706256,0
9.720258474349976,0.8109046744571815,[1.90820874],0.005,0.1,0.22187560581385166,2.0516935706765214,0
9.727779865264893,0.8140310539249681,[1.91260654],0.005,0.1,0.17149189682211813,1.9080980692600016,0
9.736974000930786,0.817743629542965,[1.91693973],0.005,0.1,0.12008427607468411,1.8197881548888495,0
9.745764970779419,0.8210654077274883,[1.92119735],0.005,0.1,0.07667339237100745,1.9382932826947359,0
9.755139827728271,0.8251687807789585,[1.92538519],0.005,0.1,0.04316544519070377,2.030278809868273,0
9.767791032791138,0.8306399448475852,[1.92952304],0.005,0.1,-0.25734359148587427,2.3358482901978426,0
9.779022216796875,0.8351341153325286,[1.93364212],0.005,0.1,-0.5836421389137391,2.594337325476351,0
9.78879714012146,0.8388466909505254,[1.93776888],0.005,0.1,-0.5732061194466394,2.4916379071821355,0
9.798518657684326,0.8425592665685222,[1.94191151],0.005,0.1,-0.4494459397046736,2.42215907232183,0
9.806915044784546,0.8458810447530456,[1.94606987],0.005,0.1,-0.3073164632287849,2.3799580934152886,0
9.818862915039062,0.8505706139547256,[1.95024378],0.005,0.1,-0.18258887617627975,2.3466059585611494,0
9.830772399902344,0.8556509805898791,[1.95443305],0.005,0.1,-0.08497187254393161,2.3219303486598992,0
9.840383291244507,0.8595589549246124,[1.95863748],0.005,0.1,-0.013612044992542878,2.310916342749801,0
9.8504958152771,0.8634669292593458,[1.96285677],0.005,0.1,0.03589794916603353,2.304228735337755,0
9.857945442199707,0.8665933087271326,[1.96709055],0.005,0.1,0.06853462269194582,2.3036157615941644,0
9.86682939529419,0.8701104856283925,[1.97133121],0.005,0.1,0.0887147035318402,2.0642911490216953,0
9.87607741355896,0.8740184599631259,[1.97556508],0.005,0.1,0.09998496972501139,2.126468262506755,0
9.884216070175171,0.877535636864386,[1.97978768],0.005,0.1,0.1050451053884586,2.176150734841062,0
9.894950866699219,0.8820298073493293,[1.98400228],0.005,0.1,0.10588361198058814,2.2066002714211295,0
9.904398441314697,0.8859377816840628,[1.98821167],0.005,0.1,0.10393283441554499,2.230251536665222,0
9.912058115005493,0.8888687624351129,[1.99241813],0.005,0.1,0.10020736107618058,2.2510365057805997,0
9.922879695892334,0.8933629329200563,[1.99662348],0.005,0.1,0.09541578729917312,2.2577233136515202,0
9.93179440498352,0.8966847111045797,[2.00082215],0.005,0.1,0.09004633875120255,2.0394073990540993,0
9.941855669021606,0.9007880841560499,[2.00500922],0.005,0.1,0.08443045368609195,2.338209725209182,0
9.951803207397461,0.9046960584907832,[2.00919413],0.005,0.1,0.0787890687806301,2.3144948236139022,0
9.964790105819702,0.9099718238426734,[2.01339113],0.005,0.1,0.07326586723319867,2.545496672317468,0
9.972818851470947,0.9132936020271968,[2.01759804],0.005,0.1,0.06795093861426,2.5526718163433118,0
9.984331607818604,0.9183739686623502,[2.02179887],0.005,0.1,0.06289749905259319,2.7165780696206108,0
9.994916200637817,0.9224773417138202,[2.02599292],0.005,0.1,0.058133642495383546,2.5419715974413277,0
10.003740072250366,0.9259945186150802,[2.03018586],0.005,0.1,0.053670560701540956,2.423840757646276,0
10.012679100036621,0.9299024929498136,[2.03437533],0.005,0.1,0.04950826719399412,2.339883722989206,0
10.021846771240234,0.9334196698510738,[2.03855891],0.005,0.1,0.045639564074640565,2.2816773670324437,0
10.03275728225708,0.9375230429025437,[2.04272785],0.005,0.1,0.04205277588416331,2.0339626617997015,0
10.04178237915039,0.9412356185205405,[2.04686819],0.005,0.1,0.03873362074629169,2.0603272916929294,0
10.049813985824585,0.9445573967050639,[2.05097432],0.005,0.1,0.035666479478589225,2.078357359709826,0
10.059797525405884,0.9484653710397973,[2.05504759],0.005,0.1,0.03283524576427819,2.083125767497073,0
10.068462610244751,0.9517871492243207,[2.05908881],0.005,0.1,0.03022388573863037,2.0832358015105354,0
10.076818943023682,0.9551089274088441,[2.06309242],0.005,0.1,0.027816796816754932,1.9143039730183649,0
10.084778547286987,0.9580399081598941,[2.06704758],0.005,0.1,0.02559902852366613,1.9536226487496846,0
10.093295574188232,0.9621432812113643,[2.07094517],0.005,0.1,0.023556409106456185,1.8327868901595386,0
10.101798057556152,0.9654650593958877,[2.07477776],0.005,0.1,0.021675608407294933,1.8834288361091127,0
10.114165306091309,0.9705454260310411,[2.07855025],0.005,0.1,0.01994415816726517,2.0575506719574705,0
10.123913764953613,0.9746487990825112,[2.08227767],0.005,0.1,0.018350444422634254,2.0252715333032585,0
10.131728887557983,0.9777751785502978,[2.08596161],0.005,0.1,0.016883682108036605,1.8651867089989596,0
10.140748023986816,0.9814877541682946,[2.08959255],0.005,0.1,0.015533878808260215,1.881806578171615,0
10.148749828338623,0.984809532352818,[2.09316783],0.005,0.1,0.014291792392647898,1.8952130311064703,0
10.158082962036133,0.9883267092540782,[2.09669074],0.005,0.1,0.013148885723881058,1.8997337282422284,0
10.16631293296814,0.9918438861553381,[2.10016419],0.005,0.1,0.012097280571980909,1.8985189459454606,0
10.176330327987671,0.996142657923545,[2.10359063],0.005,0.1,0.28716807179924553,1.8892898193703334,0
10.183751344680786,0.9990736386745949,[2.10696732],0.005,0.1,0.31940244778706683,1.7765256855414795,0
10.191706418991089,1.002004619425645,[2.11028252],0.005,0.1,0.2634861372567066,1.709457417731417,0
10.203706502914429,1.0068895873440618,[2.11353165],0.005,0.1,0.18664757102124646,1.844049987542754,0
10.213730096817017,1.0109929603955317,[2.11672582],0.005,0.1,0.11543159518115666,1.8427369716097457,0
10.22175645828247,1.013923941146582,[2.11987494],0.005,0.1,0.05817194971580262,1.843162141773119,0
10.229727506637573,1.0172457193311053,[2.12297824],0.005,0.1,0.015587511873017823,1.7407836869651503,0
10.23989200592041,1.0213490923825752,[2.12603076],0.005,0.1,-0.014367516067660159,1.7610463868863766,0
10.250125169754028,1.025647864150782,[2.129038],0.005,0.1,-0.03439200851838558,1.8777483753451276,0
10.259885311126709,1.0299466359189888,[2.13200949],0.005,0.1,-0.04700151087342125,1.748027142148926,0
10.268976926803589,1.0336592115369856,[2.13494404],0.005,0.1,-0.0542635628397336,1.7536163467259274,0
10.278108596801758,1.036980989721509,[2.13784031],0.005,0.1,-0.05777278315319764,1.754428531590285,0
10.285782098770142,1.039911970472559,[2.14069719],0.005,0.1,-0.05871356641707119,1.6720482538785946,0
10.294853448867798,1.043429147373819,[2.1435092],0.005,0.1,-0.0579440013338159,1.685805513541297,0
10.303703308105469,1.0473371217085525,[2.14627574],0.005,0.1,-0.05607459343260111,1.6893389508701022,0
10.316848278045654,1.0528082857771792,[2.14900404],0.005,0.1,-0.05353332852403628,1.7551942002903436,0
10.324708461761475,1.0557392665282292,[2.15169601],0.005,0.1,-0.05061616604951026,1.7547546832583292,0
10.334573984146118,1.0598426395796994,[2.15434155],0.005,0.1,-0.04752483143620395,1.7190848892194261,0
10.343709230422974,1.0633598164809595,[2.15693596],0.005,0.1,-0.0443944689935408,1.6919769575406918,0
10.351714134216309,1.0666815946654828,[2.15948295],0.005,0.1,0.2347247848526982,1.6698622645101668,0
10.364678144454956,1.0721527587341098,[2.1619891],0.005,0.1,0.2708247464031077,1.708492107026693,0
10.375789880752563,1.076646929219053,[2.16446335],0.005,0.1,0.21856360618287834,1.6637123029423617,0
10.388046979904175,1.0821180932876797,[2.16691291],0.005,0.1,0.14515704456020564,1.6889388290408582,0
10.39717960357666,1.08563527018894,[2.16934346],0.005,0.1,0.07714701941947497,1.6423875534635815,0
10.405071020126343,1.0887616496567265,[2.171753],0.005,0.1,0.022870819569627936,1.5572263765909486,0
10.412766218185425,1.0916926304077768,[2.17413318],0.005,0.1,-0.01694506039989897,1.5518620945110895,0
10.422152996063232,1.09560060474251,[2.17648041],0.005,0.1,-0.04433635944893411,1.5433245029648992,0
10.429735660552979,1.0983361867768233,[2.17879204],0.005,0.1,-0.06199056030889026,1.4970773467211165,0
10.439615964889526,1.1024395598282934,[2.18106303],0.005,0.1,0.2036271290138918,1.5000834667470533,0
10.452796459197998,1.107519926463447,[2.18329624],0.005,0.1,-0.04452923890145927,1.5448409071063598,0
10.460774421691895,1.1106463059312337,[2.18549465],0.005,0.1,-0.13439843279805846,1.5413850882599314,0
10.4707350730896,1.1149450776994405,[2.18765154],0.005,0.1,-0.15461122862659915,1.525443121364758,0
10.479772806167603,1.1186576533174373,[2.18976517],0.005,0.1,-0.14669889832640293,1.5141980616008313,0
10.490530967712402,1.1231518238023808,[2.19184465],0.005,0.1,-0.12947323338977068,1.556265835930217,0
10.502689599990845,1.1276459942873238,[2.19390489],0.005,0.1,-0.11096787223752547,1.5886709410229976,0
10.51239538192749,1.1319447660555308,[2.19595895],0.005,0.1,-0.09423485305596921,1.5469457185205362,0
10.519829034805298,1.1348757468065809,[2.19801134],0.005,0.1,-0.08012098339674883,1.5212353202636175,0
10.530001401901245,1.1391745185747875,[2.20006253],0.005,0.1,-0.06857066331818487,1.4970147761990493,0
10.538152933120728,1.1423008980425742,[2.20210955],0.005,0.1,-0.05921751905978115,1.433834807502659,0
10.545706748962402,1.1452318787936242,[2.20414324],0.005,0.1,-0.05163835259579175,1.3960084258163956,0
10.553956985473633,1.1487490556948845,[2.20615593],0.005,0.1,-0.045450788378668866,1.4053205938930509,0
10.562764167785645,1.1522662325961444,[2.20814805],0.005,0.1,-0.04034154782569302,1.4108334689683615,0
10.571733713150024,1.155392612063931,[2.21012019],0.005,0.1,-0.036066184623729625,1.3753452773362664,0
10.581730604171753,1.1594959851154014,[2.2120698],0.005,0.1,-0.0324388547216572,1.3829441911181068,0
10.589735269546509,1.1630131620166613,[2.2139984],0.005,0.1,-0.02932011796694684,1.389502341264603,0
10.599735260009766,1.167311933784868,[2.21591096],0.005,0.1,-0.026605866773412035,1.3898496552783683,0
10.610746622085571,1.1718061042698116,[2.21781524],0.005,0.1,-0.024218297256109737,1.4356561486585042,0
10.61880087852478,1.1749324837375983,[2.21971784],0.005,0.1,-0.022098937879768445,1.3727741736423476,0
10.627753734588623,1.1784496606388581,[2.22161768],0.005,0.1,-0.02020343319578084,1.3738171663861947,0
10.638726711273193,1.1829438311238019,[2.223514],0.005,0.1,-0.01849771441430279,1.3688198246004863,0
10.647439956665039,1.1866564067417984,[2.22540943],0.005,0.1,-0.016955220689015272,1.363914627844048,0
10.655137062072754,1.1895873874928484,[2.2273026],0.005,0.1,-0.015554896591297607,1.3193977832786543,0
10.66733193397522,1.194667754128002,[2.2291918],0.005,0.1,-0.014279753933141542,1.3570140626098226,0
10.676286458969116,1.1979895323125254,[2.23107834],0.005,0.1,-0.01311583975635294,1.3052935387357656,0
10.685782670974731,1.2018975066472588,[2.23295972],0.005,0.1,-0.012051494767034973,1.301502044621665,0
10.695365190505981,1.2058054809819923,[2.23483314],0.005,0.1,-0.011076818666958445,1.294750985022918,0
10.704448938369751,1.2095180565999888,[2.23669879],0.005,0.1,-0.010183282584132123,1.286622402238725,0
10.714758157730103,1.213621429651459,[2.238559],0.005,0.1,-0.009363446051647729,1.3100229026158952,0
10.723737239837646,1.217138606552719,[2.24041535],0.005,0.1,-0.008610748362912377,1.2584374626492478,0
10.732763051986694,1.2208511821707155,[2.24226073],0.005,0.1,-0.007919352962348997,1.225612048704295,0
10.74172592163086,1.224759156505449,[2.24408638],0.005,0.1,-0.007284029789149169,1.2248099056268555,0
10.74966835975647,1.2278855359732357,[2.24589047],0.005,0.1,-0.006700064918605248,1.2252386188125368,0
10.758285284042358,1.2315981115912327,[2.24767438],0.005,0.1,-0.282201549646613,1.2223361589319663,0
10.765844821929932,1.2345290923422825,[2.24943692],0.005,0.1,-0.3148324887725838,1.1966424358819285,0
10.77622938156128,1.2386324653937526,[2.2511747],0.005,0.1,-0.25928124391544327,1.1964694102838624,0
10.787199258804321,1.2429312371619592,[2.25289062],0.005,0.1,-0.18277869741161898,1.2221176605699435,0
10.79839015007019,1.2472300089301662,[2.25459293],0.005,0.1,-0.3879103309230229,1.2101460321918072,0
10.805726766586304,1.250356388397953,[2.2562834],0.005,0.1,-0.364059876382434,1.1755387144056502,0
10.815283060073853,1.2542643627326862,[2.25795832],0.005,0.1,-0.26664005733521956,1.1738036311204363,0
10.822721719741821,1.257390742200473,[2.25961477],0.005,0.1,-0.1608409878478129,1.1491403687883,0
10.833147048950195,1.2612987165352065,[2.26125328],0.005,0.1,-0.07051553106712136,1.177227404873305,0
10.84273362159729,1.2652066908699398,[2.26288275],0.005,0.1,-0.0014882279934413309,1.2014708381470192,0
10.852110862731934,1.2689192664879365,[2.26451081],0.005,0.1,0.047583740738439684,1.15367493620283,0
10.859748363494873,1.2720456459557232,[2.26613297],0.005,0.1,0.0803354128643595,1.125074729778107,0
10.868748664855957,1.2759536202904564,[2.2677427],0.005,0.1,0.10064510682482927,1.124883503895504,0
10.876721620559692,1.2792753984749798,[2.2693373],0.005,0.1,0.11188190068164372,1.1022483842052941,0
10.88701605796814,1.2837695689599238,[2.27091458],0.005,0.1,0.11671964706415319,1.1012950196257416,0
10.898290872573853,1.2882637394448668,[2.2724754],0.005,0.1,0.11717709258244338,1.0978007022996812,0
10.90579104423523,1.2913901189126538,[2.27402056],0.005,0.1,0.3907694011416168,1.0755260025959195,0
10.915723323822021,1.2954934919641234,[2.2755507],0.005,0.1,0.4196010044813592,1.097421141267547,0
10.926199674606323,1.2995968650155938,[2.27707147],0.005,0.1,0.3591064440522107,1.0877645484,0
10.93434476852417,1.3027232444833805,[2.27858503],0.005,0.1,0.2770335480423311,1.0593104203638934,0
10.945280075073242,1.3074128136850605,[2.28009042],0.005,0.1,0.2002818756407786,1.0754761824324786,0
10.958508253097534,1.312493180320214,[2.281594],0.005,0.1,0.1374230724898063,1.084535748989653,0
10.96871042251587,1.3165965533716841,[2.28310325],0.005,0.1,0.0893318689662713,1.0635688089682558,0
10.980669498443604,1.3214815212901008,[2.28461906],0.005,0.1,-0.22197718091397906,1.043494650164298,0
10.989017963409424,1.3248032994746242,[2.28613935],0.005,0.1,-0.28019157199420325,1.0309114773658525,0
10.99857211112976,1.3287112738093576,[2.28766201],0.005,0.1,-0.24248644977171258,1.018003612327276,0
11.007713079452515,1.332033051993881,[2.28918487],0.005,0.1,-0.17814938009072045,1.0079641815483118,0
11.017453670501709,1.3363318237620878,[2.29070364],0.005,0.1,-0.3913614336850506,0.9798315801761426,0
11.029707908630371,1.3412167916805044,[2.29221434],0.005,0.1,-0.37269931790826794,0.9864698238493212,0
11.03814959526062,1.3447339685817647,[2.29371551],0.005,0.1,-0.27844712977663977,0.9610448928115428,0
11.047333002090454,1.3484465441997613,[2.29520359],0.005,0.1,0.10161687114424872,0.9545104326340512,0
11.0554358959198,1.351572923667548,[2.29667527],0.005,0.1,0.22424235347594268,0.9490538825913183,0
11.065165519714355,1.3554808980022812,[2.29812955],0.005,0.1,0.2379828829371096,0.9406443609694267,0
11.07268762588501,1.3584118787533315,[2.29956359],0.005,0.1,0.2111959623811431,0.924746736642519,0
11.081669092178345,1.3621244543713285,[2.30097307],0.005,0.1,0.17391436627663961,0.9194661864410072,0
11.091667413711548,1.3662278274227981,[2.30235626],0.005,0.1,0.13825001551010316,0.9122611685374677,0
11.101659536361694,1.3701358017575318,[2.30371536],0.005,0.1,0.10822364420189276,0.9151914322881249,0
11.111128091812134,1.3740437760922652,[2.30505061],0.005,0.1,0.08441902909743065,0.9075165981481206,0
11.12365174293518,1.3789287440106817,[2.3063588],0.005,0.1,0.3421660276898639,0.904729583858992,0
11.135322093963623,1.3836183132123618,[2.30764091],0.005,0.1,0.3614563641492403,0.888191939698553,0
11.147359609603882,1.3883078824140422,[2.30890142],0.005,0.1,0.29596101510467,0.8849259124874419,0
11.155274868011475,1.391434261881829,[2.31014423],0.005,0.1,-0.06398110021357192,0.8724761424258333,0
11.163094997406006,1.394951438783089,[2.31137108],0.005,0.1,-0.1735399394802209,0.861234744749418,0
11.1717050075531,1.3982732169676122,[2.31258018],0.005,0.1,0.09646165455471561,0.8435164278990045,0
11.181666851043701,1.4023765900190825,[2.31377018],0.005,0.1,0.16018550571289486,0.843927880256682,0
11.190788507461548,1.4058937669203424,[2.31494177],0.005,0.1,0.14345816587607954,0.827051945953489,0
11.200684309005737,1.4099971399718125,[2.31609411],0.005,0.1,0.10228223911743124,0.8193471003317188,0
11.210819244384766,1.4141005130232824,[2.31722661],0.005,0.1,0.05982990658461677,0.8113488960113251,0
