t_s,q_rad,q_des_rad,jerk
0.005489826202392578,-0.052953052235637635,0.007125644972239623,0.0
0.014708280563354492,-0.052953052235637635,0.03443605973517824,0.0
0.02351975440979004,-0.05275765351890097,0.08558754299171423,0.0
0.0328831672668457,-0.05236685608542762,0.15623753278674032,0.0
0.04347062110900879,-0.05158526121848094,0.24246116292118855,0.276038359678681
0.05194449424743652,-0.050217470201324256,0.34073767030905644,1.413316401554846
0.06403994560241699,-0.04748188816701086,0.44793364774519984,3.6990244350381967
0.07194328308105469,-0.04494170484943416,0.5612838112132286,5.0
0.08069992065429688,-0.04161992666491077,0.6783699438651879,5.0
0.09093141555786133,-0.03732115489670401,0.7970987144989355,5.0
0.09992074966430664,-0.03341318056197061,0.9156787011159949,5.0
0.10794425010681152,-0.03028680109418389,1.0325969557419814,5.0
0.12079691886901855,-0.02501103574229379,1.146595630069565,5.0
0.1299116611480713,-0.0216892575577704,1.2566489059195467,5.0
0.1389451026916504,-0.017976681939773663,1.361940405107907,5.0
0.1483314037322998,-0.014264106321776927,1.461841485764986,5.0
0.1560196876525879,-0.011137726853990204,1.5558904049707512,3.6986668274004297
0.16536402702331543,-0.0072297525192568,1.6437724924155972,1.4745120894722452
0.17401695251464844,-0.003907974334733405,1.7253015694494651,-0.917934297037693
0.18493413925170898,0.00039079743347334047,1.8004025407666804,-2.898990569389676
0.19480061531066895,0.0042987717682067455,1.8690952812256671,-4.336390646403146
0.2046070098876953,0.00820674610294015,1.9314796559866763,-5.0
0.21314311027526855,0.011528524287463544,1.987721853695673,-5.0
0.22363710403442383,0.01582729605567029,2.0380420433759268,-5.0
0.23107457160949707,0.018953675523457014,2.082703076645329,-5.0
0.23906779289245605,0.022275453707980408,2.122000306744719,-5.0
0.25008630752563477,0.026965022909660494,2.1562529031543702,-5.0
0.2590653896331787,0.030677598527657227,2.185796552727484,-5.0
0.26815366744995117,0.034390174145653964,2.2109762665750288,-5.0
0.2770836353302002,0.03790735104691403,2.2321399208712926,-5.0
0.28592801094055176,0.04122912923143742,2.2496337814119385,-5.0
0.2950448989868164,0.044746306132697485,2.263798483487064,-4.957330162495042
0.3031282424926758,0.04787268560048421,2.2749650929098215,-4.725349791909776
0.3139166831970215,0.052562254802164296,2.283452461902367,-4.419783502580892
0.3238203525543213,0.05686102657037104,2.289565317343481,-4.095542740358082
0.3321723937988281,0.059987406038157755,2.2935921862107818,-3.777748029801409
0.3406229019165039,0.06330918422268116,2.295803782379845,-3.477076966529427
0.3490762710571289,0.06624016497373121,2.2964524105979014,-3.197322296106457
0.35941219329833984,0.07053893674193797,2.295771931807007,-2.9390882240079703
0.36730360984802246,0.0742515123599347,2.2939773442240075,-2.701579199580554
0.3750169277191162,0.07737789182772142,2.291264498161731,-2.48345140474945
0.38391780853271484,0.08128586616245481,2.287811177741495,-2.28320723000929
0.3929636478424072,0.08480304306371489,2.283778046601576,-2.0993694873789934
0.401947021484375,0.08851561868171162,2.2793082980911996,-1.9305513531392022
0.4123671054840088,0.09281439044991838,2.2745282598566834,-1.4994400023904335
0.421741247177124,0.0965269660679151,2.269549372919332,-1.3238264722180215
0.4309580326080322,0.10004414296917516,2.2644687686423897,-1.524002253015915
0.43984365463256836,0.1037567185871719,2.259369407690777,-1.5128224068798333
0.448683500289917,0.10746929420516863,2.254321767883386,-1.417556350754325
0.45794200897216797,0.11118186982316537,2.24938547800982,-1.0202660497884466
0.4681684970855713,0.11528524287463544,2.244609606890602,-0.8650042662485233
0.47882080078125,0.1195840146428422,2.2400333611963426,-1.0828337126761256
0.4890422821044922,0.12368738769431226,2.235687791656543,-1.0903785761011993
0.49807310104370117,0.12720456459557233,2.2315962474361726,-0.7396553771568873
0.5070514678955078,0.13091714021356907,2.227774508049195,-0.6073697650817699
0.5153436660766602,0.13443431711482912,2.2242325233581886,-0.5632668850918269
0.5245575904846191,0.13834229144956253,2.2209759960353175,-0.5491791894103208
0.5339395999908447,0.14225026578429595,2.2180061316629804,-0.5408428949826907
0.5430314540863037,0.14576744268555603,2.2153194300704158,-0.5294523329602556
0.5510432720184326,0.1490892208700794,2.2129088701273254,-0.5128890755610263
0.5610871315002441,0.15280179648807612,2.2107654738347207,-0.4916525602496077
0.569072961807251,0.15612357467259955,2.20887822124406,-0.46704636307662817
0.5793435573577881,0.16042234644080625,2.2072340312141137,-0.4404257494501724
0.5874307155609131,0.16374412462532967,2.2058197786389915,-0.4129293013213019
0.5960354804992676,0.16706590280985303,2.2046219562429616,-0.38542000801129694
0.6040523052215576,0.1701922822776398,2.2036248083202192,-0.3585083041857688
0.6146583557128906,0.17449105404584653,2.202811901896957,-0.33260014825076645
0.6244618892669678,0.17878982581405328,2.202169185257482,-0.3079464825852614
0.6331174373626709,0.18191620528184,2.201683179373431,-0.2846856014719209
0.6413025856018066,0.18523798346636342,2.201338828766035,-0.26287653717822224
0.6490042209625244,0.18816896421741344,2.2011215999804787,-0.24252416167017213
0.6587011814117432,0.19227233726888354,2.2010181552621533,-0.22359750135753184
0.669001579284668,0.19637571032035359,2.2010157678475504,-0.20604281678095138
0.6787981986999512,0.20047908337182369,2.2011023709026736,-0.18979278465951113
0.6877212524414062,0.20380086155634705,2.2012671972628994,-0.17477284331587872
0.6995205879211426,0.2088812281915005,2.201500135337423,-0.16090550593812672
0.7120702266693115,0.2141569935433906,2.201790579845922,-0.14811323506794044
0.7255239486694336,0.21923736017854403,2.2021288097983964,-0.136320308257677
0.7360110282897949,0.22353613194675076,2.202506565531319,-0.1254539826295699
0.7461230754852295,0.22763950499822086,2.2029157495377802,-0.11544517665996273
0.757556676864624,0.2323290741999009,2.203349632892754,-0.10622882303464834
0.7650487422943115,0.23526005495095098,2.2038027628333197,-0.09774400037658346
0.7743124961853027,0.23877723185221103,2.2042691299787305,0.1861044406882068
0.7847511768341064,0.24288060490368113,2.2047439999235334,0.22641715011065758
0.7939698696136475,0.24659318052167786,2.2052243298528804,0.17793493335277155
0.8019521236419678,0.2501103574229379,2.2057063462484106,0.10793715234851536
0.8114323616027832,0.2540183317576713,2.2061857266350926,0.04301569221951459
0.821357250213623,0.2581217048091414,2.2066598930446775,-0.008452303469681354
0.8299524784088135,0.26163888171040145,2.207127237955552,-0.04570793678675667
0.8389148712158203,0.2653514573283982,2.20758541860857,-0.07076012384828717
0.8489625453948975,0.2692594316631316,2.2080325555905738,-0.08627376418771183
0.8590545654296875,0.27336280471460167,2.2084682249658343,-0.09473311564775212
0.8680028915405273,0.2772707790493351,2.2088922021203836,-0.0981769119235398
0.8764808177947998,0.28059255723385845,2.2093033938290616,-0.098173255194536
0.886836051940918,0.2848913290020652,2.209701555486061,0.18015622536459736
0.8960204124450684,0.28821310718658855,2.2100876937475338,0.21702378550763562
0.9056482315063477,0.292121081521322,2.21046178946572,-0.10950687425521072
0.9177889823913574,0.2970060494397388,2.2108239994395666,-0.21365849330302225
0.9270479679107666,0.3007186250577355,2.211176191586804,-0.22385135170196865
0.9350035190582275,0.3040404032422589,2.2115190359741943,-0.1991666298556638
0.9430677890777588,0.3071667827100456,2.2118511370938134,-0.165551424762938
0.9544374942779541,0.31185635191172567,2.2121725697599195,-0.1334608759353739
0.9629340171813965,0.31556892752972243,2.21248461644239,-0.10635694019120456
0.9710590839385986,0.3188907057142458,2.212786862517946,0.19130620130976697
0.9831376075744629,0.32358027491592595,2.213079696632681,0.24119937608485054
0.9939005374908447,0.32787904668413265,2.213365850279857,0.19893652585383426
1.0018279552459717,0.3310054261519194,2.2136466265214216,-0.14339622087416568
1.0103542804718018,0.33452260305317943,2.2139215399282146,-0.23954913806670786
1.020946979522705,0.3390167735381229,2.214191485972463,0.04074985345333726
1.0288407802581787,0.34214315300590964,2.214457921728995,-0.16355616640889598
1.037177324295044,0.34566032990716966,2.2147209751194072,-0.20708582248680196
1.0451476573944092,0.3485913106582197,2.2149808599079965,-0.1880898249014975
1.053600788116455,0.35210848755947977,2.2152384681309485,-0.15031272847902583
1.065551519393921,0.35679805676115983,2.2154953163897426,-0.111862013809471
1.0738143920898438,0.3603152336624199,2.215754125500705,-0.07915768568588379
1.0839498043060303,0.3646140054306266,2.216017314526606,-0.05356762414535911
1.0938224792480469,0.3689127771988334,2.2162863782261524,-0.034487656647482656
1.105027198791504,0.3732115489670402,2.216563410255891,-0.020715281376198973
1.1166136264801025,0.3779011181687203,2.216851762697678,-0.011020118726901014
1.1297941207885742,0.3831768835206103,2.217155159018569,-0.28038601769927596
1.1381189823150635,0.38630326298839707,2.217476903619759,-0.3090270658179707
1.1483442783355713,0.39040663603986714,2.2178190296490055,-0.2510045880294026
1.1564993858337402,0.3935330155076539,2.2181815376818683,-0.17308867062214123
1.167158603668213,0.3978317872758606,2.2185643734189977,-0.101494025917551
1.1765735149383545,0.4021305590440673,2.2189682684576355,-0.044319885206159204
1.1847798824310303,0.40545233722859075,2.2193918923366462,-0.0021203948932644323
1.1927804946899414,0.40857871669637746,2.2198303194742137,0.02726479957066998
1.202840805053711,0.41268208974784754,2.2202792553507433,0.04661342622815374
1.2118501663208008,0.4163946653658443,2.220738664729626,0.058494677872363815
1.2197821140289307,0.4197164435503677,2.221207496487269,0.34105042049410134
1.2278156280517578,0.4230382217348911,2.22168198390651,0.3769467933878602
1.2383310794830322,0.4275323922198345,2.2221607949109807,0.3220751768587181
1.245966911315918,0.4306587716876212,2.222644675067701,-0.031501386925108704
1.259568691253662,0.43593453703951135,2.2231360917542187,-0.13766502028411925
1.2701101303100586,0.44023330880771805,2.2236398290230355,-0.14233861946479084
1.2791481018066406,0.44355508699224144,2.2241587667782188,-0.11173638036207559
1.2871103286743164,0.44668146646002815,2.2246923877061917,-0.35028726987598713
1.2999649047851562,0.45215263052865495,2.225240176864146,-0.349938990879571
1.308340072631836,0.45566980742991503,2.2258024572663433,-0.2685320847416802
1.3187463283538818,0.4595777817646485,2.2263783684677882,-0.17326922781347387
1.3321635723114014,0.4652443445500118,2.2269679984617854,-0.08956546681340995
1.3411469459533691,0.46876152145127187,2.22757314958928,-0.024412663690449178
1.349144458770752,0.4720832996357954,2.228193209934471,0.022680650366970614
1.360278844833374,0.476968267554212,2.2288264766898584,0.330777271148636
1.369814157485962,0.4808762418889455,2.2294722568807455,0.10833255213593199
1.3793513774871826,0.4847842162236789,2.2301297668735285,0.03205638737488019
1.3867385387420654,0.48751979825799224,2.2307972345822162,0.016954291738948378
1.395068883895874,0.4910369751592523,2.2314720958447625,0.024216193031241506
1.404951572418213,0.4951403482107224,2.232152996866623,0.31304730545121884
1.414738655090332,0.4988529238287191,2.2328386489439858,0.3578708651503938
1.4272956848144531,0.5039332904638726,2.233528774809008,0.03527470647024589
1.4359874725341797,0.5074504673651327,2.2342249544826407,0.20731609150072083
1.445711612701416,0.5115538404166027,2.2349265670552168,0.22741674967361764
1.457401990890503,0.5164388083350194,2.2356320241015726,0.19204436774948375
1.4650249481201172,0.5195651878028061,2.236340837525823,0.14322588706665432
1.4740655422210693,0.5232777634208029,2.237051622204134,0.09763456326853262
1.4832468032836914,0.5269903390387995,2.237762237717836,0.06057312074963093
1.4918158054351807,0.5307029146567964,2.2384708553752493,0.03257309663222052
1.5017640590667725,0.5346108889915298,2.2391768534069905,0.0124199766628716
1.512228012084961,0.5389096607597365,2.2398806294609344,-0.0015263870966130324
1.5216560363769531,0.54281763509447,2.24058160657627,-0.010806049597019935
1.5307433605194092,0.54633481199573,2.241278401130854,-0.01669022582178557
1.5404744148254395,0.5502427863304634,2.241969867139982,-0.02016277927324115
1.5484771728515625,0.5531737670815134,2.2426550381307964,-0.02195705168458214
1.5560879707336426,0.5561047478325636,2.2433322425210034,-0.0226065212227297
1.5666401386260986,0.560598918317507,2.244000141377997,-0.022492686768704945
1.575456142425537,0.5643114939355037,2.24465943637229,-0.02188478473431754
1.5837962627410889,0.5678286708367637,2.2453107674662838,-0.020970676908661924
1.5927538871765137,0.5715412464547605,2.245952985320941,-0.01988000318226516
1.6027507781982422,0.5756446195062305,2.2465843280195483,-0.018701143205647974
1.6118443012237549,0.5795525938409639,2.2472042510594012,-0.017493456933555956
1.6207845211029053,0.5830697707422241,2.247813236454229,-0.01629602750281252
1.629762887954712,0.5867823463602206,2.2484117616981645,-0.015133860036860777
1.6387484073638916,0.5902995232614808,2.249000298138423,-0.014022252421523903
1.6491332054138184,0.5947936937464242,2.2495801119352596,-0.012969863496053977
1.658097267150879,0.5983108706476843,2.2501531257487257,-0.01198085852256122
1.6659812927246094,0.601437250115471,2.250720186440786,-0.011056403824307986
1.673757553100586,0.6043682308665211,2.2512804348897704,-0.01019570386140501
1.6832528114318848,0.6082762052012545,2.2518331679719426,-0.0093967174699295
1.6917414665222168,0.6117933821025145,2.252378640518236,-0.008656649653231468
1.7040901184082031,0.6166783500209313,2.252917130423349,-0.007972286706948963
1.7127487659454346,0.6200001282054547,2.253449685097244,-0.007340222248180596
1.7211720943450928,0.6237127038234513,2.2539772432283387,-0.006757007482676196
1.7307062149047852,0.6274252794414481,2.2544998587685607,-0.006219249033959925
1.7397325038909912,0.6315286524929183,2.255017588864734,-0.005723670636164618
1.7500874996185303,0.6354366268276517,2.2555312871601596,-0.005267150062696341
1.7606844902038574,0.6397353985958584,2.256042485236154,-0.004846739216828018
1.771061658859253,0.6438387716473285,2.2565524643277337,-0.00445967289339989
1.7811448574066162,0.6481375434155352,2.257063004726677,0.27193498964577506
1.791698932647705,0.6522409164670053,2.2575755675943134,0.30538753272956143
1.8010368347167969,0.6561488908017388,2.2580905848072605,0.25059207976996534
1.8104043006896973,0.6598614664197354,2.2586083488618396,0.17478480318958367
1.8182363510131836,0.6631832446042588,2.2591283009239156,0.10451768431519322
1.8291220664978027,0.6678728138059389,2.2596498767579014,0.048131036596597065
1.8407301902770996,0.6723669842908824,2.2601739649541788,0.006349791217437645
1.8490333557128906,0.6758841611921423,2.2607012427032553,-0.02286627548092224
1.8581445217132568,0.6797921355268758,2.2612307673286414,-0.042210906665681815
1.8692221641540527,0.6844817047285559,2.2617616507818954,-0.05419492480991629
1.8786711692810059,0.6879988816298159,2.26229376150399,0.21515683666873162
1.887063980102539,0.691516058531076,2.262826915205521,0.24530164278633332
1.8958122730255127,0.6950332354323361,2.2633609147346707,0.18975067640180118
1.9056432247161865,0.6987458110503327,2.2638948612322545,0.11488334676785798
1.9168930053710938,0.7034353802520129,2.264427939674822,0.04664234063686605
1.9278244972229004,0.7075387533034829,2.2649601314966876,-0.00705890624895273
1.9380321502685547,0.711642126354953,2.265491400825652,-0.04579040687453936
1.9470369815826416,0.7155501006896864,2.266021672138331,-0.07179317920298547
1.9553017616271973,0.7190672775909466,2.2665501987966863,-0.08789525612693172
1.96525239944458,0.7231706506424166,2.2670763488463574,-0.09669517144150264
1.9750945568084717,0.7268832262604134,2.26760024410133,-0.10031146475082159
1.9857277870178223,0.7311819980286202,2.2681219681375717,-0.10036779846866553
1.9943821430206299,0.7350899723633534,2.268641564163282,-0.09806270821001693
2.004434585571289,0.7391933454148236,2.269159041462248,-0.09425845408160746
2.014688491821289,0.7432967184662935,2.2696743967249695,-0.08956317602254671
2.025460720062256,0.7475954902345003,2.2701876044532185,-0.0843983329767273
2.0346498489379883,0.7511126671357603,2.2706986137659984,-0.07905083018817655
2.0452353954315186,0.7552160401872305,2.2712073630144807,-0.07371192653000622
2.053455352783203,0.7585378183717539,2.271713784559126,-0.06850564036856062
2.062505006790161,0.7624457927064873,2.2722172120205806,-0.06350918372725567
2.0722124576568604,0.7663537670412206,2.2727164697483144,-0.33480586842726
2.081638813018799,0.7704571400926907,2.2732105635252684,-0.36346654444638815
2.0936596393585205,0.7753421080111076,2.2736992800679987,-0.3041912986932599
2.1026580333709717,0.7788592849123676,2.2741830862361034,-0.22421268723822024
2.110731601715088,0.7819856643801543,2.274662412641118,-0.15007297595680738
2.119662046432495,0.785698239998151,2.2751370537082263,-0.09009905996328917
2.1279172897338867,0.7892154168994111,2.275605680164757,-0.04500038537164859
2.1357247829437256,0.7923417963671978,2.2760666312073403,-0.012720282059354628
2.144639015197754,0.7958589732684579,2.2765185910056527,0.009451665056366123
2.155897855758667,0.8003531437534013,2.2769616721072374,0.024042695944043783
2.1651790142059326,0.804065719371398,2.277396611307119,0.033131863586374155
2.172635316848755,0.8071920988391849,2.277822991286109,0.03832490704864677
2.183335542678833,0.8114908706073914,2.2782410865833764,0.040816821382458644
2.191681385040283,0.814812648791915,2.278651730856309,0.0414757065569723
2.2016453742980957,0.818916021843385,2.279054576658453,0.040921459680330695
2.2111852169036865,0.8228239961781183,2.2794488165721383,0.03959083367355508
2.2192695140838623,0.8263411730793784,2.2798338198374966,0.03778794252411097
2.2266693115234375,0.8292721538304285,2.280209668426378,0.035722076006826003
2.2367372512817383,0.8335709255986353,2.2805765108720286,-0.24250297853139458
2.2486181259155273,0.8382604948003154,2.2809345539315897,-0.2778401358289947
2.256662130355835,0.841386874268102,2.281284586015577,-0.2249192486986197
2.266658067703247,0.8452948486028355,2.281627333605036,-0.15093520883288786
2.2756426334381104,0.8490074242208321,2.281963462943794,-0.0824145788548255
2.2856202125549316,0.8531107972723023,2.282293116647679,-0.0276831116101501
2.2956490516662598,0.8572141703237723,2.28261645133427,0.012541463797168351
2.3047149181365967,0.8605359485082957,2.282934100579222,0.0403016531399245
2.314612865447998,0.8646393215597659,2.28324663134656,0.05829025435708894
2.3232178688049316,0.8681564984610259,2.2835545484700925,0.06901508691431313
2.3326425552368164,0.8718690740790227,2.283857829785078,0.07453508673410554
2.3434219360351562,0.8767540419974394,2.284156481855729,0.0764359094059551
2.3516275882720947,0.8800758201819627,2.2844510226778962,0.07589296981562751
2.3609650135040283,0.8841791932334329,2.2847419072604738,0.07375558166122365
2.370659351348877,0.8878917688514296,2.2850299460940837,0.0706258178385559
2.3823251724243164,0.8927767367698464,2.2853158243685465,0.06692365436299474
2.3906311988830566,0.8960985149543697,2.285599252270227,0.06293750540727586
2.400721549987793,0.9000064892891031,2.285879571708375,0.05886203136352558
2.40995717048645,0.9039144636238364,2.2861566741313104,0.05482579033344268
2.4203379154205322,0.9082132353920432,2.2864308985773456,0.05091115864548178
2.429612159729004,0.91192581101004,2.2867025512758774,0.047168531282594316
2.4410417079925537,0.9164199814949833,2.286972335283876,0.04362636613601463
2.4492650032043457,0.9197417596795069,2.2872408261060277,0.04029824480723071
2.4576470851898193,0.9232589365807669,2.287507248499073,0.03718780970257589
2.466665029525757,0.9269715121987636,2.2877705729352114,0.03429219851554745
2.475694417953491,0.9304886891000236,2.2880307827697735,0.031604420373363515
2.4855997562408447,0.9343966634347571,2.288288281852963,0.029114989274130806
2.4939794540405273,0.9383046377694905,2.288543439865749,0.02681303796032966
2.5020978450775146,0.9418218146707505,2.288796575045761,0.024687069431482446
2.5099380016326904,0.9449481941385374,2.2890479726759354,0.022725456546770176
2.5200369358062744,0.9490515671900073,2.289297899601984,0.2969551268276266
2.5292530059814453,0.9523733453745308,2.2895461573228437,0.05237457205510572
2.5387227535247803,0.9564767184260008,2.289792157934833,-0.03738270496368525
2.5485754013061523,0.9603846927607341,2.290035848932278,-0.05978441145278725
2.557629346847534,0.9640972683787309,2.2902776381958434,0.22051447261783647
2.5666794776916504,0.9678098439967278,2.2905174644280537,0.2663416255251362
2.5750277042388916,0.971131622181251,2.2907548966200135,0.2247656224391737
2.583486318588257,0.9746487990825112,2.2909900113122714,-0.11579030343829616
2.594266891479492,0.9787521721339812,2.2912232468564135,-0.21048429521791287
2.6055805683135986,0.9832463426189246,2.291455365825719,-0.20549307423731536
2.615734100341797,0.9873497156703948,2.2916870507156433,-0.16688562984337463
2.625556707382202,0.9914530887218647,2.2919180704599817,-0.1227865483870989
2.6357626914978027,0.9955564617733349,2.292148189630222,-0.08382454669274192
2.644606828689575,0.9992690373913317,2.2923776153687383,0.22312478923530546
2.6539182662963867,1.0029816130093283,2.29260654495396,0.27932981581081195
2.6616573333740234,1.006107992477115,2.292834746265843,0.2407642619356311
2.6712470054626465,1.0100159668118485,2.293061243317453,0.17612086524848894
2.6795036792755127,1.0135331437131085,2.2932852482904473,0.11324919816340373
2.6891767978668213,1.017441118047842,2.2935072754297274,0.061534654378439524
2.700636386871338,1.0219352885327855,2.29372849482512,0.02250005176263302
2.710953950881958,1.026234060300992,2.2939495218944175,-0.005305035920749948
2.720059394836426,1.0303374333524622,2.2941705220521715,-0.024147592705127223
2.729109048843384,1.0336592115369856,2.294391586884061,-0.03623435763841828
2.738572835922241,1.0373717871549823,2.294613146642725,-0.043414459966699875
2.7478957176208496,1.0408889640562422,2.294835583466427,-0.047129423974204554
2.755587100982666,1.0438199448072925,2.2950580910838814,-0.04845721719334597
2.7647838592529297,1.0475325204252892,2.2952796014590726,-0.04818257410063413
2.7747223377227783,1.0520266909102327,2.2954999578666593,-0.04686593781390315
2.7845349311828613,1.055934665244966,2.2957194202994136,-0.044901549359393424
2.7945902347564697,1.060038038296436,2.2959382163392337,-0.042562999920939724
2.8042004108428955,1.0639460126311695,2.296156528541007,-0.04003753903995424
2.812572956085205,1.0674631895324294,2.2963741484649725,-0.03745127977330477
2.8209898471832275,1.0707849677169528,2.296590918078766,-0.03488741732985187
2.831369400024414,1.0750837394851596,2.2968070792097484,-0.032399251519856044
2.8419201374053955,1.079577909970103,2.2970228164435116,-0.030019420511387722
2.8495640754699707,1.0827042894378898,2.2972382697453533,-0.02776640815457019
2.860870599746704,1.0871984599228333,2.2974532144623008,0.25038925282525165
2.8701651096343994,1.09091103554083,2.2976674695224393,0.009454600684205533
2.8819072246551514,1.0954052060257735,2.2978815617293993,-0.07692464390454529
2.889554738998413,1.09853158549356,2.2980959108847823,-0.09620189506267654
2.9010322093963623,1.1032211546952402,2.298310524287548,0.18698315580329194
2.908827543258667,1.1065429328797636,2.2985254093197174,0.23547375070817717
2.916536569595337,1.1094739136308136,2.2987398467514644,0.1963538327532406
2.9245400428771973,1.112795691815337,2.2989528573620466,0.1340998680757172
2.93251371383667,1.1161174699998604,2.299163968215849,0.07461579522538839
2.942021608352661,1.1200254443345938,2.2993728070758293,0.02643021184230049
2.9505884647369385,1.1231518238023808,2.299579430653072,-0.009279159631616584
2.960545778274536,1.1272551968538507,2.299784230637019,-0.03407506037525362
2.968569278717041,1.1305769750383738,2.2999875394894835,-0.05023670167788655
2.978496551513672,1.1344849493731075,2.3001896607605734,-0.05994455917295438
2.9865431785583496,1.137806727557631,2.300390553812591,-0.06501047064772474
2.9952924251556396,1.1415193031756277,2.3005898403727185,-0.0668390266760702
3.0045039653778076,1.1452318787936242,2.300787500111013,-0.06647566028513505
3.012647867202759,1.148358258261411,2.3009838673872216,-0.06467782656612424
3.021514892578125,1.152070833879408,2.3011792501877864,-0.06198354885520502
3.030933380126953,1.1557834094974044,2.3013735773376047,-0.05876872635767015
3.043574810028076,1.1610591748492947,2.301566785335962,-0.33133023967586767
3.05309796333313,1.1651625479007646,2.3017594882145977,-0.3608907230414233
3.0608673095703125,1.168484326085288,2.301952197871598,-0.30225769424628895
3.0685551166534424,1.1718061042698116,2.3021443518112448,-0.22273953767554913
3.0765128135681152,1.1747370850208614,2.302334831416284,-0.14893194525737502
3.085097551345825,1.1788404580723315,2.3025236822346367,-0.0891994137127516
3.094522476196289,1.1819668375401182,2.3027116078508296,-0.04427783979828693
3.103527784347534,1.1854840144413783,2.3028985550511747,-0.012129159206849007
3.1122941970825195,1.1888057926259017,2.3030841502234014,0.009943950332620017
3.122476816177368,1.1931045643941083,2.3032683837201686,0.024459507776901205
3.131638765335083,1.1966217412953686,2.3034518572565394,-0.24254829623998408
3.1421871185302734,1.2013113104970485,2.3036350640342254,-0.27052620065047067
3.149536371231079,1.2044376899648352,2.3038177937419575,0.06306399853670783
3.160550117492676,1.2087364617330423,2.3039995573604064,0.1729018615757169
3.1712534427642822,1.2130352335012489,2.304180508266321,0.18774745605859178
3.1787922382354736,1.2161616129690356,2.3043610438138398,0.1669319076420221
3.1865155696868896,1.2192879924368225,2.3045409077657975,0.13658524251929854
3.1952366828918457,1.223000568054819,2.3047195979500916,0.1072964012801694
3.2042202949523926,1.2267131436728156,2.3048966817483607,0.08262550235173012
3.2125163078308105,1.230034921857339,2.305072060442228,0.06313754561550233
3.2215311527252197,1.2339428961920726,2.305245666462426,-0.22777480218103918
3.229487180709839,1.2370692756598594,2.3054171922946676,-0.27204080051285656
3.2375009059906006,1.2403910538443828,2.3055866519242314,-0.22521164502774652
3.249389886856079,1.2448852243293262,2.305754328713432,-0.1552448498154671
3.258840322494507,1.2487931986640595,2.305920486926242,-0.3652968471821767
3.2675347328186035,1.2523103755653198,2.3060853558099663,-0.34518309441493633
3.278489828109741,1.256804546050263,2.3062491057776033,-0.250635385997244
3.287721633911133,1.260321722951523,2.3064118784458785,-0.14707638382750726
3.2964868545532227,1.2640342985695197,2.3065735529697933,-0.05852703887601228
3.3055367469787598,1.2675514754707797,2.306733778854556,0.009067145377010227
3.3144748210906982,1.2712640510887767,2.3068925332792665,0.05696206713244301
3.3235867023468018,1.2751720254235102,2.3070500638652955,0.08873024642461359
3.332507610321045,1.2788846010415067,2.307206571158055,0.10820489762096941
3.3418188095092773,1.2829879740929768,2.307362236459728,0.11872239027172349
3.349574327468872,1.285918954844027,2.307516980770163,0.12293268558388988
3.3594777584075928,1.2898269291787603,2.3076704882298418,0.12283691501675953
3.368191957473755,1.293539504796757,2.3078227525255737,0.39593710434257906
3.3754730224609375,1.296470485547807,2.3079737813345202,0.4243277518513352
3.3845326900482178,1.2999876624490672,2.3081233562452557,0.08739741116752753
3.395358085632324,1.3042864342172737,2.308271573922131,-0.028159932239769453
3.4094791412353516,1.310148395719374,2.3084190232296646,0.22589700358878356
3.4204821586608887,1.314837964921054,2.3085664530007914,0.2719497958023065
3.431248426437378,1.3191367366892608,2.308714239612157,0.23901182570145282
3.4414615631103516,1.3234355084574676,2.3088624504087125,0.18402890254618126
3.4500246047973633,1.3269526853587275,2.309011144566769,0.13018591307632793
3.461165189743042,1.331446855843671,2.3091603457911254,0.08537791929555211
3.4684395790100098,1.334377836594721,2.3093098112074535,0.05096817791341006
3.4795260429382324,1.3388720070796645,2.309459355944169,0.025832906531300784
3.489985227584839,1.3433661775646077,2.309609327619364,0.008149721173447241
3.499638080596924,1.3470787531826045,2.3097599945882354,-0.0038718839206751607
3.5093576908111572,1.350986727517338,2.309911312248427,-0.011739892594968146
3.5186450481414795,1.3545039044185982,2.310063229819984,-0.0166346428628507
3.527662754058838,1.3578256826031216,2.3102156981338564,-0.019442385658550596
3.5364370346069336,1.3617336569378549,2.3103686846909244,-0.020811332289138763
3.5453743934631348,1.365837029989325,2.310521900487768,-0.02120715070735279
3.5544188022613525,1.3695496056073215,2.3106748255938636,-0.0209599305331402
3.5624735355377197,1.372871383791845,2.310827263462366,-0.02030110459891557
3.5704474449157715,1.3759977632596319,2.3109790503354937,-0.01939130528232272
3.5795702934265137,1.3799057375943653,2.311129826839051,-0.018340858743282153
3.589449405670166,1.3838137119290987,2.3112795639150745,-0.017224618336195
3.5984301567077637,1.3875262875470953,2.311428474377434,-0.01609258256086577
3.6064517498016357,1.3908480657316187,2.3115764817380575,-0.014977436483494803
3.61645245552063,1.394951438783089,2.3117235214321608,-0.013899877405831554
3.6257622241973877,1.3986640144010856,2.311869800026387,0.26316600064077617
3.6334421634674072,1.4015949951521356,2.3120152665588902,0.2972612488800762
3.6424272060394287,1.4053075707701321,2.3121596336466443,-0.03296363750926129
3.651442050933838,1.4088247476713924,2.3123026663310213,-0.14132295550622495
3.6604137420654297,1.412537323289389,2.3124444233431776,-0.1559574145953665
3.670409917831421,1.4166406963408593,2.3125852063780052,-0.13576043291412798
3.6811344623565674,1.4207440693923294,2.312725519455433,-0.1065560286292496
3.688417911529541,1.4240658475768528,2.312865792569196,-0.07872139873656839
3.697416067123413,1.427583024478113,2.3130059018649307,-0.05567175909298858
3.7064387798309326,1.4314909988128461,2.3131454960979165,-0.03787425673276375
3.7148211002349854,1.4348127769973695,2.313284286456282,0.2513433827333276
3.722426652908325,1.4377437577484196,2.313422019817737,0.2939524745773277
3.731409788131714,1.4414563333664165,2.3135584788362,0.2455304569417797
3.740588426589966,1.4449735102676766,2.3136937402194673,0.17405023992132995
3.7496325969696045,1.4486860858856732,2.3138281129040834,0.10663792105369813
3.7589335441589355,1.4525940602204066,2.3139618603876735,0.052064150923512596
3.7664260864257812,1.4555250409714566,2.314095225949193,0.011368640000417866
3.7746691703796387,1.4588468191559802,2.314228405593237,-0.01726234806256066
3.782463788986206,1.4621685973405036,2.3143610648136255,-0.03636152385588506
3.790574073791504,1.465490375525027,2.3144924688256423,-0.0483262744114485
3.8014280796051025,1.4699845460099703,2.3146224881624575,-0.0551405221418953
3.810436487197876,1.4736971216279668,2.3147514775772744,-0.058339914628156804
3.8194100856781006,1.4774096972459638,2.314879731876116,-0.059067360177893144
3.830733060836792,1.4820992664476438,2.315007719906205,-0.058151815837483724
3.839148759841919,1.4856164433489039,2.3151358153425448,-0.05618336038701539
3.8479409217834473,1.489133620250164,2.3152638664160023,0.2224626859085869
3.8564724922180176,1.4922599997179506,2.3153917561684008,-0.017490103928144693
3.865412712097168,1.4959725753359474,2.315519389328697,-0.1025924480046779
3.874391555786133,1.4994897522372075,2.3156464477467886,0.15560596588289655
3.883486270904541,1.503202327855204,2.3157728790766647,0.19738389392699346
3.8923957347869873,1.5065241060397276,2.315898638682145,0.15916801247397808
3.9003918170928955,1.5096504855075141,2.3160234612429167,0.10054512568919799
3.9095637798309326,1.5135584598422478,2.3161473476423677,-0.23075536951020245
3.9173998832702637,1.5168802380267712,2.3162703215649483,-0.03206517673966919
3.92840576171875,1.5215698072284511,2.3163924063663304,0.023877303372937517
3.937800645828247,1.525086984129711,2.316514048728044,0.022939421147791527
3.9457879066467285,1.528213363597498,2.316635615128681,0.0035889868189100064
3.9533493518829346,1.5313397430652846,2.3167569670760555,-0.01805677460668716
3.96443510055542,1.5362247109837017,2.3168779879165693,-0.036112255391313026
3.972356081008911,1.5393510904514882,2.316998597190508,-0.04914777739579137
3.980361223220825,1.5426728686360116,2.317118323725495,-0.05750035016346193
3.991363286972046,1.547167039120955,2.3172369704592772,-0.062068020249031415
4.000041484832764,1.5506842160222152,2.3173547831609786,-0.06380427811170113
4.010382652282715,1.5545921903569486,2.3174719889620983,-0.06353328090738934
4.020385026931763,1.5586955634084183,2.3175887777595285,-0.06190503766944021
4.02843976020813,1.5620173415929417,2.317705092391448,-0.05940626697187015
4.037432909011841,1.5657299172109387,2.3178206844996057,-0.05638907766110142
4.048213720321655,1.5702240876958822,2.3179357696058696,-0.053101554594002245
4.056363582611084,1.5735458658804056,2.318050741923238,-0.04971439478504541
4.067046880722046,1.5776492389318757,2.3181655185479393,-0.3223804992501714
4.07618522644043,1.5813618145498722,2.318280023414289,-0.35222226929346634
4.085400581359863,1.5852697888846057,2.3183943856653078,-0.2939780001131308
4.093905448913574,1.5889823645026022,2.318508702459126,-0.21490870144576896
4.102445840835571,1.5923041426871256,2.3186228681430783,-0.14157800561300088
4.110360383987427,1.5954305221549125,2.318736607699288,-0.0823290360338653
4.11837100982666,1.5983615029059628,2.318849884027531,-0.03788373809596539
4.126445293426514,1.6018786798072226,2.3189626686664444,-0.00619522417760951
4.134366750717163,1.6048096605582727,2.3190747323502,0.015439130332007039
4.1434326171875,1.6087176348930061,2.319185885135746,0.029540248591258186
4.151381969451904,1.6116486156440561,2.319295992869473,0.038181969325578886
4.15936279296875,1.6149703938285795,2.3194051347801725,0.04296565348541739
4.168954372406006,1.6190737668800494,2.3195135648832674,0.04508256203601507
4.176342964172363,1.621809348914363,2.319621324981062,0.0453975654714747
4.18535041809082,1.6257173232490965,2.319728271472284,0.04452773402140495
4.19462513923645,1.62962529758383,2.3198344702816884,0.04290732090554767
4.202405691146851,1.6331424744850898,2.319939986071873,-0.23520014854432988
4.2123496532440186,1.6368550501030865,2.320044876195436,-0.27063526947708016
4.220376014709473,1.6399814295708732,2.320149186447479,-0.21794959797630137
4.229536056518555,1.6434986064721333,2.320252591665583,-0.14428391372139185
4.241152286529541,1.6481881756738137,2.3203552115846886,-0.07612773840343488
4.250347375869751,1.6520961500085467,2.320457722067635,-0.29782012509132405
4.259380102157593,1.6558087256265437,2.3205604891381255,-0.29110999409470073
4.270508527755737,1.6603028961114872,2.3206637989227743,-0.20863585736387333
4.278383493423462,1.6630384781458003,2.3207678940741303,-0.1149321664771826
4.286391496658325,1.6663602563303237,2.320872406724086,-0.034037074422989075
4.296360492706299,1.6700728319483205,2.32097700107464,0.027772026209859413
4.305422306060791,1.6741762049997908,2.321081765046383,0.07135844417036868
4.314350366592407,1.6776933819010509,2.3211865893380375,0.09993943756772015
4.322437047958374,1.681601356235784,2.3212911992844902,0.1170590222595585
4.331461668014526,1.6851185331370444,2.32139536462102,0.12583060398959456
4.339481592178345,1.6884403113215678,2.3214990562185545,0.12873756098932493
4.352256774902344,1.6943022728236676,2.321602613083392,0.40369729594269266
4.363342046737671,1.6980148484416642,2.3217065050936188,0.43313294852607626
4.373345136642456,1.7019228227763976,2.3218109322221547,0.09668111753461599
4.382829189300537,1.706026195827868,2.3219158767337515,-0.018782449011418727
4.391664028167725,1.7093479740123914,2.322021308434714,0.23511403230444042
4.399318695068359,1.712474353480178,2.322127010938482,0.28084438951556623
4.407819032669067,1.7157961316647015,2.3222326332842265,0.24748635422070062
4.4153525829315186,1.7189225111324882,2.322337881266214,0.19203004699428847
4.424675703048706,1.7228304854672214,2.3224424970418016,-0.13834792566364462
4.436797857284546,1.727910852102375,2.322546588108125,0.05925803467968324
4.446655511856079,1.7318188264371084,2.322650588049098,0.11258023288937548
4.455430030822754,1.7351406046216318,2.3227545519855806,0.10796087923761294
4.463483095169067,1.7386577815228919,2.322858019698814,-0.19177186714929423
4.474609613418579,1.7433473507245718,2.3229607412437665,0.024796077579745474
4.482346534729004,1.7462783314756218,2.3230630137260406,0.09012902273996914
4.490280628204346,1.7496001096601452,2.323164952134678,0.09326949018572189
4.499279975891113,1.7529218878446686,2.323266312117348,0.0746680571104767
4.507298946380615,1.756243666029192,2.3233670381503635,0.05170398766641435
4.515719413757324,1.759760842930452,2.3234670938092443,0.031077874654014417
4.5240325927734375,1.7632780198317124,2.323566285560374,0.014750610589110917
4.532609939575195,1.7665997980162358,2.3236646176793556,0.0027327487305669283
4.540847063064575,1.7697261774840223,2.3237621049178596,-0.0056468848492027025
4.548448324203491,1.772852556951809,2.3238586031404878,-0.28723347560343687
4.558814287185669,1.7767605312865427,2.3239541569283495,-0.32380609293868967
4.567330837249756,1.7802777081878027,2.324048816215851,0.005388619254518279
4.575326204299927,1.7834040876555892,2.3241423151503593,0.1137103931295837
4.585081338882446,1.7875074607070596,2.3242344223264992,-0.1470729405662867
4.594290256500244,1.7910246376083194,2.324325268171791,-0.19935605053240107
4.604367733001709,1.7951280106597896,2.3244153113429076,-0.1721760249575968
4.6143457889556885,1.7992313837112597,2.324505086768224,0.1535313973803848
4.623290777206421,1.8027485606125195,2.32459486264524,0.23559949478463846
4.634368896484375,1.8070473323807266,2.324684725238085,-0.05524276256258191
4.643260955810547,1.810759907998723,2.3247747540937027,-0.13420085241444757
4.652507066726685,1.8146678823334566,2.324864988846051,-0.12831979303200444
4.663240671157837,1.8189666541016634,2.3249554394962764,-0.09469809136235083
4.673511505126953,1.8230700271531333,2.32504610552783,-0.05739564909712466
4.681314706802368,1.8260010079041833,2.325136833918037,-0.02530672460136157
4.689839124679565,1.8295181848054431,2.3252273307618614,-0.000689767786347632
4.698362112045288,1.8330353617067037,2.325317333532258,0.016852270854062
4.707385540008545,1.8363571398912268,2.3254066297134317,0.028580971250305745
4.715748310089111,1.8394835193590138,2.3254951877315393,0.035866352001678106
4.728309392929077,1.8443684872774304,2.3255832614709226,0.03990636526055767
4.737275123596191,1.848081062895427,2.3256711985326928,0.04165489128460404
4.74564003944397,1.8515982397966873,2.325759145611137,0.04183347977904009
4.753250598907471,1.8547246192644742,2.3258469471121237,0.04097061481764695
4.762267589569092,1.8584371948824707,2.3259344370533417,0.0394446988083164
4.772143125534058,1.8625405679339408,2.326021598018685,0.03752186801762303
4.781301021575928,1.8660577448352007,2.3261081655069824,0.03538630610135108
4.792275667190552,1.8703565166034077,2.326193912722171,0.03316336585351831
4.800701379776001,1.8738736935046676,2.3262789163970763,0.030936688039792274
4.808294773101807,1.8770000729724543,2.3263631182440077,0.028760635257915765
4.816689491271973,1.8803218511569777,2.326446467005167,0.026669206141806304
4.825770616531372,1.8840344267749745,2.3265290554730025,0.02468236690441297
4.834248781204224,1.887160806242761,2.3266108499675955,0.02281051666025463
4.845340967178345,1.891459578010968,2.326691708750269,0.021057618218375002
4.856290102005005,1.895562951062438,2.326771634498386,0.019423381542169077
4.8662638664245605,1.899666324113908,2.3268507450301046,0.01790477834446322
4.875668525695801,1.9035742984486415,2.3269291528548828,0.016497086394284908
4.884688854217529,1.9068960766331648,2.327006968396126,0.015194604299579619
4.892235994338989,1.9100224561009516,2.3270841645298446,0.013991136124692391
4.901437520980835,1.9135396330022116,2.3271605919899563,0.012880315751832084
4.911473035812378,1.9178384047704187,2.327236377733003,0.011855820052949332
4.9197001457214355,1.9209647842382052,2.327311758658703,0.010911505241302976
4.929220914840698,1.9246773598562017,2.3273866832208028,0.010041490426630599
4.93826961517334,1.9281945367574618,2.3274609801606516,0.009240205140652026
4.946885108947754,1.9315163149419852,2.3275345127846307,0.008502412505640895
4.95456337928772,1.934642694409772,2.327607310524671,0.007823216154765758
4.966001749038696,1.939527662328189,2.3276796456097464,0.00719805652012488
4.974262952804565,1.9428494405127124,2.3277517318503205,0.006622700360561617
4.9823689460754395,1.9457804212637622,2.327823384965708,0.006093226185877029
4.991842746734619,1.949492996881759,2.327894456274957,-0.2704323522893769
4.999216794967651,1.952423977632809,2.3279649418608024,-0.3040052685329269
5.010418891906738,1.9567227494010155,2.328034723999752,0.026717849449494402
5.019648790359497,1.9606307237357492,2.3281039446672196,0.13554792416392145
5.028076648712158,1.9641479006370093,2.3281728431583146,-0.1254142100183836
5.037388324737549,1.9676650775382694,2.3282415024625918,-0.1783232997718714
5.045259952545166,1.9711822544395294,2.3283099773268834,-0.1520467025688816
5.053833484649658,1.9743086339073164,2.3283781913497594,-0.1034403072035508
5.062315225601196,1.9774350133751026,2.328445960531027,-0.055637648263003076
5.072274684906006,1.981342987709836,2.3285132276915737,-0.016508645870763543
5.081267595291138,1.9848601646110962,2.3285799432600958,-0.2634473272698155
5.089247703552246,1.9881819427956196,2.328645954324534,-0.2763817257779524
5.098600149154663,1.9916991196968798,2.3287112364476554,-0.20819262876934652
5.1083149909973145,1.9954116953148764,2.3287758718365206,-0.12433938309074585
5.118218898773193,1.99931966964961,2.328839922172211,-0.049882325622231945
5.126528263092041,2.003032245267607,2.3289034201690675,0.008000906231103059
5.13418984413147,2.0059632260186566,2.328966184447039,0.049453541309470175
5.14306116104126,2.0094804029199165,2.3290278703706555,0.07714608106561428
5.154995679855347,2.014169972121597,2.3290884545049635,0.09422053460159457
5.166916131973267,2.01866414260654,2.329148269503913,0.10350117178765657
5.174631118774414,2.0219859207910633,2.3292075132092003,0.1072668649821415
5.1832640171051025,2.0255030976923236,2.3292660792655093,0.10725406212471725
5.193744897842407,2.029606470743794,2.329323852538209,-0.1712983923427508
5.20427942276001,2.0339052425120006,2.329380818515698,-0.20852170789303792
5.216285943984985,2.038790210430417,2.3294370240293403,-0.15846235026267858
5.226263523101807,2.042111988614941,2.3294924976853677,-0.08790770161477374
5.237455129623413,2.046606159099884,2.3295471882195717,-0.02310406008302046
5.246577024459839,2.050123336001144,2.329601094083348,-0.2482260456913381
5.255221128463745,2.0536405129024042,2.3296541407406353,-0.24491383374622902
5.26526403427124,2.057548487237138,2.3297061450265737,-0.16573616445351572
5.2752766609191895,2.061456461571871,2.329757012652659,-0.0751847410870341
5.2832932472229,2.064387442322921,2.3298066631661465,0.0027264775445770967
5.29134202003479,2.067513821790708,2.329854927705938,-0.2143066586976705
5.302755355834961,2.072594188425861,2.3299017401127475,0.06957281793858118
5.313106298446655,2.076697561477331,2.329947207641521,0.18393582186675245
5.323631286621094,2.0808009345288014,2.3299913974904385,0.21977832097419478
5.332209348678589,2.084122712713325,2.33003431122763,0.22088980284734155
5.341939449310303,2.0878352883313216,2.330075970571164,0.20795603798085555
5.351992130279541,2.0919386613827915,2.330116394693895,0.19046164653319678
5.3612048625946045,2.095455838284052,2.33015554477367,0.1725371279429503
5.370490074157715,2.0991684139020483,2.3301933442580376,0.15580932140965892
5.379236221313477,2.1020993946530986,2.3302297876026485,-0.13526293213558
5.387269496917725,2.1052257741208855,2.330264930926939,-0.18170885458077385
5.395191192626953,2.1085475523054082,2.3302987535933295,0.13765849278654593
5.403191089630127,2.111673931773195,2.3303311772716544,0.23644765544154273
5.412177324295044,2.1153865073911917,2.3303622225661482,0.2426033298494303
5.420219898223877,2.1187082855757153,2.3303919842118352,0.21485020294604357
5.428750991821289,2.1220300637602385,2.330420551228436,0.17887333369676073
5.436986923217773,2.125351841944762,2.330448001244354,0.14493754456507205
5.446934461593628,2.129064417562759,2.3304744051100617,0.11636753263148197
5.456908464431763,2.1329723918974923,2.3304998316593366,0.0935571928314973
5.4641687870025635,2.1359033726485426,2.3305243116102723,0.07581274570650606
5.472721099853516,2.1392251508330657,2.330547855404961,0.062161208028169566
5.480139970779419,2.1423515303008527,2.3305705009882027,0.051675444854268476
5.490700960159302,2.1464549033523226,2.330592295944358,0.04358125073549561
5.498196601867676,2.1491904853866357,2.3306132390265772,0.03727206372623493
5.50666356086731,2.1523168648544226,2.330633298520274,0.03228912977331852
5.514223575592041,2.155052446888736,2.33065249148252,0.028292537198232662
5.525475263595581,2.1595466173736795,2.330670882942241,0.02503338868976236
5.535160303115845,2.16364999042515,2.330688553716697,0.022330534723114442
5.5481791496276855,2.16892575577704,2.330705589206115,0.02005238343587912
5.557927370071411,2.1726383313950364,2.330722076035691,0.01810320655470552
5.5666656494140625,2.1761555082962967,2.3307380652257574,0.016413064561100265
5.57415246963501,2.179281887764083,2.330753560039478,0.014930502005297178
5.583452939987183,2.1826036659486063,2.3307685549699704,0.013617300890118658
5.59213662147522,2.1861208428498666,2.3307830456589125,0.012444734759877193
5.600835800170898,2.189638019751127,2.3307970480792903,0.011390903842486085
5.609069585800171,2.19295979793565,2.3308105928738163,0.010438842691853922
5.619164705276489,2.1968677722703833,2.330825249992264,0.00957517691238604
5.628175497055054,2.200384949171643,2.33084502047537,0.008789168817669913
5.637599945068359,2.2039021260729035,2.330871753700676,0.008072038009557938
5.645342111587524,2.2068331068239537,2.3309033777074903,0.007416476085149089
5.65567684173584,2.2109364798754236,2.3309388977824494,0.006816298393938512
5.663135290145874,2.213867460626474,2.330979104778847,0.0062661926064171945
5.674217700958252,2.217970833677944,2.3310240909704083,0.005761535760219206
5.684441089630127,2.2218788080126775,2.331073563619188,0.005298259844785654
5.694117307662964,2.2259821810641474,2.3311272850018594,0.004872751894839874
5.705627679824829,2.2306717502658273,2.3311850237575187,0.0044817787175361066
5.717302083969116,2.2351659207507706,2.331246637977764,0.004122429296110339
5.725118160247803,2.237901502785084,2.331311710368331,0.0037920699626548125
5.735657453536987,2.2420048758365545,2.3313796556169635,0.0034883088712671134
5.743297338485718,2.2447404578708676,2.3314500048565727,0.0032089673146671006
5.752121925354004,2.2484530334888646,2.331522166755279,0.0029520561363999285
5.761151313781738,2.2519702103901245,2.3315954525354816,0.0027157559900933053
5.770150184631348,2.2552919885746476,2.3316692265691903,0.002498400551961813
5.778134822845459,2.258418368042435,2.331742942699043,0.00229846203657075
5.788190126419067,2.262326342377168,2.3318160494789573,0.002114538543710954
5.798129320144653,2.2662343167119015,2.3318878877176945,0.001945342889308322
5.807143688201904,2.2697514936131618,2.331957802901397,0.0017896926584704304
5.817615270614624,2.2740502653813683,2.3320251568111647,0.0016465012860378912
5.829403638839722,2.278349037149575,2.332089206644171,-0.27452358966737145
5.838099002838135,2.282061612767572,2.3321492767142455,-0.30776938225004596
5.849314212799072,2.285969587102305,2.3322048286545165,-0.2527836175795919
5.858133554458618,2.288900567853355,2.3322552070593305,-0.4528395430286281
5.867225885391235,2.2922223460378786,2.332299871430127,-0.9676125520233925
5.877140998840332,2.295153326788929,2.332338507439418,-1.474306239586399
5.885516166687012,2.2976935101065057,2.33237073588002,-1.8644349101364683
5.895700454711914,2.300819889574292,2.332396036479076,-2.1205319788822043
5.905926465988159,2.303750870325342,2.332413856714875,-2.8114427643960074
5.914096355438232,2.3057048574927084,2.332423993036503,-3.201314844610152
5.922100782394409,2.3076588446600756,2.3324267326712076,-3.3817609883417497
5.93078088760376,2.310003629260916,2.3324224004325225,-3.6959444410355378
5.939091920852661,2.3119576164282822,2.332411205864454,-3.94914511791088
5.94758677482605,2.3137162048789124,2.3323932305221953,-4.087211470951457
5.956126689910889,2.3154747933295425,2.332368442810574,-4.388963786666816
5.964071989059448,2.3170379830634356,2.332337052512925,-4.357384117258797
5.9751574993133545,2.3187965715140657,2.332299151920579,-5.0
5.983399868011475,2.319773565097749,2.3322547466712846,-5.0
5.994115352630615,2.3209459573981692,2.3322043056908592,-5.0
6.005142688751221,2.3219229509818526,2.3321483469535997,-5.0
6.013131380081177,2.3225091471320622,2.3320873537085154,-5.0
6.0218565464019775,2.3228999445655356,2.3320219465391347,-4.998425864652598
6.029526948928833,2.3230953432822723,2.3319525684331355,-4.842358801332857
6.0376129150390625,2.323290741999009,2.3318796585685817,-4.608089451620733
6.048936367034912,2.3230953432822723,2.3318036641998066,-4.889929788073493
6.059500694274902,2.3230953432822723,2.331724755645449,-5.0
6.067719459533691,2.3228999445655356,2.3316431965333817,-4.511412180310246
6.075105905532837,2.322704545848799,2.3315595815621575,-3.4473436217137876
6.087087154388428,2.322313748415326,2.3314745553176133,-3.186890246898141
6.095072269439697,2.3221183496985893,2.3313885614908756,-2.0922909807973884
6.104686975479126,2.3219229509818526,2.3313018982531926,-0.6359247468137283
6.113134145736694,2.321727552265116,2.3312148464992535,0.39181360365442464
6.1230387687683105,2.321336754831642,2.3311293073622883,1.3576000854764467
6.1310951709747314,2.321141356114906,2.3310485869497795,2.379685792701228
6.140157699584961,2.3209459573981692,2.3309732743918645,3.1971473366205387
6.150097846984863,2.320555159964696,2.330901819598113,4.031074798250071
6.159581184387207,2.320164362531223,2.3308339520323536,4.387446810414977
6.167405128479004,2.319968963814486,2.330770140020098,4.469685923815998
6.1771228313446045,2.3193827676642758,2.3307105811263713,4.670430940861722
6.185831785202026,2.319187368947539,2.330655346400927,4.815148134352008
6.1947922706604,2.318991970230803,2.3306044290996235,4.856546324282078
6.203160524368286,2.318601172797329,2.330557769906061,4.522493223408965
6.211421489715576,2.3182103753638557,2.3305152773969064,4.352783337060895
6.219137907028198,2.318014976647119,2.330476830321364,4.216003444151301
6.228517055511475,2.3176241792136456,2.330441474570167,4.065223147451899
6.237171173095703,2.3172333817801722,2.330407264499574,3.8898002993356453
6.245725393295288,2.3170379830634356,2.330373435628996,3.6930952872132194
6.254186391830444,2.3166471856299626,2.3303407094107573,3.482594227137513
6.264305830001831,2.316451786913226,2.330309239215631,3.265854910309584
6.276777267456055,2.3158655907630155,2.330278345479127,3.0490970860810287
6.2849321365356445,2.3156701920462788,2.3302473889243913,2.8369281240399236
6.2946457862854,2.315279394612806,2.3302159587115137,2.632505740922512
6.303126335144043,2.315083995896069,2.3301837181844216,2.437827940119765
6.3141350746154785,2.314693198462596,2.330150126759294,2.2540227416934266
6.323877334594727,2.314497799745859,2.3301142282303884,2.0815932360329765
6.33384108543396,2.313911603595649,2.330075056243139,1.9206091906862297
6.343048095703125,2.3135208061621757,2.330032083095668,2.0468886015668257
6.352352619171143,2.313325407445439,2.329984758124644,1.9410727343878258
6.3610451221466064,2.3129346100119657,2.3299323145372832,1.7573343296249964
6.371340751647949,2.3125438125784923,2.3298740420317015,1.5623271527096112
6.379537343978882,2.312348413861755,2.3298092880509693,1.3819948689425086
6.38707971572876,2.312153015145019,2.329738109012003,1.2240670962575924
6.397045373916626,2.3119576164282822,2.3296608435627717,1.088671047796184
6.407055616378784,2.311566818994809,2.3295771504144787,0.9731914111688602
6.41589093208313,2.311371420278072,2.3294864149891215,1.150426052855952
6.425806760787964,2.311176021561336,2.3293881254087245,1.0983966379267902
6.434509754180908,2.3109806228445993,2.329281881805624,0.9692490259486154
6.442013740539551,2.310785224127862,2.329167740171085,1.1042147721638098
6.452338218688965,2.3105898254111255,2.3290457343467525,1.0092925909917296
6.461004257202148,2.3103944266943888,2.328915520730849,0.8462702005317446
6.470013856887817,2.310199027977652,2.3287772216259115,0.6821385544620722
6.478049278259277,2.310003629260916,2.3286309324663828,0.8166874378644559
6.4859938621521,2.309808230544179,2.3284767726023876,0.7360085549773279
6.494035243988037,2.3096128318274425,2.328315283120715,0.59252321643381
6.50304102897644,2.309417433110706,2.3281469485912147,0.44896613489499115
6.5110063552856445,2.309417433110706,2.327972208006703,0.3272742039853256
6.5193469524383545,2.309222034393969,2.3277909511496433,0.23181702800325887
6.52933144569397,2.3088312369604957,2.327602580856654,0.16016250220843156
6.537041664123535,2.308635838243759,2.3274070873481936,0.10786483964841176
6.546197891235352,2.3084404395270224,2.3272049692720085,0.07044226486062341
6.554982662200928,2.3082450408102857,2.3269960808917527,0.0440744503668484
6.563032388687134,2.3082450408102857,2.326779702552834,0.025747260037155946
6.574071884155273,2.307854243376812,2.32655511654847,0.013182349730498994
6.583022356033325,2.3076588446600756,2.3263221913629537,0.004702038352754772
6.592048406600952,2.3072680472266023,2.3260812372997974,-0.0009081974683399691
6.601895093917847,2.3070726485098656,2.325831552129345,-0.004517425784568395
6.612022161483765,2.3068772497931285,2.3255713988441498,-0.006742367194729791
6.6209588050842285,2.306681851076392,2.3252986364985837,-0.008017920946868715
6.630028486251831,2.306291053642919,2.3250106774846513,-0.008649201608860365
6.638166904449463,2.306095654926182,2.324705771375919,-0.2848876522694161
6.647011041641235,2.3059002562094455,2.3243829076461613,-0.31792929453808777
6.65603494644165,2.3057048574927084,2.324037330325829,-0.26256850093907624
6.66530966758728,2.3057048574927084,2.32366061407483,-0.18610985176320793
6.674784898757935,2.305509458775972,2.3232478017757923,-0.11515151821384634
6.685215711593628,2.3051186613424988,2.322797226056689,-0.0580645514520354
6.694281101226807,2.3047278639090254,2.3223041903360264,-0.01559391386314098
6.702968120574951,2.3045324651922887,2.3217640491688685,-0.2617503881221278
6.711983680725098,2.304141667758816,2.3211744094063214,-0.27489569795078717
6.72199559211731,2.303946269042079,2.320529210876363,-0.2072150555900229
6.733310222625732,2.3035554716086053,2.3198151719985636,-0.12388119800573014
6.741597652435303,2.3033600728918686,2.3190194682953638,-0.049853863684404046
6.750248670578003,2.3029692754583957,2.3181374667792642,0.007709822989401573
6.759531736373901,2.302773876741659,2.31716384879257,0.04894259677681248
6.767301082611084,2.302383079308185,2.316088995066491,0.07649527843387671
6.775075912475586,2.302187680591449,2.3149089294503082,-0.18254834210976473
6.783121824264526,2.3019922818747123,2.3136249039818186,-0.2064287442747414
6.793388843536377,2.301601484441239,2.3122324459305523,-0.14757216877914903
6.8019983768463135,2.301406085724502,2.3107219411092337,-0.3475245294743398
6.810913562774658,2.301015288291029,2.3090907009984365,-0.3126137650585073
6.81899356842041,2.3006244908575555,2.307348621500783,-0.20495875441523087
6.829899549484253,2.3002336934240817,2.305497819445078,-0.36791340313464005
6.84022855758667,2.2998428959906088,2.303521052415614,-0.30658965839585306
6.848592281341553,2.2994520985571354,2.301403824641931,-0.18102070656313857
6.855989217758179,2.299061301123662,2.2991477868690784,-0.3324890100943193
6.865973472595215,2.298475104973452,2.2967617683422157,-0.5403944640606224
6.87495231628418,2.2980843075399786,2.2942465469504842,-0.4444475509660253
6.88297438621521,2.297498111389769,2.2915963521635794,-0.5395950782328833
6.891956090927124,2.297107313956295,2.2888071253157873,-0.3956834844979493
6.9002110958099365,2.2965211178060856,2.2858840378719103,-0.47342821447478506
6.908666372299194,2.296130320372612,2.2828401479725455,-0.6020936434175057
6.917567014694214,2.2953487255056655,2.279679902320633,-0.7154839822071197
6.924983024597168,2.294762529355455,2.2764003915768685,-0.7938257698109226
6.934932708740234,2.2935901370550353,2.2730080497364575,-0.8364710750504377
6.945361375808716,2.2924177447546152,2.2695093816844705,-1.4015585714299061
6.9534080028533936,2.2916361498876685,2.2659031287985663,-1.734648766508498
6.960968017578125,2.2902683588705117,2.2622051559432648,-1.9089329083051705
6.97028923034668,2.288900567853355,2.2584295191250865,-2.528137038461393
6.977982759475708,2.2875327768361986,2.2545729599194817,-3.142618975678179
6.988166809082031,2.2855787896688318,2.2506415999130107,-3.877155730667819
6.9964518547058105,2.2838202012182016,2.24664104120883,-4.18822392508559
7.004947185516357,2.2816708153340985,2.242568492004801,-4.8056503183161885
7.01438570022583,2.278935233299785,2.2384223742248115,-5.0
7.021931886672974,2.2767858474156815,2.2342185994004526,-5.0
7.033036470413208,2.273268670514421,2.2299794766866414,-5.0
7.041943788528442,2.270337689763372,2.225707841289871,-5.0
7.053375720977783,2.2664297154286377,2.221398206803191,-5.0
7.063639879226685,2.262326342377168,2.217038092961345,-5.0
7.072917461395264,2.258809165475908,2.2126175704738764,-5.0
7.081925868988037,2.2550965898579114,2.2081455174399482,-5.0
7.091409206390381,2.250993216806441,2.203630111447634,-5.0
7.101704120635986,2.2466944450382345,2.199062167377388,-4.693504797089174
7.111355781555176,2.2425910719867646,2.1944345946138912,-3.9493251360809434
7.120637655258179,2.2388784963687676,2.189758933459419,-3.1582133135239356
7.128699779510498,2.235752116900981,2.1850537922847346,-1.9123253021143967
7.137922286987305,2.2318441425662474,2.1803351801974618,-0.7337701764368063
7.1484375,2.2271545733645675,2.175608601854983,0.4840218879522591
7.1569085121154785,2.2236373964633076,2.170870589033409,1.7532978513958029
7.1667397022247314,2.2193386246951006,2.166118447312708,2.7769496230638766
7.175835609436035,2.2152352516436307,2.1613501815790133,3.76973153256517
7.187246322631836,2.2109364798754236,2.156564376094032,4.518708005252748
7.1959547996521,2.207223904257427,2.1517519054890686,4.992649101412661
7.206263780593872,2.202729733772484,2.1469053844701267,4.952029849164624
7.2149622440338135,2.199603354304697,2.1420353952164684,5.0
7.225911617279053,2.1949137851030165,2.137159396079108,5.0
7.234714508056641,2.1910058107682833,2.1322839820011126,4.976690637746703
7.242902755737305,2.1874886338670234,2.1274146776025127,4.806856045296074
7.250911235809326,2.1841668556825,2.1225641058917066,4.564426628744025
7.262140274047852,2.179281887764083,2.1177262336121423,4.289910148431187
7.272012710571289,2.175178514712613,2.112879668822345,4.0057408430656976
7.279885768890381,2.1718567365280896,2.1080229016226197,3.724386605935851
7.28888726234436,2.1679487621933564,2.10317117066718,3.4527034865614414
7.2974019050598145,2.1642361865753594,2.098329297812327,3.1943218179465376
7.304912090301514,2.1609144083908363,2.0935014051207776,2.950983871697776
7.314917325973511,2.156420237905893,2.0886911656034193,2.7233124073777866
7.324288368225098,2.152707662287896,2.083893686564792,2.5112633795710826
7.3319807052612305,2.149776681536846,2.079120989087724,2.3143989310500848
7.340348482131958,2.1464549033523226,2.074391297010046,2.1320553751055344
7.348191738128662,2.1431331251677994,2.0697039625866958,1.9634481576987866
7.35593581199646,2.139811346983276,2.065058276180275,1.8077380347160408
7.364177465438843,2.136098771365279,2.0604690938758305,1.6640728430880098
7.373507261276245,2.1323861957472823,2.055948668266508,1.5316136316484164
7.381974935531616,2.1288690188460224,2.0514916031601684,1.4095506324232612
7.392914295196533,2.124179449644342,2.04707826614111,1.297112575794909
7.401343107223511,2.1204668740263455,2.0426923889939785,1.193571630532515
7.410882472991943,2.1163635009748756,2.0383354700354492,1.0982454751633992
7.420371770858765,2.1122601279234052,2.034009415383653,1.0104975059581591
7.429271221160889,2.108352153588672,2.0297091534110168,0.9297358567751879
7.437857151031494,2.1048349766874117,2.025437799992103,0.855411685702756
7.450048923492432,2.099950008768995,2.021198711615604,0.7870170348573471
7.459877014160156,2.0956512370007885,2.0169820872286617,0.7240824687673362
7.468205690383911,2.092329458816265,2.012780590758153,0.9422129875791999
7.477277755737305,2.0884214844815316,2.0085958296359663,0.9220567496254801
7.484924554824829,2.0852951050137447,2.0044362234436393,0.8179371802090496
7.49397611618042,2.081582529395748,2.000315657654819,0.6967488900881665
7.501854419708252,2.077869953777751,1.9962460925953798,0.5847292603423793
7.511886358261108,2.0737665807262813,1.9922377145394945,0.48992891776489755
7.520823001861572,2.069663207674811,1.9882936355224097,0.41280610373220605
7.52951455116272,2.066146030773551,1.984411075073105,0.351075115312382
7.537877798080444,2.0626288538722912,1.9805932844826184,0.02577792147720598
7.547450065612793,2.0587208795375576,1.9768434458544921,0.22918626062665004
7.557397365570068,2.054422107769351,1.9731543303657855,0.28540160215256777
7.565881967544556,2.0507095321513544,1.969524954521951,0.2801150643278415
7.5738525390625,2.047192355250094,1.9659646343186719,-0.023370376911621527
7.5819079875946045,2.0440659757823076,1.9624810485247823,-0.08889482701352576
7.593878984451294,2.0393764065806272,1.959076096877008,0.21175890515305454
7.602900505065918,2.0356638309626307,1.9557468485650622,0.29461833635791346
7.61191463470459,2.031755856627897,1.9524950367455909,0.2880692906879433
7.621155261993408,2.027652483576427,1.9493223153271357,0.2505182026532871
7.630200386047363,2.0239399079584306,1.9462259118782914,0.2071129452718606
7.637885332107544,2.0204227310571703,1.9432072365247737,0.16758428892004612
7.651277303695679,2.014756168271807,1.9402640931367403,0.13480333133956762
7.658854007720947,2.0116297888040204,1.937390785305744,0.10880587472773531
7.669822931289673,2.00694021960234,1.934592761030773,-0.18741180799145063
7.679079294204712,2.0032276439843435,1.931874558629084,0.03996661725272452
7.6882874965667725,1.9989288722161365,1.9292328421686025,0.11622312937908937
7.695871114730835,1.9959978914650867,1.9266676778912044,-0.14810338905388196
7.705463886260986,1.9916991196968798,1.9241815955030965,-0.19406000447728544
7.715126276016235,1.9879865440788829,1.9217731277338754,-0.15864103414741065
7.725876808166504,1.9834923735939396,1.9194380381433054,-0.10184503715789751
7.734596014022827,1.979779797975943,1.9171723908867508,-0.047734736566146865
7.746022701263428,1.9750902287742627,1.914972220965536,-0.28023573016668774
7.7577221393585205,1.970205260855846,1.912831166720761,-0.2814491832724338
7.76938009262085,1.9651248942206925,1.9107383860769862,-0.20458010204946153
7.77788782119751,1.961412318602696,1.9086873211776636,-0.11471860898044305
7.787277698516846,1.9571135468344893,1.9066776874942346,-0.036370619672362596
7.795803070068359,1.953791768649966,1.9047090713788513,0.023820350892228875
7.804616451263428,1.9498837943152325,1.9027833200406872,0.06644263280342759
7.813151597976685,1.946562016130709,1.9009017491330664,0.0945122518115484
7.821821212768555,1.9428494405127124,1.899065051399097,0.1114285387315032
7.831797122955322,1.9385506687445055,1.8972757898438768,0.12020221573955928
7.84282112121582,1.9340564982595623,1.895533237601444,0.12324454713550852
7.852210283279419,1.929953125208092,1.8938314640656688,0.12238440771360612
7.859797239303589,1.927022144457042,1.8921649030044045,0.11896248628586709
7.871133327484131,1.922332575255362,1.8905306230811698,0.11393828628810868
7.879158020019531,1.9190107970708385,1.8889230884433335,0.10798549115492082
7.887178659439087,1.9154936201695782,1.8873394664553476,0.10156889356961796
7.896827459335327,1.9113902471181083,1.885781619162887,0.09500327841310285
7.90481972694397,1.908068468933585,1.8842505479361362,0.08849710713737477
7.913156986236572,1.9045512920323246,1.8827464955875457,0.08218428404804656
7.923111915588379,1.9002525202641178,1.8812663377373764,0.07614694405310826
7.932775020599365,1.8963445459293846,1.879804040334712,0.07043164088499451
7.941793918609619,1.8926319703113879,1.8783565583580821,0.06506076148635997
7.951858758926392,1.8887239959766546,1.87692348454261,0.06004052448952523
7.960814714431763,1.8850114203586577,1.8755010344133591,0.055366553081507716
7.969580411911011,1.8812988447406611,1.8740825733587956,0.051027735123614575
7.979187726974487,1.8771954716891908,1.8726619751160671,0.04700887916727442
7.9868323802948,1.8738736935046676,1.8712367567951487,0.043292527057035055
7.995823621749878,1.870161117886671,1.8698076486644442,0.0398601777615512
8.004760265350342,1.866643940985411,1.8683720378271385,0.3127314612840583
8.013235569000244,1.8637129602343607,1.8669245184886543,0.6189741931693369
8.021158456802368,1.860586580766574,1.8654636671291114,0.8703487220512026
8.03286623954773,1.8562878089983674,1.8639884140567342,1.3218887040923808
8.0415780544281,1.8531614295305805,1.8624948936167507,2.0122650606927346
8.05182695388794,1.849839651346057,1.860983261656815,2.6242280414186823
8.060067892074585,1.8471040693117438,1.859454015084949,3.0631782122780957
8.068726062774658,1.8439776898439573,1.8579048565709,3.6022979470285437
8.077877759933472,1.8414375065263802,1.8563373644111227,4.028011956385088
8.086812496185303,1.8388973232088037,1.8547563595775192,4.011949157231636
8.094916105270386,1.8367479373247004,1.8531633034272035,3.808542767690445
8.104235410690308,1.8342077540071235,1.8515568880701967,3.5377564428448736
8.111865997314453,1.8320583681230203,1.849942321022256,3.254270103237757
8.120443105697632,1.829908982238917,1.8483330244409322,2.981505522164025
8.12882924079895,1.8275641976380768,1.8467403734797643,2.7282405514760444
8.141551494598389,1.8244378181702903,1.845165297582925,2.772674272823915
8.1498544216156,1.8226792297196601,1.8436028384812067,2.5952141149986834
8.159774780273438,1.82033444511882,1.842051716783246,2.6249173483653045
8.169781923294067,1.818380457951453,1.8405110426789664,2.4081462114968906
8.179268598556519,1.8164264707840865,1.8389774470809874,2.124299088879802
8.187753677368164,1.8148632810501932,1.8374509588996757,1.8472928630824015
8.197938203811646,1.813104692599563,1.83593445276105,1.8789914342840974
8.20678186416626,1.8115415028656698,1.8344278964661118,1.7054839647011115
8.214770078659058,1.8099783131317762,1.8329288634054288,1.4784007616297703
8.222753524780273,1.8088059208313563,1.8314356129184546,1.2594711718192086
8.234848022460938,1.8070473323807266,1.829944651927597,1.345688373159467
8.243756532669067,1.8058749400803065,1.8284511313714948,0.945556593160411
8.25577163696289,1.8043117503464128,1.8269517061609275,1.2816138792879674
8.267186641693115,1.8029439593292562,1.825442234556683,1.223417074435262
8.275705814361572,1.8021623644623095,1.823920068917137,1.034646840315717
8.286067247390747,1.8009899721618894,1.8223860727236716,0.8272825443711689
8.294767379760742,1.8002083772949429,1.820843699124718,0.6434027862159644
8.304099559783936,1.799622181144733,1.8193003169989443,0.49430136984384765
8.313815116882324,1.798840586277786,1.8177623422854554,0.3787962321984837
8.32376217842102,1.7980589914108396,1.8162335082717558,0.2915095176693071
8.331742286682129,1.797668193977366,1.81471933447808,-0.049642862746624494
8.34267282485962,1.7970819978271562,1.8132244846334145,-0.13108696126738514
8.35221529006958,1.7964958016769463,1.811748977254434,-0.38789593044240306
8.360773801803589,1.796105004243473,1.810294517824565,-0.6477239326595483
8.368720769882202,1.7957142068099994,1.8088660235098475,-0.8513840559031365
8.378201007843018,1.7953234093765262,1.80746565601933,-0.9880460900300644
8.386210441589355,1.7949326119430529,1.8060949589428075,-1.3413507595756629
8.394489049911499,1.7947372132263162,1.804756733415208,-1.6811902613974734
8.404585123062134,1.7943464157928428,1.803451360875849,-1.6559118310506624
8.413777589797974,1.7939556183593695,1.8021771920799956,-1.774035746017495
8.422817945480347,1.7937602196426328,1.8009326273382271,-1.8946032433794424
8.43330192565918,1.7933694222091594,1.7997161542989484,-1.9703145108532483
8.441062450408936,1.7931740234924227,1.7985263428629452,-1.9935531573528364
8.450765609741211,1.7927832260589496,1.7973618062291545,-2.2475959988542495
8.460018396377563,1.7925878273422127,1.7962211878540817,-2.2246801395960683
8.468191146850586,1.792392428625476,1.7951062266354605,-2.090241430277178
8.476409196853638,1.7921970299087393,1.794021191344267,-2.1963911805246843
8.484940528869629,1.7918062324752662,1.7929661901221958,-2.3334852680392606
8.494921445846558,1.7916108337585295,1.7919377603314928,-2.150455372630903
8.505730867385864,1.7914154350417928,1.7909324863587208,-2.1493541300560546
8.516932010650635,1.7910246376083194,1.789945266079949,-2.1812509002221545
8.525524377822876,1.790829238891583,1.7889712244160696,-2.191537633356611
8.539828538894653,1.7904384414581092,1.7880071903672823,-2.166613003671053
8.550189971923828,1.790047644024636,1.7870460013381468,-2.1090866387536487
8.559696674346924,1.7898522453078993,1.7860809623438296,-1.7506451250821757
8.567938566207886,1.7896568465911629,1.7851114358195552,-1.6184434392871676
8.577250957489014,1.7894614478744262,1.7841362133862826,-1.564787977097988
8.586702346801758,1.7890706504409528,1.7831516583694005,-1.5278414810006518
8.597538232803345,1.7888752517242161,1.7821540870408081,-1.4849610084713731
8.60569953918457,1.7886798530074792,1.781142249289236,-1.4304975532099187
8.613857746124268,1.7884844542907428,1.7801170189780162,-1.3654864633698676
8.62373423576355,1.7880936568572692,1.7790762447153785,-1.2930453047046684
8.632463216781616,1.7878982581405327,1.7780151419914243,-1.2164589403677069
8.64172101020813,1.787702859423796,1.7769319040640905,-1.1384917217440504
8.651159048080444,1.7871166632735858,1.7758273653387608,-1.3372700985963188
8.659279823303223,1.7867258658401126,1.7746990311784747,-1.2953070647280698
8.669719457626343,1.7859442709731659,1.7735414580626756,-1.4442929479447302
8.679565191268921,1.7851626761062194,1.7723494539814422,-2.1612022686335854
8.690213680267334,1.7841856825225362,1.7711146974761631,-2.622797378355327
8.699148416519165,1.7832086889388525,1.7698297320896874,-3.1590430324369434
8.706823825836182,1.7822316953551693,1.7684947439904366,-3.5795309711376815
8.718708515167236,1.7806685056212759,1.7671057563585386,-4.391974564836355
8.731699705123901,1.7787145184539093,1.7656518005775457,-4.847521542184889
8.740337133407593,1.7773467274367525,1.7641310831399137,-5.0
8.750128030776978,1.7759789364195957,1.7625498941825721,-5.0
8.759676456451416,1.774024949252229,1.7609097107817928,-5.0
8.768715143203735,1.7722663608015992,1.7592078083896936,-4.6132247138194336
8.776705741882324,1.770507772350969,1.7574462564011826,-4.336291308137129
8.786389112472534,1.7685537851836022,1.755626882973273,-3.8192704796785737
8.794089794158936,1.7667951967329725,1.7537471549116155,-3.277344212737056
8.801703691482544,1.7650366082823423,1.7518142108673227,-3.0670746144487455
8.810688972473145,1.762887222398239,1.7498387712847445,-2.690706432089482
8.81919550895691,1.7607378365141355,1.7478210237263112,-2.3000759831225723
8.826684474945068,1.758588450630032,1.7457613034773858,-1.9514719578142208
8.834648847579956,1.7566344634626654,1.7436646347845268,-1.6592175422387552
8.845040082931519,1.7537034827116156,1.7415305998499235,-1.420725429449726
8.85344648361206,1.7513586981107754,1.7393540962238871,-1.2278095744344768
8.863007545471191,1.7488185147931987,1.737130797852071,-1.3475279316607454
8.870702743530273,1.7462783314756218,1.7348621619391134,-0.9769209628184969
8.882065296173096,1.742761154574362,1.7325495166155058,-1.0591982308657664
8.893776893615723,1.7388531802396283,1.7301789034021688,-1.2589611634920344
8.902125597000122,1.7361175982053152,1.727738880540912,-1.1674536292732132
8.90968108177185,1.7331866174542652,1.7252408715522856,-0.7094956330019082
8.919288396835327,1.730255636703215,1.7227054758994447,-0.21203865964521262
8.928738117218018,1.727324655952165,1.7201453761299397,-0.06987373636766148
8.942369222640991,1.723025884183958,1.7175508654830756,0.4837910155553366
8.95167851448059,1.7200949034329083,1.7148987380098135,1.0589569172501765
8.96258020401001,1.7169685239651216,1.712185847736647,2.071133904199907
8.974817991256714,1.7136467457805982,1.7094211028627277,3.2828995859095436
8.984458208084106,1.7109111637462844,1.7066030576836628,4.289302552776084
8.995763540267944,1.707784784278498,1.703731756524716,4.986890531125267
9.003775596618652,1.7058307971111315,1.700813660316051,5.0
9.015742540359497,1.702509018926608,1.6978555805590991,5.0
9.025618314743042,1.7001642343257677,1.694864592569598,5.0
9.035644292831421,1.697624051008191,1.6918479540615494,5.0
9.04401183128357,1.6956700638408244,1.6888130231252547,5.0
9.055082559585571,1.6931298805232475,1.685763023398905,4.876419619363478
9.0641930103302,1.6907850959224076,1.6827018081211012,4.375966115464463
9.072096824645996,1.6890265074717774,1.6796420185876997,4.072772397908818
9.080235242843628,1.6870725203044108,1.6765991233206958,3.565791509437754
9.088407516479492,1.6851185331370444,1.6735865043879274,3.046728022628134
9.095923900604248,1.6835553434031507,1.6706119210481236,2.8618736250545203
9.106039047241211,1.6806243626521005,1.6676783613041988,2.5093760465745465
9.115638971328735,1.6784749767679974,1.664792134859129,1.8637210315163286
9.124343872070312,1.6759347934504207,1.6619621547289423,0.9479407626841054
9.133049249649048,1.6733946101328439,1.6591923216370164,0.38384148374126414
9.141620635986328,1.6706590280985305,1.656485553082605,-0.5165204706203768
9.150670766830444,1.6677280473474807,1.6538473503345024,-1.347891989490611
9.16156792640686,1.6646016678796938,1.6512755368047436,-2.534990015030804
9.16962218284607,1.6622568832788538,1.6487646220864025,-3.30462511100706
9.17773175239563,1.659716699961277,1.6463159116667119,-3.4779126144174253
9.185614824295044,1.6569811179269638,1.6439331196652454,-3.6605549756793407
9.194641828536987,1.6538547384591769,1.6416187086386422,-3.7675808928214627
9.204606533050537,1.6499467641244434,1.6393710391207759,-4.0607507796648905
9.213169574737549,1.6470157833733936,1.6371849807870555,-4.0333893772171905
9.221685409545898,1.6438894039056067,1.6350554769823444,-3.8596148935562216
9.229597806930542,1.6411538218712933,1.632980514853334,-3.3493588112388215
9.237956762313843,1.6380274424035066,1.6309636188306678,-2.7875120040594608
9.247311115264893,1.6345102655022465,1.629006908634878,-2.558392092468578
9.255823373794556,1.6313838860344596,1.627105181761995,-2.4492423193498603
9.264638423919678,1.6282575065666731,1.6252499606911026,-1.817993760522194
9.272623777389526,1.625326525815623,1.6234329863820731,-1.1167506937472305
9.28160548210144,1.6220047476310997,1.6216495001828048,-0.23676621009683874
9.290297269821167,1.618878368163313,1.6198977520474007,0.5364171524150532
9.297686576843262,1.616338184845736,1.6181753984339968,1.3979070688928286
9.308337688446045,1.6130164066612127,1.6164759585244182,2.107373726790071
9.315628051757812,1.610671622060373,1.614789458028303,3.1598784650597826
9.32679796218872,1.6071544451591129,1.6131062506730356,3.8089086636788134
9.334614038467407,1.6050050592750094,1.6114170628069557,4.15899741882853
9.344753980636597,1.6020740785239593,1.6097172047420136,4.572440556355453
9.352781057357788,1.5995338952063825,1.6080017817896137,4.3207836028440685
9.362426996231079,1.596993711888806,1.6062619231917408,4.40300655730878
9.371627569198608,1.5946489272879658,1.6044939051123,4.248242042427077
9.380615711212158,1.5921087439703892,1.6026985715951874,3.9955939157342444
9.38989806175232,1.5895685606528125,1.6008718817602379,3.711483283121067
9.400002002716064,1.5866375799017622,1.5990057115279657,3.42668494440057
9.409646272659302,1.584488194017659,1.5970930482478896,3.1546566293375777
9.420471429824829,1.5815572132666087,1.5951280505191194,2.9005697622022906
9.428593158721924,1.5796032260992423,1.5931108979154232,2.6657297089089553
9.436644315719604,1.5776492389318757,1.5910470083175348,2.4497179832915323
9.44657039642334,1.5754998530477722,1.5889366977181814,1.9753762315749737
9.455620765686035,1.5735458658804056,1.5867760686397832,1.7603109891803121
9.46359372138977,1.5715918787130385,1.584562617188307,1.6484714469721986
9.473622560501099,1.5694424928289352,1.58229517817338,1.5713384358799594
9.481556177139282,1.5676839043783053,1.579978444411364,1.5011801386840604
9.493265867233276,1.564948322343992,1.577617523679864,1.4285836141657846
9.502623081207275,1.5629943351766253,1.5752087165158202,1.351852316738178
9.515457153320312,1.5604541518590485,1.572745745996179,1.272146341144148
9.527230978012085,1.5581093672582085,1.5702249010235774,1.1913608984496422
9.5355863571167,1.556741576241052,1.5676531394583826,1.111280770679378
9.54558253288269,1.5551783865071585,1.5650461901894774,1.033307609342942
9.558568716049194,1.553029000623055,1.5624099832892373,0.9584281005399344
9.568417072296143,1.5512704121724252,1.5597422042090658,1.1633090769975247
9.578979730606079,1.549511823721795,1.5570421231318987,0.8533091159007153
9.586613416671753,1.5481440327046383,1.5543180573084368,0.7022161358077021
9.59662675857544,1.5467762416874815,1.551589495155198,0.34653391650720977
9.605645895004272,1.545408450670325,1.548869490528845,-0.01160482314916017
9.615578413009644,1.5438452609364317,1.5461616176169524,-0.3023489439475594
9.626595497131348,1.5422820712025382,1.543465589868435,-0.5125224271946829
9.635592222213745,1.5409142801853815,1.540781470554547,-0.9267072938856115
9.648650646209717,1.5389602930180148,1.5381133377509242,-0.7646914944902172
9.65654730796814,1.537592502000858,1.535461376054091,-0.7147841442449376
9.664563417434692,1.5364201097004382,1.5328293406749331,-0.7018807014416417
9.67352819442749,1.5350523186832816,1.5302274566169904,-0.694921602550041
9.681536674499512,1.534075325099598,1.527664144481622,-0.9588981116354558
9.691829442977905,1.5325121353657045,1.5251428310802733,-0.9724152127449521
9.700761318206787,1.5311443443485482,1.522662668135065,-1.1670855124011608
9.710570096969604,1.5297765533313914,1.5202259161576037,-1.0930563992271682
9.72055983543396,1.5284087623142348,1.5178341282215164,-1.2094932895128958
9.72957706451416,1.5272363700138143,1.5154848501044562,-1.3506233042842477
9.737647771835327,1.5260639777133946,1.5131788790104832,-1.4566823226820023
9.74782109260559,1.5245007879795012,1.5109164817311491,-1.5138170788796552
9.75684928894043,1.5229375982456077,1.5086909279917788,-1.52617681402479
9.766738176345825,1.5211790097949778,1.5064961880658705,-1.779494880623798
9.77452039718628,1.5196158200610843,1.5043333478305012,-2.0409171587296844
9.783949375152588,1.517661832893718,1.5022061777033175,-2.5068261138745616
9.793038129806519,1.515707845726351,1.5001142193322665,-3.196013523860681
9.800550937652588,1.513949257275721,1.498053428434306,-3.787798826121987
9.808563709259033,1.5117998713916176,1.4960264116298014,-4.1903278563527895
9.819554567337036,1.5090642893573043,1.4940381389067185,-4.957228636327024
9.829159498214722,1.5065241060397276,1.4920826215848901,-5.0
9.836558818817139,1.5047655175890977,1.4901543088800098,-5.0
9.848387241363525,1.5012483406878376,1.4882512576192952,-5.0
9.85862922668457,1.498512758653524,1.4863648812141865,-4.932530326265847
9.866554021835327,1.496167974052684,1.4844875611403388,-4.5410690383539585
9.875607252120972,1.4934323920183705,1.482619171388716,-4.341205626598505
9.88487982749939,1.4905014112673207,1.4807627230616596,-4.188916311679761
9.89454698562622,1.487375031799534,1.478917254373433,-3.478537110679554
9.903299331665039,1.4846394497652204,1.477078460203761,-2.9577209289016064
9.911909103393555,1.4817084690141706,1.4752459097609412,-2.561406462704279
9.919743061065674,1.4787774882631204,1.4734258006094225,-2.2497444199488483
9.928517580032349,1.4760419062288068,1.4716232214012932,-1.7215209529472515
9.937503814697266,1.4733063241944937,1.4698356580023106,-0.9272305549546659
9.94807767868042,1.4697891472932336,1.46805430305304,0.08898334553656723
9.957574129104614,1.46705356525892,1.466268502203015,0.9825081725926403
9.968416929244995,1.4637317870743967,1.4644727798168977,1.9310056624695044
9.977535247802734,1.4611916037568202,1.462666156878281,2.69381775874841
9.986162900924683,1.4588468191559802,1.4608513645871204,3.4956174065694636
9.993952751159668,1.4565020345551398,1.4590342011572752,3.8396433443435773
10.0015127658844,1.45474344610451,1.457219740682388,4.47690221853075
10.009561538696289,1.4525940602204066,1.455409333843724,4.481703366167624
10.017510414123535,1.4506400730530398,1.4536012029736414,4.7802371867676685
10.027904272079468,1.4479044910187262,1.45179707452694,4.783230296227931
10.03949499130249,1.4449735102676766,1.449995590421297,4.633091842349017
10.048064947128296,1.442824124383573,1.4481926816746238,4.406574229203663
10.05777382850647,1.4408701372162065,1.4463910249828955,4.145621982521704
10.066593408584595,1.4389161500488394,1.4445929661103998,3.873415246920257
10.07458782196045,1.4371575615982095,1.4428004849882812,3.60282286268802
10.083601474761963,1.4353989731475796,1.4410181610627715,3.3409289782484803
10.091882944107056,1.4336403846969494,1.4392497291640032,2.8154663413680403
10.10014295578003,1.4320771949630564,1.437501137332547,2.547225230791244
10.108176708221436,1.4303186065124263,1.4357771299160724,2.382208559924206
10.116510391235352,1.4285600180617963,1.4340784284959516,2.253196823389473
10.124531507492065,1.4269968283279029,1.4324053996135417,1.8572141840918976
10.133103847503662,1.425238239877273,1.4307551363205773,1.4282170453621534
10.141470670700073,1.4236750501433795,1.429124908233044,1.3289984493082478
10.150765180587769,1.4217210629760126,1.4275122688685484,1.0628337361758295
10.159537076950073,1.4201578732421194,1.425912127133846,1.05676802368385
10.167559623718262,1.4187900822249626,1.424323098264251,0.8468870988086871
10.175469160079956,1.4174222912078058,1.4227441564467682,0.6010924060867293
10.185731410980225,1.4158591014739124,1.4211717199454417,0.6592597225408757
10.194819450378418,1.4142959117400193,1.419603002225577,0.7963398991529858
10.205070495605469,1.4129281207228626,1.4180359056190497,0.6471903447110816
10.213524341583252,1.4113649309889693,1.4164689251815021,0.42644694807730366
10.221455574035645,1.4101925386885492,1.4149037062309868,0.4955125759198298
10.231554508209229,1.4086293489546555,1.4133418323459563,0.3627897297639754
10.240107536315918,1.407261557937499,1.4117820678684792,-0.09008350068560794
10.248485565185547,1.406089165637079,1.4102260052090616,-0.2828798794054298
10.258836269378662,1.4045259759031858,1.4086749507489267,-0.3519056413586302
10.267858505249023,1.4033535836027657,1.4071272453196544,-0.3637395022456249
10.276062726974487,1.4021811913023456,1.405583943825238,-0.35054426339371514
10.284615755081177,1.4012041977186624,1.4040482973251387,-0.32759021864713084
10.2954843044281,1.3998364067015054,1.4025199074768673,-0.025885664601822705
10.306231498718262,1.398468615684349,1.400995124354592,0.03252495646563143
10.31657361984253,1.3971008246671923,1.3994731168362606,0.0011066136337983049
10.325036525726318,1.396123831083509,1.397955442483957,-0.05328044979920431
10.332820177078247,1.3951468374998257,1.396439647529893,-0.10409053381584865
10.344518184661865,1.3935836477659322,1.3949197031749208,-0.1428458280915148
10.353475332260132,1.3926066541822488,1.3933894414777668,-0.44468018389981223
10.362088680267334,1.391434261881829,1.3918425717985659,-0.49250294803252637
10.371476173400879,1.3904572682981455,1.3902727256351772,-0.7195759787627827
10.3814537525177,1.3892848759977254,1.3886735241167585,-0.6765504480748977
10.389461517333984,1.3881124836973056,1.387038619770858,-0.5466094260641237
10.399933338165283,1.3871354901136221,1.3853617495821766,-0.682849456595358
10.41049075126648,1.3859630978132023,1.38363680154559,-0.5946816270863603
10.423237323760986,1.3845953067960453,1.381853098305325,-0.4438701747260826
10.434471607208252,1.3834229144956252,1.3799960637219026,-0.296215209659427
10.446855545043945,1.3822505221952053,1.3780521822919594,-0.174076494348082
10.455434560775757,1.3812735286115219,1.3760143815454817,-0.35730980911360644
10.46344542503357,1.3804919337445751,1.373886929105084,-0.32373251037037654
10.473488092422485,1.3795149401608922,1.3716732690955074,-0.49887545039277786
10.482501745223999,1.3787333452939452,1.3693709548306987,-0.4259242836100563
10.49146318435669,1.377756351710262,1.36698373373502,-0.28183644472149716
10.499737977981567,1.376974756843315,1.3645206847825817,-0.41487560914569954
10.508197546005249,1.3759977632596319,1.3619835965717184,-0.6068937200862676
10.518136978149414,1.3748253709592118,1.3593679621297656,-0.7741368860853632
10.525999069213867,1.3738483773755286,1.3566697997340111,-1.1683750353191051
10.534489393234253,1.3724805863583718,1.3538922182902289,-1.546779820376201
10.546754598617554,1.3707219979077419,1.3510444420351884,-2.3817047145204073
10.555984020233154,1.3691588081738484,1.3481277812894217,-2.9003745376503325
10.564460754394531,1.3674002197232182,1.3451367659948463,-3.4598968267458563
10.573409080505371,1.3656416312725883,1.3420667684624354,-3.884745613033194
10.583450078964233,1.3632968466717486,1.3389140371508894,-4.414929674343982
10.593578100204468,1.3609520620709084,1.335675737817867,-4.825317566471163
10.601446151733398,1.3586072774700682,1.3323572021494194,-5.0
10.610442161560059,1.3564578915859649,1.3289707924366654,-5.0
10.62041687965393,1.353917708268388,1.3255204252440567,-5.0
10.630674839019775,1.3511821262340749,1.3219957341071045,-5.0
10.639650821685791,1.348641942916498,1.318388942134193,-4.951018814606195
10.648444414138794,1.3461017595989213,1.3147091546094083,-4.692961038402366
10.657435178756714,1.343170778847871,1.3109724820661641,-4.636334404654258
10.667900085449219,1.3396536019466112,1.3071866579126314,-4.599691646333213
10.677426815032959,1.3359410263286144,1.3033523316762137,-4.5212495202246945
10.688097953796387,1.3322284507106177,1.2994715855079517,-4.389997007406507
10.695436716079712,1.3292974699595674,1.2955477397414035,-4.213997563414338
10.708139657974243,1.3242171033244143,1.2915853141127007,-4.006461531181764
10.716471433639526,1.3206999264231545,1.2875898450760537,-3.78012502528576
10.72545599937439,1.3167919520884206,1.2835738238663505,-3.545377202686943
10.7365083694458,1.3119069841700037,1.2795494674212045,-3.03394013629267
10.745207786560059,1.3081944085520072,1.2755222755179736,-2.218136534696975
10.753834962844849,1.3044818329340107,1.2715039904333851,-1.4327119546532296
10.764423370361328,1.3001830611658038,1.2675113202791477,-0.7891075463017028
10.776189088821411,1.295298093247387,1.263548480073951,-0.02794642058753738
10.786401510238647,1.2911947201959169,1.2596094662486441,0.9028210709574023
10.795420408248901,1.2872867458611836,1.2556960197485934,1.976560495733497
10.805522203445435,1.2831833728097135,1.2518162115691356,2.592569306675143
10.814068794250488,1.2794707971917167,1.2479779850835662,3.189074713881702
10.824514389038086,1.2749766267067733,1.2441890234233433,3.6276951011497753
10.833471298217773,1.2708732536553033,1.2404566167636115,3.88860629720294
10.843490600585938,1.2665744818870965,1.2367876057596887,3.99605873086826
10.851464986801147,1.2632527037025731,1.2331883059494384,3.985728775877974
10.860099077224731,1.2599309255180497,1.2296679797061372,3.891606837878218
10.867887258529663,1.2566091473335264,1.2262379876677236,3.7416877675147635
10.877637147903442,1.2525057742820562,1.2229039429529802,3.557386390689075
10.885401964187622,1.2489885973807964,1.2196666232788684,3.354342536091192
10.895376205444336,1.2448852243293262,1.2165294789451973,3.1435898255911585
10.905153512954712,1.2411726487113293,1.21349471718464,2.9326748005785634
10.913358211517334,1.2376554718100692,1.2105631739585043,2.726589267438335
10.92266845703125,1.2339428961920726,1.207740831690327,2.528496010768383
10.930587530136108,1.2306211180075495,1.2050283206956602,2.3402720337599314
10.940786838531494,1.225931548805869,1.2024184393167974,2.162905256028982
10.950149297714233,1.2218281757543992,1.199903783827875,1.9967793211619647
10.961337804794312,1.217138606552719,1.197476734619825,1.8418755134678566
10.973247051239014,1.2120582399175657,1.1951261595299665,1.6979144480237773
10.982523202896118,1.2083456642995687,1.1928380125930933,1.5644545746422214
10.990378379821777,1.2050238861150453,1.1906058341295753,1.4409600061515926
10.999536037445068,1.2013113104970485,1.188426228957216,1.3268467137752538
11.007447004318237,1.1975987348790518,1.1862919251015043,1.2215135572939766
11.017171859741211,1.1936907605443183,1.1841993222570801,1.1243627416147595
11.0283784866333,1.1890011913426384,1.1821443368259748,1.0348129417535255
11.036848306655884,1.1854840144413783,1.180119065583635,0.9523073756582207
11.044345378875732,1.1823576349735918,1.1781196948569415,0.6002800622070141
11.05344295501709,1.1786450593555948,1.1761459835471042,0.4971869345952392
11.061814069747925,1.1753232811710714,1.1741933354401748,0.4878720658548689
11.069358348846436,1.1727830978534948,1.1722573611950322,0.780707516420169
11.08135437965393,1.1682889273685515,1.1703337554075668,1.3818665036760664
11.091629028320312,1.164380953033818,1.1684106550625588,1.675464704444959
11.10081696510315,1.160863776132558,1.1664776298452642,2.346215816722964
11.112000703811646,1.1569558017978245,1.1645294170651728,2.9828128653733925
11.119336605072021,1.1546110171969846,1.1625613306980114,3.451665111907716
11.128932237625122,1.1516800364459343,1.16057336095522,4.012039983654983
11.13736605644226,1.148944454411621,1.1585694807955857,4.1712310756061175
11.146383047103882,1.1464042710940443,1.1565572055544258,4.396978269763694
11.154813289642334,1.1440594864932043,1.1545426993164503,3.996424103347278
11.164803266525269,1.141128505742154,1.1525180501588257,3.9744258205623155
11.176050424575806,1.137806727557631,1.1504674940803743,4.0308090961891585
11.18439769744873,1.1356573416735274,1.1483817514860553,3.777310342422549
11.193440675735474,1.1333125570726872,1.1462618739456902,3.42686661429772
11.203358173370361,1.1307723737551107,1.1441087145699846,2.7946301537230496
11.21256136894226,1.1286229878710075,1.141918476498664,2.434284158642739
11.220795392990112,1.1268643994203773,1.139692700761225,1.9247028629344787
11.229846000671387,1.124715013536274,1.1374375042332363,1.7168301719320982
11.23789358139038,1.1229564250856439,1.1351533928673194,1.3489631411934735
11.247016429901123,1.121197836635014,1.1328360660022538,1.259323470884628
11.255778074264526,1.1194392481843838,1.1304818870071032,0.9851543066634749
11.263981819152832,1.1176806597337539,1.1280927877553444,0.9678752946032781
11.272857427597046,1.1159220712831237,1.125675433105518,0.7489450606164829
11.2819983959198,1.1141634828324936,1.1232305043600572,0.7737308965780694
11.290716409683228,1.1126002930986003,1.1207535707886873,0.5869608677927055
11.299314498901367,1.111037103364707,1.118246046530538,0.36051262561456093
11.308409929275513,1.109278514914077,1.115714312946393,0.1599870132304166
11.317230701446533,1.1079107238969204,1.113158575415628,0.003988509834087814
11.328035354614258,1.1061521354462902,1.1105737691823536,-0.10808041094080717
11.339295625686646,1.10439354699566,1.1079555704835373,-0.18341394623310406
11.347705364227295,1.1032211546952402,1.1053057489764408,-0.23040434833963114
11.357286930084229,1.1016579649613467,1.10263124557609,0.01946312669862063
11.36728572845459,1.1002901739441902,1.0999269620040137,-0.23486625895753094
11.377551555633545,1.098726984210297,1.0971775179691097,-0.32436769569639134
11.38649296760559,1.0975545919098768,1.0943753165744332,-0.615935207233858
11.394290924072266,1.0963821996094567,1.0915251999696431,-0.909778945177522
11.403319835662842,1.0952098073090366,1.0886428638675567,-0.8615696107939176
11.411367177963257,1.0940374150086165,1.0857415342164407,-1.2541168446816582
11.419273614883423,1.09325582014167,1.0828204076971752,-1.4229159572991872
11.429283142089844,1.09208342784125,1.0798723048069887,-1.4705213519828484
11.438705921173096,1.09091103554083,1.076890379069024,-1.452411088278065
11.446269035339355,1.0901294406738833,1.073868063207458,-1.3991523996168453
11.454307317733765,1.0887616496567265,1.0708056932587633,-1.3279052401697617
11.46430253982544,1.08739385863957,1.067709538267137,-1.5245062502212934
11.473382472991943,1.0860260676224132,1.0645775648960296,-1.751706103938964
11.484529256820679,1.084267479171783,1.0613932041457699,-2.4766470592208147
11.492622375488281,1.0827042894378898,1.0581415178800468,-2.918363743313459
11.500843048095703,1.0809457009872598,1.0548236511046207,-3.702012396543194
11.511287689208984,1.078405517669683,1.0514475478779417,-4.6784841106415795
11.520737409591675,1.0764515305023163,1.0480117077889968,-5.0
11.528307676315308,1.074302144618213,1.0445065608824047,-5.0
11.536583423614502,1.0723481574508462,1.040931673274159,-5.0
11.54429030418396,1.0700033728500062,1.037294465734694,-5.0
11.554316759109497,1.067267790815693,1.0335924245375292,-5.0
11.564260482788086,1.0643368100646429,1.0298146045285332,-5.0
11.573986291885376,1.0614058293135928,1.025960350005666,-5.0
11.58126187324524,1.0590610447127526,1.0220286928856075,-5.0
11.58932375907898,1.0561300639617026,1.0180282976632942,-5.0
11.60007905960083,1.0522220896269692,1.0139756202691759,-5.0
11.609303951263428,1.048704912725709,1.0098567768543183,-4.854175482192927
11.61861252784729,1.0447969383909759,1.0056507538114654,-5.0
11.627297639846802,1.0412797614897158,1.0013588621833365,-4.949630934481528
11.635566234588623,1.0379579833051924,0.9969922491887173,-4.480949376840735
11.643457651138306,1.0348316038374055,0.9925510719367383,-3.636810940487516
11.651626110076904,1.031705224369619,0.9880360452737786,-3.064558320488877
11.659863710403442,1.028188047468359,0.9834580318080733,-2.37576787163158
11.667283773422241,1.025061668000572,0.9788266591150333,-2.0278515723838018
11.677850484848022,1.0205674975156287,0.9741403074486636,-1.555428267620003
11.687280178070068,1.0166595231808953,0.9693878332117396,-0.8379706360951513
11.695706844329834,1.0133377449963719,0.9645702372665944,0.10816510596891138
11.7041015625,1.009625169378375,0.9596884918942438,0.9468714273627865
11.7125825881958,1.006107992477115,0.9547334202413843,1.5802688171076955
11.72025990486145,1.002590815575855,0.9497079420011842,2.008248001004801
11.728255987167358,0.999659834824805,0.9446252429448591,2.5407058613450566
11.736634492874146,0.996142657923545,0.9394860685526212,2.9751503916992474
11.74525785446167,0.9924300823055481,0.9342912955491391,3.2597883643302867
11.753752708435059,0.9887175066875513,0.9290523940958261,3.4029899502025405
11.761289596557617,0.9855911272197647,0.9237790975495662,3.4326048388203025
11.771686792373657,0.981292355451558,0.9184795564247821,3.378826724018894
11.78267788887024,0.976602786249878,0.9131381446316088,3.267867983240598
11.791494369506836,0.9732810080653544,0.9077303766622121,3.1203648258466923
11.800249576568604,0.969373033730621,0.902257866231236,2.951675588297258
11.809218168258667,0.9658558568293609,0.8967219225278821,2.7727952810125878
11.818371534347534,0.9619478824946276,0.8911124237614803,2.591347164285133
11.82625675201416,0.9588215030268408,0.8854209942940622,2.4124511891238365
11.836276769638062,0.9543273325418974,0.8796409536454923,2.2394178245580063
11.844876527786255,0.9508101556406374,0.8737790240797023,2.07427554597675
11.85222840309143,0.948074573606324,0.8678651024241097,1.9181599234613045
11.861212491989136,0.9441665992715907,0.8619249203992827,1.7715949333953651
11.871254205703735,0.9394770300699106,0.8559568094229906,1.6346934558899946
11.88023829460144,0.9357644544519137,0.8499477041817164,1.5072985886843948
11.889500856399536,0.931465682683707,0.8438869759207465,1.389082291700228
11.897515773773193,0.9283393032159203,0.8377663050349322,1.279613603253972
11.905271768569946,0.9254083224648704,0.8315913245751347,1.178405332322615
11.914241313934326,0.9215003481301368,0.8253794706403186,1.0849456233201678
11.922967433929443,0.9175923737954035,0.8191343896956271,0.9987189484894661
11.931222438812256,0.9142705956108801,0.8128598314904776,0.9192197514980197
11.941384553909302,0.9099718238426734,0.806559870426281,0.8459610127812414
11.949374198913574,0.90665004565815,0.8002270726547793,0.7784793298316166
11.961202144622803,0.9015696790229966,0.7938563224672469,0.7163376266415974
11.972659826278687,0.8968801098213164,0.7874333122860002,0.6591262690205089
11.982752323150635,0.8927767367698464,0.7809475249222068,0.6064631253923807
11.99021291732788,0.889454958585323,0.7744143560368747,0.5579929464545847
11.999279975891113,0.8853515855338528,0.7678484689314768,0.5133863207878184
12.007535934448242,0.8820298073493293,0.7612524541952632,0.4723383823015786
12.015532732009888,0.8787080291648061,0.7546512463704059,0.4345673888122653
12.023201704025269,0.8753862509802827,0.7480776462872168,0.3998132517090879
12.032639503479004,0.8708920804953393,0.7415383581195777,0.3678360693914473
12.04028844833374,0.8677657010275525,0.7350392597707387,0.33841469832232746
12.048528671264648,0.8642485241262925,0.7285961034688914,0.31134538259854294
12.056242942810059,0.8613175433752424,0.7222221304429852,0.28644045409229935
12.06475281715393,0.857995765190719,0.7159283421828884,0.2635271092371462
12.074934005737305,0.8533061959890389,0.7097138391241116,0.2424462645292507
12.084248304367065,0.8495936203710422,0.7035677530608513,0.22305149018902137
12.094433069229126,0.8450994498860988,0.6974811224033428,0.2052080197494525
12.103468656539917,0.8415822729848388,0.6914467066396806,0.1887918323124541
12.11122465133667,0.838455893517052,0.6854681076018467,0.17368880362760392
12.122021913528442,0.8339617230321086,0.6795487167356874,0.15979392186747562
12.131549835205078,0.8296629512639019,0.6736821078350611,0.14701056388913253
12.140204191207886,0.8261457743626417,0.6678721026444391,0.13524982781777317
12.149882555007935,0.8216516038776983,0.6621221822888108,0.12442991792019086
12.157432556152344,0.8185252244099116,0.6564262471846479,0.11447557791609975
12.165199041366577,0.8152034462253882,0.6507879698806446,0.10531756908349024
12.175034284591675,0.8109046744571815,0.6452190817845718,0.09689218973724184
12.18520998954773,0.8069967001224482,0.639720452520026,0.08914083288453534
12.193657636642456,0.8036749219379247,0.6342837789704683,0.08200957908218903
12.202216386795044,0.799962346319928,0.6289018005150648,0.07544882173549164
12.211338758468628,0.7960543719851946,0.6235765363754724,0.0694129222826198
12.220199823379517,0.7927325938006711,0.6183177039150624,0.06385989290015731
12.23015809059143,0.788629220749201,0.6131245055866089,0.05875110454826264
12.240150451660156,0.7841350502642577,0.6079872460736204,0.05405101834048831
12.248170137405396,0.7808132720797343,0.6028971853057804,0.04972693838242871
12.256149768829346,0.7772960951784743,0.5978547383665224,-0.2302895753102705
12.265175819396973,0.7737789182772141,0.5928680359350892,-0.26707408048165104
12.274502515792847,0.7696755452257441,0.5879349667216298,-0.21534393396077145
12.282684803009033,0.7661583683244839,0.5830446965300158,-0.14235667022645207
12.29062795639038,0.762641191423224,0.5781957323576474,-0.07468391481624495
12.300575971603394,0.7583424196550171,0.573394469380797,-0.020684047636519674
12.309143304824829,0.7550206414704939,0.5686371458417006,0.01890138334050084
12.319974422454834,0.7505264709855504,0.5639028119348883,0.04609731737449386
12.328750371932983,0.7468138953675537,0.5591729823429469,0.06358343811790607
12.337190389633179,0.7434921171830302,0.5544484309008505,0.0738576347831514
12.346170902252197,0.7397795415650336,0.5497378268011202,0.07897120291137255
12.355180740356445,0.7356761685135634,0.5450479015396495,0.08050381627135678
12.365330696105957,0.7315727954620934,0.5403747334824689,0.07962611986231878
12.376312732696533,0.7264924288269399,0.5356962832895027,0.07718355258704494
12.384695053100586,0.7233660493591532,0.5309931667307837,0.07377498204408073
12.392182350158691,0.7202396698913666,0.5262757709516197,0.0698176870675211
12.401717901229858,0.7161362968398964,0.5215522439848537,0.06559777662411985
12.412054538726807,0.7114467276382163,0.5168013617706914,0.06130791366517237
12.421539545059204,0.7075387533034829,0.5120143491020402,0.057074904994413624
12.429730415344238,0.7042169751189595,0.507202456196352,0.05297957619198948
12.438488006591797,0.7006997982176995,0.5023658203634808,0.04907093786530249
12.447147369384766,0.6971826213164394,0.49750473424420205,0.04537620389948977
12.457643985748291,0.6928838495482326,0.49261963908407924,0.04190783214461907
12.468648672103882,0.6883896790632892,0.4876828302448573,0.03866844566935172
12.47648024559021,0.6852632995955026,0.482671705318969,0.035654254536325286
12.48526930809021,0.6817461226942425,0.47759674040935873,0.032857421564422784
12.495776891708374,0.6770565534925623,0.4724679833426697,0.030267687126223998
12.504127025604248,0.6733439778745656,0.4672948741766436,0.02787347571362421
12.512169122695923,0.6698268009733056,0.46209568415865865,0.02566264117513773
12.521135807037354,0.6661142253553088,0.45688656988047643,0.023622960858303205
12.53160572052002,0.6616200548703655,0.4516817322746855,0.021742455930716227
12.540078401565552,0.6579074792523687,0.4464846253372933,0.020009591943623138
12.549252986907959,0.654194903634372,0.44128975553639843,0.018413397393540018
12.559788942337036,0.6497007331494286,0.4360934150340107,0.01694352659796409
12.568146467208862,0.6463789549649053,0.43090207158957033,0.2916286448619764
12.577857255935669,0.6420801831966985,0.4257222180426807,0.3235075937159937
12.587121725082397,0.6383676075787017,0.42055147031991036,0.26726386461314067
12.596160650253296,0.6348504306774417,0.4153968880922457,0.19012377536238317
12.604128122329712,0.6315286524929183,0.41026529168983683,0.11863018979734567
12.61213231086731,0.6280114755916582,0.40516274200127894,0.06111499739883232
12.62196660041809,0.6237127038234513,0.4001028638887855,0.018295354186904703
12.630191802978516,0.620390925638928,0.3950895338512183,-0.01187613422698223
12.638580560684204,0.6166783500209313,0.3901184895185277,-0.03209982038649453
12.647090435028076,0.6133565718364078,0.38519416391445316,-0.044892616005109534
12.656140565872192,0.6096439962184113,0.3803281586449523,-0.05232332230999076
12.664987564086914,0.6057360218836778,0.3755229934391501,-0.05598772179027237
12.674989223480225,0.6016326488322077,0.3707736338193264,-0.05707128191016958
12.683686971664429,0.5985062693644211,0.36607631878424896,0.21960527972831603
12.692112922668457,0.5949890924631609,0.3614351642916525,0.2544784308262356
12.703121423721313,0.5901041245447443,0.35685415280376953,0.20181124385157356
12.713606357574463,0.5856099540598008,0.3523236358410107,0.12854109861655713
12.723136901855469,0.5817019797250673,0.3478360412072683,0.06101563523286761
12.732815980911255,0.5775986066735972,0.34339237895598385,0.007437609825468608
12.74037766456604,0.5742768284890738,0.33899416201644694,-0.03155876704403138
12.748140811920166,0.5711504490212871,0.334655014563168,-0.058071836274671045
12.759695529937744,0.5662654811028704,0.3303925498146874,-0.07483093525637022
12.767130374908447,0.562943702918347,0.3262095326987956,-0.08436705578839447
12.776182413101196,0.5590357285836136,0.3221079392019117,-0.08875310968909807
12.784120798110962,0.5555185516823535,0.3180895606180814,-0.08958245457704031
12.795106410980225,0.5510243811974102,0.3141502516580454,-0.08803397417929318
12.80341625213623,0.5477026030128868,0.31028667283500905,-0.08495763762495778
12.812103033065796,0.5443808248283633,0.30649623810874105,-0.08095434368201862
12.821115016937256,0.5406682492103666,0.3027769686760329,-0.0764417431849232
12.830334186553955,0.5367602748756332,0.29913203562984736,-0.07170523915365856
12.838768720626831,0.5332430979743731,0.2955688695335666,-0.0669361110803912
12.846740007400513,0.5299213197898497,0.2920889825932196,-0.06225937906664496
12.854102611541748,0.5269903390387995,0.28869320387016606,-0.05775386511782328
12.865609884262085,0.5219099724036462,0.2853864039493963,-0.053466484654796226
12.874142408370972,0.5183927955023862,0.2821681625254327,-0.04942234764633588
12.884140729904175,0.5140940237341795,0.2790337386752163,-0.045631852890104185
12.894346714019775,0.5095998532492361,0.2759791732257432,-0.042095642708086176
12.902867078781128,0.5058872776312392,0.2730012097725801,-0.03880804438097477
12.912516355514526,0.5017839045797692,0.27009722288759225,-0.03575944622079937
12.920238494873047,0.4988529238287191,0.26726848711140033,-0.032937926410151114
12.930005073547363,0.494749550777249,0.26451943086782037,-0.03033035947512195
12.939252138137817,0.4910369751592523,0.26185022199382424,-0.027923158770002898
12.949979543685913,0.48654280467430894,0.25925750293014543,-0.02570276621965413
12.960086584091187,0.4822440329061022,0.2567384628170768,-0.02365596728507181
12.970695734024048,0.4779452611378954,0.25428802616729523,-0.02177008568494938
12.978118658065796,0.47462348295337203,0.25190465000736306,-0.020033095942306914
12.987139701843262,0.47052010990190196,0.24959775669702383,-0.018433680277490802
12.997826337814331,0.4658305407002219,0.2473722492045346,-0.01696124827881984
13.007745504379272,0.46192256636548845,0.24522123129488155,-0.015605932121005976
13.015451192855835,0.45860078818096506,0.24313872074427112,-0.014358566148517288
13.023409605026245,0.4554744087131783,0.24112213956882553,0.26282770280205575
13.03240966796875,0.4515664343784449,0.23916914749915516,0.29700861529857536
13.040276765823364,0.44824465619392156,0.23727761620475385,-0.03315503341967499
13.0502028465271,0.4441412831424515,0.23544759239200447,-0.14147031751285116
13.059388875961304,0.4406241062411914,0.2336808477741855,0.11996547926971735
13.067077159881592,0.4374977267734046,0.23197836063248756,0.1733103772757279
13.075664520263672,0.43398054987214457,0.23034038295193976,0.14743475072716938
13.083662033081055,0.4306587716876212,0.22876467604558326,0.09919726730756981
13.091048002243042,0.42733699350309784,0.22724877950957623,-0.2243043390611585
13.10113525390625,0.4230382217348911,0.22579020153777196,-0.02020731638330102
13.109555959701538,0.41932564611689427,0.2243845192247651,0.03920215865661066
13.117554903030396,0.41600386793237093,0.22302931494170153,0.04026401719568122
13.125034093856812,0.4128774884645843,0.22172386246826503,0.021853021892699415
13.133400201797485,0.4093603115633242,0.22046703410080634,0.00040762049743086823
13.141781330108643,0.40603853337880075,0.21925736647012492,-0.0179451248404022
13.150007486343384,0.4025213564775407,0.2180947931545958,-0.031599671815477855
13.160995960235596,0.3976363885591239,0.21697713793242562,-0.04076783893071892
13.170670747756958,0.3937284142243905,0.21589713977786368,-0.04626022591203212
13.18068265914917,0.38962504117292046,0.2148483271164125,-0.04897033545279662
13.189995765686035,0.38591246555492376,0.21382663634087834,-0.04968198681952903
13.198587894439697,0.382199889936927,0.21282842668090501,-0.32505709673141264
13.207268476486206,0.37887811175240366,0.21185046707086705,-0.3566135245721103
13.215051889419556,0.37555633356788015,0.2108899011575933,-0.29938525320135156
13.223024845123291,0.3724299541000935,0.20994723955873357,-0.22084905720643186
13.233502388000488,0.36793578361515006,0.20902582610877654,-0.14772339803512652
13.242014408111572,0.36402780928041667,0.20812527037102055,-0.3644994858658379
13.253691673278809,0.35894744264526324,0.20724058581746632,-0.3530241260343203
13.26269006729126,0.3552348670272665,0.20636605551418818,-0.26599582891110485
13.270286083221436,0.35230388627621645,0.20549978109531375,-0.1679829124863872
13.27928900718689,0.3485913106582197,0.20464309434315547,0.1929987518611711
13.28842806816101,0.3446833363234863,0.20379571223198198,0.015677132434157665
13.296061515808105,0.34155695685569953,0.20295736455135618,-0.025436802587658756
13.307044506072998,0.3368673876540195,0.20212785251876686,-0.014574973945831491
13.316619634628296,0.3327640146025494,0.2013042775539989,0.2871725625198251
13.325231552124023,0.3292468377012893,0.20048556802928444,0.34576883454736884
13.3367178440094,0.3245572684996093,0.1996722836863062,0.03474952204727219
13.34501028060913,0.32123549031508586,0.19886361122169502,-0.060570973881490506
13.353691577911377,0.31771831341382584,0.19806020721860826,-0.06759870496131752
13.361294031143188,0.31459193394603907,0.1972627093764274,0.2319886472836221
13.369765520095825,0.31087935832804237,0.19647166027216842,0.01852387630780837
13.377047538757324,0.30775297886025565,0.1956887924764395,-0.04376929869667385
13.385014533996582,0.3044312006757322,0.19491553473501402,-0.04502428496314907
13.394403457641602,0.3005232263409988,0.1941530355311358,-0.02584623564582782
13.402444839477539,0.2970060494397388,0.19340100029222113,-0.0034224234130287145
13.4100821018219,0.29407506868868866,0.19265911008850473,0.015827069235185596
13.420062065124512,0.28997169563721864,0.19192827243298355,0.030207102543307204
13.428096771240234,0.2868453161694319,0.19120805905337637,0.03992447838476632
13.438171148300171,0.28293734183469854,0.19049689692162833,0.04581508337145229
13.448393106460571,0.2784431713497551,0.18979345597418512,0.04880447219504348
13.458126306533813,0.27433979829828503,0.18909661962204038,0.04970603187130867
13.46705174446106,0.27062722268028827,0.18840655358667485,0.04916754184114213
13.477555990219116,0.2663284509120815,0.18772346579452823,0.04767765840912254
13.485040664672852,0.2632020714442948,0.18704646221537924,0.04559237225289384
13.4960298538208,0.25851250224261474,0.1863758593608497,0.04316446232212183
13.505049705505371,0.25479992662461803,0.18571197501981695,0.0405695568749348
13.513988971710205,0.2508919522898846,0.1850540684251689,0.03792707622390514
13.52462124824524,0.24639778180494118,0.18440158705242818,0.035316222766310204
13.532107591629028,0.24307600362041779,0.18375413415256167,0.03278782074866528
13.54004955291748,0.23994962415263102,0.18311238867621052,0.03037291062912944
13.549929141998291,0.2360416498178977,0.18247791605795669,0.3041272625746633
13.562118291854858,0.2311566818994809,0.1818501697631397,0.3351069032057793
13.570794105529785,0.22744410628148415,0.18122686600746604,0.278005672235378
13.579995155334473,0.22373153066348742,0.18060712404203996,0.20005556642681968
13.589425563812256,0.219823556328754,0.17999210552929204,0.12780197622685252
13.596998453140259,0.2166971768609673,0.17938458762441442,0.06957722247612655
13.605141401290894,0.2133753986764439,0.17878776240964017,0.026097530605004023
13.614485502243042,0.20946742434171048,0.17820337892549945,-0.004686280252653009
13.623805522918701,0.2055594500069771,0.17763109867358412,-0.025476857998017424
13.63429570198059,0.20126067823877036,0.1770697167985793,-0.038793682613584846
13.644971370697021,0.19676650775382695,0.1765182014138011,-0.04670823785298024
13.660581588745117,0.19031835010151682,0.17597408241698884,0.22521936167507245
13.669981479644775,0.18621497705004675,0.17543372464297044,-0.019189460569566885
13.678715467453003,0.18289319886552335,0.17489574325540652,-0.10715230119294042
13.685987710952759,0.17976681939773664,0.17436138070393561,0.14929759127710635
13.694469451904297,0.17624964249647657,0.17383246827640966,0.19009297345995707
13.704038619995117,0.1727324655952165,0.17330978380106643,0.15141536503410297
13.712663888931274,0.1694106874106931,0.17279321498653896,0.36871757453133547
13.720267057418823,0.1668705040931164,0.17228267181295606,0.6227332547009948
13.729703664779663,0.163548725908593,0.1717787571829161,1.1088732538172315
13.739980220794678,0.16003154900733293,0.17128191417992067,2.1161609241136703
13.748433589935303,0.15729596697301954,0.17079176184387895,2.5224028367271076
13.756303310394287,0.1549511823721795,0.17030866039832077,2.9036915776081065
13.764957427978516,0.1522156003378661,0.16983354734628317,3.721732956849837
13.774961709976196,0.14967541702028941,0.16936712160153633,4.204281668426967
13.783822298049927,0.14752603113618606,0.16890920393742387,4.712704465473996
13.792428016662598,0.14518124653534598,0.16845886027943544,4.800267573339013
13.80181074142456,0.14303186065124263,0.16801523436934745,4.678073659913032
13.812167882919312,0.14029627861692923,0.1675775468462415,4.731456304942015
13.821265459060669,0.13834229144956253,0.16714508507615866,4.498416063899884
13.829416990280151,0.13677910171566918,0.166717902031767,4.163444306574207
13.839113473892212,0.13482511454830248,0.16629668488392285,4.637448982254224
13.850078344345093,0.13306652609767244,0.1658813021220374,4.398118714159711
13.85794734954834,0.1318941337972524,0.16547161318582226,4.1978282802165845
13.868505716323853,0.13052634278009573,0.16506749064878729,3.9977899159567833
13.875934362411499,0.12974474791314905,0.1646681390047217,3.787866528352862
13.884951829910278,0.1287677543294657,0.16427351509078383,3.2931528488579858
13.894156217575073,0.1281815581792557,0.1638835982793401,3.037252819970672
13.902516841888428,0.12759536202904564,0.16349772949754848,2.8704247582278635
13.910053253173828,0.12700916587883565,0.16311597203095282,2.729530104538064
13.922528743743896,0.1266183684453623,0.16273840460605005,2.8670399908665685
13.931991815567017,0.12622757101188897,0.16236391267200503,3.0336647807881687
13.943946123123169,0.12622757101188897,0.161991039680591,3.141601882212213
13.951988697052002,0.1260321722951523,0.16161978013982356,2.6203575567255077
13.959987878799438,0.12622757101188897,0.16125186686652498,2.2401473026139995
13.972332239151001,0.12622757101188897,0.16088767845405907,1.6746698404564697
13.979930639266968,0.12642296972862566,0.1605264247222614,0.8608426573539069
13.987920999526978,0.12642296972862566,0.16016856446068325,0.38738227668691866
13.99830675125122,0.126813767162099,0.15981453096123235,-0.44324782794666995
14.006234645843506,0.12700916587883565,0.15946416672476127,-1.2257478898817735
14.013956546783447,0.12720456459557233,0.15911786106419423,-1.8293660916217065
14.023952960968018,0.12759536202904564,0.15877647199911119,-2.23874448294875
14.032919883728027,0.12779076074578233,0.15844022033163382,-2.7569691868539854
14.040912866592407,0.1281815581792557,0.15810927014574772,-2.9026577197464873
14.049854278564453,0.128572355612729,0.1577842381014154,-3.1419152513650266
14.058375358581543,0.12896315304620237,0.15746514259238137,-3.3281400865494484
14.065906286239624,0.12935395047967568,0.15715195465067333,-3.421967993758452
14.075946807861328,0.12974474791314905,0.15684509657046303,-3.4271531718645694
14.083893060684204,0.1301355453466224,0.1565444650167423,-3.361684369297012
14.093053102493286,0.13052634278009573,0.156249523052505,-3.5216022046874844
14.100975275039673,0.13111253893030572,0.1559606648045154,-3.405412562641327
14.108889818191528,0.1313079376470424,0.15567903141465525,-3.181527394097648
14.118279933929443,0.1318941337972524,0.15540429949597223,-2.9273241193158874
14.126998662948608,0.13248032994746242,0.15513495191619694,-2.9525675067808947
14.135897397994995,0.13306652609767244,0.15487052012031272,-2.7515273061109564
14.145950078964233,0.13365272224788244,0.15461141261529857,-2.4828031005155236
14.158082723617554,0.13443431711482912,0.15435725650800625,-2.4895869668697084
14.16694974899292,0.13482511454830248,0.1541073744665064,-2.2778820945032567
14.175915002822876,0.13560670941524913,0.15386193137916604,-2.008713188884347
14.18437123298645,0.13619290556545915,0.1536211119705766,-2.024116758037808
14.193732976913452,0.13697450043240583,0.15338474833757776,-2.1039365848323635
14.2037832736969,0.13736529786587917,0.1531527399920566,-1.8880470807997107
14.213439464569092,0.13814689273282588,0.15292504852108715,-1.8713399727159912
14.222386360168457,0.1385376901662992,0.1527016675585818,-1.89948786699114
14.230936288833618,0.1393192850332459,0.15248288358659673,-1.9139371177096742
14.239879369735718,0.13971008246671923,0.15226921432957605,-1.898262802153941
14.24975323677063,0.14029627861692923,0.1520602868019419,-1.8530876645876324
14.262030124664307,0.14107787348387593,0.15183947451328955,-1.7847594864964704
14.271423816680908,0.1418594683508226,0.15157934157917624,-1.7005412693556612
14.280016899108887,0.1424456645010326,0.15127477581883805,-1.6068014256653584
14.290964365005493,0.14303186065124263,0.1509364854140503,-1.5085245714192899
14.298864841461182,0.14342265808471594,0.15057197150556698,-1.409357107223988
14.306915044784546,0.1438134555181893,0.15018612482027877,-1.5878707592141272
14.317495346069336,0.14420425295166264,0.1497825218325901,-1.8028256876272823
14.324912071228027,0.14420425295166264,0.14936538810855537,-1.9670393623986282
14.333519697189331,0.14420425295166264,0.14893962743546582,-2.0601092829419754
14.340975284576416,0.1443996516683993,0.1485099926070648,-2.363904678004044
14.350876808166504,0.1443996516683993,0.1480810493321155,-2.925504054341979
14.35888409614563,0.14420425295166264,0.14765706088527536,-2.8762296631370665
14.366851568222046,0.1443996516683993,0.14724205392799708,-3.157178016512015
14.374921321868896,0.1443996516683993,0.14683997442834237,-3.177153410623607
14.38315200805664,0.14420425295166264,0.14645453848574508,-2.795135986365032
14.390871286392212,0.14420425295166264,0.1460891135027706,-2.5987569130426955
14.401345014572144,0.1443996516683993,0.14574705809038008,-2.19224197001788
14.409945011138916,0.1443996516683993,0.14543170134310304,-1.768994212483367
14.421745538711548,0.14420425295166264,0.1451461787471067,-1.1235092723798044
14.43202018737793,0.1443996516683993,0.14489401744395747,-0.5156239868401242
14.441129684448242,0.1443996516683993,0.14467839147435896,-0.029156506480476407
14.450291395187378,0.1443996516683993,0.14450091498426937,0.3261354974206336
14.459106683731079,0.14420425295166264,0.1443621895283335,0.5677698911918349
14.467898845672607,0.14420425295166264,0.14426329644164024,0.7200827609903784
14.47738242149353,0.1443996516683993,0.1442057424118336,0.8060536616761147
14.484868049621582,0.1443996516683993,0.1441906903319303,0.8446553332371278
14.4954252243042,0.1443996516683993,0.14421895671624305,0.8505339314245394
14.504383087158203,0.1443996516683993,0.14429001977181263,0.8345523591529499
14.511843204498291,0.1443996516683993,0.14440116519597834,0.8045536824153285
14.51986026763916,0.14420425295166264,0.14454976864446611,0.7660866024308088
14.527919292449951,0.1443996516683993,0.14473529933302898,0.7230084025686778
14.537834405899048,0.1443996516683993,0.14495802290010734,0.6779541792489356
14.549518585205078,0.14420425295166264,0.14521790927643582,0.6326885286556063
14.558152437210083,0.1443996516683993,0.14551469623640245,0.5883630097490475
14.565844535827637,0.1443996516683993,0.1458467394328556,0.5457017057208857
14.577796220779419,0.1443996516683993,0.14621240433284616,0.5051335061802689
14.586922883987427,0.1443996516683993,0.14661119066886322,0.4668856421231953
14.59776258468628,0.14420425295166264,0.14704244785267342,0.43104939255718855
14.606858015060425,0.1443996516683993,0.14750667209993262,0.39762597756415974
14.614823579788208,0.1443996516683993,0.14800405860359703,0.36655843242153563
14.624228239059448,0.14420425295166264,0.14853335603168547,0.3377536097587817
14.631844520568848,0.1443996516683993,0.149091972482829,0.3110972567233641
14.640903949737549,0.14420425295166264,0.14967621989481322,0.286464250903998
14.648855447769165,0.14420425295166264,0.150282818422174,0.26372546298303146
14.65782904624939,0.1443996516683993,0.15090742288639125,0.2427522773745378
