t_s,q_rad,q_des_rad,K,B,Kff,jerk,tau_Nm,reward
0.005072832107543945,1.2216327770376625,[0.00306686],9.825212432529046,0.9781515540661307,1.9737818648793566,0.0,9.9,0.5
0.06319427490234375,1.2214373783209256,[0.01495103],9.650424865058092,0.9563031081322615,1.9475637297587132,0.0,9.999,0.5
0.12760710716247559,1.2214373783209256,[0.03760147],9.475637297587138,0.9344546621983922,1.92134559463807,0.0,9.99999,0.5
0.19161486625671387,1.2216327770376625,[0.0696018],9.300849730116184,0.9126062162645229,1.8951274595174268,0.0,9.9999999,0.5
0.2555243968963623,1.2216327770376625,[0.10963228],9.12606216264523,0.8907577703306536,1.8689093243967834,0.0,9.999999999,0.5
0.3202781677246094,1.2214373783209256,[0.15645917],8.951274595174274,0.8689093243967844,1.84269118927614,0.0,9.99999999999,0.5
0.383136510848999,1.2216327770376625,[0.2089413],8.77648702770332,0.847060878462915,1.8164730541554968,0.0,-9.8000000000001,0.5
0.4487454891204834,1.2216327770376625,[0.2660549],8.601699460232366,0.8252124325290457,1.7902549190348536,0.0,-9.998000000000001,0.5
0.5112171173095703,1.2214373783209256,[0.32691285],8.426911892761412,0.8033639865951765,1.7640367839142101,0.0,-9.99998,0.5
0.575270414352417,1.2214373783209256,[0.39076847],8.252124325290458,0.7815155406613071,1.7378186487935667,0.0,-9.999999800000001,0.5
0.6393876075744629,1.2216327770376625,[0.45699792],8.077336757819502,0.7596670947274378,1.7116005136729235,0.0,-5.0499999980000005,0.5
0.7038702964782715,1.2179202014196655,[0.52506471],7.902549190348549,0.7378186487935685,1.6853823785522803,-5.0,4.89950000002,0.4817320621239355
0.7680792808532715,1.1972079374455786,[0.59453794],7.727761622877595,0.7159702028596993,1.659164243431637,-5.0,4.998995000000201,0.4817320621239355
0.8309919834136963,1.221241979604189,[0.66513337],7.55297405540664,0.6941217569258299,1.6329461083109935,5.0,4.9999899500000025,0.4817320621239355
0.8949732780456543,1.2466438127799562,[0.73678489],7.378186487935686,0.6722733109919605,1.6067279731903503,5.0,4.999999899500001,0.4817320621239355
0.9596319198608398,1.2724364433891966,[0.80977056],7.203398920464732,0.6504248650580913,1.5805098380697071,5.0,4.999999998995,0.4817320621239355
1.022972822189331,1.297642877848227,[0.88448149],7.028611352993777,0.6285764191242219,1.5542917029490637,5.0,4.99999999998995,0.481732062123937
1.0869719982147217,1.3230447110239942,[0.96094731],6.853823785522822,0.6067279731903527,1.5280735678284203,5.0,4.9999999999999,0.4817320621280237
1.1510086059570312,1.3490327403499716,[1.03878331],6.679036218051868,0.5848795272564833,1.501855432707777,4.446572302067173,4.999999999999999,0.48549623117526375
1.2149994373321533,1.3744345735257386,[1.11741638],6.504248650580913,0.563031081322614,1.475637297587134,1.509609935900945,5.0,0.4983082728852749
1.2789580821990967,1.4000318054182421,[1.19623415],6.329461083109958,0.5411826353887447,1.4494191624664907,-1.6549430630956714,-4.9,0.4982122178055564
1.3429882526397705,1.4207440693923294,[1.2746521],6.154673515639004,0.5193341894548753,1.4232010273458477,-5.0,-4.9990000000000006,0.49573381787858506
1.4076807498931885,1.3959284323667722,[1.3521369],5.97988594816805,0.5,1.3969828922252046,-5.0,-4.99999,1.1631770906692964
1.4710886478424072,1.3705265991910052,[1.42821352],5.805098380697095,0.5,1.3707647571045614,-5.0,-4.999999900000001,0.995719641351605
1.5353093147277832,1.3447339685817647,[1.50246415],5.63031081322614,0.5,1.3445466219839184,-5.0,-4.999999999,0.488635318966442
1.5989675521850586,1.3195275341227342,[1.57453086],5.455523245755186,0.5,1.3183284868632752,-5.0,-4.99999999999,0.481734310417737
1.664576768875122,1.2931487073632837,[1.64411397],5.280735678284231,0.5,1.292110351742632,-5.0,-4.9999999999999005,0.4817320621439348
1.727041244506836,1.2685284690544634,[1.71096647],5.105948110813277,0.5,1.2658922166219888,-5.0,-4.999999999999999,0.4817320621239355
1.7913484573364258,1.2423450410117491,[1.77489023],5.0,0.5,1.2396740815013456,-1.9132649336803453,-5.0,0.4972824721084889
1.855069875717163,1.2169432078359823,[1.83573313],5.0,0.5,1.2134559463807026,2.031706716567223,-5.0,0.4969366620688752
1.9190213680267334,1.191150577226742,[1.89338501],5.0,0.5,1.1872378112600595,5.0,-5.0,0.4817320621239355
1.9830272197723389,1.1657487440509746,[1.94777375],5.0,0.5,1.1610196761394163,5.0,-5.0,0.4817320621239355
2.0479090213775635,1.1395653160082608,[1.99886206],5.0,0.5,1.1348015410187733,5.0,-5.0,0.4817320621239355
2.111020565032959,1.1143588815492305,[2.04664319],5.0,0.5,1.10858340589813,5.0,-5.0,0.4817320621239355
2.1750991344451904,1.0887616496567265,[2.09113744],5.0,0.5,1.082365270777487,5.0,-5.0,0.4817320621239355
2.2390389442443848,1.0631644177642228,[2.13238892],5.0,0.5,1.0561471356568437,5.0,-5.0,0.4817320621239355
2.305025577545166,1.036394793571299,[2.17046256],5.0,0.5,1.0299290005362005,5.0,-5.0,0.4817320621239355
2.367001533508301,1.0115791565457417,[2.20544115],5.0,0.5,1.0037108654155575,5.0,-5.0,0.4817320621239355
2.4309887886047363,0.9875451143871313,[2.23742237],5.0,0.5,0.9774927302949143,5.0,-5.0,0.4817320621239355
2.495081901550293,0.961752483777891,[2.26651628],5.0,0.5,0.9512745951742712,5.0,-5.0,0.4817320621239355
2.55896258354187,0.9359598531686504,[2.29284303],5.0,0.5,0.9250564600536281,5.0,-4.950831393630924,0.4817320621239355
2.6230454444885254,0.91016722255941,[2.31653061],5.0,0.5,0.898838324932985,5.0,-2.0044103726173725,0.4817320621239355
2.6869890689849854,0.8843745919501695,[2.33771277],5.0,0.5,0.8726201898123418,5.0,0.3371411696116851,0.4817320621239355
2.750955820083618,0.8587773600576656,[2.35652713],5.0,0.5,0.8464020546916986,5.0,2.1776849483537846,0.4817320621239355
2.815065383911133,0.8474442344869388,[2.37311252],5.0,0.5,0.8201839195710555,5.0,3.1888444104663614,0.4817320621239355
2.8793346881866455,0.8708920804953393,[2.38751239],5.0,0.5,0.7939657844504124,5.0,-9.868111555895338,0.4817320621239355
2.9431536197662354,0.8959031162376331,[2.39942956],5.0,0.5,0.7677476493297692,5.0,-9.998681115558954,0.4817320621239355
3.0098042488098145,0.9230635378640303,[2.40800162],5.0,0.5,0.741529514209126,5.0,-9.99998681115559,0.4817320621239355
3.072725296020508,0.9474883774561141,[2.41200341],5.0,0.5,0.715311379088483,5.0,-9.999999868111557,0.4817320621239355
3.135145902633667,0.9732810080653544,[2.41036695],5.0,0.5,0.6890932439678399,5.0,-9.999999998681115,0.4817320621239355
3.199141263961792,0.9984874425243848,[2.40227063],5.0,0.5,0.6628751088471967,3.1750253110001214,-9.999999999986812,0.4925518892228096
3.263204336166382,1.0244754718503621,[2.38698343],5.0,0.5,0.6366569737265535,-1.25976793374027,-9.999999999999869,0.4988200195528704
3.3272528648376465,1.0496819063093925,[2.36386095],5.0,0.5,0.6104388386059104,-5.0,-9.999999999999998,0.4817320621239355
3.3936760425567627,1.076646929219053,[2.33235624],5.0,0.5,0.5842207034852673,-5.0,-10.0,0.4817320621239355
3.455397129058838,1.1008763700944002,[2.29220543],5.0,0.5,0.5580025683646241,-5.0,-10.0,0.4817320621239355
3.5193471908569336,1.1264736019869042,[2.24358912],5.0,0.5,0.531784433243981,-5.0,-5.05,0.4817320621239355
3.5830628871917725,1.1464042710940443,[2.18713745],5.0,0.5,0.5055662981233379,-5.0,-5.000500000000001,0.4817320621239355
3.647435426712036,1.1219794315019607,[2.12395741],5.0,0.5,0.4793481630026947,-5.0,4.8999950000000005,0.4817320621239355
3.7128844261169434,1.1006809713776635,[2.05555738],5.0,0.5,0.4531300278820516,-5.0,4.99899995,0.4817320621239355
3.7763242721557617,1.1251058109697472,[1.98374871],5.0,0.5,0.42691189276140845,5.0,4.9999899995,0.4817320621239355
3.838970422744751,1.1501168467120408,[1.9105814],5.0,0.5,0.4006937576407653,5.0,4.999999899995,0.4817320621239355
3.9030346870422363,1.1763002747547546,[1.83822928],5.0,0.5,0.3744756225201221,5.0,4.99999999899995,0.4817320621239355
3.9669930934906006,1.2015067092137852,[1.76882892],5.0,0.5,0.3482574873994789,5.0,4.99999999999,0.4817320621239355
4.03202748298645,1.2282763334067093,[1.70429502],5.0,0.5,0.3220393522788358,5.0,4.9999999999999005,0.4817320621239355
4.09498405456543,1.253091970432266,[1.64622204],5.0,0.5,0.2958212171581926,3.3550639938285642,4.999999999999999,0.4916905116056606
4.160971164703369,1.2802523920586635,[1.59595081],5.0,0.5,0.2696030820375494,0.9431277232802227,5.0,0.49933830367802784
4.222965717315674,1.3046772316507471,[1.55461377],5.0,0.5,0.24338494691690624,-2.096947352708656,5.0,0.49674117208402596
4.287039518356323,1.3306652609767244,[1.52291846],5.0,0.5,0.21716681179626307,-3.908390412342994,5.0,0.4893732285951366
4.350972890853882,1.3562624928692282,[1.5009325],5.0,0.5,0.19094867667561988,-4.933139096432529,5.0,0.4974174038325499
4.417111158370972,1.3828367183454155,[1.48817239],5.0,0.5,0.16473054155497668,-5.0,5.0,0.5904366925697714
4.478981018066406,1.4078477540877092,[1.48386228],5.0,0.5,0.13851240643433352,-5.0,-4.9,0.7965874767371515
4.543046951293945,1.4281692206283225,[1.48712836],5.0,0.5,0.11229427131369034,-5.0,-4.9990000000000006,0.980688779600931
4.60792088508606,1.403744381036239,[1.49709077],5.0,0.5,0.08607613619304716,-5.0,-4.99999,0.6567775188333678
4.670957565307617,1.3781471491437352,[1.51289873],5.0,0.5,0.05985800107240398,-5.0,-4.999999900000001,0.5082059198103108
4.734980821609497,1.352745315967968,[1.53373787],5.0,0.5,0.0336398659517608,-5.0,-4.999999999,0.48315980452187407
4.799521446228027,1.3265618879252543,[1.55884202],5.0,0.5,0.0074217308311176206,-5.0,-2.6722524258627107,0.4817526499151365
4.864849328994751,1.3001830611658038,[1.58749706],5.0,0.5,0.0,-5.0,1.777187315080446,0.4817321297097763
4.92708158493042,1.2771260125908765,[1.61904133],5.0,0.5,0.0,-0.2604621172333266,1.995685594444507,0.4999495021051528
4.991156578063965,1.2915855176293904,[1.6528672],5.0,0.5,0.0,5.0,2.0172310257076758,0.4817320621285358
5.054980754852295,1.317182749521894,[1.68842123],5.0,0.5,0.0,5.0,2.10150973713119,0.48173206212500524
5.118975400924683,1.3429753801311346,[1.72520265],5.0,0.5,0.0,5.0,2.1719500479832816,0.4817320621241397
5.183453321456909,1.3687680107403752,[1.76276111],5.0,0.5,0.0,5.0,2.19658162871761,0.48173206212396835
5.246948003768921,1.3943652426328788,[1.80069457],5.0,0.5,0.0,5.0,2.2111979720137254,0.48173206212394004
5.311161279678345,1.4203532719588559,[1.83864664],5.0,0.5,0.0,5.0,2.229405543009853,0.4817320621239361
5.37501859664917,1.4459505038513598,[1.87630405],5.0,0.5,0.0,5.0,2.251604507644489,0.48173206212393554
5.4405763149261475,1.4725247293275467,[1.91339413],5.0,0.5,0.0,3.1769465804412067,2.276753582649605,0.49254294007754873
5.502957820892334,1.4971449676363673,[1.94968235],5.0,0.5,0.0,0.4211776908294318,2.311613876369433,0.4998679677432432
5.5670623779296875,1.5227421995288712,[1.98496957],5.0,0.5,0.0,-2.116383623403107,2.3425613102924085,0.4966768631428182
5.633107423782349,1.5493164250050584,[2.01908933],5.0,0.5,0.0,-4.0761488451785794,2.366457529851825,0.4877835120054913
5.6955060958862305,1.5745228594640888,[2.05190529],5.0,0.5,0.0,-5.0,2.3933987313592926,0.4817320621239355
5.75967812538147,1.6003154900733294,[2.08330864],5.0,0.5,0.0,-5.0,2.4134453843578307,0.4817320621239355
5.823849201202393,1.6261081206825696,[2.11321575],5.0,0.5,0.0,-5.0,2.427814659504075,0.4817320621239355
5.886977434158325,1.6507283589913901,[2.14156562],5.0,0.5,0.0,-5.0,2.4412778682519507,0.4817320621239355
5.95099663734436,1.676911787034104,[2.16831763],5.0,0.5,0.0,-5.0,2.4399620203270302,0.4817320621239355
6.015351057052612,1.702509018926608,[2.19344212],5.0,0.5,0.0,-5.0,2.3322069190276937,0.4817320621239355
6.078948259353638,1.728497048252585,[2.21679575],5.0,0.5,0.0,-5.0,1.882605583059466,0.4817320621239355
6.145368814468384,1.755071273728772,[2.23781359],5.0,0.5,0.0,-4.943767587528633,0.568372990451139,0.482133261905333
6.207039833068848,1.7802777081878027,[2.25541855],5.0,0.5,0.0,-4.836451408662261,-0.6247001286417493,0.4828872368355701
6.271035194396973,1.8050933452133597,[2.26833737],5.0,0.5,0.0,-5.0,-1.6248950941891451,0.4817320621239355
6.336621999740601,1.8105645092819864,[2.27537607],5.0,0.5,0.0,-5.0,-2.2765605421882174,0.4817320621239355
6.400526762008667,1.7873120619903229,[2.27553991],5.0,0.5,0.0,-5.0,-2.474945020207166,0.4817320621239355
6.463045835494995,1.7619102288145554,[2.26804851],5.0,0.5,0.0,-5.0,-2.7439565555166827,0.4817320621239355
6.5269880294799805,1.7361175982053152,[2.25225196],5.0,0.5,0.0,-5.0,-2.941109707769082,0.4817320621239355
6.592432260513306,1.7097387714458647,[2.22769532],5.0,0.5,0.0,-5.0,-2.786203284099913,0.4817320621239355
6.655061721801758,1.6843369382700975,[2.19437337],5.0,0.5,0.0,-5.0,-1.994265955611868,0.4817320621239355
6.718990087509155,1.6583489089441203,[2.15295665],5.0,0.5,0.0,-2.13292703366331,-0.6751549245993704,0.49662488372671715
6.7830283641815186,1.6323608796181432,[2.10485577],5.0,0.5,0.0,2.5900106068420814,1.0987668474711252,0.495031298663449
6.847071647644043,1.6073498438758493,[2.05211709],5.0,0.5,0.0,5.0,2.9213207158412344,0.4817320621239355
6.912755727767944,1.6128210079444762,[1.99713909],5.0,0.5,0.0,5.0,4.264420704177291,0.4817320621240837
6.976582765579224,1.6380274424035066,[1.9423086],5.0,0.5,0.0,5.0,4.992757381330084,0.4817320712019977
7.0390496253967285,1.6632338768625372,[1.88973338],5.0,0.5,0.0,5.0,5.254161545622939,0.48176705363012823
7.103545188903809,1.688831108755041,[1.84120146],5.0,0.5,0.0,5.0,5.4778031787211585,0.49135750941484874
7.169076442718506,1.7154053342312279,[1.7983081],5.0,0.5,0.0,5.0,5.682556532827199,0.7346794723066304
7.232304334640503,1.7404163699735218,[1.76238577],5.0,0.5,0.0,5.0,5.285149615117395,1.3897139149085955
7.296095371246338,1.7664043992994989,[1.73418535],5.0,0.5,0.0,5.0,4.240927426127877,1.2942531219754998
7.359668970108032,1.7921970299087393,[1.7137665],5.0,0.5,0.0,3.4609801193978917,3.0654147781762213,0.7833761234181577
7.424480676651001,1.8181850592347166,[1.70072838],5.0,0.5,0.0,0.7997292522409483,2.0377008962174723,0.5628656612176803
7.487061500549316,1.843391493693747,[1.69446788],5.0,0.5,0.0,-2.0028774385324333,1.208985851035018,0.5088700998827833
7.551008462905884,1.8695749217364608,[1.69431414],5.0,0.5,0.0,-4.294470904000995,0.5765619489394486,0.4886060602647133
7.616058349609375,1.8949767549122283,[1.69958921],5.0,0.5,0.0,-5.0,0.10021776657355794,0.48221517570548916
7.681106090545654,1.9213555816716783,[1.70963223],5.0,0.5,0.0,-5.0,-0.26083291258528624,0.48185982234961255
7.742944002151489,1.9440218328131322,[1.72380865],5.0,0.5,0.0,-5.0,-0.5123218464040384,0.4817934210736328
7.808146715164185,1.9575043442679625,[1.74151696],5.0,0.5,0.0,-5.0,-0.6427297549603492,0.48182077460700706
7.871090888977051,1.9535963699332293,[1.76219366],5.0,0.5,0.0,-5.0,-0.6290764495836036,0.48238960591743996
7.934971570968628,1.9330795046758789,[1.78531607],5.0,0.5,0.0,-5.0,-0.48724542830201056,0.49442376731284327
7.999723672866821,1.9070914753499015,[1.81040286],5.0,0.5,0.0,-5.0,-0.2897464102660119,0.6358961819856899
8.06291937828064,1.8814942434573978,[1.83701261],5.0,0.5,0.0,-5.0,0.06736470408802735,1.154925051008726
8.126932382583618,1.8558970115648938,[1.86474261],5.0,0.5,0.0,-5.0,0.3379555163334154,1.4662049463312699
8.190999984741211,1.8377249309083836,[1.89322898],5.0,0.5,0.0,3.7636452806200893,0.5322640359622899,1.0295909707206143
8.255054473876953,1.8328399629899665,[1.92214555],5.0,0.5,0.0,5.0,0.6484605506676918,0.6846207756178707
8.320441007614136,1.8439776898439573,[1.95120216],5.0,0.5,0.0,5.0,0.6832677417008598,0.5820493292092493
8.384151935577393,1.868402529436041,[1.9801428],5.0,0.5,0.0,5.0,0.6560025127108111,0.5640490790450753
8.44742727279663,1.8936089638950713,[2.00875602],5.0,0.5,0.0,5.0,0.7819052314128078,0.5522583967490973
8.511031150817871,1.9190107970708385,[2.03684865],5.0,0.5,0.0,5.0,0.43123387872771224,0.5439474984232033
8.575254678726196,1.944803427680079,[2.06414321],5.0,0.5,0.0,5.0,0.2269999953517152,0.539669204226059
8.640289068222046,1.9711822544395294,[2.09031655],5.0,0.5,0.0,5.0,0.24783096443020744,0.5402398119517173
8.703019618988037,1.9963886888985598,[2.11517005],5.0,0.5,0.0,4.962109924143396,0.32461616436052193,0.5415014791328161
8.767792701721191,2.0229629143747467,[2.13862959],5.0,0.5,0.0,2.408252684186001,0.37528286373730485,0.564556071043039
8.832358837127686,2.048560146267251,[2.16066434],5.0,0.5,0.0,-0.7754504989088395,0.25716683929206063,0.5805393088320618
8.895937204360962,2.0741573781597546,[2.18127072],5.0,0.5,0.0,-3.547755064919002,0.2768074596764262,0.59151411708348
8.959263324737549,2.099950008768995,[2.20046841],5.0,0.5,0.0,-5.0,0.36729313892525944,0.6142827898293677
9.024065971374512,2.1257426393782355,[2.21829515],5.0,0.5,0.0,-5.0,0.4570664197043333,0.6620211764937766
9.088568210601807,2.1519260674209493,[2.23480056],5.0,0.5,0.0,-5.0,0.4986880733112448,0.7349167311882848
9.150979280471802,2.176350907013033,[2.25004102],5.0,0.5,0.0,-5.0,0.5165381571971428,0.8192803561112061
9.215651512145996,2.2029251324892205,[2.26407743],5.0,0.5,0.0,-5.0,0.4909765177376628,0.9550818139506634
9.279037237167358,2.228131566948251,[2.2769732],5.0,0.5,0.0,-5.0,0.45020492416338925,1.1023118470936457
9.345154047012329,2.2549011911411747,[2.28879264],5.0,0.5,0.0,-5.0,0.3864392634284927,1.276483364657314
9.408315658569336,2.2803030243169418,[2.29959948],5.0,0.5,0.0,-5.0,0.31419567353977035,1.409966769780334
9.471015691757202,2.305509458775972,[2.30945612],5.0,0.5,0.0,-5.0,0.23841864076874184,1.4786216840448065
9.535037994384766,2.3311066906684763,[2.31842362],5.0,0.5,0.0,-5.0,0.15022709478311688,1.4500720018998436
9.599959135055542,2.357680916144663,[2.32656049],5.0,0.5,0.0,-4.953967695171338,0.04634953311673751,1.3059689754427874
9.665018558502197,2.382301154453484,[2.33392134],5.0,0.5,0.0,-5.0,-0.05740940681406847,1.1079096735717848
9.726963996887207,2.4030134184275704,[2.34055663],5.0,0.5,0.0,-5.0,-0.15034577607617175,0.940060078456977
9.791036128997803,2.416886727315874,[2.34651322],5.0,0.5,0.0,-5.0,-0.2068691086561729,0.85312821969471
9.855474710464478,2.4207947016506077,[2.35183562],5.0,0.5,0.0,-5.0,-0.2132171945040489,0.8680591626977316
9.919567346572876,2.416886727315874,[2.35656632],5.0,0.5,0.0,-5.0,-0.18257665585340294,0.9647456884557485
9.983285188674927,2.407898386345987,[2.36074592],5.0,0.5,0.0,-5.0,-0.1263728935349905,1.1227671486207642
10.047196626663208,2.3969560582087337,[2.36441383],5.0,0.5,0.0,-5.0,-0.06029427529971608,1.290859136095163
10.111071348190308,2.385622932638007,[2.3676223],5.0,0.5,0.0,-5.0,0.15890885566527163,1.418982662287021
10.175026655197144,2.3766345916681204,[2.37038624],5.0,0.5,0.0,-3.2329254831670573,-0.2920428998296437,1.4845019061157134
10.238988161087036,2.37370361091707,[2.37243019],5.0,0.5,0.0,5.0,-1.0869362418539432,1.4814077925621507
10.30382513999939,2.3662784596810766,[2.37291256],5.0,0.5,0.0,5.0,-2.484729409309668,1.4729684429593868
10.369329452514648,2.3426352149559393,[2.37055445],5.0,0.5,0.0,-5.0,-3.44371399456941,1.3373795641958306
10.431062936782837,2.318601172797329,[2.36408385],5.0,0.5,0.0,-5.0,-3.9780653797938803,1.1429083612351003
10.49504280090332,2.2930039409048253,[2.35243409],5.0,0.5,0.0,-5.0,-4.4835290052047485,0.9751550052949831
10.559722423553467,2.2674067090123216,[2.33467845],5.0,0.5,0.0,-4.131202767553286,-4.846008420261293,0.891957991797373
10.623122453689575,2.2414186796863445,[2.31005754],5.0,0.5,0.0,-0.5104684601666842,-4.980568228785452,0.8895526315192297
10.686975479125977,2.2158214477938407,[2.27799743],5.0,0.5,0.0,3.590614048147792,-5.248628501886414,0.9520416876119218
10.751024961471558,2.1900288171846003,[2.23802548],5.0,0.5,0.0,5.0,-5.487239151504849,1.1125512991938407
10.814976692199707,2.1642361865753594,[2.18976063],5.0,0.5,0.0,5.0,-5.718236786556042,1.3595646261933092
10.880339860916138,2.1382481572493823,[2.13300632],5.0,0.5,0.0,5.0,-5.660081643190506,1.4762517563699
10.943012714385986,2.1126509253568786,[2.06798072],5.0,0.5,0.0,5.0,-4.925906656594199,1.1526653746682274
11.007019758224487,2.086858294747638,[1.99546648],5.0,0.5,0.0,5.0,-4.115089594342641,0.6698863783055359
11.070995569229126,2.060284069271451,[1.91660907],5.0,0.5,0.0,5.0,-3.485442070791685,0.4978390651795996
11.134957790374756,2.034882236095684,[1.83264926],5.0,0.5,0.0,5.0,-3.0551811341595974,0.4820123663497285
11.20007848739624,2.0085034093362335,[1.74464929],5.0,0.5,0.0,5.0,-3.4908219476506543,0.48173295949262523
11.26329779624939,1.9832969748772031,[1.65344409],5.0,0.5,0.0,5.0,-3.2943951947158543,0.48173206247833894
11.32824969291687,1.9571135468344893,[1.56022825],5.0,0.5,0.0,5.0,-1.9790230685590848,0.4817320621239563
11.393351078033447,1.9307347200750387,[1.46696018],5.0,0.5,0.0,5.0,-0.4774258577060589,0.4817320621239355
11.454966306686401,1.905528285616008,[1.37593474],5.0,0.5,0.0,5.0,0.3372235018853299,0.4817320621239355
11.520461082458496,1.8797356550067679,[1.28926237],5.0,0.5,0.0,5.0,0.9727995796202034,0.4817320621239355
11.583074808120728,1.8664485422686738,[1.20875101],5.0,0.5,0.0,5.0,1.1567007501886943,0.4817320621239355
11.64729905128479,1.8799310537235043,[1.1359337],5.0,0.5,0.0,5.0,1.2254336684457936,0.4817320621239355
11.711095809936523,1.9051374881825347,[1.07212199],5.0,0.5,0.0,5.0,1.1280484070052668,0.4817320621239355
11.775007009506226,1.931125517508512,[1.01842106],5.0,0.5,0.0,5.0,0.9732377733333746,0.4817320621239355
11.840336084365845,1.9573089455512258,[0.97571345],5.0,0.5,0.0,5.0,0.7998138929477444,0.4817320621239355
11.903080224990845,1.9827107787269929,[0.94464658],5.0,0.5,0.0,5.0,0.49405144300126724,0.4817320621239355
11.96695351600647,2.007917213186023,[0.92566978],5.0,0.5,0.0,4.6225012081642625,0.45415538034989494,0.4843443475924028
12.030977010726929,2.0341006412287372,[0.91890863],5.0,0.5,0.0,0.13515020151202872,-0.551674977369979,0.4999864032796452
12.0950448513031,2.0589162782542942,[0.9238614],5.0,0.5,0.0,-5.0,-1.6928518093769598,0.4817320621239355
12.159757614135742,2.067318423073971,[0.9395077],5.0,0.5,0.0,-5.0,-2.6027544268088114,0.4817320621239355
12.223007202148438,2.044261374499044,[0.9646353],5.0,0.5,0.0,-5.0,-3.133997210995522,0.4817320621239355
12.288515090942383,2.017882547739594,[0.99799433],5.0,0.5,0.0,-5.0,-3.408492788157512,0.4817320621239355
12.351044416427612,1.992676113280563,[1.03837208],5.0,0.5,0.0,-5.0,-3.52295520827053,0.4817320621239355
12.414998769760132,1.9668834826713226,[1.08461996],5.0,0.5,0.0,-5.0,-3.484969758530168,0.4817320621239355
12.479008674621582,1.9410908520620822,[1.13566628],5.0,0.5,0.0,-5.0,-3.33901154365201,0.4817320621239355
12.544520139694214,1.9149074240193684,[1.19052245],5.0,0.5,0.0,-5.0,-3.1105172330355595,0.4817320621239355
12.608973026275635,1.888919394693391,[1.24828288],5.0,0.5,0.0,-4.157180155222759,-2.8210992847761784,0.4872992543995056
12.671000957489014,1.8639083589510974,[1.30812441],5.0,0.5,0.0,-1.229110514294578,-2.4941470910434758,0.4988766884155897
12.735558032989502,1.8377249309083836,[1.36930431],5.0,0.5,0.0,2.1048640150680287,-2.1280154827628457,0.4967128219159215
12.799304723739624,1.8117369015824063,[1.43115791],5.0,0.5,0.0,4.634788030068142,-1.6285699767758792,0.48426233556830295
12.862965822219849,1.786530467123376,[1.49309537],5.0,0.5,0.0,5.0,-1.1666268394464752,0.4817320953201114
12.926966667175293,1.7607378365141355,[1.55459796],5.0,0.5,0.0,5.0,-0.7588279549277981,0.48193578910358864
12.99094820022583,1.7349452059048949,[1.61521389],5.0,0.5,0.0,5.0,-0.3689591988586184,0.5385946427042458
13.05500054359436,1.708957176578918,[1.67455387],5.0,0.5,0.0,5.0,0.017206215637024187,1.2709462543672607
13.118902206420898,1.6833599446864143,[1.73230013],5.0,0.5,0.0,5.0,0.5272866690571983,1.1011170227615894
13.183008193969727,1.6659694588968506,[1.7880863],5.0,0.5,0.0,5.0,0.19910606941463033,0.5323978340363688
13.246955633163452,1.6655786614633772,[1.84116465],5.0,0.5,0.0,5.0,-0.7672345850768375,0.4838314951527585
13.311124086380005,1.6728084139826338,[1.89029095],5.0,0.5,0.0,5.0,-1.7794099913420194,0.48180998969850675
13.375015020370483,1.6626476807123272,[1.9340159],5.0,0.5,0.0,0.5936128756306314,-2.4867743356719685,0.4997381611951956
13.43928861618042,1.6374412462532968,[1.97097685],5.0,0.5,0.0,-5.0,-2.861739835083516,0.4817320623413534
13.503623485565186,1.6122348117942664,[2.00000778],5.0,0.5,0.0,-5.0,-3.0690998979646618,0.4817320621240224
13.567919969558716,1.5860513837515526,[2.020194],5.0,0.5,0.0,-5.0,-3.0007663468411345,0.48173206212393554
13.630943298339844,1.5610403480092587,[2.03096696],5.0,0.5,0.0,-5.0,-2.600964076309749,0.4817320621239355
13.695085525512695,1.5348569199665447,[2.03230567],5.0,0.5,0.0,-5.0,-1.4386732764957588,0.4817320621239355
13.76089358329773,1.5084780932070943,[2.02499977],5.0,0.5,0.0,-4.153366782592036,0.43960243640454877,0.48732224665174606
13.82517385482788,1.483076260031327,[2.01076983],5.0,0.5,0.0,-1.2232812516748723,2.8740999525931437,0.4988873062995352
13.88697624206543,1.4752603113618603,[1.99193822],5.0,0.5,0.0,5.0,4.445665452446615,0.4817320621239355
13.950919389724731,1.498512758653524,[1.97084754],5.0,0.5,0.0,5.0,5.494826729040022,0.4817320621239355
14.01508617401123,1.5235237943958178,[1.94962007],5.0,0.5,0.0,5.0,6.153980381474143,0.48173206212393566
14.080446720123291,1.5493164250050584,[1.93014515],5.0,0.5,0.0,5.0,6.546733654999701,0.4817320621241883
14.142954349517822,1.5745228594640888,[1.91394676],5.0,0.5,0.0,5.0,6.291068100063049,0.48173206222236137
14.206904172897339,1.600510888790066,[1.90194699],5.0,0.5,0.0,5.0,5.385417275783937,0.4817320749377108
14.272443056106567,1.6272805129829897,[1.89441656],5.0,0.5,0.0,2.7704487537390055,4.395631449450598,0.4943195924385967
14.334964275360107,1.6520961500085467,[1.89121631],5.0,0.5,0.0,-1.9887869370986921,3.5263612551796806,0.4970751472309096
14.400553226470947,1.6790611729182072,[1.89202677],5.0,0.5,0.0,-5.0,2.8083207732208644,0.4818470287491159
14.464449405670166,1.7046584048107114,[1.89645485],5.0,0.5,0.0,-5.0,2.2514801612962287,0.48237006018375084
14.527953147888184,1.7304510354199514,[1.90408525],5.0,0.5,0.0,-5.0,1.8215330232137654,0.4841381137397165
14.590950965881348,1.755657469878982,[1.91450399],5.0,0.5,0.0,-5.0,1.4928460879390288,0.4881642319576539
14.655033588409424,1.7818408979216962,[1.92731065],5.0,0.5,0.0,-5.0,1.240889978917057,0.4962511677017321
14.719572067260742,1.8074381298141997,[1.94212634],5.0,0.5,0.0,-5.0,1.0507628948566123,0.5082964827168976
14.782953023910522,1.8332307604234404,[1.95859681],5.0,0.5,0.0,-5.0,0.9032152591990626,0.5248709907724696
14.847059488296509,1.8592187897494172,[1.97639371],5.0,0.5,0.0,-5.0,0.7895442373937227,0.5459166233657472
14.910993814468384,1.8850114203586577,[1.9952158],5.0,0.5,0.0,-5.0,0.7807803994022421,0.5698568781005043
14.976775646209717,1.9111948484013719,[2.01478889],5.0,0.5,0.0,-5.0,0.7723191617669926,0.5986427529259781
15.039178371429443,1.9364012828604023,[2.03486508],5.0,0.5,0.0,-5.0,0.7164350380808246,0.625576374976156
15.102986097335815,1.9619985147529058,[2.05522193],5.0,0.5,0.0,-5.0,0.6471589310434575,0.6575825748484525
15.167091131210327,1.9875957466454097,[2.07566163],5.0,0.5,0.0,-5.0,0.5843861955300326,0.6937424362365212
15.232095003128052,2.0137791746881235,[2.09600987],5.0,0.5,0.0,-5.0,0.5213761522147605,0.740356706620182
15.295826435089111,2.0393764065806272,[2.11611402],5.0,0.5,0.0,-5.0,0.4671025598714982,0.7897084248446711
15.359124898910522,2.064973638473131,[2.1358416],5.0,0.5,0.0,-5.0,0.41452791261763944,0.8479767847428148
15.42295527458191,2.090961667799108,[2.15507902],5.0,0.5,0.0,-5.0,0.36280948449706196,0.92119275361054
15.487071752548218,2.116754298408349,[2.17373038],5.0,0.5,0.0,-5.0,0.3127855410154566,1.0041670202889805
15.550915479660034,2.1425469290175894,[2.19171622],5.0,0.5,0.0,-5.0,0.26254966429359755,1.0983388343416918
15.615894079208374,2.168534958343566,[2.20897219],5.0,0.5,0.0,-5.0,0.21000683504585546,1.2027913266201395
15.679428339004517,2.19413219023607,[2.22544395],5.0,0.5,0.0,-4.617593411933793,0.10245376415270369,1.3063192121103162
15.744176387786865,2.2201202195620473,[2.24091368],5.0,0.5,0.0,-4.607762159064025,-0.6487912269582764,1.4016022446753942
15.807021856307983,2.242200274553291,[2.25465473],5.0,0.5,0.0,-5.0,-2.080031496031476,1.4511856128186351
15.870896100997925,2.2447404578708676,[2.26543328],5.0,0.5,0.0,-5.0,-3.1800732852083535,1.3996579588338207
15.934930086135864,2.219729422128574,[2.27187026],5.0,0.5,0.0,-5.0,-4.012276372244192,1.0623087992118752
16.000333070755005,2.193155196652387,[2.27273153],5.0,0.5,0.0,-5.0,-4.291831245085263,0.763554361814798
16.06475830078125,2.1673625660431464,[2.26703594],5.0,0.5,0.0,-5.0,-4.618771190817115,0.6188441886581766
16.127013444900513,2.1421561315841156,[2.25401248],5.0,0.5,0.0,-5.0,-4.7189039295550135,0.5636228720765096
16.19144034385681,2.116168102258139,[2.23301546],5.0,0.5,0.0,-5.0,-5.083850313205682,0.5469082516900718
16.2550311088562,2.0905708703656347,[2.20351412],5.0,0.5,0.0,-1.1443425425235443,-5.099136316543507,0.5770113941424038
16.319021940231323,2.064582841039658,[2.16518002],5.0,0.5,0.0,3.7964915513370068,-5.156656715516742,0.6215163707716456
16.383134841918945,2.038204014280207,[2.1178238],5.0,0.5,0.0,5.0,-5.429857097453269,0.7631647028791596
16.44697141647339,2.0126067823877034,[2.06150598],5.0,0.5,0.0,5.0,-4.711005362244578,1.1016139259774849
16.51089072227478,1.9868141517784632,[1.99686529],5.0,0.5,0.0,5.0,-3.907669872079592,1.4617297332148795
16.57640767097473,1.9604353250190127,[1.92499218],5.0,0.5,0.0,5.0,-3.1993098857866435,1.2595651785504365
16.63903284072876,1.9350334918432452,[1.84712278],5.0,0.5,0.0,5.0,-2.6993040007455003,0.6949034981587848
16.703738927841187,1.9088500638005315,[1.76450502],5.0,0.5,0.0,5.0,-2.3925559996915067,0.49722922608923253
16.76731276512146,1.883252831908028,[1.67832857],5.0,0.5,0.0,5.0,-2.2477266393842372,0.4819572015551672
16.83102798461914,1.8572648025820506,[1.58969643],5.0,0.5,0.0,5.0,-2.2334289175009623,0.4817326668038953
16.895001888275146,1.8310813745393368,[1.49961191],5.0,0.5,0.0,5.0,-2.3110754410762646,0.48173206241011524
16.96013641357422,1.8047025477798866,[1.40897621],5.0,0.5,0.0,5.0,-2.454540835538751,0.48173206212396047
17.024378776550293,1.779300714604119,[1.31858619],5.0,0.5,0.0,5.0,-2.6692375130848336,0.4817320621239355
17.088205814361572,1.7527264891279322,[1.22907457],5.0,0.5,0.0,5.0,-3.1550491698875045,0.4817320621239355
17.15099024772644,1.7275200546689018,[1.14104536],5.0,0.5,0.0,5.0,-2.6571045540847376,0.4817320621239355
17.21500873565674,1.701336626626188,[1.05550656],5.0,0.5,0.0,5.0,-1.8378872119451715,0.4817320621239355
17.280901432037354,1.6747624011500006,[0.97401333],5.0,0.5,0.0,5.0,-0.6680572609463286,0.4817320621239355
17.342995166778564,1.6495559666909703,[0.89829897],5.0,0.5,0.0,5.0,-0.07226195169586017,0.4817320621239355
17.40706706047058,1.6239587347984663,[0.82994294],5.0,0.5,0.0,5.0,0.5845061109702072,0.4817320621239355
17.471670627593994,1.600510888790066,[0.7703252],5.0,0.5,0.0,5.0,0.8789518624350492,0.4817320621239355
17.535292625427246,1.595821319588386,[0.72051677],5.0,0.5,0.0,5.0,0.701418436183325,0.4817320621239355
17.598940134048462,1.6145795963951064,[0.6813083],5.0,0.5,0.0,5.0,0.8568435769296003,0.4817320621239355
17.663573741912842,1.64017682828761,[0.65340078],5.0,0.5,0.0,5.0,0.7642546583498008,0.4817320621239355
17.72697949409485,1.666164857613587,[0.63731322],5.0,0.5,0.0,5.0,0.5351758168307856,0.4817320621239355
17.791478395462036,1.6915666907893543,[0.63333479],5.0,0.5,0.0,5.0,0.5089533227751203,0.4817320621239355
17.855465173721313,1.7179455175488048,[0.64154691],5.0,0.5,0.0,5.0,0.071014171309692,0.4817320621239355
17.919336795806885,1.7429565532910987,[0.66156681],5.0,0.5,0.0,2.9258446425913,-0.9800339309820859,0.49366794612350384
17.984399795532227,1.7656228044325524,[0.69242419],5.0,0.5,0.0,-5.0,-1.973877255706192,0.4817320621239355
18.046939373016357,1.7607378365141355,[0.73282748],5.0,0.5,0.0,-5.0,-2.581345904499363,0.4817320621239355
18.110980987548828,1.7353360033383685,[0.78142717],5.0,0.5,0.0,-5.0,-2.8607316429371727,0.4817320621239355
18.175837755203247,1.7091525752956547,[0.83690834],5.0,0.5,0.0,-5.0,-2.943622398801228,0.4817320621239355
18.239866495132446,1.6831645459696776,[0.89802562],5.0,0.5,0.0,-5.0,-2.8744995868594563,0.4817320621239355
18.30350089073181,1.6571765166437002,[0.96362055],5.0,0.5,0.0,-5.0,-2.687845917487408,0.4817320621239355
18.36708116531372,1.6317746834679334,[1.03262811],5.0,0.5,0.0,-5.0,-2.4156644270542946,0.4817320621239355
18.430898666381836,1.605786654141956,[1.10407806],5.0,0.5,0.0,-5.0,-2.0768958761068017,0.4817320621239355
18.494983196258545,1.579798624815979,[1.17709407],5.0,0.5,0.0,-3.5730209042125516,-1.68876387466178,0.4905863713098834
18.560927152633667,1.5532243993397916,[1.25089201],5.0,0.5,0.0,-1.338920627931921,-1.265378175354172,0.49866729766402124
18.623882293701172,1.527627167447288,[1.3247758],5.0,0.5,0.0,1.5747757425454345,-0.8138259525492831,0.49842395776453
18.687877416610718,1.5020299355547841,[1.39813279],5.0,0.5,0.0,3.5827257166955357,-0.22623162242138184,0.605985022530679
18.75096082687378,1.4768235010957538,[1.47042942],5.0,0.5,0.0,5.0,0.26353651207335466,1.4735885452622322
18.815163373947144,1.4516170666367234,[1.54120576],5.0,0.5,0.0,5.0,0.7140938364912494,0.682576027235147
18.879072189331055,1.4367667641647361,[1.61007075],5.0,0.5,0.0,5.0,1.0913519518524455,0.4841938822082801
18.945143699645996,1.44477811155094,[1.67669728],5.0,0.5,0.0,5.0,1.335909861044401,0.48175335153898424
19.00690722465515,1.4686167549928135,[1.7408169],5.0,0.5,0.0,5.0,1.4889488900255994,0.4817324288744205
19.071269512176514,1.4928461958681607,[1.80221484],5.0,0.5,0.0,5.0,1.6421352746268765,0.48173206698605137
19.134998083114624,1.517661832893718,[1.86072546],5.0,0.5,0.0,5.0,1.7877835129218358,0.48173206218382436
19.200181484222412,1.5434544635029583,[1.91622752],5.0,0.5,0.0,5.0,1.9199798416943914,0.48173206212478686
19.263595819473267,1.5694424928289352,[1.96863961],5.0,0.5,0.0,5.0,2.0401338547159593,0.48173206212394987
19.327019929885864,1.5948443260047027,[2.0179158],5.0,0.5,0.0,2.1436024320985325,2.149374324626284,0.49659112967201113
19.391051530838013,1.6208323553306796,[2.0640417],5.0,0.5,0.0,-2.175749296806302,2.2446350586520945,0.4964884822769226
19.45496153831482,1.6462341885064469,[2.10703081],5.0,0.5,0.0,-5.0,2.3260592571175143,0.4817320621239355
19.520429611206055,1.6726130152658973,[2.14692075],5.0,0.5,0.0,-5.0,2.3895790721049495,0.4817320621239355
19.583024501800537,1.6974286522914546,[2.18377006],5.0,0.5,0.0,-5.0,2.446356662636371,0.4817320621239355
19.646958351135254,1.7232212829006948,[2.21765511],5.0,0.5,0.0,-5.0,2.4829523524383617,0.4817320621239355
19.711065769195557,1.7488185147931987,[2.24866717],5.0,0.5,0.0,-5.0,2.507742745005593,0.4817320621239355
19.775036096572876,1.7750019428359125,[2.27690992],5.0,0.5,0.0,-5.0,2.515037733979746,0.4817320621239355
19.839489936828613,1.800794573445153,[2.30249708],5.0,0.5,0.0,-5.0,2.513261553384796,0.4817320621239355
19.90333604812622,1.8263918053376569,[2.32555025],5.0,0.5,0.0,-5.0,2.4986804494788912,0.4817320621239355
19.967009782791138,1.8519890372301604,[2.3461968],5.0,0.5,0.0,-5.0,2.471470049131318,0.4817320621239355
20.03134846687317,1.8781724652728744,[2.36456799],5.0,0.5,0.0,-5.0,2.4310643756431554,0.4817320621239355
20.095011711120605,1.903183501015168,[2.38079755],5.0,0.5,0.0,-5.0,2.385236773476449,0.4817320621239355
20.15993022918701,1.9295623277746186,[2.39502012],5.0,0.5,0.0,-5.0,2.3218862029630514,0.4817320621239355
20.222983598709106,1.9545733635169122,[2.40736987],5.0,0.5,0.0,-5.0,2.2546906528860746,0.4817320621239355
20.287001609802246,1.9803659941261529,[2.41797938],5.0,0.5,0.0,-5.0,2.175496183178622,0.4817320621239355
20.352275371551514,2.0065494221688667,[2.42697886],5.0,0.5,0.0,-5.0,2.0862036668438484,0.48173206212393593
20.415018558502197,2.0321466540613704,[2.43449544],5.0,0.5,0.0,-5.0,1.9927872870761543,0.48173206212394415
20.48028826713562,2.057939284670611,[2.44065248],5.0,0.5,0.0,-5.0,1.8919941214777167,0.48173206212412506
20.54332447052002,2.084122712713325,[2.44556911],5.0,0.5,0.0,-5.0,1.7832065720327908,0.4817320621284276
20.60699439048767,2.1093291471723554,[2.44935618],5.0,0.5,0.0,-5.0,1.6230030263791027,0.4817320622146161
20.670915126800537,2.1353171764983325,[2.45202154],5.0,0.5,0.0,-5.0,1.1583003148959987,0.4817320640644147
20.73555278778076,2.1609144083908363,[2.45321495],5.0,0.5,0.0,-4.881215945552031,-0.02043146615509361,0.482574639534148
20.800409078598022,2.1867070390000767,[2.45203902],5.0,0.5,0.0,-4.8381514402302646,-1.5513260713721866,0.4828761801949715
20.86317753791809,2.2033159299226934,[2.44724679],5.0,0.5,0.0,-5.0,-2.633083037471473,0.48173884945117745
20.92688250541687,2.18592544413313,[2.43766073],5.0,0.5,0.0,-5.0,-3.1359817421414444,0.48173519320791064
20.992157220840454,2.1601328135238895,[2.42232228],5.0,0.5,0.0,-5.0,-3.600089308690903,0.481733131255907
21.055797338485718,2.1347309803481225,[2.40040698],5.0,0.5,0.0,-5.0,-3.9442877877800604,0.4817328020261455
21.118897438049316,2.1087429510221454,[2.3712163],5.0,0.5,0.0,-5.0,-4.213579046080408,0.4817330998783431
21.18293261528015,2.0831457191296416,[2.33427369],5.0,0.5,0.0,-5.0,-4.132279807366286,0.481735390414168
21.246974229812622,2.056571493653454,[2.28947717],5.0,0.5,0.0,-3.464771104268203,-3.6822090113097325,0.4911625474007443
21.311062335968018,2.0311696604776874,[2.23726098],5.0,0.5,0.0,1.1766058371892885,-2.6692106666326834,0.49917505639697324
21.37511157989502,2.00518163115171,[2.17872421],5.0,0.5,0.0,5.0,-1.1755245460630215,0.48415347126961683
21.43911337852478,1.979584399259206,[2.1156142],5.0,0.5,0.0,5.0,0.4879217842795665,0.5064352960350335
21.50303554534912,1.953791768649966,[2.05016141],5.0,0.5,0.0,5.0,2.2201364072081193,0.6378066080970057
21.567013263702393,1.944803427680079,[1.98474858],5.0,0.5,0.0,5.0,3.1142110488794827,1.2085181575597561
21.63182759284973,1.9690328685554261,[1.92158914],5.0,0.5,0.0,5.0,3.7729399653751767,1.1192445335046255
21.694995880126953,1.9946301004479299,[1.86265747],5.0,0.5,0.0,5.0,3.9796177255194705,0.5124362851317648
21.75899338722229,2.0208135284906437,[1.8096132],5.0,0.5,0.0,5.0,3.8821389370055734,0.4818656012765129
21.823041439056396,2.0464107603831474,[1.76379127],5.0,0.5,0.0,5.0,3.861845126871138,0.4817321775361387
21.887068033218384,2.0723987897091245,[1.72617965],5.0,0.5,0.0,5.0,3.1497054578973205,0.4817320621626991
21.951520204544067,2.098386819035102,[1.69717573],5.0,0.5,0.0,5.0,2.0177199735579134,0.4817320621239459
22.016581296920776,2.1243748483610787,[1.67656862],5.0,0.5,0.0,3.4107739967441186,0.874033213161899,0.4914146689507294
22.078930139541626,2.149972080253583,[1.66379709],5.0,0.5,0.0,0.22308423342679462,-0.08755007313112556,0.49996295510729055
22.143339157104492,2.1749831159958766,[1.65815886],5.0,0.5,0.0,-3.4284035357585236,-0.8427127366871212,0.4913264644711225
22.206868410110474,2.1921782030687034,[1.65891222],5.0,0.5,0.0,-5.0,-1.382676186593648,0.4817320621239355
22.271050214767456,2.1849484505494465,[1.66531986],5.0,0.5,0.0,-5.0,-1.6453658385310999,0.4817320621239355
22.336393356323242,2.159155819940206,[1.67667119],5.0,0.5,0.0,-5.0,-1.7019420286961662,0.4817320621239355
22.401278018951416,2.133167790614229,[1.69229168],5.0,0.5,0.0,-5.0,-1.6733043100014418,0.4817320621239355
22.46286940574646,2.1081567548719353,[1.7115462],5.0,0.5,0.0,-5.0,-1.5862858172425813,0.4817320621239572
22.526938915252686,2.0825595229794316,[1.73384197],5.0,0.5,0.0,-5.0,-1.44498173526427,0.4817320621513271
22.591007471084595,2.056180696219981,[1.75863037],5.0,0.5,0.0,-5.0,-1.2622873536736712,0.48173208253395466
22.656394481658936,2.0299972681772673,[1.78540696],5.0,0.5,0.0,-3.1463260374305557,-0.9648710875705799,0.49269130709465303
22.71981930732727,2.00400923885129,[1.81371075],5.0,0.5,0.0,0.35855256340796116,-0.6483935246224707,0.5006196846737483
22.783071756362915,1.978998203108996,[1.8431232],5.0,0.5,0.0,4.000927852527617,-0.3996077700288074,0.5131369876363427
22.84707808494568,1.9526193763495459,[1.873267],5.0,0.5,0.0,5.0,-0.15801057089769263,0.7655677164571786
22.91096305847168,1.927022144457042,[1.90380475],5.0,0.5,0.0,5.0,0.08182610433296035,1.379530707490411
22.976966381072998,1.9010341151310648,[1.934437],5.0,0.5,0.0,5.0,0.3292593350762442,1.2817264159096513
23.03890299797058,1.8854022177921312,[1.96490012],5.0,0.5,0.0,5.0,0.5260168006559539,0.7642584310909484
23.103066205978394,1.8812988447406611,[1.99496274],5.0,0.5,0.0,5.0,0.6433137433107103,0.5572114213505903
23.167273998260498,1.892045774161178,[2.0243099],5.0,0.5,0.0,5.0,0.18773541122520956,0.5119669261323645
23.230880975723267,1.9152982214528416,[2.0522636],5.0,0.5,0.0,5.0,-0.920618817956877,0.5052050930646796
23.294968605041504,1.938159871311032,[2.07763691],5.0,0.5,0.0,5.0,-2.260542017733779,0.5021616899332235
23.359394788742065,1.9352288905599822,[2.09897157],5.0,0.5,0.0,-5.0,-3.0900568092637015,0.48642201336551383
23.42296838760376,1.9100224561009516,[2.11495457],5.0,0.5,0.0,-5.0,-3.2871555181207786,0.48195705665562244
23.487099409103394,1.8846206229251845,[2.12473559],5.0,0.5,0.0,-5.0,-2.8159856217179895,0.4817418826169317
23.550915956497192,1.8588279923159439,[2.12821342],5.0,0.5,0.0,-5.0,-1.3335488400380688,0.48173255960804867
23.6152126789093,1.8328399629899665,[2.12631332],5.0,0.5,0.0,-5.0,1.0265383720869337,0.4817320951713656
23.680817127227783,1.8076335285309364,[2.12086],5.0,0.5,0.0,-5.0,3.149250388958741,0.48173206513141376
23.743370532989502,1.8111507054321965,[2.113942],5.0,0.5,0.0,5.0,4.311560190937163,0.4817320730020489
23.806945323944092,1.8365525386079635,[2.10733378],5.0,0.5,0.0,5.0,4.676102937024187,0.48173248997289186
23.87092638015747,1.8625405679339408,[2.10220315],5.0,0.5,0.0,5.0,4.088285089769502,0.48174231829614983
23.934972524642944,1.8881377998264446,[2.09906528],5.0,0.5,0.0,5.0,3.4294647076326656,0.4818687130605066
23.998857736587524,1.9137350317189483,[2.09803015],5.0,0.5,0.0,5.0,2.7523809913845665,0.48285373044407176
24.063711166381836,1.9397230610449256,[2.09903297],5.0,0.5,0.0,5.0,2.1989267668556236,0.48797734198339526
24.12699794769287,1.9653202929374292,[2.10192408],5.0,0.5,0.0,2.881577382513365,1.7334680436763386,0.5177989725514205
24.191954851150513,1.9911129235466698,[2.10651822],5.0,0.5,0.0,-0.6973814495456265,1.3646944366285265,0.569329612545808
24.256415605545044,2.017100952872647,[2.11261595],5.0,0.5,0.0,-4.61033890656852,1.0656317782598892,0.6457037616693899
24.319016933441162,2.042111988614941,[2.1200167],5.0,0.5,0.0,-5.0,0.8269025947850058,0.7787897677190592
24.38501524925232,2.068686214091128,[2.12852364],5.0,0.5,0.0,-5.0,0.6234279421995438,0.9703846179679448
24.446914434432983,2.093501851116685,[2.13794775],5.0,0.5,0.0,-5.0,0.46080755358625636,1.1553530873792526
24.510996341705322,2.1192944817259254,[2.14811073],5.0,0.5,0.0,-5.0,0.32047472015474276,1.3287145487750407
24.574951887130737,2.1446963149016924,[2.15884734],5.0,0.5,0.0,-5.0,0.32436808762497216,1.4424731989234973
24.640429735183716,2.170879742944406,[2.1700062],5.0,0.5,0.0,-5.0,0.23954793627669815,1.4815794566734768
24.70356822013855,2.1956953799699637,[2.18144973],5.0,0.5,0.0,-5.0,0.13281922518861508,1.4419570285254038
24.766960859298706,2.220901814428994,[2.19305412],5.0,0.5,0.0,-5.0,0.023986162256790962,1.3380625872463832
24.831933736801147,2.2451312553043414,[2.20470914],5.0,0.5,0.0,-5.0,-0.07243994341243913,1.202967673850265
24.895622968673706,2.2642803295445346,[2.2163176],5.0,0.5,0.0,-5.0,-0.13467425361672283,1.112962309775766
24.95911693572998,2.276004252548735,[2.22779429],5.0,0.5,0.0,-5.0,-0.15183803744139077,1.1099676445108781
25.02289891242981,2.2787398345830487,[2.23906538],5.0,0.5,0.0,-5.0,-0.11402939990620543,1.2116577628414316
25.08702254295349,2.276004252548735,[2.25006772],5.0,0.5,0.0,-5.0,-0.05081963847449781,1.3558493051379417
25.150986671447754,2.2701422910466347,[2.26074775],5.0,0.5,0.0,-5.0,0.02737755859019025,1.4642354431774804
25.216370582580566,2.263303335960851,[2.27106058],5.0,0.5,0.0,-5.0,0.10610433173705934,1.4697692206197197
25.278879165649414,2.260567753926538,[2.28096933],5.0,0.5,0.0,-4.031495418345019,0.15897246664069314,1.4081723127733456
25.34389901161194,2.261740146226958,[2.2904444],5.0,0.5,0.0,3.994611698649843,0.1886115659251152,1.33633612556311
25.40698552131653,2.2664297154286377,[2.29946296],5.0,0.5,0.0,5.0,0.1984614086762577,1.285665316015145
25.472578763961792,2.2750272589650518,[2.30800846],5.0,0.5,0.0,5.0,0.18775702520117815,1.2862178850505066
25.535053253173828,2.2855787896688318,[2.31607016],5.0,0.5,0.0,5.0,0.1661184868822665,1.3120515881999397
25.600780963897705,2.299647497273872,[2.32364251],5.0,0.5,0.0,5.0,0.12600436656848116,1.3729626577879432
25.664994955062866,2.3143024010291224,[2.33072709],5.0,0.5,0.0,5.0,0.11784795967618228,1.429207658361118
25.72700524330139,2.3283711086341623,[2.33728075],5.0,0.5,0.0,5.0,-0.16690944987334375,1.4659810804959936
25.790953636169434,2.3420490188057297,[2.34306231],5.0,0.5,0.0,4.774703140025519,-0.8064609923117119,1.4831087536553174
25.85544514656067,2.3467385880074096,[2.34741162],5.0,0.5,0.0,-5.0,-2.068587257580845,1.4816414714472728
25.91892910003662,2.3320836842521597,[2.34922052],5.0,0.5,0.0,-5.0,-3.079076993003177,1.4246894384030027
25.9831326007843,2.306681851076392,[2.34722104],5.0,0.5,0.0,-5.0,-3.8463240055802856,1.201601707547701
26.04690957069397,2.2810846191838885,[2.34023105],5.0,0.5,0.0,-5.0,-4.376622980093436,0.9784862484641699
26.11100745201111,2.2552919885746476,[2.32722894],5.0,0.5,0.0,-5.0,-4.747130108075569,0.8369637543414905
26.175065755844116,2.229303959248671,[2.30740376],5.0,0.5,0.0,-5.0,-4.88058470016941,0.7769871039918077
26.238869428634644,2.2040975247896406,[2.2801342],5.0,0.5,0.0,-3.0865602066385422,-5.15102990471839,0.8076016768183607
26.303229331970215,2.1783048941803997,[2.24504913],5.0,0.5,0.0,0.486441656512,-4.753938324204108,0.9100862214995995
26.36692786216736,2.152707662287896,[2.2022098],5.0,0.5,0.0,4.185153211936546,-4.255882826358979,1.0996998734104317
26.431789875030518,2.1265242342451827,[2.15201597],5.0,0.5,0.0,5.0,-3.9200785966094758,1.3598575801701909
26.49491047859192,2.101122401069415,[2.09489801],5.0,0.5,0.0,5.0,-4.032081324595125,1.474013402002949
26.559720039367676,2.0755251691769114,[2.03110049],5.0,0.5,0.0,5.0,-4.50357223018988,1.1556071627783804
26.622869729995728,2.0495371398509343,[1.96082974],5.0,0.5,0.0,5.0,-4.301473758469108,0.6889880453384729
26.687066316604614,2.0239399079584306,[1.88450931],5.0,0.5,0.0,5.0,-4.377910380683938,0.5022146877972558
26.75097393989563,1.9977564799157166,[1.80283315],5.0,0.5,0.0,5.0,-3.735507773513218,0.4822330036696274
26.815126180648804,1.9721592480232129,[1.71700613],5.0,0.5,0.0,5.0,-2.485098809754369,0.4817342763163272
26.87893533706665,1.9457804212637622,[1.62895951],5.0,0.5,0.0,5.0,-0.6879104600478521,0.48173206403596947
26.942912817001343,1.920378588087995,[1.54109881],5.0,0.5,0.0,5.0,0.5474370194802591,0.48173206212425546
27.00695037841797,1.8951721536289647,[1.45583075],5.0,0.5,0.0,5.0,1.4903157519903247,0.4817320621239355
27.070943355560303,1.8883331985431815,[1.37523219],5.0,0.5,0.0,5.0,1.5736519800266962,0.4817320621239355
27.135841131210327,1.910999449684635,[1.30102307],5.0,0.5,0.0,5.0,1.8185798829773685,0.4817320621239355
27.19887948036194,1.9360104854269287,[1.23468934],5.0,0.5,0.0,5.0,1.59442791590437,0.4817320621239355
27.26298475265503,1.9616077173194326,[1.17749819],5.0,0.5,0.0,5.0,1.6205467533124291,0.4817320621239355
27.327872276306152,1.9872049492119364,[1.13051465],5.0,0.5,0.0,5.0,1.429040590342873,0.4817320621239355
27.390900373458862,2.0126067823877034,[1.09455228],5.0,0.5,0.0,5.0,1.0968899258409956,0.4817320621239355
27.455854177474976,2.038594811713681,[1.07014538],5.0,0.5,0.0,3.508440883155437,0.8850647269027492,0.4909205056437089
27.519291162490845,2.0641920436061842,[1.05747616],5.0,0.5,0.0,-0.7214833872485737,-0.06305417155442442,0.4996126611373383
27.58322048187256,2.089984674215425,[1.05612905],5.0,0.5,0.0,-5.0,-1.2690531235147036,0.4817320621239355
27.647883415222168,2.1069843625715152,[1.06517594],5.0,0.5,0.0,-5.0,-2.225079422432874,0.4817320621239355
27.711234092712402,2.092329458816265,[1.08349252],5.0,0.5,0.0,-5.0,-2.8058492761674065,0.4817320621239355
27.775541305541992,2.0663414294902878,[1.10991754],5.0,0.5,0.0,-5.0,-3.1163395280763133,0.4817320621239355
27.83897304534912,2.0409395963145207,[1.14331057],5.0,0.5,0.0,-5.0,-3.2571270034696584,0.4817320621239355
27.902901887893677,2.0151469657052803,[1.18258535],5.0,0.5,0.0,-5.0,-3.2496248393167386,0.4817320621239355
27.967118978500366,1.9889635376625665,[1.22672599],5.0,0.5,0.0,-5.0,-3.1329522610156024,0.4817320621239355
28.03088617324829,1.9637571032035361,[1.27479198],5.0,0.5,0.0,-5.0,-2.9416062210581524,0.4817320621239355
28.09500813484192,1.9375736751608224,[1.3259194],5.0,0.5,0.0,-4.9562479910151485,-2.679934205772401,0.48204458136605005
28.16064715385437,1.910999449684635,[1.37932162],5.0,0.5,0.0,-2.000975399851123,-2.374549677031321,0.4970283586055615
28.22294783592224,1.886183812659078,[1.43428657],5.0,0.5,0.0,1.630355090930297,-2.0456617208653647,0.4980252503493557
28.286887884140015,1.8603911820498373,[1.49017378],5.0,0.5,0.0,4.493820811370206,-1.575748957820709,0.48519099436921126
28.352646350860596,1.8336215578569135,[1.54641207],5.0,0.5,0.0,5.0,-1.1353398336571077,0.4817321305263622
28.415258169174194,1.8084151233978831,[1.60249673],5.0,0.5,0.0,5.0,-0.7578832083901823,0.481939541820243
28.47925329208374,1.783013290222116,[1.65798586],5.0,0.5,0.0,5.0,-0.39580267124180707,0.5256087686758582
28.54489541053772,1.7564390647459287,[1.71249649],5.0,0.5,0.0,5.0,-0.03061816007180196,1.1613735061405537
28.606855869293213,1.7318188264371084,[1.76570065],5.0,0.5,0.0,5.0,0.32391977802261385,1.2765870670404769
28.670900344848633,1.7103249675960746,[1.8173214],5.0,0.5,0.0,5.0,0.6599755481155597,0.5830342445758278
28.736135005950928,1.701336626626188,[1.86714025],5.0,0.5,0.0,5.0,1.0572014434410417,0.4858263252865974
28.8004629611969,1.7128651509136512,[1.91496283],5.0,0.5,0.0,5.0,0.7986881175665389,0.482015449812943
28.862850427627563,1.737289990505735,[1.9604697],5.0,0.5,0.0,5.0,0.520910797150966,0.48177922817153884
28.92700481414795,1.7632780198317124,[2.00299932],5.0,0.5,0.0,5.0,-0.48150895692327345,0.481742260719719
28.993162393569946,1.7892660491576893,[2.04143],5.0,0.5,0.0,5.0,-1.7658495551088298,0.4817350608241797
29.056354522705078,1.7970819978271562,[2.07437868],5.0,0.5,0.0,-5.0,-2.5726331378164278,0.48173227159304843
29.11971092224121,1.7742203479689658,[2.10055053],5.0,0.5,0.0,-5.0,-2.9778703878673265,0.481732062686634
29.18361210823059,1.7484277173597254,[2.11892456],5.0,0.5,0.0,-5.0,-2.9796612695255416,0.48173206212512965
29.247009992599487,1.7232212829006948,[2.12889712],5.0,0.5,0.0,-5.0,-2.455718189176698,0.48173206212394054
29.312429666519165,1.6966470574245076,[2.13053432],5.0,0.5,0.0,-5.0,-1.0567284300825284,0.48173206212393554
29.3749258518219,1.6718314203989504,[2.12479224],5.0,0.5,0.0,-5.0,0.9570296385910694,0.4817320621239355
29.44102430343628,1.64662498593992,[2.11353449],5.0,0.5,0.0,-5.0,3.44869942604556,0.4817320621239355
29.50337815284729,1.6495559666909703,[2.09913062],5.0,0.5,0.0,5.0,4.864127414259138,0.4817320621239355
29.56692886352539,1.6749577998667373,[2.08380328],5.0,0.5,0.0,5.0,5.562091247497144,0.48173206212393854
29.632943391799927,1.7009458291927144,[2.06939432],5.0,0.5,0.0,5.0,6.002466117720835,0.4817320621255518
29.694901943206787,1.7257614662182716,[2.05728773],5.0,0.5,0.0,5.0,5.4439708952455454,0.4817320624079678
29.759185791015625,1.751554096827512,[2.04818861],5.0,0.5,0.0,5.0,4.5503304703233525,0.48173208488062846
29.82491111755371,1.778323721020436,[2.04224324],5.0,0.5,0.0,5.0,3.6935278622448107,0.4817329533186476
29.886863708496094,1.8029439593292562,[2.03933858],5.0,0.5,0.0,3.545703321675129,2.9688372498993285,0.49074242684009595
29.95226502418518,1.8295181848054431,[2.03925249],5.0,0.5,0.0,-0.5594027974083993,2.389582105083512,0.499918188738491
