t_s,q_rad,q_des_rad,K,B,Kff,jerk,tau_Nm,reward
0.006829738616943359,-0.03126379467786724,[0.00145155],9.825212432529046,0.9790254919034855,1.9737818648793566,0.0,9.998999999999999,1.307300962219374
0.02496170997619629,-0.03126379467786724,[0.00701475],9.650424865058092,0.9580509838069711,1.9475637297587132,0.0,10.098989999999999,1.2459853243039212
0.03920722007751465,-0.03126379467786724,[0.01743405],9.475637297587138,0.9370764757104565,1.92134559463807,0.0,10.099989899999999,1.122322965149272
0.05228924751281738,-0.03126379467786724,[0.03182453],9.300849730116184,0.9161019676139419,1.8951274595174268,0.0,10.099999898999998,0.9511175262523273
0.06345224380493164,-0.03126379467786724,[0.04938648],9.12606216264523,0.8951274595174274,1.8689093243967834,0.0,10.099999998989999,0.7722884534544727
0.0797727108001709,-0.03126379467786724,[0.06940254],8.951274595174274,0.8741529514209129,1.84269118927614,0.0,6.877336380050018,0.6317640852130516
0.09323835372924805,-0.03126379467786724,[0.09123427],8.77648702770332,0.8531784433243983,1.8164730541554968,0.0,-9.930226636199498,0.5497295820069287
0.10468125343322754,-0.028528212643553853,[0.1143183],8.601699460232366,0.8322039352278838,1.7902549190348536,0.8281150790360429,-10.098302266361994,0.5163799113417008
0.11625242233276367,-0.024815637025557124,[0.13816205],8.426911892761412,0.8112294271313693,1.7640367839142101,4.515987564343221,-10.099983022663618,0.4899770993606179
0.1289832592010498,-0.021103061407560384,[0.16233916],8.252124325290458,0.7902549190348547,1.7378186487935667,5.0,-10.099999830226635,0.48292634475970103
0.14161133766174316,-0.017781283223036994,[0.18648475],8.077336757819502,0.7692804109383402,1.7116005136729235,5.0,-10.099999998302264,0.48196966199715296
0.1516716480255127,-0.01563189733893362,[0.2102907],7.902549190348549,0.7483059028418256,1.6853823785522803,5.0,-10.099999999983021,0.48176892873555477
0.16631221771240234,-0.012505517871146895,[0.23350088],7.727761622877595,0.727331394745311,1.659164243431637,5.0,-10.09999999999983,0.4817376003883742
0.17862486839294434,-0.009965334553570182,[0.25590639],7.55297405540664,0.7063568866487966,1.6329461083109935,5.0,-10.099999999999998,0.48173278679024556
0.19367289543151855,-0.0076205499527301395,[0.27734101],7.378186487935686,0.685382378552282,1.6067279731903503,4.207291846169823,-10.099999999999998,0.4869953422230248
0.20447635650634766,-0.005861961502100107,[0.29767676],7.203398920464732,0.6644078704557674,1.5805098380697071,0.2029446012745173,-10.099999999999998,0.4999693516145995
0.2213270664215088,-0.003907974334733405,[0.31681968],7.028611352993777,0.643433362359253,1.5542917029490637,-4.0771597896289515,-5.100499999999999,0.4877775273660323
0.23237347602844238,-0.002540183317576713,[0.33470575],6.853823785522822,0.6224588542627384,1.5280735678284203,-5.0,-5.050504999999999,0.4817320622561014
0.24569272994995117,-0.0015631897338933619,[0.35129713],6.679036218051868,0.6014843461662238,1.501855432707777,-5.0,-5.050005049999999,0.4817320621392521
0.2692866325378418,-0.00019539871673667023,[0.3665786],6.504248650580913,0.6,1.475637297587134,-5.0,-5.0500000505,0.4817320621260031
0.2843036651611328,0.00019539871673667023,[0.38055423],6.329461083109958,0.6,1.4494191624664907,-5.0,-5.050000000504999,0.48173206212420705
0.29822850227355957,0.00039079743347334047,[0.39324441],6.154673515639004,0.6,1.4232010273458477,-5.0,-5.050000000005049,0.48173206212397485
0.311323881149292,0.0005861961502100108,[0.40468305],5.97988594816805,0.6,1.3969828922252046,-5.0,-5.05000000000005,0.48173206212394204
0.3232240676879883,0.0005861961502100108,[0.41491507],5.805098380697095,0.6,1.3707647571045614,-5.0,-5.05,0.4817320621239367
0.3381974697113037,0.0005861961502100108,[0.42399407],5.63031081322614,0.6,1.3445466219839184,-5.0,-5.39153732826101,0.48173206212393577
0.3511993885040283,0.0005861961502100108,[0.43198035],5.455523245755186,0.6,1.3183284868632752,-5.0,-3.276768566164969,0.48173206212393554
0.36844348907470703,0.0005861961502100108,[0.43893902],5.280735678284231,0.6,1.292110351742632,-4.899174501883677,-1.7336929348068928,0.48244842701124746
0.38293886184692383,0.0005861961502100108,[0.44493847],5.105948110813277,0.6,1.2658922166219888,-3.8625256969714012,-0.633726572681384,0.48901664089481595
0.3947031497955322,0.00039079743347334047,[0.45004897],5.0,0.6,1.2396740815013456,-2.39911639216182,0.17407507833712962,0.4957337149787731
0.4062783718109131,0.0005861961502100108,[0.45434147],5.0,0.6,1.2134559463807026,-1.047548577593185,0.7913489927204824,0.49918379302307025
0.4240453243255615,0.0007815948669466809,[0.45788656],5.0,0.6,1.1872378112600595,0.023778975280951298,1.2347422284255902,0.49999957908658893
0.4351489543914795,0.0021493858841033727,[0.46075362],5.0,0.6,1.1610196761394163,1.3531083004973459,1.5501932334353166,0.4986389313977684
0.44875311851501465,0.004689569201680086,[0.46301011],5.0,0.6,1.1348015410187733,4.1529344830829675,1.7671716815658904,0.48732485188426616
0.46021127700805664,0.00820674610294015,[0.464721],5.0,0.6,1.10858340589813,5.0,1.9116956916815377,0.4817320621239355
0.47222018241882324,0.012700916587883566,[0.46594829],5.0,0.6,1.082365270777487,5.0,2.0004507594149583,0.4817320621239355
0.4852290153503418,0.01758588450630032,[0.46675068],5.0,0.6,1.0561471356568437,5.0,2.0541691344109836,0.4817320621239355
0.49730992317199707,0.022666251141453746,[0.46718332],5.0,0.6,1.0299290005362005,5.0,2.079421758238219,0.4817320621239355
0.5079996585845947,0.027355820343133833,[0.46729764],5.0,0.6,1.0037108654155575,5.0,2.0895055307556514,0.4817320621239355
0.5219364166259766,0.0328269844117606,[0.46714126],5.0,0.6,0.9774927302949143,5.0,2.0822556699755896,0.48173206212393554
0.5309367179870605,0.036148762596283995,[0.46675795],5.0,0.6,0.9512745951742712,5.0,2.0793091954764513,0.48173206212393554
0.5436749458312988,0.04122912923143742,[0.46618768],5.0,0.6,0.9250564600536281,5.0,2.0615555418485414,0.4817320621239357
0.5587751865386963,0.04787268560048421,[0.46546667],5.0,0.6,0.898838324932985,4.99258471642364,2.0317977168060333,0.4817852082705537
0.5696446895599365,0.05236685608542762,[0.46462748],5.0,0.6,0.8726201898123418,2.8191220606023237,2.009785522153092,0.49411877701773327
0.5832202434539795,0.05764262143731772,[0.46369922],5.0,0.6,0.8464020546916986,0.05128223111831809,1.9823256881278433,0.499998042329271
0.5952422618865967,0.06252758935573448,[0.46270762],5.0,0.6,0.8201839195710555,-2.1066345077778954,1.9544755395634272,0.49670730786940054
0.6108500957489014,0.06878034829130793,[0.46167528],5.0,0.6,0.7939657844504124,-3.908910576699915,1.9193298753329393,0.48875426646914844
0.6302847862243652,0.0762054995273014,[0.46062183],5.0,0.6,0.7677476493297692,-5.0,1.8776275187072626,0.4817320621240815
0.6427054405212402,0.0814812648791915,[0.45956415],5.0,0.6,0.741529514209126,-5.0,1.8464294330557744,0.481732062124319
0.6540300846099854,0.08636623279760824,[0.45851658],5.0,0.6,0.715311379088483,-5.0,1.8175465665073456,0.48173206212486963
0.672692060470581,0.09379138403360171,[0.45749111],5.0,0.6,0.6890932439678399,-5.0,1.7754566394390783,0.48173206212717534
0.6851201057434082,0.09887175066875514,[0.45649758],5.0,0.6,0.6628751088471967,-5.0,1.7454298387278464,0.4817320621317172
0.7013397216796875,0.10531990832106528,[0.45554393],5.0,0.6,0.6366569737265535,-5.0,1.709019007661607,0.48173206214612563
0.7152678966522217,0.11079107238969202,[0.45463634],5.0,0.6,0.6104388386059104,-5.0,1.6773169914003472,0.4817320621777265
0.727630615234375,0.11606683774158212,[0.45377945],5.0,0.6,0.5842207034852673,-5.0,1.6465014770748962,0.48173206224803206
0.7421929836273193,0.12153800181020889,[0.45297651],5.0,0.6,0.5580025683646241,-4.8489579060870565,1.6151294284899211,0.4828001614347766
0.7554683685302734,0.12642296972862566,[0.45222959],5.0,0.6,0.531784433243981,-4.957447257991674,1.5868902729184966,0.4820360495633085
0.7718183994293213,0.13345732353114578,[0.45153972],5.0,0.6,0.5055662981233379,-4.517326672134402,1.5480750482172045,0.4850380151067839
0.7857379913330078,0.1393192850332459,[0.450907],5.0,0.6,0.4793481630026947,-4.482045396922496,1.5154135691462554,0.4852673528238892
0.8057658672332764,0.14733063241944935,[0.45033082],5.0,0.6,0.4531300278820516,-4.254002917586846,1.4722724387950041,0.4867087870150741
0.8213021755218506,0.15338799263828612,[0.44980989],5.0,0.6,0.42691189276140845,-3.6801330069074654,1.4388465244870372,0.49001928576586706
0.8347148895263672,0.15885915670691292,[0.44934243],5.0,0.6,0.4006937576407653,-3.6118570696388823,1.4090054856878884,0.4903826587551825
0.8481776714324951,0.16452571949227635,[0.44892624],5.0,0.6,0.3744756225201221,-3.3999741753752324,1.3784917175390086,0.4914685803148615
0.8619904518127441,0.1701922822776398,[0.44855879],5.0,0.6,0.3482574873994789,-2.865269541086155,1.348037625424272,0.4939260261441497
0.8771588802337646,0.17585884506300323,[0.44823731],5.0,0.6,0.3220393522788358,-2.8459036718881103,1.3181386004857958,0.49400753841639705
0.8912360668182373,0.18152540784836665,[0.44795887],5.0,0.6,0.2958212171581926,-2.6859671964557403,1.288377896420847,0.494659003075755
0.9041998386383057,0.1866057744835201,[0.44772042],5.0,0.6,0.2696030820375494,-2.202884950111816,1.2614898169999336,0.49640186012759135
0.9191651344299316,0.1924677359856202,[0.44751888],5.0,0.6,0.24338494691690624,-1.9571391326171401,1.2310115132121353,0.49715900507403094
0.9342465400695801,0.1989158936379303,[0.44735117],5.0,0.6,0.21716681179626307,-1.8110216809444295,1.1978030906828723,0.49756882237568717
0.9571738243103027,0.20790423460781715,[0.44721422],5.0,0.6,0.19094867667561988,-1.7030146187128832,1.1521558720487668,0.49785630870630104
0.9711658954620361,0.2133753986764439,[0.44710506],5.0,0.6,0.16473054155497668,-1.60736426828085,1.1239815609219603,0.49809843222695366
0.9851796627044678,0.21923736017854403,[0.44702082],5.0,0.6,0.13851240643433352,-1.5145779744110242,1.094196117143844,0.498326436333669
0.9991641044616699,0.22470852424717075,[0.44695873],5.0,0.6,0.11229427131369034,-1.4221683668964826,1.0664548047028162,0.4985479055932439
1.0105445384979248,0.22939809344885087,[0.44691618],5.0,0.6,0.08607613619304716,-1.3303718574134114,1.0427117634821135,0.49876191469599895
1.023643970489502,0.23486925751747764,[0.44689071],5.0,0.6,0.05985800107240398,-1.2402496400093272,1.0152376390076838,0.49898083194135606
1.0392429828643799,0.2409266177363144,[0.44688],5.0,0.6,0.0336398659517608,-0.8768684106026532,0.9847234029479657,0.49963484187338153
1.052140235900879,0.24639778180494118,[0.44688191],5.0,0.6,0.0074217308311176206,-0.7600561516697613,0.9572318638652616,0.4998928588181132
1.0671825408935547,0.25265054074051463,[0.44689448],5.0,0.6,0.0,-0.7357127566067243,0.9260191557615729,0.5001253821816597
1.0811684131622314,0.2581217048091414,[0.44691589],5.0,0.6,0.0,-0.7369410276924693,0.898710612625138,0.5003976948346485
1.093191146850586,0.26281127401082144,[0.4469445],5.0,0.6,0.0,-0.7373267114394806,0.8753561824291946,0.5007305990755433
1.107163906097412,0.26808703936271155,[0.44697882],5.0,0.6,0.0,-0.7285198816142475,0.8491731386870269,0.5012658750877179
1.1175732612609863,0.272581209847655,[0.44701754],5.0,0.6,0.0,-0.7096841215060883,0.8268552639596806,0.5019006061954466
1.12813138961792,0.27629378546565175,[0.44705946],5.0,0.6,0.0,-0.6826816308094441,0.8084621297908005,0.5025848593196534
1.138035774230957,0.28059255723385845,[0.44710355],5.0,0.6,0.0,-0.6499877465258563,0.7872178565879213,0.5035918325480087
1.1506781578063965,0.28567292386901194,[0.44714891],5.0,0.6,0.0,-0.6138732185628379,0.7620822048154824,0.5051545421117442
1.1636662483215332,0.29114408793763863,[0.44719475],5.0,0.6,0.0,-0.5761525250253654,0.7349756193137603,0.5074235468140844
1.175304889678955,0.29563825842258207,[0.4472404],5.0,0.6,0.0,-0.5381677476446314,0.7126847143429385,0.5098700997331898
1.1881601810455322,0.3007186250577355,[0.4472853],5.0,0.6,0.0,-0.5008570299970503,0.6875364592588139,0.5134313648536022
1.1994473934173584,0.3054081942594156,[0.44732898],5.0,0.6,0.0,-0.4648421115765008,0.6642882192248525,0.5176437176935744
1.2127726078033447,0.31087935832804237,[0.44737106],5.0,0.6,0.0,-0.43050916966816155,0.6371821189643869,0.5239511203148852
1.2251756191253662,0.31576432624645917,[0.44741126],5.0,0.6,0.0,-0.39807497312329043,0.6129296527181787,0.5311180884559533
1.236307144165039,0.32006309801466587,[0.44744933],5.0,0.6,0.0,-0.3676377702514322,0.5915970760521976,0.5388504221758289
1.246307134628296,0.3239710723493993,[0.44748511],5.0,0.6,0.0,-0.33921501464503984,0.572216791083547,0.5472191597543385
1.2617263793945312,0.33022383128497274,[0.44751849],5.0,0.6,0.0,-0.31277065444750185,0.5412370237588495,0.5637523773532557
1.2727956771850586,0.3347180017699161,[0.44754941],5.0,0.6,0.0,-0.2882345181558005,0.5188345668499615,0.5783182598703102
1.2860126495361328,0.3403845645552796,[0.44757784],5.0,0.6,0.0,-0.265515881639392,0.49070190665364005,0.6003990654035869
1.2986960411071777,0.34526953247369635,[0.44760381],5.0,0.6,0.0,-0.24451283040900273,0.46636871508887245,0.6230920924052413
1.3116393089294434,0.3503498991088497,[0.44762736],5.0,0.6,0.0,-0.5011569830882541,0.4412650687419783,0.6504954920965501
1.3241140842437744,0.35543026574400316,[0.44764855],5.0,0.6,0.0,-0.5163889029415965,0.416056677214049,0.682331237679428
1.3399972915649414,0.3616830246795766,[0.44766748],5.0,0.6,0.0,-0.44479535221758193,0.3849899378627721,0.7277945023036716
1.3621642589569092,0.3702805682159901,[0.44768424],5.0,0.6,0.0,-0.35350923037869353,0.3422255371199821,0.8016240250149325
1.374793291091919,0.3753609348511436,[0.44769896],5.0,0.6,0.0,-0.26898435302555035,0.31673386866850384,0.8510904895529727
1.3868379592895508,0.38024590276956033,[0.44771176],5.0,0.6,0.0,0.07656984882097218,0.2921965016593379,0.9023877504904716
1.396829605102539,0.3841538771042937,[0.44772276],5.0,0.6,0.0,-0.11247536273963102,0.2727494670899934,0.9456498153456219
1.406130075454712,0.3878664527222904,[0.44773212],5.0,0.6,0.0,-0.16035493118926208,0.25426828882876995,0.9883032140177825
1.420656681060791,0.3941192116578639,[0.44773995],5.0,0.6,0.0,-0.15175778537743911,0.22319310322177313,1.0626671089309323
1.435140609741211,0.399981173159964,[0.44774639],5.0,0.6,0.0,-0.1247875018531783,0.1939086016956195,1.1336101295829037
1.447554349899292,0.4050615397951174,[0.44775157],5.0,0.6,0.0,-0.37156633151159035,0.16866999286606585,1.1944495591513777
1.4608738422393799,0.4101419064302709,[0.44775563],5.0,0.6,0.0,-0.3791072423228593,0.14337807199078817,1.2534441704728767
1.4745466709136963,0.4154176717821609,[0.44775867],5.0,0.6,0.0,-0.30363148330331613,0.11706932817185163,1.3111740450129843
1.4875757694244385,0.42030263970057774,[0.44776082],5.0,0.6,0.0,-0.21212117301239808,0.0926585302799415,1.3599944726344213
1.498138189315796,0.4247968101855211,[0.44776219],5.0,0.6,0.0,-0.1302892420911897,0.07018688059526604,1.3998782475690166
1.5121283531188965,0.43007257553741124,[0.44776288],5.0,0.6,0.0,-0.34159670497562955,0.04403017488014358,1.4392422270365466
1.5251390933990479,0.4345667460223547,[0.44776299],5.0,0.6,0.0,-0.8790858339364302,0.021962243363271645,1.4651964000100608
1.5371119976043701,0.4386701190738247,[0.44776261],5.0,0.6,0.0,-1.1328951351852996,0.0018351540959873909,1.482646769126
1.5492002964019775,0.4433596882755048,[0.44776183],5.0,0.6,0.0,-1.7856177424087822,-0.020844185598023715,1.493763877913565
1.5605788230895996,0.4470722638935015,[0.44776075],5.0,0.6,0.0,-2.4213457258748514,-0.03854489354953197,1.495559838405296
1.5698657035827637,0.45000324464455155,[0.44775943],5.0,0.6,0.0,-2.901756974921785,-0.05225492268793691,1.492764692626462
1.5817182064056396,0.4537158202625483,[0.44775797],5.0,0.6,0.0,-4.31021045318268,-0.0690165721176551,1.479286034631477
1.6006174087524414,0.45820999074749164,[0.44775648],5.0,0.6,0.0,-5.0,-0.08903444816143954,1.460113975150687
1.6121094226837158,0.46035937663159504,[0.4477551],5.0,0.6,0.0,-5.0,-0.09737220792382933,1.4504579992226017
1.6244032382965088,0.4627041612324352,[0.44775398],5.0,0.6,0.0,-5.0,-0.10661488810639058,1.438014889333758
1.6376004219055176,0.4646581483998018,[0.44775326],5.0,0.6,0.0,-5.0,-0.1130489800177713,1.4261796956834183
1.6481223106384277,0.4660259394169585,[0.44775311],5.0,0.6,0.0,-5.0,-0.11689257593832754,1.4171337248503542
1.660132884979248,0.4670029330006419,[0.44775372],5.0,0.6,0.0,-5.0,-0.11848848060802095,1.4103049416428894
1.6751313209533691,0.4679799265843252,[0.44775535],5.0,0.6,0.0,-5.0,-0.11844852474793462,1.4031821097279882
1.6901390552520752,0.4685661227345353,[0.44775828],5.0,0.6,0.0,-5.0,-0.11675580506862737,1.3987820828420012
1.7057535648345947,0.46876152145127187,[0.44776289],5.0,0.6,0.0,-5.0,-0.11307643881899539,1.3973203053517704
1.721712350845337,0.4685661227345353,[0.44776966],5.0,0.6,0.0,-5.0,-0.10724736153020599,1.398868953207784
1.7331504821777344,0.4681753253010619,[0.4477791],5.0,0.6,0.0,-5.0,-0.1020326930827558,1.401898028330772
1.752549171447754,0.46719833171737857,[0.44779165],5.0,0.6,0.0,-5.0,-0.0917140222140219,1.4091751435826807
1.765834093093872,0.4664167368504319,[0.4478079],5.0,0.6,0.0,-4.458811050766885,-0.08495357333489673,1.4185036055591758
1.7789585590362549,0.46543974326674853,[0.44782827],5.0,0.6,0.0,-3.535572715485135,-0.07754226693872052,1.4306328891630031
1.7896885871887207,0.46446274968306517,[0.44785286],5.0,0.6,0.0,-2.070226169656025,-0.07118424340429515,1.44313678239208
1.8001656532287598,0.4634857560993818,[0.44788162],5.0,0.6,0.0,-0.6838939097023848,-0.06481109336372175,1.4521208870603437
1.812798261642456,0.4623133637989618,[0.44791448],5.0,0.6,0.0,0.1457609880459274,-0.05645390954808599,1.459366532911674
1.8258862495422363,0.4607501740650684,[0.44795144],5.0,0.6,0.0,1.1888589320927616,-0.046950770051217484,1.4667183283087768
1.8423969745635986,0.45899158561443837,[0.44799273],5.0,0.6,0.0,2.0882306204937193,-0.03425337813652274,1.4728597767588136
1.8556983470916748,0.45742839588054507,[0.44803871],5.0,0.6,0.0,2.745383066334581,-0.024884099362385316,1.476942017395851
1.865797519683838,0.456256003580125,[0.44808943],5.0,0.6,0.0,3.7188140739226814,-0.019410711528143724,1.476560489222265
1.879251480102539,0.45469281384623167,[0.44814459],5.0,0.6,0.0,4.012432398707205,-0.010051864121580977,1.4796187406557948
1.8947949409484863,0.4529342253956016,[0.44820406],5.0,0.6,0.0,4.8113294481715165,0.000725146076269475,1.4785966212456576
1.9041259288787842,0.4515664343784449,[0.44826782],5.0,0.6,0.0,5.0,0.007211411002386661,1.4795582531339253
1.9171202182769775,0.45019864336128823,[0.44833559],5.0,0.6,0.0,5.0,0.014865442029532897,1.4810381128770431
1.931107521057129,0.44883085234413156,[0.44840713],5.0,0.6,0.0,5.0,0.022130222539817525,1.4816961543959153
1.9441072940826416,0.4478538587604482,[0.44848222],5.0,0.6,0.0,5.0,0.027052796917153305,1.4816530967779014
1.959876298904419,0.4468768651767649,[0.44856066],5.0,0.6,0.0,5.0,0.03163835928164767,1.4811651871108231
1.976491928100586,0.44589987159308153,[0.44864232],5.0,0.6,0.0,5.0,0.03686484993056857,1.480228990858072
1.9951250553131104,0.4451182767261348,[0.44872725],5.0,0.6,0.0,5.0,0.041196517947033655,1.479130518129161
2.0069501399993896,0.4447274792926615,[0.44881542],5.0,0.6,0.0,5.0,0.04066879428525372,1.4783953961220915
2.019718885421753,0.44453208057592475,[0.44890636],5.0,0.6,0.0,5.0,0.04002046357546307,1.4779125041662797
2.031338930130005,0.4443366818591881,[0.44899947],5.0,0.6,0.0,5.0,0.03955856090419603,1.4773931794428208
2.047574758529663,0.4441412831424515,[0.44909432],5.0,0.6,0.0,5.0,0.04085497891435756,1.4768375703070975
2.0602684020996094,0.4441412831424515,[0.44919066],5.0,0.6,0.0,5.0,0.039502839053467194,1.4766458086344807
2.074368476867676,0.4441412831424515,[0.44928822],5.0,0.6,0.0,5.0,0.039390067134037116,1.4764478740048248
2.08859920501709,0.4441412831424515,[0.44938683],5.0,0.6,0.0,5.0,0.039602891796217204,1.4762440347638643
2.1017720699310303,0.4443366818591881,[0.44948637],5.0,0.6,0.0,4.492553020032166,0.03844596751171242,1.479909412054574
2.1159138679504395,0.4443366818591881,[0.44958678],5.0,0.6,0.0,3.7791771694023018,0.03931635245000826,1.483983025309832
2.1310904026031494,0.4441412831424515,[0.44968814],5.0,0.6,0.0,2.81364514832743,0.04128926754647796,1.488006835870018
2.1460824012756348,0.4443366818591881,[0.44979059],5.0,0.6,0.0,1.9166061825935636,0.04119994206566231,1.491341626425419
2.164416551589966,0.4443366818591881,[0.44989441],5.0,0.6,0.0,1.189060109977813,0.043691422122319856,1.4927899961200932
2.1800780296325684,0.4443366818591881,[0.45000012],5.0,0.6,0.0,0.640055781423353,0.04569711774350925,1.493300754970604
2.190366506576538,0.4443366818591881,[0.45010805],5.0,0.6,0.0,0.24517204750489702,0.04442424191728372,1.4933156546008552
2.2049484252929688,0.4443366818591881,[0.45021821],5.0,0.6,0.0,-0.027999010066317637,0.04668170092277688,1.4931048186825233
2.2151033878326416,0.4441412831424515,[0.45033065],5.0,0.6,0.0,-0.20974009679439448,0.047128150155669665,1.492334873990205
2.2298269271850586,0.4443366818591881,[0.45044543],5.0,0.6,0.0,-0.3249930452711144,0.04805702986491688,1.4924857913145344
2.2421131134033203,0.4443366818591881,[0.45056273],5.0,0.6,0.0,-0.39303883647706783,0.04930466631629768,1.4921622654521478
2.2563929557800293,0.4441412831424515,[0.45068283],5.0,0.6,0.0,-0.428238756674977,0.05194049294407776,1.4913416490861862
2.268132209777832,0.4441412831424515,[0.45080603],5.0,0.6,0.0,-0.4410354564905936,0.05297083539579192,1.49101081263443
2.28312087059021,0.4443366818591881,[0.45093252],5.0,0.6,0.0,-0.4388945209002572,0.05323987280176462,1.491193362580178
2.2961161136627197,0.4443366818591881,[0.45106248],5.0,0.6,0.0,-0.42708371022056646,0.05437503950295007,1.4908577709250252
2.3064634799957275,0.4441412831424515,[0.45119606],5.0,0.6,0.0,-0.4092782492685967,0.056410336236590836,1.489970727590277
2.3196964263916016,0.4441412831424515,[0.45133335],5.0,0.6,0.0,-0.3880142095186047,0.05743017021858173,1.489596101426751
2.329348564147949,0.4441412831424515,[0.45147416],5.0,0.6,0.0,-0.36502050443392464,0.0556922138111303,1.4892042364008544
2.3426709175109863,0.4441412831424515,[0.45161801],5.0,0.6,0.0,-0.34145840502435687,0.057161118182000974,1.4887951826584782
2.351057767868042,0.4443366818591881,[0.45176438],5.0,0.6,0.0,-0.3180925806697015,0.05403475006449089,1.4889511985224302
2.3697803020477295,0.4443366818591881,[0.4519131],5.0,0.6,0.0,-0.2954123525420751,0.06074017483610339,1.4885202699449018
2.3872740268707275,0.4443366818591881,[0.45206501],5.0,0.6,0.0,-0.27371718151329677,0.06416568642337067,1.4880698768285605
2.4020636081695557,0.4443366818591881,[0.45222101],5.0,0.6,0.0,-0.2531766751876557,0.06438059126679152,1.4875967289355083
2.414669990539551,0.4443366818591881,[0.45238122],5.0,0.6,0.0,-0.23387254699604532,0.06489572409547753,1.4870997773338632
2.4290804862976074,0.4443366818591881,[0.45254551],5.0,0.6,0.0,-0.21582784635604574,0.06567845546342074,1.4865787727114077
2.441110849380493,0.4443366818591881,[0.45271375],5.0,0.6,0.0,-0.19902724035299227,0.06640013707362716,1.4860334889076938
2.4544620513916016,0.4443366818591881,[0.45288583],5.0,0.6,0.0,-0.18343102107937925,0.06765798762571827,1.4854636818889988
2.46911358833313,0.4441412831424515,[0.45306172],5.0,0.6,0.0,-0.16898472374168036,0.07031452244177713,1.4841898611974915
2.4830849170684814,0.4443366818591881,[0.4532415],5.0,0.6,0.0,-0.15562568107660857,0.070785443212112,1.4842479133205524
2.4970948696136475,0.4443366818591881,[0.45342522],5.0,0.6,0.0,-0.14328744434956697,0.07231991215485262,1.4836001089228226
2.509570837020874,0.4443366818591881,[0.45361298],5.0,0.6,0.0,-0.13190272278051432,0.0739562157198978,1.4829243700245167
2.521925926208496,0.4443366818591881,[0.45380476],5.0,0.6,0.0,-0.12140529751708783,0.07465537773825238,1.4822198770251385
2.5380496978759766,0.44453208057592475,[0.45400064],5.0,0.6,0.0,-0.11173122889391873,0.07672132378366031,1.4822197767041128
2.5619606971740723,0.4447274792926615,[0.45420174],5.0,0.6,0.0,0.17321878027809323,0.08679366235082596,1.4821855432070778
2.575317144393921,0.4451182767261348,[0.45440983],5.0,0.6,0.0,0.4905885152008131,0.08295023638526053,1.4827024944715137
2.588691473007202,0.4453136754428715,[0.45462537],5.0,0.6,0.0,0.7522100899975345,0.08122806121668721,1.4823869354538863
2.6028287410736084,0.4457044728763448,[0.45484794],5.0,0.6,0.0,0.9371461369423371,0.08019150568358224,1.4827650926714346
2.6180758476257324,0.44609527030981816,[0.45507729],5.0,0.6,0.0,0.7749674816773199,0.078988784357905,1.4835472808503636
2.633131980895996,0.44648606774329147,[0.45531316],5.0,0.6,0.0,0.7985705866996469,0.07742573871287849,1.4840627862888978
2.644338369369507,0.44668146646002815,[0.45555515],5.0,0.6,0.0,0.8679279815398614,0.07693497298781622,1.483814477295201
2.6591711044311523,0.4470722638935015,[0.45580277],5.0,0.6,0.0,0.9284252169033158,0.07555257555052868,1.4842300249551716
2.675140142440796,0.44765846004371157,[0.4560556],5.0,0.6,0.0,0.963433903593359,0.07394750649272723,1.4853061155567702
2.6886050701141357,0.44824465619392156,[0.45631323],5.0,0.6,0.0,0.6959840606176525,0.07159227043885645,1.4867035551989347
2.6990702152252197,0.4484400549106582,[0.45657512],5.0,0.6,0.0,0.6496445922062293,0.07045979407247861,1.4865372838156579
2.7140936851501465,0.44902625106086824,[0.45684056],5.0,0.6,0.0,0.3994730686175196,0.06852294983962055,1.4877428133177153
2.7270750999450684,0.44961244721107824,[0.45710895],5.0,0.6,0.0,0.402444895598848,0.0664733771355989,1.4887028681685552
2.7504239082336426,0.45039404207802497,[0.45738054],5.0,0.6,0.0,0.2054965359114097,0.07187647661175414,1.4902538369867888
2.7631428241729736,0.4509802382282349,[0.45765607],5.0,0.6,0.0,0.25516646570498847,0.06581922981171873,1.491077784458235
2.773930072784424,0.4513710356617082,[0.45793497],5.0,0.6,0.0,0.0957098407835319,0.06104091827411305,1.4914131439693128
2.7888383865356445,0.45215263052865495,[0.45821609],5.0,0.6,0.0,-0.10193729411049027,0.060964681078650315,1.4926661167391806
2.805037021636963,0.45273882667886495,[0.45849941],5.0,0.6,0.0,-0.27310557005649194,0.062173878585391175,1.4933295988651136
2.814608335494995,0.4529342253956016,[0.45878479],5.0,0.6,0.0,-0.12391005447212877,0.05620246314696228,1.4931661322087084
2.8307816982269287,0.4537158202625483,[0.4590715],5.0,0.6,0.0,-0.1744559850010339,0.05797719912981623,1.4942571017057527
2.8426945209503174,0.45430201641275836,[0.45935938],5.0,0.6,0.0,-0.2776214625579077,0.05533596183375255,1.4948403100580103
2.853632926940918,0.45469281384623167,[0.45964813],5.0,0.6,0.0,-0.37479753597128107,0.05224030509998878,1.4949964550476984
2.867246150970459,0.455083611279705,[0.45993708],5.0,0.6,0.0,-0.4470839968702592,0.05300609780662506,1.4951510803462793
2.8836565017700195,0.45566980742991503,[0.46022649],5.0,0.6,0.0,-0.49225656700634723,0.05718127457200775,1.495675584863978
2.891519069671631,0.4560606048633884,[0.46051669],5.0,0.6,0.0,-0.5142085971868565,0.04926161599725036,1.4958397419103242
2.9055912494659424,0.45645140229686165,[0.46080717],5.0,0.6,0.0,-0.518342224601124,0.053088774730845466,1.4960126916487186
2.9154186248779297,0.4570375984470717,[0.46109793],5.0,0.6,0.0,-0.5097328304207411,0.05197928075233462,1.4965147854896408
2.92807936668396,0.4572329971638084,[0.46138961],5.0,0.6,0.0,-0.4925391742161047,0.05501917081313002,1.4963699243266009
2.944044828414917,0.4578191933140183,[0.46168291],5.0,0.6,0.0,-0.7459760699066307,0.056107969365410126,1.4966047113794905
2.9620721340179443,0.45860078818096506,[0.46197936],5.0,0.6,0.0,-0.7534129206086346,0.06197129953221861,1.4972972900227133
2.9754531383514404,0.45899158561443837,[0.462281],5.0,0.6,0.0,-0.6711838001436496,0.06279261187576222,1.4975030574884938
2.9918107986450195,0.4595777817646485,[0.46258973],5.0,0.6,0.0,-0.5676515642495197,0.067121263454956,1.497947468609332
3.0002658367156982,0.45977318048138505,[0.46290614],5.0,0.6,0.0,-0.47011903123609544,0.056706463966520286,1.4978743387482094
3.0134596824645996,0.46016397791485847,[0.46322949],5.0,0.6,0.0,-0.6634465151266509,0.06131154118951903,1.4977947387122468
3.031183958053589,0.4607501740650684,[0.46356067],5.0,0.6,0.0,-0.6296989846608888,0.07101811583120396,1.498126384205634
3.046311855316162,0.4613363702152784,[0.46390247],5.0,0.6,0.0,-0.24565058286627378,0.07312812907240102,1.4986389753749716
3.0605804920196533,0.46192256636548845,[0.46425703],5.0,0.6,0.0,-0.09486504952903271,0.07441859543269196,1.4989039522504741
3.068307638168335,0.4623133637989618,[0.46462414],5.0,0.6,0.0,-0.04670103057479059,0.059781830776029755,1.498931013537506
3.08491587638855,0.4628995599491718,[0.46500276],5.0,0.6,0.0,0.23586646919239973,0.07309117858124842,1.4990742933488947
3.097548246383667,0.4634857560993818,[0.4653939],5.0,0.6,0.0,0.26135530751660324,0.07113279978274233,1.4992212182423479
3.1085028648376465,0.46407195224959186,[0.46579821],5.0,0.6,0.0,0.19608567388436438,0.0667260794018785,1.4993755628720216
3.1200666427612305,0.4642673509663285,[0.46621463],5.0,0.6,0.0,0.11164001458566813,0.0665118268054076,1.4992326305064296
3.1330602169036865,0.4650489458332752,[0.46664257],5.0,0.6,0.0,0.31176302979277193,0.0691591662275219,1.4994198523660804
3.1483917236328125,0.4656351419834852,[0.46708289],5.0,0.6,0.0,0.2857142692652036,0.07574437642703588,1.4995201281363395
3.1600539684295654,0.4662213381336952,[0.46753685],5.0,0.6,0.0,0.4643972498988102,0.07387829877994578,1.4994934291768514
3.1746504306793213,0.4670029330006419,[0.46800515],5.0,0.6,0.0,0.39344295818844977,0.0775869177496726,1.4996839156589352
3.186063289642334,0.46758912915085193,[0.46848848],5.0,0.6,0.0,0.526903824388736,0.07782639127782767,1.4996316247034187
3.2011044025421143,0.46837072401779856,[0.46898754],5.0,0.6,0.0,0.6945059609655285,0.07960039028583477,1.4995649864021392
3.221583366394043,0.4697385150349553,[0.46950513],5.0,0.6,0.0,0.8329231091223708,0.1003211648150895,1.499472937342566
3.2316434383392334,0.4703247111851653,[0.47004505],5.0,0.6,0.0,0.6496099958700446,0.08717431284845749,1.4996703250833017
3.2410223484039307,0.4709109073353753,[0.47060653],5.0,0.6,0.0,0.941810629368832,0.07671684351118464,1.4993216179607254
3.259521245956421,0.47227869835253194,[0.47118829],5.0,0.6,0.0,1.0442684817255958,0.09385953452218133,1.4989511243510183
3.2704861164093018,0.4730602932194786,[0.47179224],5.0,0.6,0.0,1.053630944826137,0.08609282118817077,1.498852755366437
3.282799005508423,0.47423268551989867,[0.47241867],5.0,0.6,0.0,1.0185942532591656,0.0828462507508134,1.4985703442995273
3.297539234161377,0.4754050778203187,[0.47306748],5.0,0.6,0.0,0.9636948742478565,0.09141226762348563,1.4982168697902338
3.309271812438965,0.476382071404002,[0.47373991],5.0,0.6,0.0,0.9012662534006584,0.08732436108722055,1.498000478136999
3.3230199813842773,0.47774986242115874,[0.47443651],5.0,0.6,0.0,1.113497819281132,0.08851600061037196,1.496884628478086
3.338916540145874,0.4791176534383154,[0.47515894],5.0,0.6,0.0,1.0844456342605755,0.10156964367387997,1.4959959615497511
3.3500242233276367,0.48029004573873546,[0.4759098],5.0,0.6,0.0,0.9702066489926818,0.09340616198911254,1.4954698252524394
3.3698949813842773,0.4824394316228388,[0.47669252],5.0,0.6,0.0,1.114638801136795,0.11999783896604754,1.4924923731899653
3.38242769241333,0.48380722263999554,[0.47751257],5.0,0.6,0.0,1.02550692532787,0.11209297036645674,1.4913245466809921
3.394449234008789,0.4849796149404155,[0.47837174],5.0,0.6,0.0,0.8657964058178489,0.1026765181448369,1.4907475113087831
3.405467987060547,0.48615200724083557,[0.47926714],5.0,0.6,0.0,0.7033150048731484,0.09301636864161082,1.490196419633626
3.4264535903930664,0.4888875892751489,[0.48019997],5.0,0.6,0.0,0.838411425906173,0.12739279245448348,1.4844954263289494
3.4364254474639893,0.490059981575569,[0.48117499],5.0,0.6,0.0,0.757560288830201,0.1030884131610094,1.483908353081609
3.4473249912261963,0.491232373875989,[0.48219036],5.0,0.6,0.0,0.613445030621607,0.09220447744829113,1.4835013013345875
3.4570467472076416,0.4926001648931457,[0.48323961],5.0,0.6,0.0,0.4689792841004794,0.08018777842900833,1.482464943557941
3.470017194747925,0.49435875334377566,[0.48431854],5.0,0.6,0.0,0.34622142077253293,0.08581534932569451,1.4799514972588796
3.4863762855529785,0.49650813922787906,[0.48542711],5.0,0.6,0.0,0.5256611924944852,0.09597670532264181,1.4755355830687962
3.49605131149292,0.49787593024503574,[0.48656657],5.0,0.6,0.0,0.4859687520867455,0.08797806515435161,1.4745682865099017
3.5090527534484863,0.49943911997892915,[0.48773588],5.0,0.6,0.0,0.10138731834698733,0.09006365976555987,1.4729709859178741
3.522036552429199,0.5011977084295592,[0.48893382],5.0,0.6,0.0,-0.0463561869766137,0.08997137767563856,1.4703657101208287
3.534916639328003,0.5027608981634525,[0.49015981],5.0,0.6,0.0,-0.3652486987736702,0.09001957300032798,1.4686421960983023
3.5490219593048096,0.5047148853308193,[0.49141296],5.0,0.6,0.0,-0.6742786290284682,0.08749426321005191,1.4648922620078444
3.557935953140259,0.5058872776312392,[0.49268991],5.0,0.6,0.0,-1.1893641374086132,0.06752294164933142,1.464713718744589
3.566495418548584,0.507255068648396,[0.4939832],5.0,0.6,0.0,-1.3826225660252793,0.052113845742542776,1.463963771719142
3.578017473220825,0.5088182583822893,[0.49528566],5.0,0.6,0.0,-1.4189421027286486,0.056135721657414,1.4625398540176842
3.5954198837280273,0.5111630429831293,[0.4965961],5.0,0.6,0.0,-1.104760939350871,0.0733407582371841,1.4575410757985803
3.6154911518096924,0.5138986250174427,[0.49792048],5.0,0.6,0.0,-1.0001941999951747,0.0987056603255652,1.4494773080823318
3.629271984100342,0.5156572134680728,[0.4992658],5.0,0.6,0.0,-1.2470270149309584,0.08817281070283912,1.446526313627237
3.6450998783111572,0.5174158019187027,[0.5006329],5.0,0.6,0.0,-1.2691095676529236,0.07958664851407495,1.4440266689056298
3.6590518951416016,0.5193697890860695,[0.50201882],5.0,0.6,0.0,-1.4754358957917304,0.07196951367486354,1.4399477601312818
3.6729841232299805,0.5211283775366995,[0.50342071],5.0,0.6,0.0,-1.4081431268401832,0.0665927090728287,1.4377397567999899
3.6876299381256104,0.5224961685538563,[0.50483621],5.0,0.6,0.0,-1.2486329172042716,0.06741845960364895,1.4383714391990887
3.702388286590576,0.5244501557212229,[0.50626397],5.0,0.6,0.0,-1.0747520364923622,0.06688598458247864,1.4351337018759533
3.714111804962158,0.5260133454551164,[0.507702],5.0,0.6,0.0,-0.9163841425913175,0.054799984539589015,1.434513344855317
3.7250888347625732,0.527381136472273,[0.50914688],5.0,0.6,0.0,-0.7821047205734856,0.055353879688136515,1.4352099736246093
3.7400693893432617,0.5293351236396396,[0.51059602],5.0,0.6,0.0,-0.9477479797172315,0.053512601785729676,1.431510476732983
3.758824110031128,0.5316799082404797,[0.51205037],5.0,0.6,0.0,-0.8910827875224068,0.0713499209340793,1.4252400930531521
3.770962715148926,0.5330476992576364,[0.51351216],5.0,0.6,0.0,-0.7629076670633286,0.05850625636338533,1.4260796697073064
3.7827038764953613,0.5344154902747932,[0.51497929],5.0,0.6,0.0,-0.6269047305855999,0.04786805941783522,1.4269379513570222
3.806114673614502,0.5369556735923698,[0.51645218],5.0,0.6,0.0,-0.7827372981923068,0.08786690084959907,1.4189030691233904
3.8210952281951904,0.5387142620429999,[0.51793773],5.0,0.6,0.0,-0.9935398626906309,0.07813376135462106,1.4165545713236438
3.8350024223327637,0.5402774517768932,[0.5194386],5.0,0.6,0.0,-1.1700678005810448,0.07227088101065297,1.4157950961531667
3.8470051288604736,0.5416452427940499,[0.52095275],5.0,0.6,0.0,-1.0119398272189164,0.0697305688283485,1.4171667475997363
3.86000919342041,0.5432084325279433,[0.52247859],5.0,0.6,0.0,-0.7639536874456243,0.06795982551673657,1.4172101834711917
3.8740627765655518,0.5449670209785733,[0.52401492],5.0,0.6,0.0,-0.5249831403955323,0.06646481285088718,1.4157406333142821
3.8860816955566406,0.54633481199573,[0.52556089],5.0,0.6,0.0,-0.32802022045708346,0.0677967018293389,1.4172286957097728
3.902167797088623,0.54809340044636,[0.527116],5.0,0.6,0.0,0.09796789108728404,0.06770253148842888,1.4157443387827422
3.9263734817504883,0.5512197799141467,[0.52868548],5.0,0.6,0.0,0.5155887584422951,0.10989553610188423,1.4032300626668255
3.942979574203491,0.5529783683647768,[0.53027946],5.0,0.6,0.0,0.568941983590875,0.09784612529671403,1.4018426745080628
3.9550046920776367,0.5545415580986702,[0.53190121],5.0,0.6,0.0,0.4880366113676649,0.09038723292079821,1.402385450789816
3.9658608436584473,0.5559093491158269,[0.533547],5.0,0.6,0.0,0.3734155521767297,0.07742576182239612,1.4047200942292914
3.981051206588745,0.5578633362831935,[0.53521372],5.0,0.6,0.0,0.2652350564023557,0.08596174005015006,1.402434638141765
3.9950878620147705,0.5596219247338236,[0.53690101],5.0,0.6,0.0,0.4525382552471052,0.083861441848477,1.4017508938248808
4.009000301361084,0.5615759119011904,[0.53860868],5.0,0.6,0.0,0.6939691369157174,0.08210937440934736,1.3995172114967864
4.02400279045105,0.5635298990685569,[0.54033562],5.0,0.6,0.0,0.8986296352936276,0.08141941159478923,1.3973905107401767
4.046916246414185,0.5666562785363436,[0.54208743],5.0,0.6,0.0,1.041781019936571,0.12739843940005277,1.3854698177287856
4.055601119995117,0.5682194682702371,[0.54387084],5.0,0.6,0.0,0.8493879749567781,0.0790436325125221,1.3876518315370558
4.074256896972656,0.570564252871077,[0.54568538],5.0,0.6,0.0,0.8513500061638495,0.11627109431342084,1.3830246428411264
4.088107109069824,0.5725182400384438,[0.54753352],5.0,0.6,0.0,0.6292670262210962,0.10804414554898142,1.382337050904228
4.105089426040649,0.5748630246392838,[0.54941729],5.0,0.6,0.0,0.6457244742412493,0.10044462270143559,1.3782268536886424
4.123044967651367,0.5774032079568606,[0.55133678],5.0,0.6,0.0,0.4520779715720423,0.11801613666445085,1.3727850401259358
4.135833740234375,0.5793571951242272,[0.55329425],5.0,0.6,0.0,0.49818425630780183,0.10397626728405389,1.3727841201417252
4.152459383010864,0.581897378441804,[0.5552902],5.0,0.6,0.0,0.6067525334125206,0.11700717462823473,1.3677044747229172
4.169968128204346,0.5846329604761173,[0.55732722],5.0,0.6,0.0,0.7075245690091784,0.12087383580504171,1.3610926240403036
4.185992002487183,0.5871731437936941,[0.55940744],5.0,0.6,0.0,1.0541875929274296,0.10872788798746917,1.356285310333501
4.202624797821045,0.5899087258280075,[0.56152944],5.0,0.6,0.0,1.1254729297469772,0.11200080878571936,1.3502847178802564
4.222341537475586,0.5932305040125309,[0.56369658],5.0,0.6,0.0,0.8049984024893727,0.13275508184327606,1.339436207654522
4.235745191574097,0.5953798898966343,[0.56591379],5.0,0.6,0.0,0.6856457380266796,0.11282246558651597,1.340241030702584
4.246772766113281,0.597333877064001,[0.56817463],5.0,0.6,0.0,0.36946521109687386,0.0879364622138285,1.3435191074041317
4.26405668258667,0.6004602565317877,[0.57046941],5.0,0.6,0.0,0.5976235493935006,0.10206374333632505,1.3350961673379147
4.280111074447632,0.6030004398493644,[0.57279524],5.0,0.6,0.0,0.6744990757452846,0.09245220921982582,1.3328704110111973
4.294060945510864,0.6053452244502044,[0.57514847],5.0,0.6,0.0,0.4039228380563789,0.08610808481869606,1.3331725644713253
4.316460371017456,0.6092531987849378,[0.57752929],5.0,0.6,0.0,0.3440679031292433,0.11915696152898769,1.3175943200234446
4.3268141746521,0.6106209898020944,[0.57994139],5.0,0.6,0.0,0.0832704908113222,0.09102706490412789,1.328404421405244
4.338828802108765,0.612770375686198,[0.58237722],5.0,0.6,0.0,-0.46971649645440405,0.07734964880284806,1.3311488463954986
4.354302167892456,0.6151151602870378,[0.58482663],5.0,0.6,0.0,-0.7300460416367356,0.08743747077411437,1.3319727274993052
4.364336967468262,0.616873748737668,[0.58728344],5.0,0.6,0.0,-0.8379167243839235,0.06434792452791532,1.3388361610480282
4.377398252487183,0.6192185333385081,[0.58973862],5.0,0.6,0.0,-0.8661452230124392,0.06257672167587205,1.3398958749456085
4.398071050643921,0.6225403115230315,[0.59219075],5.0,0.6,0.0,-0.8529717809391559,0.10505585938037183,1.3312121716577598
4.411804676055908,0.6246896974071348,[0.59464742],5.0,0.6,0.0,-1.0947725662612429,0.09655901669448039,1.3339548941526516
4.4224419593811035,0.6266436845745015,[0.59710722],5.0,0.6,0.0,-1.359595632798271,0.07081562915232611,1.33851904587781
4.4342122077941895,0.6284022730251315,[0.59955959],5.0,0.6,0.0,-1.5652003436509434,0.0661469048124349,1.3449039945850068
4.451953411102295,0.6311378550594449,[0.60200102],5.0,0.6,0.0,-1.6938894447874027,0.09764801182284638,1.3417097949723429
4.463756084442139,0.6328964435100749,[0.60443405],5.0,0.6,0.0,-1.4769957573632009,0.07900752776408689,1.3488015966450886
4.4781334400177,0.6350458293941783,[0.60685756],5.0,0.6,0.0,-1.1723102635446985,0.09055778513379749,1.352046301882452
4.492613792419434,0.6373906139950184,[0.60927117],5.0,0.6,0.0,-0.883178328730207,0.09500273465578866,1.3531494350768336
4.50794529914856,0.6395399998791217,[0.61167736],5.0,0.6,0.0,-0.6433915675850171,0.1004182813681197,1.3558798962774152
4.524648666381836,0.6420801831966985,[0.61407849],5.0,0.6,0.0,-0.7333710978465506,0.10435205114652564,1.354458616858219
4.541415691375732,0.6446203665142752,[0.6164799],5.0,0.6,0.0,-0.6276004503385499,0.12532002872098724,1.3532346390479737
4.556016206741333,0.6469651511151151,[0.61888986],5.0,0.6,0.0,-0.4713634632112078,0.12856295333739784,1.3539880650222114
4.5706398487091064,0.6495053344326919,[0.62131479],5.0,0.6,0.0,-0.32290498072209817,0.13200748931512735,1.3529687543860713
4.584796667098999,0.6520455177502685,[0.62375889],5.0,0.6,0.0,0.07475493104790568,0.13428076357358723,1.3521169181292598
4.594297647476196,0.6534133087674253,[0.62622136],5.0,0.6,0.0,0.47620526063750085,0.11136623237859195,1.362365489660163
4.609745740890503,0.6559534920850019,[0.62869879],5.0,0.6,0.0,0.7968860790153339,0.1348224314815169,1.3614725356822073
4.620106935501099,0.6579074792523687,[0.6311911],5.0,0.6,0.0,1.0210671263429683,0.1175706160006144,1.3661926693199147
4.638754367828369,0.6610338587201554,[0.63370323],5.0,0.6,0.0,1.1593280428841104,0.15942477348840575,1.3602313762778389
4.650564670562744,0.6631832446042588,[0.63624566],5.0,0.6,0.0,1.2297411666545734,0.15174375114092276,1.3637882752165202
4.659941673278809,0.6647464343381523,[0.6388187],5.0,0.6,0.0,1.2501719136366152,0.1269304413444718,1.3730349273623137
4.671952486038208,0.6670912189389921,[0.641414],5.0,0.6,0.0,1.2356244304025719,0.14379905740027193,1.3753250223953464
4.686505079269409,0.6700221996900422,[0.64403309],5.0,0.6,0.0,1.4737888453672734,0.1561742431595095,1.372025857376042
4.7012622356414795,0.673148579157829,[0.64668577],5.0,0.6,0.0,1.730389786564254,0.16944168435910698,1.3670855245276847
4.714480400085449,0.6758841611921423,[0.64938195],5.0,0.6,0.0,2.1994467926205115,0.170656209653645,1.365358622623753
4.728449106216431,0.6790105406599292,[0.65212851],5.0,0.6,0.0,2.0693237395419666,0.17386105196858084,1.3622526486431117
4.746858835220337,0.6831139137113991,[0.65493778],5.0,0.6,0.0,2.0221945623110953,0.18116936124716446,1.3501501385561674
4.755268573760986,0.6852632995955026,[0.65782031],5.0,0.6,0.0,1.710439262350668,0.1687111965691606,1.3579984117850323
4.765960931777954,0.6878034829130792,[0.66076831],5.0,0.6,0.0,1.9042593060729678,0.16622292624884047,1.3613100230911135
4.784921884536743,0.692688450831496,[0.66377902],5.0,0.6,0.0,2.2011976904809347,0.17568743535047762,1.3424779768510542
4.794906139373779,0.6950332354323361,[0.66686029],5.0,0.6,0.0,2.1724691555877813,0.168039206185798,1.3497146457551126
4.811119079589844,0.6993320072005428,[0.67001377],5.0,0.6,0.0,2.2943030241209588,0.1726613502131864,1.3381503730708175
4.826767206192017,0.7034353802520129,[0.67324563],5.0,0.6,0.0,2.137899555567971,0.16815046615918602,1.3299736121242798
4.843954086303711,0.708124949453693,[0.67656968],5.0,0.6,0.0,1.8959655288314878,0.1504057251467254,1.3167606425724214
4.860933303833008,0.7132053160888464,[0.67999768],5.0,0.6,0.0,2.2017832604512364,0.14718407448983944,1.2984822741563813
4.878259897232056,0.7180902840072632,[0.6835359],5.0,0.6,0.0,2.0473735707711835,0.12778303727383547,1.2844608559454647
4.887974977493286,0.7208258660415765,[0.68718206],5.0,0.6,0.0,1.749540009622522,0.14831106506389863,1.2951407548271103
4.9022345542907715,0.7249292390930466,[0.69092346],5.0,0.6,0.0,1.165079498685122,0.14618830856474507,1.2925089582424996
4.9149558544158936,0.7284464159943067,[0.69474852],5.0,0.6,0.0,0.5853916530095948,0.14760160620058047,1.2965783429693882
4.930024862289429,0.7333313839127235,[0.69865083],5.0,0.6,0.0,0.11035659639058837,0.1424531032564285,1.2861876714395
4.943605422973633,0.7376301556809302,[0.70262598],5.0,0.6,0.0,0.033990479127466444,0.13913981539298745,1.282657971772109
4.958969593048096,0.742515123599347,[0.7066751],5.0,0.6,0.0,-0.45197928249001124,0.12884357681072642,1.2732923582386773
4.970811605453491,0.7458369017838703,[0.710797],5.0,0.6,0.0,-0.6960450518137344,0.13949738458862646,1.281906703192811
4.9923272132873535,0.7522850594361805,[0.71499538],5.0,0.6,0.0,-0.8074926988255084,0.07028330921248663,1.2567328717840411
5.006279230117798,0.7565838312043872,[0.71928614],5.0,0.6,0.0,-1.1214107048134228,0.0941607911049246,1.2561923137280202
5.0195698738098145,0.7604918055391207,[0.72367182],5.0,0.6,0.0,-1.1513844571175427,0.11161649058677948,1.2615221447087719
5.0322816371917725,0.7642043811571174,[0.72813798],5.0,0.6,0.0,-1.3464548929909248,0.12784199037736474,1.2695827687981398
5.046259641647339,0.7683077542085874,[0.73267308],5.0,0.6,0.0,-1.5414656194418186,0.12096891177335041,1.2739524769354944
5.059768438339233,0.7726065259767941,[0.73727269],5.0,0.6,0.0,-1.9569458536783135,0.12535860657817305,1.276194934735201
5.073664665222168,0.7771006964617375,[0.74193167],5.0,0.6,0.0,-2.064954314994072,0.12955325542965812,1.2776859920108075
5.088951349258423,0.781594866946681,[0.74664256],5.0,0.6,0.0,-2.3046941656781352,0.12882658235619718,1.2792885651813508
5.10296893119812,0.785698239998151,[0.75140002],5.0,0.6,0.0,-2.237606262441943,0.13232755075350391,1.286641294165566
5.1190876960754395,0.7905832079165678,[0.75620111],5.0,0.6,0.0,-2.0576152489090225,0.1248734935902022,1.2863027785765704
5.1329665184021,0.7948819796847746,[0.7610449],5.0,0.6,0.0,-1.8507763434448998,0.12682885958973789,1.2927934561365662
5.144973278045654,0.7987899540195079,[0.76592673],5.0,0.6,0.0,-1.6523824926957702,0.1422008643992925,1.3037083448536044
5.161590576171875,0.8038703206546614,[0.77084293],5.0,0.6,0.0,-1.474574191294845,0.11525869024159287,1.3023793944781157
5.170988082885742,0.8066059026889748,[0.77579176],5.0,0.6,0.0,-1.3194831237547084,0.15469404650721394,1.3257456066711222
5.185020685195923,0.8107092757404448,[0.780763],5.0,0.6,0.0,-1.1853405108652904,0.15767465067913136,1.3347635884499536
5.198004961013794,0.8144218513584416,[0.78574761],5.0,0.6,0.0,-1.0692063106920253,0.1627786069172085,1.3475163370735235
5.21888542175293,0.820674610294015,[0.7907536],5.0,0.6,0.0,-0.9681058417179909,0.08944093993279477,1.3353641292825964
5.2286765575408936,0.8241917871952751,[0.79578964],5.0,0.6,0.0,-0.6033996935158048,0.16469136005414026,1.350734819476299
5.24870753288269,0.8302491474141118,[0.80085702],5.0,0.6,0.0,-0.21586588843846913,0.06716861968559595,1.3412884398634497
5.261681079864502,0.8345479191823186,[0.80596488],5.0,0.6,0.0,-0.16806096982939256,0.12724488461501873,1.34923208125943
5.277993679046631,0.8394328871007354,[0.81111493],5.0,0.6,0.0,-0.23671495556090247,0.12771056494702154,1.351777152679317
5.292961359024048,0.8441224563024156,[0.81629897],5.0,0.6,0.0,-0.050945512055658185,0.14463096213183868,1.356559442660458
5.304890394210815,0.8480304306371489,[0.82150943],5.0,0.6,0.0,-0.09397493213621752,0.15983153788439083,1.3687670482670589
5.317772626876831,0.8521338036886189,[0.82673704],5.0,0.6,0.0,-0.20137429729045675,0.17084918420613032,1.3789445930347244
5.333009958267212,0.8568233728902991,[0.83197357],5.0,0.6,0.0,-0.5827167734902656,0.17716041497361093,1.3835666493986802
5.35449743270874,0.8638577266928191,[0.83722315],5.0,0.6,0.0,-0.42074454032957737,0.09386895198918584,1.3675935258901042
5.365334510803223,0.8671795048773426,[0.84249584],5.0,0.6,0.0,-0.10955076057141747,0.16716916240487537,1.3852662863087462
5.3806681632995605,0.8722598715124958,[0.84778704],5.0,0.6,0.0,0.19188014816400562,0.1576843047282527,1.3870847593912892
5.3972859382629395,0.877535636864386,[0.85309418],5.0,0.6,0.0,0.4305929779923583,0.1359130507912218,1.3872464270479332
5.410604476928711,0.8822252060660662,[0.85842094],5.0,0.6,0.0,0.874626392688068,0.15998873045575374,1.3922881252506976
5.422961711883545,0.8865239778342728,[0.8637582],5.0,0.6,0.0,1.0138728105279142,0.1903647530996241,1.400770625599792
5.433011293411255,0.8902365534522696,[0.86908326],5.0,0.6,0.0,0.7403161625855919,0.20694373559032114,1.413987417079618
5.447697639465332,0.8951215213706863,[0.87437816],5.0,0.6,0.0,0.9290056159767706,0.2037893027754499,1.4168995143532686
5.456918954849243,0.8984432995552097,[0.87963313],5.0,0.6,0.0,0.9435008907826274,0.21448141054173897,1.4310190461483454
5.472952604293823,0.9039144636238364,[0.88483976],5.0,0.6,0.0,0.8878295271814896,0.21292581713309278,1.429229322006734
5.484926223754883,0.9086040328255167,[0.88999881],5.0,0.6,0.0,1.0855264704500271,0.21853005198969783,1.4322348009150996
5.501912832260132,0.9150521904778267,[0.89511753],5.0,0.6,0.0,1.314219271664144,0.19543515732902525,1.4223141837177078
5.511826753616333,0.9187647660958235,[0.90019965],5.0,0.6,0.0,1.7697088353248167,0.21787530310383174,1.4310635452928622
5.5288918018341064,0.9252129237481336,[0.90524463],5.0,0.6,0.0,1.914409073695155,0.19874521761765768,1.4206295574742858
5.540208339691162,0.9295116955163404,[0.91025448],5.0,0.6,0.0,2.184607554826009,0.2121084205389413,1.4249755919715024
5.5544750690460205,0.9355690557351771,[0.91522945],5.0,0.6,0.0,2.14162510837423,0.2046286677530389,1.4171879726685193
5.564467191696167,0.9400632262201205,[0.92016273],5.0,0.6,0.0,1.9802655667662739,0.20748563247741336,1.4209389965619756
5.586205959320068,0.948660769756534,[0.9250585],5.0,0.6,0.0,1.787683726622293,0.151640388975902,1.392195502465854
5.599919557571411,0.9541319338251608,[0.92993879],5.0,0.6,0.0,1.3241482915789702,0.1662337162977759,1.388226815601242
5.613688945770264,0.9596030978937875,[0.93481431],5.0,0.6,0.0,0.5695093924586202,0.1729285204623972,1.384113505536334
5.627911329269409,0.9654650593958877,[0.9396801],5.0,0.6,0.0,-0.1423175439712388,0.1731750663789237,1.375473834048764
5.639115333557129,0.9701546285975677,[0.94452902],5.0,0.6,0.0,-0.4273657402866621,0.17936437953988896,1.376788573922339
5.650092363357544,0.9744534003657744,[0.94934852],5.0,0.6,0.0,-0.7917419957805791,0.17977805318035533,1.381103453076522
5.6625378131866455,0.9793383682841913,[0.95412539],5.0,0.6,0.0,-1.1029294938367478,0.17799101624272456,1.3797066818284862
5.681238889694214,0.9867635195201847,[0.95886091],5.0,0.6,0.0,-1.048591073762615,0.16266883926987413,1.3549885054486155
5.691929578781128,0.9912576900051281,[0.9635649],5.0,0.6,0.0,-1.15033287465811,0.1684998767984657,1.3568211933638858
5.702656507492065,0.9955564617733349,[0.96823188],5.0,0.6,0.0,-1.545235929718344,0.1651859810147891,1.3595135396050813
5.721033573150635,1.0033724104428017,[0.97285701],5.0,0.6,0.0,-1.6649241373229802,0.1531305677281148,1.3280169010231835
5.7349231243133545,1.0084527770779552,[0.97745109],5.0,0.6,0.0,-1.6532733149541754,0.15194676941398766,1.3230939896899176
5.749948263168335,1.0143147385800553,[0.98202002],5.0,0.6,0.0,-1.581705701404513,0.14612821710478643,1.3098692775090353
5.763869762420654,1.0199813013654186,[0.98656107],5.0,0.6,0.0,-1.209423899573617,0.14006075342485574,1.2987213267469524
5.778903007507324,1.026234060300992,[0.99107117],5.0,0.6,0.0,-1.072570944347723,0.13051020145573117,1.2800619115840521
5.790890216827393,1.0309236295026722,[0.99554748],5.0,0.6,0.0,-1.0246572878894329,0.12824720473573228,1.2777905713291968
5.804896354675293,1.0365901922880356,[0.99998734],5.0,0.6,0.0,-1.002189792906691,0.12086776322713527,1.2641960157537078
5.817863702774048,1.0418659576399256,[1.00438829],5.0,0.6,0.0,-0.9801585084508901,0.1150341121674503,1.2543777960618474
5.8318932056427,1.0475325204252892,[1.00874805],5.0,0.6,0.0,-1.226730085408625,0.10706346647931989,1.2390720182411972
5.84487247467041,1.053003684493916,[1.01306449],5.0,0.6,0.0,-1.2221840634159746,0.09962887181839289,1.2257445833636877
5.8612141609191895,1.0592564434294893,[1.0173365],5.0,0.6,0.0,-1.399014069657639,0.09044642872954546,1.2022076735482154
5.873919248580933,1.0637506139144328,[1.02156298],5.0,0.6,0.0,-1.3078229272902417,0.08394067685993144,1.199229536651632
5.886979103088379,1.0686355818328495,[1.02574118],5.0,0.6,0.0,-1.6840381363504422,0.07881931916508919,1.1900203052334797
5.899950742721558,1.0735205497512663,[1.02986871],5.0,0.6,0.0,-1.8430304835339792,0.07331474962678601,1.180589655179321
5.912945508956909,1.077819321519473,[1.03394436],5.0,0.6,0.0,-1.879752157425944,0.07036388553960922,1.1778255618827043
5.9278435707092285,1.0834858843048365,[1.03796721],5.0,0.6,0.0,-2.3996452499468375,0.06064667612677398,1.1564750385399067
5.943558692932129,1.0893478458069366,[1.04193854],5.0,0.6,0.0,-2.395467389330501,0.057302358613640914,1.1336755125425746
5.9557037353515625,1.0936466175751434,[1.04586042],5.0,0.6,0.0,-2.470625226327792,0.047036639207691154,1.1288444973471823
5.969723701477051,1.0981407880600869,[1.04973167],5.0,0.6,0.0,-2.8034400258899037,0.04247941398298275,1.1200061242109687
5.991264581680298,1.105175141862607,[1.05356049],5.0,0.6,0.0,-2.8463059154918193,0.052019554426033045,1.080956248771607
6.004532814025879,1.1094739136308136,[1.05736385],5.0,0.6,0.0,-2.753508066076276,0.04307475915213204,1.0753371329640746
6.013726472854614,1.1124048943818636,[1.06114083],5.0,0.6,0.0,-2.877654346971811,0.02259237132803018,1.0850736052040653
6.029809951782227,1.1174852610170172,[1.0648814],5.0,0.6,0.0,-3.013536992293626,0.032464214253862846,1.0682577237170836
6.040997266769409,1.1204162417680672,[1.06858461],5.0,0.6,0.0,-2.815180240763385,0.022851666103155435,1.0784567800927904
6.051393032073975,1.1233472225191172,[1.07224522],5.0,0.6,0.0,-2.789142383027114,0.005797977825032679,1.0874073354320932
6.066202640533447,1.1272551968538507,[1.07585572],5.0,0.6,0.0,-2.7900686934660213,0.019579239397845317,1.0837972361379848
6.0791168212890625,1.1307723737551107,[1.07941814],5.0,0.6,0.0,-2.48998228307377,0.02419754949557475,1.0855128984532838
6.089850902557373,1.1337033545061608,[1.08293471],5.0,0.6,0.0,-2.396144766830057,0.013117711399339767,1.0929515427122323
6.101870536804199,1.1368297339739475,[1.08640393],5.0,0.6,0.0,-2.357794785386642,0.023978694161469426,1.097244297409521
6.116895437240601,1.140737708308681,[1.08982874],5.0,0.6,0.0,-2.3163047491983866,0.02862643029687902,1.091527523190209
6.129854202270508,1.1438640877764674,[1.09321591],5.0,0.6,0.0,-2.2538910652678004,0.03537761833315328,1.094901050065395
6.14400577545166,1.1469904672442544,[1.09657216],5.0,0.6,0.0,-2.169551873927767,0.040985544154764214,1.097964809798022
6.1559319496154785,1.149530650561831,[1.09990404],5.0,0.6,0.0,-1.7921041333906098,0.04852987860706302,1.1086749692912519
6.16988468170166,1.152461631312881,[1.10321792],5.0,0.6,0.0,-1.9225619804708356,0.053765856327341904,1.1129603030766366
6.186186075210571,1.1561742069308776,[1.10652163],5.0,0.6,0.0,-1.3405926130168375,0.060335560877946115,1.1094090181298637
6.197852849960327,1.1585189915317178,[1.10982236],5.0,0.6,0.0,-0.8997471106215148,0.059513501350442,1.121735415264472
6.208868503570557,1.160863776132558,[1.11312315],5.0,0.6,0.0,-0.3012688132241797,0.0667536789624293,1.1338518896671808
6.221081018447876,1.1635993581668713,[1.11642609],5.0,0.6,0.0,0.23787159341709194,0.06850031723317677,1.1407414645937572
6.235946416854858,1.1665303389179214,[1.11973493],5.0,0.6,0.0,0.6526140628520406,0.07597586913269161,1.1450333133147153
6.250929832458496,1.1694613196689714,[1.12305484],5.0,0.6,0.0,0.9406679585596818,0.07902695345941516,1.1493876830488137
6.268258810043335,1.1731738952869681,[1.12639385],5.0,0.6,0.0,1.1219098778399548,0.08565171777050351,1.144599758657715
6.2840354442596436,1.1763002747547546,[1.1297636],5.0,0.6,0.0,1.4968978171919667,0.08838812447743216,1.1468094640271222
6.294312477111816,1.1784496606388581,[1.13316827],5.0,0.6,0.0,1.8450614927239066,0.08463728934106843,1.1610688296305602
6.305894613265991,1.1807944452396981,[1.13659925],5.0,0.6,0.0,2.096295919042014,0.08500553275488901,1.1733610309247267
6.321708917617798,1.1841162234242217,[1.14005159],5.0,0.6,0.0,2.243429035084341,0.09570676732811619,1.1744503073422232
6.342054128646851,1.1884149951924285,[1.14353862],5.0,0.6,0.0,2.302165088748799,0.09302584518430267,1.164530830075563
6.355803966522217,1.191541374660215,[1.14707937],5.0,0.6,0.0,2.2936514570663347,0.09909281857019928,1.1695272514053685
6.364744663238525,1.1936907605443183,[1.15066985],5.0,0.6,0.0,2.5136155589157374,0.09066817119769532,1.1859426720594923
6.381304025650024,1.1972079374455786,[1.15429415],5.0,0.6,0.0,2.7351929249040627,0.10447111603287461,1.1863585395944118
6.390255451202393,1.199357323329682,[1.15794432],5.0,0.6,0.0,2.6063293876297693,0.09202271843823237,1.204601741728542
6.40594220161438,1.203460696381152,[1.1616125],5.0,0.6,0.0,2.3578319989354437,0.10301196794371544,1.2003875388664262
6.420838832855225,1.206391677132202,[1.16529693],5.0,0.6,0.0,2.3657713896272785,0.1096701948551562,1.209220583227268
6.42970609664917,1.2083456642995687,[1.16899259],5.0,0.6,0.0,2.1503473226958008,0.08621558573080783,1.230212655491147
6.440828561782837,1.2108858476171456,[1.17268152],5.0,0.6,0.0,2.154164986932891,0.09212410051573083,1.243390243601587
6.456034898757935,1.214207625801669,[1.17635404],5.0,0.6,0.0,2.2020031525580936,0.10763376972949044,1.2472314710579193
6.466851472854614,1.216552410402509,[1.18001009],5.0,0.6,0.0,2.2285026303307154,0.10727856943607018,1.2619376050148754
6.4809815883636475,1.2198741885870323,[1.18364719],5.0,0.6,0.0,2.216354118274052,0.11081911600911841,1.2654991204231738
6.49497389793396,1.2233913654882922,[1.18726284],5.0,0.6,0.0,1.891434561685151,0.11193816345306766,1.2675832068274568
6.5078325271606445,1.2267131436728156,[1.19085615],5.0,0.6,0.0,1.78087858944723,0.11275864906066566,1.270900939009828
6.5208740234375,1.2298395231406025,[1.19442597],5.0,0.6,0.0,1.7389827830221933,0.1136088330174846,1.2759132884232327
6.532885551452637,1.2325751051749159,[1.19797087],5.0,0.6,0.0,1.706287959813341,0.11564619065086505,1.2848661138116957
6.548858880996704,1.236678478226386,[1.20148924],5.0,0.6,0.0,1.6622924140920348,0.110298442795795,1.278575312795601
6.561856031417847,1.239609458977436,[1.20497927],5.0,0.6,0.0,1.603069680439694,0.11013904162169183,1.2848365529455563
6.580315351486206,1.2446898256125896,[1.20844323],5.0,0.6,0.0,1.5309592755022357,0.1187528464793581,1.2671822948155547
6.595031261444092,1.2485977999473228,[1.21188805],5.0,0.6,0.0,1.4500285060430105,0.11405009093692399,1.2621823810217119
6.603248357772827,1.2511379832648997,[1.21531106],5.0,0.6,0.0,1.3642340833325737,0.08036784296791216,1.2722061330201377
6.613821744918823,1.2540689640159497,[1.21869865],5.0,0.6,0.0,1.000765335911499,0.08035952145846711,1.2778908249015923
6.625369548797607,1.2571953434837364,[1.22204061],5.0,0.6,0.0,0.8809736935913649,0.06751448293989676,1.2804297091873043
6.6398632526397705,1.2609079191017332,[1.22533368],5.0,0.6,0.0,0.8518348068314466,0.08124061903646036,1.2758462535052097
6.654848337173462,1.265011292153203,[1.22857928],5.0,0.6,0.0,0.571162118485671,0.07397869616122606,1.266611652976413
6.667170763015747,1.2681376716209898,[1.23177863],5.0,0.6,0.0,0.5320077710718475,0.07089874251280509,1.26745882463244
6.682844400405884,1.27224104467246,[1.23493081],5.0,0.6,0.0,0.29563920251508063,0.06283939068722133,1.2569207326591432
6.6978068351745605,1.2761490190071934,[1.2380354],5.0,0.6,0.0,-0.23890834733270275,0.05775852717966073,1.2478248602410058
6.710803747177124,1.2794707971917167,[1.24109214],5.0,0.6,0.0,-0.4890002348384796,0.05053115575838262,1.2446631832633743
6.7271058559417725,1.2835741702431867,[1.24410265],5.0,0.6,0.0,-0.8701502973046372,0.05850792400684259,1.2317109076891735
6.739544153213501,1.2867005497109734,[1.24706985],5.0,0.6,0.0,-0.9346024169931115,0.0442144764236154,1.2297827135451072
6.75081992149353,1.2892407330285505,[1.24999205],5.0,0.6,0.0,-1.149655027041148,0.031010234246221024,1.2338649496183445
6.770272254943848,1.2943210996637038,[1.25286959],5.0,0.6,0.0,-1.3585451387513794,0.051634859570708826,1.207808280856332
6.780228614807129,1.296470485547807,[1.25570666],5.0,0.6,0.0,-1.5094592631068036,0.02285252438121826,1.2155517389752626
6.794029235839844,1.2997922637323305,[1.2585012],5.0,0.6,0.0,-1.5949179247491996,0.020917484598357995,1.2091757668994558
6.804840564727783,1.3021370483331705,[1.26124899],5.0,0.6,0.0,-1.8999621262676794,0.008076619673870978,1.2131113416620092
6.818806886672974,1.3052634278009572,[1.263948],5.0,0.6,0.0,-1.918916568143795,0.008374510065086774,1.2080460338416734
6.83184289932251,1.308389807268744,[1.26659832],5.0,0.6,0.0,-1.8191217646409155,0.007568181179077917,1.2027202710162077
6.8448357582092285,1.3109299905863208,[1.26920216],5.0,0.6,0.0,-2.2302979749731664,0.009140885074700207,1.2022386233466356
6.861654758453369,1.3146425662043173,[1.27176347],5.0,0.6,0.0,-2.149043076740229,0.016973769486240187,1.1888825397095655
6.873555898666382,1.3169873508051573,[1.27428663],5.0,0.6,0.0,-2.1749136349713014,0.006356557358298702,1.1909167035818915
6.885836124420166,1.3193321354059975,[1.27677259],5.0,0.6,0.0,-2.2042642205002823,0.003167209765910785,1.1924955041027805
6.898853778839111,1.3216769200068375,[1.2792216],5.0,0.6,0.0,-2.2027075929226427,0.005644736676063678,1.1937352628406632
6.910844087600708,1.323630907174204,[1.28163597],5.0,0.6,0.0,-1.889023751170682,0.009478994326330944,1.2001282178402783
6.920660972595215,1.3253894956248342,[1.2840168],5.0,0.6,0.0,-1.7878049510520966,-0.0017125365660493473,1.207733081232501
6.9356489181518555,1.3275388815089375,[1.28636525],5.0,0.6,0.0,-2.0288161666280224,0.018750318182538056,1.2093896216180842
6.949944019317627,1.3296882673930412,[1.28868656],5.0,0.6,0.0,-2.3098875222986064,0.022733091271216335,1.210504059129639
6.964906454086304,1.331446855843671,[1.29098609],5.0,0.6,0.0,-2.5227360352347334,0.02576734456094504,1.2160696312181454
6.979877948760986,1.3328146468608277,[1.29326687],5.0,0.6,0.0,-3.747056181644361,0.031547660029987,1.221049021159402
6.998934745788574,1.334377836594721,[1.29553498],5.0,0.6,0.0,-5.0,0.06321339711710611,1.2212524066344796
7.017204999923706,1.335550228895141,[1.29780312],5.0,0.6,0.0,-5.0,0.08873950097902614,1.2337697760562512
7.030004262924194,1.3365272224788243,[1.30008152],5.0,0.6,0.0,-5.0,0.07944946912648032,1.2484334837379425
7.044348239898682,1.3376996147792444,[1.30237139],5.0,0.6,0.0,-4.5947791364847035,0.08441452289756331,1.263628013733066
7.058899879455566,1.3390674057964012,[1.30467146],5.0,0.6,0.0,-3.262391547311343,0.08281792060412417,1.2814337686013375
7.0727972984313965,1.3402397980968213,[1.30698052],5.0,0.6,0.0,-1.569422856172622,0.08375520162018685,1.299697421525004
7.0878143310546875,1.3418029878307145,[1.30929665],5.0,0.6,0.0,0.4888986921140581,0.08378958245282431,1.309327040810637
7.1018385887146,1.343170778847871,[1.31161813],5.0,0.6,0.0,2.2679159819225077,0.08563219798458632,1.3156423651003484
7.113816022872925,1.3445385698650278,[1.31394347],5.0,0.6,0.0,3.3157306639756188,0.08831608661013493,1.3211504646707934
7.125784158706665,1.3459063608821848,[1.31627136],5.0,0.6,0.0,3.8892245487737314,0.09159104419470776,1.3277803451164383
7.13982629776001,1.347469550616078,[1.31860071],5.0,0.6,0.0,4.43039096383747,0.09415853252860906,1.3320687944833138
7.151618480682373,1.3488373416332344,[1.32092921],5.0,0.6,0.0,4.805161623218598,0.08693123016732651,1.3388577912778044
7.161392450332642,1.3502051326503914,[1.32325085],5.0,0.6,0.0,4.721446124830182,0.07111214171030555,1.3484352066550598
7.172388076782227,1.351572923667548,[1.32555765],5.0,0.6,0.0,4.44934667483583,0.07028246627451593,1.3588807848708706
7.182883262634277,1.3529407146847048,[1.32784387],5.0,0.6,0.0,4.39093268750392,0.07082232809621232,1.3674927584224679
7.194838047027588,1.3545039044185982,[1.33010766],5.0,0.6,0.0,4.083694524813681,0.08591189542831813,1.3755151910796428
7.205970764160156,1.3558716954357548,[1.33234993],5.0,0.6,0.0,3.705705894271417,0.08882414706172295,1.385129352691183
7.216120004653931,1.3572394864529114,[1.33457011],5.0,0.6,0.0,3.3322849821525953,0.08220833795740429,1.3941273454662646
7.225170135498047,1.3586072774700682,[1.33676303],5.0,0.6,0.0,2.715259069204182,0.06328042346986504,1.4035199709088721
7.236884593963623,1.3603658659206983,[1.33892388],5.0,0.6,0.0,2.3804825202970648,0.08160349343051362,1.4079486334085773
7.250792741775513,1.3625152518048016,[1.3410547],5.0,0.6,0.0,2.171632020660013,0.09506272526130374,1.4085055597918468
7.26291036605835,1.3640784415386948,[1.34316164],5.0,0.6,0.0,2.016951719571078,0.1067210316074778,1.413197408827018
7.275874137878418,1.3660324287060617,[1.34525043],5.0,0.6,0.0,1.884900058986645,0.11329362292224843,1.4146094500916055
7.286248207092285,1.3677910171566916,[1.34732448],5.0,0.6,0.0,1.7626058354478862,0.10494655644684504,1.417330047245533
7.3011040687561035,1.3701358017575318,[1.34938676],5.0,0.6,0.0,1.645538139084826,0.12340801878930194,1.4154866568335152
7.313305616378784,1.3720897889248986,[1.35144202],5.0,0.6,0.0,1.532649789112305,0.1154247514952775,1.4165223464228605
7.322294473648071,1.3736529786587917,[1.35348973],5.0,0.6,0.0,1.4241641777029597,0.09016947590090664,1.4203990741546462
7.3317906856536865,1.3752161683926851,[1.35552276],5.0,0.6,0.0,1.320618544146287,0.07906721233836876,1.4240693462356502
7.343872785568237,1.3773655542767886,[1.35753711],5.0,0.6,0.0,1.222489831304217,0.09325894052366916,1.423267463587544
7.355170011520386,1.3793195414441553,[1.35953517],5.0,0.6,0.0,1.1300799443965772,0.09878523051446757,1.4237517559343633
7.367375135421753,1.3816643260449955,[1.36152043],5.0,0.6,0.0,1.319546798298186,0.0978659374071613,1.420756007042044
7.3794145584106445,1.3840091106458352,[1.36349488],5.0,0.6,0.0,1.2719063392407974,0.09634851915933562,1.4180751310562898
7.388350486755371,1.3857676990964651,[1.3654576],5.0,0.6,0.0,1.4177444962393497,0.07574159360302944,1.4193173976812488
7.4004974365234375,1.387721686263832,[1.36740529],5.0,0.6,0.0,1.3051222241445957,0.07934782733769266,1.4194979145218787
7.4145729541778564,1.3904572682981455,[1.36933842],5.0,0.6,0.0,1.1150124588901056,0.08960860315027322,1.413736948073291
7.4328577518463135,1.3939744451994056,[1.37126562],5.0,0.6,0.0,0.6466540670511447,0.11911248813372413,1.4016912042705547
7.442427158355713,1.3957330336500358,[1.37319574],5.0,0.6,0.0,0.44596622277546943,0.09206860798284187,1.403255488422655
7.452801942825317,1.3978824195341388,[1.37512749],5.0,0.6,0.0,0.08820903087554058,0.07872165675522624,1.4016185495292546
7.4648072719573975,1.4002272041349793,[1.37705712],5.0,0.6,0.0,0.02282922680977402,0.08374748613633869,1.3981923725094574
7.476762056350708,1.402571988735819,[1.37898575],5.0,0.6,0.0,-0.2122952060013056,0.08426045678754726,1.3946706244183766
7.489637851715088,1.4053075707701321,[1.38091555],5.0,0.6,0.0,0.09722049479511828,0.08147610509935665,1.3878059745758753
7.498992681503296,1.4070661592207623,[1.38284516],5.0,0.6,0.0,-0.029941029833039375,0.05796830716513236,1.3892898205098638
7.510515451431274,1.4094109438216025,[1.38476925],5.0,0.6,0.0,0.0028457206680887435,0.051865292521505346,1.3856419068543409
7.520793676376343,1.4111695322722326,[1.38668331],5.0,0.6,0.0,-0.19516617516106227,0.04737080878045208,1.3869674242503172
7.5370800495147705,1.4142959117400193,[1.38858832],5.0,0.6,0.0,-0.4275309807990954,0.07160981512919729,1.3760506619012334
7.549004077911377,1.416836095057596,[1.39048914],5.0,0.6,0.0,-0.6216777385547766,0.06021835733856155,1.3700863136466643
7.561767101287842,1.419180879658436,[1.39238778],5.0,0.6,0.0,-0.7591702680560974,0.058206558133106816,1.365827772688578
7.574767112731934,1.4219164616927495,[1.39428422],5.0,0.6,0.0,-0.8431865122375746,0.056009126052799715,1.3578512661995954
7.5939531326293945,1.4258244360274828,[1.39618369],5.0,0.6,0.0,-0.8839020680047722,0.08133653071163133,1.3382759787052216
7.605906009674072,1.4283646193450594,[1.39809344],5.0,0.6,0.0,-1.1683703813693744,0.05855957111348313,1.3315291961555418
7.6185479164123535,1.4307094039458996,[1.40001365],5.0,0.6,0.0,-1.187219298885997,0.049350616210906965,1.3271972071684066
7.627776145935059,1.4324679923965296,[1.40193924],5.0,0.6,0.0,-1.1027108450247514,0.032042426774592285,1.3290364422646572
7.641787767410278,1.435203574430843,[1.40386567],5.0,0.6,0.0,-0.9877453936731839,0.03145853142056167,1.320947149854014
7.6601526737213135,1.4385253526153663,[1.40579389],5.0,0.6,0.0,-1.1490016398412017,0.05023774981601464,1.3061488439287616
7.670928955078125,1.4404793397827331,[1.4077272],5.0,0.6,0.0,-1.078736206481752,0.027908027023574283,1.3060465939553343
7.689802408218384,1.4438011179672565,[1.40966715],5.0,0.6,0.0,-1.2103647498536572,0.052416400866400516,1.2910439927260915
7.698309421539307,1.4453643077011498,[1.4116135],5.0,0.6,0.0,-1.3674693534941311,0.009174523823796254,1.294874772503707
7.714053630828857,1.4484906871689365,[1.41356163],5.0,0.6,0.0,-1.4865177416075026,0.022729194552339575,1.28183928094443
7.726987600326538,1.4508354717697765,[1.41550899],5.0,0.6,0.0,-1.552854621680315,0.012628993132428391,1.2773267888075057
7.736757516860962,1.4522032627869332,[1.41745258],5.0,0.6,0.0,-1.5709801334900457,-0.006704915635264187,1.2835977466907662
7.748795986175537,1.4543526486710365,[1.41938596],5.0,0.6,0.0,-1.55128597587332,-0.004340369987360009,1.2812813256823379
7.763768672943115,1.4563066358384031,[1.42130611],5.0,0.6,0.0,-1.7805787026166813,-0.0024258354356712576,1.280344204350076
7.775774002075195,1.4578698255722966,[1.42321243],5.0,0.6,0.0,-2.025112643611398,0.00026838353643414447,1.2834057798572571
7.790756702423096,1.45943301530619,[1.42510434],5.0,0.6,0.0,-2.479829814761339,0.002332932466743573,1.2854674267728663
7.798790454864502,1.4600192114564001,[1.42697945],5.0,0.6,0.0,-2.88607176572563,-0.008195148851463056,1.2977018652327774
7.809291124343872,1.4606054076066102,[1.42883278],5.0,0.6,0.0,-3.1648858639182356,-0.008367157052059553,1.3097756946853605
7.819369554519653,1.4613870024735567,[1.43065906],5.0,0.6,0.0,-4.139829963530799,-0.013024471794302482,1.3153216243178427
7.83219838142395,1.4621685973405036,[1.43245504],5.0,0.6,0.0,-5.0,0.0010113176546010965,1.319864529668973
7.848454475402832,1.46295019220745,[1.43422245],5.0,0.6,0.0,-5.0,0.028872516366607197,1.3295777293089652
7.863786458969116,1.46295019220745,[1.43596699],5.0,0.6,0.0,-5.0,0.04442053932539844,1.3462193511808054
7.879723310470581,1.4633409896409235,[1.43769448],5.0,0.6,0.0,-5.0,0.06612374480564841,1.3584686411127693
7.890763998031616,1.46353638835766,[1.43940798],5.0,0.6,0.0,-4.67435987624185,0.05454511430670985,1.3740838675813363
7.902283668518066,1.4639271857911336,[1.4411056],5.0,0.6,0.0,-3.6628674816851827,0.0539551073734009,1.391188445484499
7.91425633430481,1.46412258450787,[1.44278379],5.0,0.6,0.0,-2.5787598011169584,0.052667260136007095,1.4080290624493694
7.932631492614746,1.4649041793748168,[1.44444375],5.0,0.6,0.0,-0.8181902611115119,0.08893241415390546,1.4191853034691349
7.9413135051727295,1.46529497680829,[1.4460883],5.0,0.6,0.0,0.5594717084863228,0.05997653791024379,1.4286437110032875
7.96130633354187,1.4662719703919733,[1.44771896],5.0,0.6,0.0,2.097444725044849,0.10492396437163279,1.43020926397884
7.975494861602783,1.46705356525892,[1.44934146],5.0,0.6,0.0,3.3696536888780653,0.10246974508369042,1.4308028453957935
7.989768028259277,1.4680305588426035,[1.4509601],5.0,0.6,0.0,4.274131080338869,0.1001915367057967,1.4299700949407295
8.003565311431885,1.4690075524262869,[1.45257431],5.0,0.6,0.0,4.837058628154146,0.09573660664131932,1.4303053523242921
8.01421046257019,1.4697891472932336,[1.45418178],5.0,0.6,0.0,4.848967829014134,0.08390658622016749,1.4352498122088826
8.029807806015015,1.4711569383103904,[1.45578081],5.0,0.6,0.0,5.0,0.09900448917924509,1.4355475020305366
8.040191888809204,1.4723293306108103,[1.45737105],5.0,0.6,0.0,5.0,0.07989637831419644,1.437968569389271
8.056302070617676,1.4736971216279668,[1.4589518],5.0,0.6,0.0,5.0,0.09638413236059154,1.439179050462632
8.070555686950684,1.4752603113618603,[1.46052464],5.0,0.6,0.0,4.979693294428936,0.0969741215091285,1.4393789006570379
8.08577013015747,1.4768235010957538,[1.46209173],5.0,0.6,0.0,4.74206787547616,0.09370039086507502,1.4410611439994232
8.099758386611938,1.478582089546384,[1.46365321],5.0,0.6,0.0,4.422709845909795,0.09024410631035472,1.4420538000679672
8.111747026443481,1.4799498805635405,[1.46520892],5.0,0.6,0.0,4.084639423192535,0.08933943988310572,1.445204856630593
8.125757455825806,1.4819038677309073,[1.46675886],5.0,0.6,0.0,3.7557613171186737,0.08603665652154872,1.44477121616407
8.139763832092285,1.483662456181537,[1.46830315],5.0,0.6,0.0,3.447260841352575,0.08405591025356009,1.4451457108549928
8.151315212249756,1.4852256459154307,[1.46984153],5.0,0.6,0.0,2.886531563166246,0.07824222015945957,1.4476044832890953
8.161173343658447,1.4867888356493237,[1.47137104],5.0,0.6,0.0,2.592523154376674,0.05591026277547349,1.4485924122331801
8.178132057189941,1.489133620250164,[1.47289033],5.0,0.6,0.0,2.4091501853503834,0.0865048956844241,1.4442973118849762
8.189496040344238,1.4906968099840574,[1.47440287],5.0,0.6,0.0,1.9912945301399514,0.07204856447161344,1.4453435805226769
8.19814395904541,1.4920646010012137,[1.47590758],5.0,0.6,0.0,1.5534324901065382,0.04932434359754729,1.4473365116946968
8.217437028884888,1.4946047843187906,[1.47740308],5.0,0.6,0.0,1.1736809918851816,0.08658293929068658,1.4415129820230286
8.230340003967285,1.4965587714861572,[1.47889502],5.0,0.6,0.0,0.594671341208071,0.07510831875357558,1.4392423114573134
8.239222049713135,1.497926562503314,[1.48038459],5.0,0.6,0.0,0.3304147026530598,0.05398351179095909,1.4402301422616177
8.2515127658844,1.4996851509539442,[1.48186732],5.0,0.6,0.0,-0.062286040783729096,0.05247779785877213,1.4384758728500304
8.271186590194702,1.5026161317049942,[1.48334582],5.0,0.6,0.0,-0.14494685257135914,0.09006574546176534,1.428406298888473
8.281107664108276,1.5039839227221508,[1.48482735],5.0,0.6,0.0,-0.11032988989746048,0.06567377655556117,1.4292247917313945
8.291987657546997,1.506328707322991,[1.48631096],5.0,0.6,0.0,-0.31924110775490494,0.04485292277934417,1.422909375527277
8.30797028541565,1.5082826944903576,[1.48779407],5.0,0.6,0.0,-0.5630443750574473,0.06772823895794797,1.4192350839540968
8.31676459312439,1.5094550867907774,[1.48927837],5.0,0.6,0.0,-0.7650037289931589,0.04927114591632322,1.421370986930972
8.330753803253174,1.5119952701083543,[1.49076341],5.0,0.6,0.0,-0.9059370208290374,0.05128682825023295,1.4131758688823006
8.349433183670044,1.5147308521426677,[1.49225243],5.0,0.6,0.0,-0.989571350970016,0.07909650532782127,1.40315410432911
8.362328052520752,1.5166848393100343,[1.49375315],5.0,0.6,0.0,-1.0269900365067968,0.06929080974187936,1.3993847072715897
8.371790409088135,1.5182480290439277,[1.49526596],5.0,0.6,0.0,-1.0300938537909694,0.04210901600574501,1.3989636901679927
8.3837308883667,1.5200066174945577,[1.49678591],5.0,0.6,0.0,-0.7331590722896295,0.047400878229582284,1.3973709930585716
8.39782428741455,1.5221560033786614,[1.49831188],5.0,0.6,0.0,-0.6632699212758052,0.049435165892111894,1.392190740851562
8.413706302642822,1.5245007879795012,[1.49984676],5.0,0.6,0.0,-0.6718091629162946,0.059126465794428186,1.3851982891744137
8.426954746246338,1.526454775146868,[1.50139364],5.0,0.6,0.0,-0.6959181811247637,0.053433741113964955,1.3815965186761683
8.445068359375,1.5291903571811813,[1.50295688],5.0,0.6,0.0,-0.7121089357550432,0.07769589899466199,1.371035822669962
8.460168361663818,1.5317305404987582,[1.50454352],5.0,0.6,0.0,-0.7141284589043028,0.0737718360510229,1.3622010285748998
8.476752281188965,1.5342707238163347,[1.50615854],5.0,0.6,0.0,-0.7026315946114814,0.07165852836455772,1.353432053829179
8.489140033721924,1.5364201097004382,[1.50780291],5.0,0.6,0.0,-0.6805352786426153,0.061841339555037386,1.3485766635041132
8.49828028678894,1.5379832994343312,[1.50947264],5.0,0.6,0.0,-0.6510578159244242,0.03356556934296991,1.3496398254839814
8.508469820022583,1.5397418878849616,[1.51115755],5.0,0.6,0.0,-0.616991648078316,0.009582389150812902,1.348957213613009
8.521909713745117,1.5416958750523284,[1.51284932],5.0,0.6,0.0,-0.30447822961617016,0.02485847985148324,1.346617569713233
8.534230947494507,1.543649862219695,[1.51454626],5.0,0.6,0.0,-0.23406696688673537,0.023027077491444944,1.3441270219941037
8.544733047485352,1.5450176532368518,[1.51624792],5.0,0.6,0.0,-0.25218193461920624,0.02617315601171811,1.347389068336557
8.55870795249939,1.547167039120955,[1.51795345],5.0,0.6,0.0,-0.5683726811544616,0.029167427241752357,1.342845162995089
8.57174301147461,1.548925627571585,[1.51966306],5.0,0.6,0.0,-0.913647114448693,0.03245775174853525,1.3419818041149019
8.582741737365723,1.5502934185887418,[1.52137618],5.0,0.6,0.0,-1.1917205871799845,0.02649301672589426,1.3449393035400945
8.596826553344727,1.5520520070393715,[1.52309214],5.0,0.6,0.0,-1.3810207437449562,0.04047571417456899,1.344160372475756
8.607727289199829,1.553615196773265,[1.52481066],5.0,0.6,0.0,-1.489196613832072,0.025420246651024637,1.3454486979462705
8.623880386352539,1.5557645826573687,[1.52653127],5.0,0.6,0.0,-1.5328266889907556,0.04287292483699707,1.341145266053957
8.63874077796936,1.557718569824735,[1.52825563],5.0,0.6,0.0,-1.52898938363446,0.039691625952921486,1.338884904674109
8.651799201965332,1.5592817595586286,[1.52998487],5.0,0.6,0.0,-1.2162104374877536,0.03826426610255736,1.3411642949210356
8.663227081298828,1.5606495505757851,[1.53171694],5.0,0.6,0.0,-1.1248241172032254,0.0286203215269115,1.3449039717802929
8.677725553512573,1.5624081390264153,[1.53344978],5.0,0.6,0.0,-1.1085917338939404,0.038543870811326396,1.3446787881828581
8.69088864326477,1.5639713287603085,[1.53518298],5.0,0.6,0.0,-0.8303016106340474,0.032868021238957525,1.3467418629256045
8.701716423034668,1.565339119777465,[1.53691416],5.0,0.6,0.0,-0.7865787588805142,0.020236676951206047,1.3503247952612536
8.712096214294434,1.566706910794622,[1.53863738],5.0,0.6,0.0,-0.8172549652786117,0.007520301597837369,1.3537117846948659
8.724170207977295,1.5680747018117789,[1.54034676],5.0,0.6,0.0,-0.580213769923895,0.007906663167069441,1.3572205664495742
8.738853216171265,1.569833290262409,[1.54203998],5.0,0.6,0.0,-0.5710811927617607,0.017434527390681964,1.3566062197674473
8.75012731552124,1.5710056825628287,[1.543717],5.0,0.6,0.0,-0.3541790463266055,0.013483715279365496,1.361532223074256
8.761738061904907,1.5723734735799855,[1.54537684],5.0,0.6,0.0,-0.3833747175309946,0.015450025123315227,1.3642526010326523
8.773750305175781,1.573741264597142,[1.54701887],5.0,0.6,0.0,-0.20562785219742227,0.020290259543097777,1.3668810327372016
8.787818908691406,1.5753044543310357,[1.54864389],5.0,0.6,0.0,-0.26858821996430665,0.02276303858962017,1.367431274219865
8.8007493019104,1.5764768466314556,[1.55025299],5.0,0.6,0.0,-0.39387078827428024,0.02619625650337713,1.3713856329321092
8.816707611083984,1.5782354350820853,[1.55184714],5.0,0.6,0.0,-0.5106909677209097,0.02613546840579052,1.3698003438626807
8.82883620262146,1.5794078273825054,[1.55342726],5.0,0.6,0.0,-0.8725004919247622,0.02875594661685709,1.3731513153598747
8.848403692245483,1.5811664158331356,[1.55499655],5.0,0.6,0.0,-0.9579444099598788,0.0501895042017727,1.3713116450107616
8.859545707702637,1.5821434094168187,[1.55655888],5.0,0.6,0.0,-0.9266689254625147,0.035397599963687444,1.3766546952317118
8.873180389404297,1.5835112004339755,[1.55811355],5.0,0.6,0.0,-0.5765937486199356,0.030263176599396494,1.3787194189264642
8.885716438293457,1.5846835927343956,[1.55965836],5.0,0.6,0.0,-0.18346022945885243,0.03152919485535012,1.3822490718941283
8.89935302734375,1.5858559850348157,[1.56119341],5.0,0.6,0.0,0.15104423004168938,0.036753601650583376,1.3854425902244694
8.912712335586548,1.5870283773352356,[1.56271997],5.0,0.6,0.0,0.12526339458723731,0.039754927520484935,1.3885246409612781
8.930315017700195,1.5887869657858658,[1.56424157],5.0,0.6,0.0,0.2629042518372685,0.0608802292735408,1.3864297701352133
8.941478252410889,1.5899593580862856,[1.56576222],5.0,0.6,0.0,0.42386028023862254,0.04582547830093646,1.389362254856569
8.961101293563843,1.5917179465369158,[1.5672857],5.0,0.6,0.0,0.5566558249915534,0.07886261555500505,1.3872336903429108
8.975806713104248,1.5932811362708093,[1.56881815],5.0,0.6,0.0,0.9245110302853966,0.07083893979141496,1.3865617529987682
8.989144086837769,1.5948443260047027,[1.57036273],5.0,0.6,0.0,1.0110304652255029,0.06554282628529146,1.3862756988763048
8.999728918075562,1.595821319588386,[1.57191669],5.0,0.6,0.0,0.9783887238903749,0.046671211669989984,1.3912905081996974
9.011990785598755,1.5971891106055427,[1.57347565],5.0,0.6,0.0,1.1778767096403124,0.0493992949057664,1.3925963041181746
9.020194053649902,1.5983615029059628,[1.57503502],5.0,0.6,0.0,1.124034870024766,0.0276519885134119,1.3959477759400112
9.031709671020508,1.5995338952063825,[1.5765901],5.0,0.6,0.0,1.261400717406851,0.036816524429832374,1.3988862236899715
9.048374891281128,1.6012924836570126,[1.57814082],5.0,0.6,0.0,1.1430607607120475,0.05564885652735311,1.3973743775734984
9.059725522994995,1.6026602746741694,[1.57969067],5.0,0.6,0.0,0.951151397747932,0.051207088608513245,1.3991829698659228
9.072797775268555,1.604028065691326,[1.58124119],5.0,0.6,0.0,1.036640007833996,0.05848984052491716,1.400562658509143
9.086719989776611,1.6053958567084827,[1.5827939],5.0,0.6,0.0,0.9067298895531961,0.0644378469943299,1.4022646848779066
9.105203866958618,1.6073498438758493,[1.58435389],5.0,0.6,0.0,0.9973019042156396,0.08958963466938648,1.3988981652407138
9.116862297058105,1.6087176348930061,[1.58592726],5.0,0.6,0.0,0.8536545003706757,0.07920480225628963,1.400791051293146
9.132724523544312,1.610671622060373,[1.58751681],5.0,0.6,0.0,0.9276759561711014,0.08661503507562936,1.3976796849846533
9.145250082015991,1.6120394130775293,[1.58912375],5.0,0.6,0.0,1.0465905967012095,0.08089755538335956,1.399486866942809
9.157234907150269,1.6134072040946863,[1.59074721],5.0,0.6,0.0,0.8687696141744579,0.07129814596647603,1.4018405689474798
9.172024011611938,1.6153611912620527,[1.59238583],5.0,0.6,0.0,0.8947988720120614,0.08374457881980649,1.3992127354047426
9.183634996414185,1.6169243809959462,[1.59403983],5.0,0.6,0.0,0.9707847617937069,0.07034871018197238,1.3998571006354628
9.19476318359375,1.618292172013103,[1.59570634],5.0,0.6,0.0,1.036769950861309,0.061486875675686066,1.4022083748284628
9.214130878448486,1.6210277540474165,[1.59738512],5.0,0.6,0.0,1.0745564889657944,0.09393956254873954,1.393368892394313
9.22278356552124,1.6220047476310997,[1.59907838],5.0,0.6,0.0,1.0831889413527063,0.05761785077275411,1.399340565120811
9.237134456634521,1.6243495322319397,[1.60078253],5.0,0.6,0.0,1.0677953448888224,0.06705076617370824,1.394018487572425
9.25655460357666,1.6272805129829897,[1.60249878],5.0,0.6,0.0,1.0347765998844545,0.09369107446659918,1.383620357899896
9.26572561264038,1.62845290528341,[1.60423178],5.0,0.6,0.0,0.9899387994022819,0.064676291217684,1.3885604369885858
9.277968406677246,1.63021149373404,[1.6059772],5.0,0.6,0.0,0.937935179555019,0.056181563842004185,1.3885214854217567
9.298881530761719,1.6333378732018264,[1.6077338],5.0,0.6,0.0,0.8822496314885395,0.09177971281157499,1.37653891732268
9.313704490661621,1.63548725908593,[1.60950825],5.0,0.6,0.0,0.5493334014115343,0.07925161463447583,1.3735072177350847
9.327710628509521,1.6376366449700333,[1.61130202],5.0,0.6,0.0,0.18381097462485013,0.0691679885966692,1.3704618147694432
9.342767715454102,1.6399814295708732,[1.61311133],5.0,0.6,0.0,0.15107124157031168,0.06015015621147218,1.3655240689620092
9.356684684753418,1.6421308154549765,[1.61493265],5.0,0.6,0.0,-0.046143129399650165,0.05378313642970417,1.3624743331600722
9.368688344955444,1.6440848026223436,[1.61676274],5.0,0.6,0.0,0.017744473937357723,0.04946550574209262,1.3613112797360267
9.38673710823059,1.6470157833733936,[1.61860028],5.0,0.6,0.0,0.15335533467997983,0.05586136063097077,1.350859091218826
9.399893760681152,1.649165169257497,[1.62044542],5.0,0.6,0.0,0.008416397071240853,0.04620716301291401,1.3479234498774826
9.413345336914062,1.6511191564248633,[1.62229568],5.0,0.6,0.0,-0.19942217422581704,0.03601283741970834,1.3468823096453695
9.426888942718506,1.6534639410257037,[1.62414727],5.0,0.6,0.0,-0.3856320329333658,0.03616674502398243,1.341958258732664
9.445517539978027,1.6561995230600168,[1.62600172],5.0,0.6,0.0,-0.8009083483161548,0.06117812213453175,1.3328061611900146
9.459112167358398,1.6583489089441203,[1.62786363],5.0,0.6,0.0,-0.9253923029671385,0.04675532236993582,1.3297440899217072
9.466769456863403,1.6593259025278038,[1.62972932],5.0,0.6,0.0,-0.9214844584432091,0.014597656374847069,1.3386645030042765
9.481784105300903,1.6616706871286435,[1.63158958],5.0,0.6,0.0,-0.8659191315431791,0.019437433546934044,1.3338986770565184
9.497138738632202,1.6638200730127473,[1.6334427],5.0,0.6,0.0,-1.069924837529198,0.03954343890755385,1.3306211968769008
9.507896661758423,1.6651878640299036,[1.63529066],5.0,0.6,0.0,-1.029873874238151,0.022535463072106725,1.3355105032665118
9.522489309310913,1.6671418511972707,[1.63713228],5.0,0.6,0.0,-1.458564579331719,0.03476640738650897,1.3335930768852502
9.538116455078125,1.669291237081374,[1.63896891],5.0,0.6,0.0,-1.663197733046665,0.045148752167886406,1.3299734662676028
9.550219297409058,1.6706590280985305,[1.64080337],5.0,0.6,0.0,-1.736845683215328,0.03875592950604003,1.3344742150790472
9.56895899772644,1.6730038126993705,[1.64263916],5.0,0.6,0.0,-1.733481139111415,0.0701907853800384,1.3293691523657842
9.582096338272095,1.674567002433264,[1.64448275],5.0,0.6,0.0,-1.6851560615621661,0.06360293792849125,1.3323154827079984
9.596316576004028,1.6765209896006308,[1.64633714],5.0,0.6,0.0,-1.3352752245604609,0.06154054270582402,1.3320983581081074
9.61067008972168,1.6784749767679974,[1.64820186],5.0,0.6,0.0,-0.9387474893506522,0.058496838309146496,1.331869235373544
9.624759912490845,1.6802335652186273,[1.65007661],5.0,0.6,0.0,-0.5912747527354709,0.05760668771954652,1.333434232219227
9.641348600387573,1.6825783498194673,[1.65196142],5.0,0.6,0.0,-0.3185222485918341,0.058689292127108994,1.3289707776753177
9.655200719833374,1.684532336986834,[1.65385704],5.0,0.6,0.0,-0.11783036810822305,0.058948091649118954,1.328443021001277
9.667670249938965,1.686290925437464,[1.65576313],5.0,0.6,0.0,0.022940498682262285,0.05194227269500565,1.329950026338889
9.680673360824585,1.688049513888094,[1.65767786],5.0,0.6,0.0,0.1173950483892029,0.05339116013642873,1.3315200513709025
9.69662857055664,1.6901988997721975,[1.65960125],5.0,0.6,0.0,0.17758063897022847,0.06286103769083942,1.3292185019001574
9.709891319274902,1.6921528869395643,[1.66153528],5.0,0.6,0.0,0.21316539483469205,0.06189670801561827,1.329005614767668
9.7216956615448,1.6937160766734578,[1.66347904],5.0,0.6,0.0,0.507547953246847,0.048389547038009705,1.3326966327563456
9.733663558959961,1.695279266407351,[1.66542866],5.0,0.6,0.0,0.5472017828633688,0.051354948737561405,1.336542368837709
9.752956628799438,1.6980148484416642,[1.66738458],5.0,0.6,0.0,0.7667706724648955,0.07129784114567142,1.3284733809255465
9.77140474319458,1.7003596330425044,[1.66935447],5.0,0.6,0.0,0.7173145146090559,0.08942235376374372,1.3247060857494553
9.787692546844482,1.7027044176433446,[1.67134495],5.0,0.6,0.0,0.5820211872892369,0.07434573549543866,1.3211986441462917
9.801642656326294,1.7046584048107114,[1.67335483],5.0,0.6,0.0,0.4378097693453188,0.06400255668896596,1.3218836950932125
9.81465482711792,1.706416993261341,[1.67537913],5.0,0.6,0.0,0.31287317839764056,0.05705392994304073,1.3246814495699724
9.829698324203491,1.7085663791454446,[1.6774132],5.0,0.6,0.0,0.21412655588203294,0.049952879171481564,1.3235380106121528
9.844784498214722,1.7111065624630215,[1.67945372],5.0,0.6,0.0,0.41604380248760864,0.05130478445042292,1.3182904771264803
9.861738920211792,1.7134513470638615,[1.6815007],5.0,0.6,0.0,0.6714180124652864,0.060390492201124746,1.3149892629286284
9.872000455856323,1.7150145367977547,[1.68355287],5.0,0.6,0.0,0.8874272486034739,0.035221186074381586,1.319810781083816
9.881661653518677,1.7163823278149113,[1.68560252],5.0,0.6,0.0,0.7630317216371467,0.023282048302405774,1.3269566400955126
9.895655155181885,1.7183363149822781,[1.68764146],5.0,0.6,0.0,0.5435046304151138,0.02391934610941125,1.3280346845046465
9.908639669418335,1.7198995047161716,[1.6896658],5.0,0.6,0.0,0.32853326726995286,0.02588251247960475,1.3328415806851208
9.922669410705566,1.7218534918835382,[1.69167343],5.0,0.6,0.0,-0.12410735132278763,0.02556598981358224,1.333450455863376
9.936651229858398,1.7234166816174314,[1.69366255],5.0,0.6,0.0,-0.28974810474248114,0.02671373928072163,1.3376656295111569
9.949753522872925,1.7251752700680614,[1.69563168],5.0,0.6,0.0,-0.6040645408484618,0.026773219991615433,1.3395508807588279
9.963665008544922,1.7269338585186915,[1.6975796],5.0,0.6,0.0,-0.8992856494291281,0.026702964802425053,1.341095914343373
9.977673530578613,1.7286924469693217,[1.69950539],5.0,0.6,0.0,-1.1214746241231763,0.02653577108148567,1.3424115647792754
9.991618394851685,1.730646434136688,[1.70140838],5.0,0.6,0.0,-1.264473651024373,0.025324998068648585,1.3416557421833497
10.004713535308838,1.7322096238705815,[1.70328815],5.0,0.6,0.0,-1.0635916561340735,0.025814508015307228,1.345112608362606
10.01671838760376,1.7337728136044748,[1.7051445],5.0,0.6,0.0,-1.0534228110611472,0.0263486339035353,1.3479879039500968
10.03653335571289,1.7361175982053152,[1.70697988],5.0,0.6,0.0,-1.0939546070605162,0.045624227395038144,1.342942344875258
10.050837516784668,1.7378761866559451,[1.70879947],5.0,0.6,0.0,-1.1299835129605809,0.04375317816140993,1.3434823831812044
10.05997371673584,1.739048578956365,[1.71060346],5.0,0.6,0.0,-0.8681188342934278,0.016902475864370797,1.3500293938477008
10.073315620422363,1.7406117686902585,[1.7123865],5.0,0.6,0.0,-0.8257076440095875,0.017688877966202804,1.3522049546994175
10.087098121643066,1.742174958424152,[1.71414612],5.0,0.6,0.0,-0.8521101114109368,0.02211803230087404,1.354058558840783
10.10747742652893,1.7445197430249917,[1.7158867],5.0,0.6,0.0,-0.8854287864437589,0.052086535910949326,1.3481840396626077
10.122723817825317,1.7460829327588854,[1.71761651],5.0,0.6,0.0,-0.6279804269616743,0.052055220585500585,1.3500903532983692
10.136666059494019,1.747450723776042,[1.71933981],5.0,0.6,0.0,-0.5943228652225184,0.044681052115042724,1.353548757786987
10.151660919189453,1.7490139135099352,[1.72105584],5.0,0.6,0.0,-0.3559506430256792,0.03869590495193906,1.3551819752216714
10.165658473968506,1.7505771032438289,[1.7227631],5.0,0.6,0.0,-0.09267961466255037,0.03451744928987552,1.3566453886507097
10.179741859436035,1.7521402929777221,[1.72446038],5.0,0.6,0.0,0.12969948927307776,0.03165981424113708,1.3579150892434315
10.194675207138062,1.753508083994879,[1.72614713],5.0,0.6,0.0,0.019064610245300886,0.034327976932384784,1.3609449960838607
10.211836814880371,1.7554620711622455,[1.72782519],5.0,0.6,0.0,0.09802944007435221,0.047243963930745266,1.3583290627432567
10.2251615524292,1.756829862179402,[1.72949767],5.0,0.6,0.0,0.22186570520688242,0.04202606784052019,1.3611795366107762
10.243905782699585,1.758588450630032,[1.73116783],5.0,0.6,0.0,0.333959293669456,0.06169216950866958,1.3602995658903523
10.257566928863525,1.7603470390806621,[1.73283939],5.0,0.6,0.0,0.14092808723369804,0.051126819438247435,1.359545612768557
10.27263069152832,1.7619102288145554,[1.73451281],5.0,0.6,0.0,0.1606698486953676,0.04423848676608138,1.3605822881134368
10.287668704986572,1.763473418548449,[1.73618578],5.0,0.6,0.0,0.5192838926366363,0.03943783403582054,1.3614347706861722
10.300658226013184,1.7648412095656056,[1.73785641],5.0,0.6,0.0,0.6366083767971555,0.03729516228438943,1.3641707810189272
10.31364369392395,1.7664043992994989,[1.73952314],5.0,0.6,0.0,0.9223450298749057,0.0352075434356447,1.3648043485209407
10.326627254486084,1.767772190316656,[1.74118478],5.0,0.6,0.0,0.920913937222031,0.03495687348286763,1.367530086748171
10.339661598205566,1.7691399813338122,[1.74284041],5.0,0.6,0.0,0.8162357708012922,0.035285647858247046,1.370312522458909
10.35265827178955,1.7707031710677057,[1.74448936],5.0,0.6,0.0,0.6884060689976074,0.035001179783346874,1.3712403040075811
10.366652250289917,1.7720709620848625,[1.74613118],5.0,0.6,0.0,0.5691483433153652,0.03587824511718681,1.3738466834245773
10.38273024559021,1.7736341518187557,[1.74776556],5.0,0.6,0.0,0.4684799817040454,0.03589780782892304,1.374569481024824
10.398797035217285,1.7751973415526492,[1.74939347],5.0,0.6,0.0,0.1112642645705938,0.046582708672170126,1.3753088667098319
10.412402629852295,1.776565132569806,[1.75101687],5.0,0.6,0.0,0.01401447371820537,0.04464473565998147,1.3776188765771573
10.428409099578857,1.778323721020436,[1.75263783],5.0,0.6,0.0,0.018782997705666195,0.0552365620407287,1.3763819038634553
10.44263768196106,1.7796915120375927,[1.75425879],5.0,0.6,0.0,0.055270003541464496,0.0540951319427918,1.3786511738361766
10.45168137550354,1.7806685056212759,[1.7558783],5.0,0.6,0.0,0.09437458938112492,0.02921399641915482,1.3843358966684816
10.466635704040527,1.782427094071906,[1.75749167],5.0,0.6,0.0,0.12575966959991342,0.03829178202920725,1.3830544233674154
10.486502885818481,1.7845764799560093,[1.75910127],5.0,0.6,0.0,0.4232251474107146,0.0691220937033218,1.3781401875994772
10.498504877090454,1.7857488722564294,[1.76071352],5.0,0.6,0.0,0.4687330110144673,0.05305782099036358,1.3820212451463374
10.511432409286499,1.7871166632735858,[1.76232776],5.0,0.6,0.0,0.41883923262666645,0.04241024317340241,1.3842233697556696
10.521732330322266,1.7880936568572692,[1.7639387],5.0,0.6,0.0,0.34267987261976496,0.031809327114664776,1.389771502192576
10.540709018707275,1.7902430427413727,[1.76554518],5.0,0.6,0.0,0.26842111526135803,0.059526333295351494,1.38509753554374
10.554632425308228,1.7916108337585295,[1.76715123],5.0,0.6,0.0,0.205662462470739,0.055012517090895996,1.3871954849410089
10.567476511001587,1.7929786247756863,[1.76875814],5.0,0.6,0.0,0.15606303783152392,0.04691743182842198,1.389276768313374
10.576989650726318,1.7941510170761064,[1.77036161],5.0,0.6,0.0,0.11825201888452098,0.028181981287122758,1.3929731278097714
10.59160041809082,1.7959096055267365,[1.77195741],5.0,0.6,0.0,0.09000193594374585,0.03977104883311348,1.3915905161690427
10.602216720581055,1.7970819978271562,[1.77354338],5.0,0.6,0.0,0.06911796692438507,0.02363633266366524,1.3951022658993186
10.621588468551636,1.7992313837112597,[1.77512105],5.0,0.6,0.0,0.053744425098303954,0.065246042407366,1.3902400838718099
10.636719942092896,1.8009899721618894,[1.77669704],5.0,0.6,0.0,0.04242128067423467,0.05871414015074843,1.3886686330308877
10.651625156402588,1.8027485606125195,[1.77827509],5.0,0.6,0.0,0.034044706286098875,0.053259632719211816,1.3871056783566917
10.663596868515015,1.8039209529129396,[1.77985434],5.0,0.6,0.0,0.027799940107833775,0.051685519182151154,1.3906168162049335
10.679603815078735,1.8056795413635696,[1.78143391],5.0,0.6,0.0,0.02309452246572924,0.04779434663731732,1.389077779656543
10.69161605834961,1.8070473323807266,[1.78301283],5.0,0.6,0.0,0.019501670134685345,0.04607218390511934,1.3908922836825752
10.70461368560791,1.8082197246811464,[1.78459004],5.0,0.6,0.0,0.01671568573508343,0.04541247020805779,1.3943369623305752
10.722761631011963,1.81036911056525,[1.78616537],5.0,0.6,0.0,0.2905566212951823,0.049563235500221306,1.3893762890460066
10.73693037033081,1.8119323002991432,[1.7877399],5.0,0.6,0.0,0.3219166081916799,0.048568014781518225,1.3894596577575058
10.74843168258667,1.8133000913163,[1.78931249],5.0,0.6,0.0,0.26537633280985734,0.03191713601109904,1.3912414994553735
10.760597944259644,1.8144724836167199,[1.79087881],5.0,0.6,0.0,0.18809030930323953,0.028635027088785053,1.3946151085613696
10.773587226867676,1.8158402746338766,[1.79243535],5.0,0.6,0.0,0.11655141565504454,0.02846311336668032,1.3962199638888326
10.78762698173523,1.81740346436777,[1.79398043],5.0,0.6,0.0,0.33509523030527544,0.026775042325903345,1.395994522067646
10.800615787506104,1.8189666541016634,[1.79551286],5.0,0.6,0.0,0.3254628498016825,0.02496238362743269,1.395740874973988
10.812603235244751,1.82033444511882,[1.79703156],5.0,0.6,0.0,0.2402823325566208,0.024140779500634327,1.3970418390131836
10.825605392456055,1.8217022361359765,[1.79853564],5.0,0.6,0.0,0.14407622556669425,0.023465677008763168,1.3982063859544702
10.84161901473999,1.8234608245866066,[1.80002443],5.0,0.6,0.0,-0.21516823537846622,0.02124087145392175,1.3959314345853004
10.861943006515503,1.8254148117539735,[1.80150042],5.0,0.6,0.0,-0.864310939571778,0.04711805795631675,1.3913634771211139
10.875197649002075,1.8265872040543936,[1.80296867],5.0,0.6,0.0,-0.921015313662056,0.0389562177405631,1.393800340607757
10.884885549545288,1.8275641976380768,[1.80442872],5.0,0.6,0.0,-1.0411668902967244,0.017577238700909246,1.3976743963151799
10.897797107696533,1.8289319886552335,[1.80587548],5.0,0.6,0.0,-1.1464256639065404,0.01687247737353304,1.3981589941838035
10.909652709960938,1.8301043809556534,[1.80730597],5.0,0.6,0.0,-0.9370943203109199,0.01459202951264227,1.400613947946367
10.924183368682861,1.8316675706895469,[1.80872005],5.0,0.6,0.0,-0.6549927824146041,0.022865106442582755,1.399719266360937
10.934611320495605,1.8324491655564934,[1.81011889],5.0,0.6,0.0,-0.6712369804434679,0.023224349482947857,1.4047480866439157
10.951054573059082,1.834012355290387,[1.81150398],5.0,0.6,0.0,-0.4963689043707342,0.03038237612796918,1.4034556137890482
10.969449281692505,1.8355755450242803,[1.81287985],5.0,0.6,0.0,-0.2872311836386715,0.05450599076213016,1.4020484911977968
10.981667041778564,1.8367479373247004,[1.81425236],5.0,0.6,0.0,-0.3793863897404244,0.04356161520250677,1.4036358768860786
10.992631196975708,1.8377249309083836,[1.81562157],5.0,0.6,0.0,-0.27045743276775536,0.028612646618541012,1.4068558790374932
11.00600790977478,1.8388973232088037,[1.81698441],5.0,0.6,0.0,-0.3902687475953903,0.03264917473142929,1.4083187046733014
11.015671968460083,1.8396789180757502,[1.81833971],5.0,0.6,0.0,-0.28024869547564474,0.02961228528077106,1.4128931825313014
11.030599355697632,1.841046709092907,[1.81968731],5.0,0.6,0.0,-0.11376376875589164,0.03378025090371579,1.4127845743378278
11.045271396636963,1.8424145001100636,[1.82102838],5.0,0.6,0.0,0.0406358767333765,0.040179971259279974,1.4125845190537263
11.059674263000488,1.8435868924104835,[1.82236576],5.0,0.6,0.0,0.16132049850267008,0.0474725863243432,1.413850328619767
11.075748443603516,1.8451500821443771,[1.82370352],5.0,0.6,0.0,-0.029755401162765135,0.05961082802939096,1.4121126873116614
11.09217119216919,1.8467132718782704,[1.82504713],5.0,0.6,0.0,-0.008518343301097818,0.06831920578053391,1.4103879629825566
11.103184461593628,1.8476902654619538,[1.82639894],5.0,0.6,0.0,0.07715066601018665,0.04607830194370049,1.4133200152405325
11.119421243667603,1.8492534551958473,[1.82775856],5.0,0.6,0.0,0.16636384392698722,0.06722288401150443,1.4117142046277955
11.131170272827148,1.8502304487795302,[1.82912738],5.0,0.6,0.0,0.5138097338821441,0.05513270695060589,1.4145869351888827
11.145323038101196,1.8519890372301604,[1.83050623],5.0,0.6,0.0,0.8722261212155398,0.06113827286334449,1.4112635410029815
11.155391931533813,1.852966030813844,[1.83189351],5.0,0.6,0.0,1.155609181656854,0.04085788238976459,1.414026124664878
11.17496132850647,1.8549200179812106,[1.83328947],5.0,0.6,0.0,1.0710830594964702,0.07580426036889863,1.4098154074008238
11.189680814743042,1.856483207715104,[1.83469973],5.0,0.6,0.0,1.1473355067135533,0.07602227881606759,1.4084812754407372
11.202824592590332,1.8576556000155238,[1.83612879],5.0,0.6,0.0,1.2471026622183456,0.07505508874867148,1.4103280443553943
11.215314626693726,1.8590233910326808,[1.83757584],5.0,0.6,0.0,1.0444822026205864,0.06338762682322414,1.4112942098613366
11.224984169006348,1.8601957833331009,[1.83903713],5.0,0.6,0.0,0.7704570318519254,0.05270826137430887,1.413912064228584
11.242618083953857,1.8621497705004673,[1.84051209],5.0,0.6,0.0,0.7922972018287497,0.08564325463851352,1.4101454426210303
11.255165100097656,1.8633221628008876,[1.84200519],5.0,0.6,0.0,0.8957488128080827,0.07602124432424452,1.4125279332192926
11.26874589920044,1.8648853525347808,[1.84351774],5.0,0.6,0.0,0.7190361562717735,0.07590557563648498,1.4123454298476683
11.2831552028656,1.866643940985411,[1.84505006],5.0,0.6,0.0,0.7530959361407228,0.08900795486568565,1.4105353804033587
11.296700954437256,1.868207130719304,[1.84660494],5.0,0.6,0.0,0.8395159311233864,0.08740701975128476,1.4103676191340282
11.304915428161621,1.8691841243029876,[1.84817976],5.0,0.6,0.0,0.9163019251524833,0.05454273928674085,1.4149195852516356
11.320854187011719,1.871333510187091,[1.84976884],5.0,0.6,0.0,0.9644008089071695,0.07716198109070907,1.410495274404455
11.334324836730957,1.8728966999209842,[1.85137276],5.0,0.6,0.0,0.9825508455332355,0.0806746397570284,1.4107888429411621
11.34262466430664,1.8738736935046676,[1.85299],5.0,0.6,0.0,0.9758182362785119,0.04712683084045898,1.4157618833774086
11.36304759979248,1.876609275538981,[1.854618],5.0,0.6,0.0,0.9506427919732416,0.096099984644371,1.4071349754402978
11.37717080116272,1.8781724652728744,[1.85626282],5.0,0.6,0.0,0.6368660160173318,0.09142698965588869,1.4081562918206665
11.387329578399658,1.8797356550067679,[1.8579247],5.0,0.6,0.0,0.2821348065093391,0.053224299253732496,1.4091831751935338
11.400118112564087,1.8814942434573978,[1.85959536],5.0,0.6,0.0,0.2542679412046563,0.06237443979790684,1.4084956475126016
11.416112422943115,1.883643629341501,[1.86127314],5.0,0.6,0.0,0.057856524168176465,0.07824420717814631,1.4047554855332391
11.432209491729736,1.886183812659078,[1.86296201],5.0,0.6,0.0,0.11983601209966684,0.07781829806794836,1.3977511644889233
11.443190336227417,1.887747002392971,[1.86466197],5.0,0.6,0.0,0.25180323657866555,0.057484411610245464,1.3988525530393914
11.458990812301636,1.8900917869938112,[1.86636932],5.0,0.6,0.0,0.10217274105733815,0.0627014184172,1.3935439013584903
11.4672269821167,1.891264179294231,[1.86807868],5.0,0.6,0.0,0.16510986063091457,0.02710961944626918,1.3980441689159584
11.479703664779663,1.8930227677448612,[1.86978201],5.0,0.6,0.0,0.0065160215398492455,0.03084895860035929,1.3976036806907963
11.49475383758545,1.8949767549122283,[1.87147521],5.0,0.6,0.0,-0.1933561490723986,0.04082950824768733,1.395390298632409
11.509090423583984,1.8971261407963316,[1.87315916],5.0,0.6,0.0,-0.36622395622930276,0.03920025740680301,1.3913704418675166
11.517957925796509,1.8981031343800145,[1.87483174],5.0,0.6,0.0,-0.4931567875189876,0.020327418412034698,1.3971669475963178
11.528582334518433,1.8994709253971716,[1.87648751],5.0,0.6,0.0,-0.8513017968628591,0.021763430705784136,1.3992026207929318
11.54155969619751,1.9012295138478013,[1.87812354],5.0,0.6,0.0,-0.9295955945238014,0.026658263000973376,1.3980830193093563
11.554607152938843,1.902792703581695,[1.87974026],5.0,0.6,0.0,-1.167784693011666,0.03114821934091977,1.3981559830380745
11.569612741470337,1.9047466907490616,[1.88133891],5.0,0.6,0.0,-1.3981907333369725,0.03277296779325502,1.3947530041532425
11.587653875350952,1.9072868740666384,[1.88292254],5.0,0.6,0.0,-1.5655351924720677,0.04661845877771697,1.3862315915730734
11.6000337600708,1.908459266367058,[1.88449515],5.0,0.6,0.0,-1.3859535932398979,0.041238028461915266,1.3900668964345815
11.611599922180176,1.9098270573842149,[1.88605721],5.0,0.6,0.0,-1.3881892236274007,0.03193565822271627,1.3917172187984916
11.622814893722534,1.9113902471181083,[1.88760723],5.0,0.6,0.0,-1.4318869614952614,0.03598710019858364,1.3915139129681087
11.63660478591919,1.9129534368520016,[1.88914598],5.0,0.6,0.0,-1.46345028423899,0.039518088291425967,1.3912383157100372
11.651689291000366,1.9145166265858953,[1.89067556],5.0,0.6,0.0,-1.4675478905805512,0.042627822672171155,1.390943514788567
11.664602041244507,1.9160798163197883,[1.89219816],5.0,0.6,0.0,-1.1683740566700829,0.04533170827565111,1.3911832689247023
11.678599119186401,1.9176430060536815,[1.89371598],5.0,0.6,0.0,-1.0904077184400662,0.0480092278328132,1.390927149176573
11.69159746170044,1.9190107970708385,[1.89523126],5.0,0.6,0.0,-0.8093605457829147,0.051528684000641894,1.3925799711063502
11.704605102539062,1.9205739868047318,[1.89674628],5.0,0.6,0.0,-0.5066079806956922,0.05409844218076044,1.3924668198936976
11.717588186264038,1.9219417778218884,[1.89826332],5.0,0.6,0.0,-0.24830997084419482,0.05771261304830118,1.393878673725072
11.738471269607544,1.9242865624227286,[1.89978788],5.0,0.6,0.0,-0.05042323000027252,0.08542559248537057,1.3868856858638874
11.756086826324463,1.9262405495900952,[1.90133083],5.0,0.6,0.0,0.09101768022288233,0.10102568871989724,1.3832863800728097
11.768026113510132,1.927608340607252,[1.90290023],5.0,0.6,0.0,0.18631704788107276,0.0859501050207133,1.3850356871996632
11.779815435409546,1.928780732907672,[1.90449483],5.0,0.6,0.0,0.24641615440370973,0.07057776440757221,1.3886855339020086
11.79644250869751,1.931125517508512,[1.90611261],5.0,0.6,0.0,0.556843312427218,0.0893107174597857,1.3821521809439785
11.80701470375061,1.9324933085256688,[1.90775432],5.0,0.6,0.0,0.6061744635817459,0.06694527749595015,1.3845177862659166
11.81710433959961,1.9338610995428254,[1.90941594],5.0,0.6,0.0,0.8308240479208233,0.057185331743750505,1.3868387518662253
11.83701467514038,1.9365966815771387,[1.91109664],5.0,0.6,0.0,1.0592728581458495,0.09616396000059332,1.3772166215712465
11.846684694290161,1.9377690738775588,[1.9128012],5.0,0.6,0.0,1.2328284708656194,0.07110966427779988,1.381650127525061
11.858030080795288,1.939527662328189,[1.91452681],5.0,0.6,0.0,1.340938965921556,0.06046634807627235,1.3811526904765346
11.868566513061523,1.9410908520620822,[1.91626548],5.0,0.6,0.0,1.3913438714380604,0.04487218016796043,1.3825949834274585
11.88473916053772,1.943044839229449,[1.91801388],5.0,0.6,0.0,1.1208561589388069,0.07273288061200116,1.3812892690338032
11.898672819137573,1.9449988263968156,[1.91977517],5.0,0.6,0.0,1.0610217745847397,0.07618956968524337,1.3796792508795979
11.915157079696655,1.947148212280919,[1.92155419],5.0,0.6,0.0,0.7916156739469847,0.08944038033313821,1.3767420165099988
11.93110990524292,1.9492975981650225,[1.92335523],5.0,0.6,0.0,0.49641525169971495,0.0924912875464748,1.3738809561354577
11.942715644836426,1.9508607878989157,[1.92517859],5.0,0.6,0.0,0.24304015510076254,0.0701702684977482,1.376371482661652
11.958045482635498,1.953010173783019,[1.92701997],5.0,0.6,0.0,0.0483575998531465,0.07549659928211526,1.3736284457948718
11.973608255386353,1.9553549583838592,[1.92887619],5.0,0.6,0.0,0.18502179689817083,0.06352294975039365,1.3691371841292412
11.98755431175232,1.9575043442679625,[1.93074366],5.0,0.6,0.0,0.4001931891800651,0.05333051637723501,1.3664382770929164
12.001531839370728,1.959458331435329,[1.93261699],5.0,0.6,0.0,0.5949590155245288,0.04483870716552485,1.365545085695432
12.022316694259644,1.9623893121863794,[1.93449375],5.0,0.6,0.0,0.46297087476672205,0.05894080446491702,1.3557141667702863
12.03399920463562,1.9639525019202726,[1.93637296],5.0,0.6,0.0,0.2452900528487507,0.036213457192362096,1.3588350500166129
12.04801630973816,1.9661018878043761,[1.93824916],5.0,0.6,0.0,0.03843206312744475,0.026627450409343837,1.3562814130233147
12.060442924499512,1.9676650775382694,[1.94011488],5.0,0.6,0.0,-0.4021375010157061,0.015029891640768931,1.3590374498145108
12.078296661376953,1.9698144634223727,[1.94196587],5.0,0.6,0.0,-0.8294283249232901,0.027965640263195486,1.355810128533459
12.092662572860718,1.9717684505897393,[1.94380054],5.0,0.6,0.0,-0.8852666383548218,0.01583315098947944,1.3545991278820426
12.103090524673462,1.9729408428901594,[1.94561432],5.0,0.6,0.0,-1.0763031238795067,-0.002943083781322497,1.3604079370929276
12.11840009689331,1.9748948300575262,[1.94740063],5.0,0.6,0.0,-1.2616608510819423,0.001155248811663516,1.358504074946994
12.134085178375244,1.9764580197914197,[1.94915701],5.0,0.6,0.0,-1.3948321197231537,0.006043072319593676,1.360063506209412
12.147305488586426,1.9774350133751026,[1.95088284],5.0,0.6,0.0,-2.0212355415865213,0.0027323577713930145,1.365454275135276
12.163691520690918,1.978412006958786,[1.9525759],5.0,0.6,0.0,-3.7673416788490375,0.0017914483484673548,1.364572360989342
12.187706708908081,1.9793890005424695,[1.95423709],5.0,0.6,0.0,-5.0,0.0371086483627214,1.3628853043224791
12.202502727508545,1.9793890005424695,[1.95587092],5.0,0.6,0.0,-5.0,0.03368433481885849,1.3770109633014211
12.21657419204712,1.979584399259206,[1.95747795],5.0,0.6,0.0,-5.0,0.03259010818897252,1.3886176346789005
12.230537414550781,1.979779797975943,[1.95905545],5.0,0.6,0.0,-5.0,0.03444632226501224,1.3994183058544896
12.245590448379517,1.9801705954094162,[1.96060153],5.0,0.6,0.0,-4.901283532286822,0.03684339162500893,1.408703406287192
12.258594036102295,1.9803659941261529,[1.96211508],5.0,0.6,0.0,-4.062138536418356,0.041468496162018045,1.4234177391908158
12.272542953491211,1.9805613928428896,[1.96359574],5.0,0.6,0.0,-2.543190721904552,0.0468189883212829,1.4392673977278765
12.288764715194702,1.980952190276363,[1.96504463],5.0,0.6,0.0,-1.0634281958816905,0.060257196588954245,1.4498081339642896
12.302082300186157,1.981342987709836,[1.9664642],5.0,0.6,0.0,0.411361285331992,0.06358316772765976,1.456564241959986
12.323261737823486,1.982124582576783,[1.96785949],5.0,0.6,0.0,1.5994031092625407,0.09645587685126866,1.4582178693361636
12.338507890701294,1.9827107787269929,[1.9692378],5.0,0.6,0.0,2.7262297633686363,0.0930326475456236,1.4588447105179256
12.353604555130005,1.9834923735939396,[1.97060306],5.0,0.6,0.0,3.310494951671996,0.09166057241777484,1.4592271046944043
12.36449909210205,1.983883171027413,[1.97195633],5.0,0.6,0.0,3.569319022789184,0.09474617731849211,1.4625566468856774
12.37954044342041,1.9848601646110962,[1.97329919],5.0,0.6,0.0,3.9073810120653616,0.09666232670962721,1.4623858560798968
12.392534732818604,1.9858371581947796,[1.97463375],5.0,0.6,0.0,4.1598372608814715,0.09985762007307483,1.4624923981339295
12.406502962112427,1.9866187530617263,[1.97596251],5.0,0.6,0.0,4.562882086542485,0.10484513681773694,1.4622842557043505
12.423324346542358,1.9881819427956196,[1.97728911],5.0,0.6,0.0,4.607044972354789,0.11406093610202034,1.460995835499861
12.433504819869995,1.9889635376625665,[1.97861733],5.0,0.6,0.0,4.748010745241869,0.11090177977872226,1.4623157567243041
12.455199480056763,1.9913083222634063,[1.97995318],5.0,0.6,0.0,4.560349062296923,0.1442923295140241,1.4592978829264485
12.47153902053833,1.9930669107140364,[1.98130802],5.0,0.6,0.0,4.5238392292646985,0.1548572625365555,1.4577200663407264
12.488593578338623,1.9952162965981397,[1.9826912],5.0,0.6,0.0,4.764689449108021,0.14456883907497628,1.4524943202773202
12.502498149871826,1.9969748850487696,[1.9841056],5.0,0.6,0.0,4.715873431139043,0.13920968652910468,1.4511348833234297
12.517495393753052,1.999124270932873,[1.98555295],5.0,0.6,0.0,4.250431087156276,0.14241710907129518,1.4505648320098448
12.531566619873047,2.0012736568169767,[1.98703629],5.0,0.6,0.0,3.96430229818658,0.14095687224714298,1.4487072718429568
12.547419309616089,2.00400923885129,[1.98855954],5.0,0.6,0.0,3.7427053162571093,0.14713209692517565,1.4430634929871504
12.557284116744995,2.0055724285851833,[1.99012368],5.0,0.6,0.0,2.9870018196087553,0.11966979276836914,1.446790787762796
12.575105428695679,2.0085034093362335,[1.99172683],5.0,0.6,0.0,2.995170746784815,0.13571342531695213,1.438630609357467
12.58561396598816,2.0104573965036003,[1.99336921],5.0,0.6,0.0,2.935774089628796,0.1212656452327256,1.436896583055249
12.597691297531128,2.0126067823877034,[1.99504905],5.0,0.6,0.0,2.554639030423292,0.11186777783776994,1.4353728555899643
12.609517097473145,2.014756168271807,[1.99676215],5.0,0.6,0.0,2.3877025583204636,0.109257443545835,1.4330692711394137
12.629714965820312,2.01866414260654,[1.99851055],5.0,0.6,0.0,2.016765170585757,0.1365371795230972,1.4189598222503388
12.643462181091309,2.021204325924117,[2.00030163],5.0,0.6,0.0,1.626416409640098,0.12867526580278582,1.4143594062141494
12.652462005615234,2.0231583130914834,[2.00213459],5.0,0.6,0.0,0.7323897348271691,0.09510064157389642,1.4149960632173593
12.664552211761475,2.0256984964090607,[2.00399962],5.0,0.6,0.0,0.38933188250287076,0.08737673696349671,1.4100167688132919
12.68269944190979,2.029606470743794,[2.00589382],5.0,0.6,0.0,0.28419500037149353,0.11375578724167562,1.3935747671706902
12.694884061813354,2.0319512553446337,[2.00782123],5.0,0.6,0.0,-0.0038040214359473523,0.09695904955864225,1.3900731362990721
12.705473184585571,2.0339052425120006,[2.00977895],5.0,0.6,0.0,-0.2959191898184157,0.07910354469618651,1.390040001109756
12.71749997138977,2.0364454258295774,[2.01175951],5.0,0.6,0.0,-0.8063452048062687,0.07971645078338167,1.3847718340643482
12.73057770729065,2.038985609147154,[2.01375958],5.0,0.6,0.0,-1.0043718674169864,0.08188873921266311,1.3797450667522146
12.746262788772583,2.0423073873316775,[2.01577905],5.0,0.6,0.0,-1.3281667699359123,0.08354610316746258,1.3673946093091685
12.764696598052979,2.046606159099884,[2.01782229],5.0,0.6,0.0,-1.3389616533087594,0.10276271934240698,1.3459657445529818
12.775687217712402,2.0489509437007243,[2.01989361],5.0,0.6,0.0,-1.5068903225147103,0.0756130454944625,1.3429348794686542
12.791236162185669,2.0520773231685108,[2.02199166],5.0,0.6,0.0,-1.675426939739625,0.08587606355979284,1.332325585563035
12.800123929977417,2.0542267090526143,[2.02411239],5.0,0.6,0.0,-1.7920322356770315,0.05573378616748748,1.331738172011424
12.813943862915039,2.057157689803664,[2.02624981],5.0,0.6,0.0,-1.8482562531036164,0.059600817370548224,1.3235470094454047
12.826472043991089,2.059697873121241,[2.02839955],5.0,0.6,0.0,-1.8521758605014451,0.05453417507395299,1.319533291038165
12.837626695632935,2.062042657722081,[2.03056014],5.0,0.6,0.0,-1.8162826121383948,0.05859056533025378,1.3177316615410384
12.851476907730103,2.064973638473131,[2.03273088],5.0,0.6,0.0,-1.7525939500636758,0.058731748144587224,1.3099914785808842
12.865518569946289,2.067709220507444,[2.0349121],5.0,0.6,0.0,-1.9470632428458499,0.059228800826557786,1.3036222565620268
12.881500959396362,2.070835599975231,[2.03710412],5.0,0.6,0.0,-2.164345472549267,0.0574008765308325,1.2929976517946171
12.89532732963562,2.073375783292808,[2.03930844],5.0,0.6,0.0,-2.321717698627028,0.06702535442538575,1.28885701043422
12.909414291381836,2.076111365327121,[2.04152782],5.0,0.6,0.0,-2.402037568199061,0.06640030761268803,1.2829774094704924
12.919490337371826,2.077869953777751,[2.04376234],5.0,0.6,0.0,-2.413461352939197,0.05719930466240124,1.2881011106413656
12.934881210327148,2.0808009345288014,[2.04600952],5.0,0.6,0.0,-2.37156854302752,0.059593610911849705,1.280817439970463
12.950827836990356,2.0837319152798512,[2.0482708],5.0,0.6,0.0,-2.292008601004847,0.07379452291815496,1.2737395770507465
12.96214747428894,2.085685902447218,[2.05054886],5.0,0.6,0.0,-2.1879321282146873,0.05996677398287352,1.2776505349504883
12.974512577056885,2.0878352883313216,[2.05284126],5.0,0.6,0.0,-2.069480676808956,0.05858049913307577,1.2795920454872611
12.98649549484253,2.0897892754986884,[2.05514503],5.0,0.6,0.0,-1.6680341302557293,0.0636708832173236,1.2845257253603395
12.99894404411316,2.092134060099528,[2.05745937],5.0,0.6,0.0,-1.5077599570257068,0.06164581040650302,1.2845712893819698
13.013492822647095,2.0944788447003684,[2.05978417],5.0,0.6,0.0,-1.4375022614351447,0.06944491097682585,1.2845068435204074
13.028566360473633,2.097019028017945,[2.06212042],5.0,0.6,0.0,-1.3923288066695307,0.06962940544446951,1.2823738091268404
13.048028469085693,2.1001454074857318,[2.0644736],5.0,0.6,0.0,-1.3471074881749152,0.09848241670950204,1.2739584511295017
13.05806827545166,2.101903995936362,[2.06684894],5.0,0.6,0.0,-1.0182591585367748,0.0707214517171104,1.2813297449598002
13.069502115249634,2.103662584386992,[2.06924101],5.0,0.6,0.0,-0.9243833637179283,0.06237488046999814,1.2883801019144414
13.092904806137085,2.1075705587217253,[2.07164982],5.0,0.6,0.0,-0.9129125257618551,0.10960842004238704,1.271928949708554
13.102880001068115,2.1093291471723554,[2.07408469],5.0,0.6,0.0,-0.6431622331394173,0.08248032363862651,1.2797132594527096
13.114866733551025,2.1112831343397223,[2.07654272],5.0,0.6,0.0,-0.33378056491501285,0.07356558739773382,1.2854606924252439
13.124168872833252,2.1128463240736153,[2.07901161],5.0,0.6,0.0,-0.06641474393040309,0.048761473286302086,1.2953589900976956
13.135560750961304,2.114800311240982,[2.0814804],5.0,0.6,0.0,0.1374194451830393,0.05288777477201302,1.3008666398749673
13.149486303329468,2.1169496971250856,[2.08394335],5.0,0.6,0.0,0.2804189195602459,0.05985911409705498,1.3041604049240676
13.164921998977661,2.1198806778761354,[2.08640001],5.0,0.6,0.0,0.09725632894734595,0.06526963409540432,1.2991554385985797
13.187143564224243,2.1228116586271857,[2.08885776],5.0,0.6,0.0,0.11874172935534717,0.1104218142029692,1.2940676284921684
13.198873281478882,2.124179449644342,[2.09132739],5.0,0.6,0.0,-0.07542170363639816,0.09381549026448717,1.3058506982515283
13.211230993270874,2.126133436811709,[2.09380784],5.0,0.6,0.0,-0.3012279482707657,0.08200686837854318,1.3113367299717629
13.227261304855347,2.1286736201292857,[2.09629348],5.0,0.6,0.0,-0.49070525639430534,0.0923301527935133,1.3106525700575047
13.242469787597656,2.1310184047301255,[2.09878343],5.0,0.6,0.0,-0.3505571356624458,0.08436217389527535,1.3122627743160513
13.25655221939087,2.1333631893309657,[2.10127514],5.0,0.6,0.0,0.14934727552842578,0.07771421932156687,1.3138745825943667
13.271509408950806,2.135512575215069,[2.10376395],5.0,0.6,0.0,0.3922808471358027,0.07335026480387372,1.3173113282908897
13.284482479095459,2.1376619610991727,[2.10624557],5.0,0.6,0.0,0.5016050596262516,0.06992763990384683,1.320676621437379
13.297533750534058,2.139615948266539,[2.10871608],5.0,0.6,0.0,0.5411161973923639,0.06811798651717452,1.3259474306561039
13.309499979019165,2.1413745367171693,[2.11117196],5.0,0.6,0.0,0.5441470145529761,0.06772996255348296,1.3330150346801737
13.323535203933716,2.1435239226012723,[2.11361005],5.0,0.6,0.0,0.5283255490434653,0.06572685440016933,1.3359249755850195
13.337458610534668,2.145477909768639,[2.11602756],5.0,0.6,0.0,0.2270614606937505,0.06505186650341381,1.340708556329944
13.351474285125732,2.1476272956527427,[2.11842209],5.0,0.6,0.0,0.1644386467263247,0.06351301637356623,1.3431480719276365
13.365534543991089,2.1495812828201095,[2.12079159],5.0,0.6,0.0,0.18858339400307755,0.06303080976825375,1.3472152574798897
13.37951374053955,2.1515352699874764,[2.12313442],5.0,0.6,0.0,-0.042221566388834536,0.06281506812976398,1.351016953024903
13.391475200653076,2.1530984597213694,[2.12544927],5.0,0.6,0.0,-0.03472237170025387,0.0645486709140099,1.3582184561851123
13.406452417373657,2.155247845605473,[2.12773521],5.0,0.6,0.0,-0.22753577728486749,0.06359652523473326,1.359474702841057
13.418147802352905,2.156811035339366,[2.12999164],5.0,0.6,0.0,-0.44548486376894864,0.06563479774144783,1.3658647452316948
13.43152403831482,2.158569623789996,[2.13221829],5.0,0.6,0.0,-0.6247714947054446,0.06679184217028963,1.3700432033448466
13.445464372634888,2.160328212240626,[2.13441515],5.0,0.6,0.0,-0.7500470971412596,0.06794414668288595,1.3739114528774348
13.459438800811768,2.1618914019745197,[2.13658249],5.0,0.6,0.0,-0.8251282187713342,0.07001755451545247,1.379251612534654
13.471519947052002,2.163454591708413,[2.13872076],5.0,0.6,0.0,-0.8598797658469645,0.07200431325027529,1.3842862753949166
13.487472295761108,2.1654085788757795,[2.14083057],5.0,0.6,0.0,-0.8647238387815455,0.07191088786634332,1.3856409190711565
13.502180576324463,2.1671671673264097,[2.14291308],5.0,0.6,0.0,-0.8486406451197529,0.07644666769183903,1.3884694242203672
13.513461589813232,2.16833955962683,[2.14496945],5.0,0.6,0.0,-0.8186909906682611,0.07478117907298035,1.3960233277761036
13.526458263397217,2.169707350643986,[2.1469999],5.0,0.6,0.0,-0.5041041186215485,0.07704870506687934,1.4018244561988518
13.540430307388306,2.17127054037788,[2.14900471],5.0,0.6,0.0,-0.4276246784532798,0.07805703375250436,1.4054676742182388
13.552813291549683,2.1724429326782997,[2.15098463],5.0,0.6,0.0,-0.43721542884037695,0.08062236266238192,1.411879208194032
13.567439317703247,2.1740061224121927,[2.15294028],5.0,0.6,0.0,-0.7434903125453657,0.08104983536512926,1.414659371498955
13.58144235610962,2.1753739134293495,[2.15487215],5.0,0.6,0.0,-0.8021450158455492,0.08195973776204145,1.4188932625117017
