t_s,q_rad,q_des_rad,K,B,Kff,jerk,tau_Nm,reward
0.006831169128417969,0.0,[6.86888541e-05],9.825212432529046,0.9781515540661307,1.9737818648793566,0.0,9.9,1.4999990563687104
0.01618504524230957,0.0,[0.00033195],9.650424865058092,0.9563031081322615,1.9475637297587132,0.0,9.999,1.4999779620175762
0.026925325393676758,0.0,[0.00082503],9.475637297587138,0.9344546621983922,1.92134559463807,0.0,9.99999,1.4998638747278557
0.03812432289123535,0.0,[0.00150606],9.300849730116184,0.9126062162645229,1.8951274595174268,0.0,9.9999999,1.4995464571639352
0.04614734649658203,0.0,[0.00233722],9.12606216264523,0.8907577703306536,1.8689093243967834,0.0,9.999999999,1.4989080769173921
0.05527234077453613,0.0,[0.00328456],8.951274595174274,0.8689093243967844,1.84269118927614,0.0,3.234794501633186,1.4978446633049083
0.06584501266479492,0.00019539871673667023,[0.00431787],8.77648702770332,0.847060878462915,1.8164730541554968,0.0,-9.867652054983669,1.4966068163624837
0.07385087013244629,0.0011723923004200215,[0.0054105],8.601699460232366,0.8252124325290457,1.7902549190348536,0.276038359678681,-9.998676520549838,1.4963574068529524
0.0868978500366211,0.003907974334733405,[0.00653915],8.426911892761412,0.8033639865951765,1.7640367839142101,1.9653931209122082,-9.999986765205499,1.495749144099159
0.09490442276000977,0.005275765351890096,[0.00768363],8.252124325290458,0.7815155406613071,1.7378186487935667,4.041312001039761,-9.999999867652056,1.486830031832447
0.1061556339263916,0.007034353802520129,[0.00882682],8.077336757819502,0.7596670947274378,1.7116005136729235,5.0,-9.999999998676522,1.4810896814024352
0.11382746696472168,0.008011347386203481,[0.0099546],7.902549190348549,0.7378186487935685,1.6853823785522803,5.0,-9.999999999986766,1.4809771037411368
0.12186646461486816,0.008988340969886831,[0.01105607],7.727761622877595,0.7159702028596993,1.659164243431637,5.0,-9.999999999999869,1.4808773259131949
0.13254761695861816,0.009965334553570182,[0.01212498],7.55297405540664,0.6941217569258299,1.6329461083109935,5.0,-9.999999999999998,1.480799681195812
0.14115118980407715,0.010746929420516863,[0.01316101],7.378186487935686,0.6722733109919605,1.6067279731903503,5.0,-8.790424109140154,1.480567188379868
0.15230226516723633,0.011333125570726873,[0.01417033],7.203398920464732,0.6504248650580913,1.5805098380697071,3.3779611403430474,-3.989359396501652,1.4899690235327865
0.16095995903015137,0.009183739686623501,[0.01515835],7.028611352993777,0.6285764191242219,1.5542917029490637,0.0054409448623631285,0.0730271463260969,1.4928862042379152
0.17075610160827637,0.006057360218836778,[0.01612878],6.853823785522822,0.6067279731903527,1.5280735678284203,-5.0,4.5267948434785135,1.4616497702752427
0.18159103393554688,0.0019539871673667024,[0.01709811],6.679036218051868,0.5848795272564833,1.501855432707777,-5.0,9.293490770738375,1.436899237832674
0.18989992141723633,0.0013677910171566918,[0.01808331],6.504248650580913,0.563031081322614,1.475637297587134,-5.0,9.992934907707385,1.4273830200557243
0.1979532241821289,0.0031263794677867237,[0.01908664],6.329461083109958,0.5411826353887447,1.4494191624664907,-5.0,9.999929349077075,1.4320620410297558
0.20731234550476074,0.006448157652310118,[0.02012209],6.154673515639004,0.5193341894548753,1.4232010273458477,-5.0,9.99999929349077,1.4450273284142239
0.2158493995666504,0.009769935836833513,[0.02122063],5.97988594816805,0.5,1.3969828922252046,-4.385369827248215,9.999999992934908,1.4600042604611303
0.22492122650146484,0.013287112738093578,[0.02240518],5.805098380697095,0.5,1.3707647571045614,-0.43568076567863123,9.999999999929349,1.4833683600598349
0.23354268074035645,0.0164134922058803,[0.02369087],5.63031081322614,0.5,1.3445466219839184,5.0,9.999999999999293,1.471195903443396
0.2441844940185547,0.020516865257350376,[0.02510874],5.455523245755186,0.5,1.3183284868632752,5.0,9.999999999999993,1.4775238805436928
0.2521169185638428,0.024034042158610443,[0.0266881],5.280735678284231,0.5,1.292110351742632,5.0,10.0,1.4803242502897176
0.26279258728027344,0.028332813926817187,[0.02842747],5.105948110813277,0.5,1.2658922166219888,5.0,10.0,1.481730270047683
0.2737243175506592,0.0328269844117606,[0.03034772],5.0,0.5,1.2396740815013456,5.0,5.05,1.4805034711080056
0.28308939933776855,0.036734958746494004,[0.0325255],5.0,0.5,1.2134559463807026,5.0,5.000500000000001,1.4781944217317013
0.2918417453765869,0.040056736931017405,[0.03501149],5.0,0.5,1.1872378112600595,5.0,5.000005,1.4766540993257542
0.30042409896850586,0.04376931254901414,[0.03778978],5.0,0.5,1.1610196761394163,5.0,5.000000050000001,1.4746065995389799
0.30782485008239746,0.046309495866590854,[0.04084837],5.0,0.5,1.1348015410187733,3.4090434802001,5.0000000005,1.4854762823173926
0.3188450336456299,0.050803666351534264,[0.04422637],5.0,0.5,1.10858340589813,0.8560657887613499,5.0000000000050004,1.4908399206770364
0.3268899917602539,0.054320843252794335,[0.0479575],5.0,0.5,1.082365270777487,-1.5318897480369027,5.00000000000005,1.4901904401978054
0.3358445167541504,0.0578380201540544,[0.05204574],5.0,0.5,1.0561471356568437,-3.6706522817514493,5.000000000000001,1.4833824685251988
0.34490108489990234,0.06115979833857779,[0.05655351],5.0,0.5,1.0299290005362005,-5.0,5.0,1.47749747204334
0.35282301902770996,0.0642861778063645,[0.06159426],5.0,0.5,1.0037108654155575,-5.0,5.0,1.4802838321712009
0.3618793487548828,0.06760795599088791,[0.06726787],5.0,0.5,0.9774927302949143,-5.0,5.0,1.4817089310389346
0.3719635009765625,0.07151593032562131,[0.07365869],5.0,0.5,0.9512745951742712,-5.0,5.0,1.4808142035027148
0.3823366165161133,0.0762054995273014,[0.0808693],5.0,0.5,0.9250564600536281,-5.0,5.0,1.4773912943133731
0.3938257694244385,0.0806996700122448,[0.08901501],5.0,0.5,0.898838324932985,-5.0,5.0,1.467998275529156
0.40543365478515625,0.08558463793066157,[0.09818502],5.0,0.5,0.8726201898123418,-5.0,5.0,1.4504770173960724
0.41422080993652344,0.08929721354865831,[0.10840829],5.0,0.5,0.8464020546916986,-5.0,5.0,1.4112894937295746
0.4240400791168213,0.0932051878833917,[0.11962491],5.0,0.5,0.8201839195710555,-5.0,5.0,1.3514377905237391
0.4342923164367676,0.0971131622181251,[0.13176568],5.0,0.5,0.7939657844504124,-5.0,5.0,1.2682345555715635
0.44466567039489746,0.10121653526959519,[0.14478595],5.0,0.5,0.7677476493297692,-5.0,5.0,1.1658269043511906
0.4528331756591797,0.10473371217085524,[0.15859751],5.0,0.5,0.741529514209126,-4.840799966167695,-6.142423077702911,1.0426088591057998
0.4651830196380615,0.10922788265579866,[0.17306886],5.0,0.5,0.715311379088483,-4.586246491868461,-9.961424230777029,0.9271651639910653
0.47442150115966797,0.10864168650558867,[0.18806558],5.0,0.5,0.6890932439678399,-5.0,-9.999614242307771,0.7649238718376019
0.4844067096710205,0.10531990832106528,[0.20349262],5.0,0.5,0.6628751088471967,-5.0,-9.999996142423077,0.6272324946363474
0.493030309677124,0.1018027314198052,[0.21928711],5.0,0.5,0.6366569737265535,-5.0,-9.999999961424232,0.5449911914884482
0.5010604858398438,0.09867635195201847,[0.23530931],5.0,0.5,0.6104388386059104,-5.0,-9.999999999614243,0.5056359707396791
0.509075403213501,0.09554997248423175,[0.25133882],5.0,0.5,0.5842207034852673,-5.0,-9.999999999996144,0.48952892972314854
0.516934871673584,0.09242359301644502,[0.26716686],5.0,0.5,0.5580025683646241,-5.0,-9.999999999999961,0.48395919194555176
0.5278892517089844,0.08812482124823828,[0.28266138],5.0,0.5,0.531784433243981,-5.0,-10.0,0.48224832513516247
0.5373046398162842,0.08421684691350488,[0.29779454],5.0,0.5,0.5055662981233379,-5.0,-10.0,0.48184117953139216
0.5461876392364502,0.08050427129550815,[0.31257663],5.0,0.5,0.4793481630026947,-5.0,-10.0,0.4817530510483323
0.5539968013763428,0.07718249311098475,[0.32699006],5.0,0.5,0.4531300278820516,-5.0,-5.05,0.481735861155558
0.5618786811828613,0.07386071492646136,[0.34096891],5.0,0.5,0.42691189276140845,-5.0,-5.000500000000001,0.48173269730382895
0.5716593265533447,0.0695619431582546,[0.35444169],5.0,0.5,0.4006937576407653,-5.0,-5.000005,0.481732151421315
0.581831693649292,0.06584936754025787,[0.36738994],5.0,0.5,0.3744756225201221,-2.4039841467418643,-5.000000050000001,0.4957164721173349
0.5924835205078125,0.06174599448878779,[0.37982019],5.0,0.5,0.3482574873994789,1.4774787614036455,-5.0000000005,0.4983776550489184
0.6001453399658203,0.058815013737737745,[0.39172156],5.0,0.5,0.3220393522788358,5.0,-5.0000000000050004,0.481732062360369
0.6088378429412842,0.05549323555321435,[0.40306455],5.0,0.5,0.2958212171581926,5.0,-5.00000000000005,0.4817320621560676
0.6186721324920654,0.0511944637850076,[0.41382319],5.0,0.5,0.2696030820375494,5.0,-5.000000000000001,0.4817320621277207
0.6309230327606201,0.046504894583327516,[0.42399191],5.0,0.5,0.24338494691690624,5.0,-5.0,0.48173206212435515
0.640920877456665,0.042401521531857445,[0.43357223],5.0,0.5,0.21716681179626307,5.0,-5.76172404093767,0.48173206212398667
0.651400089263916,0.0381027497636507,[0.44255801],5.0,0.5,0.19094867667561988,5.0,-4.237584100433893,0.48173206212394165
0.6602206230163574,0.03458557286239063,[0.4509406],5.0,0.5,0.16473054155497668,5.0,-2.750160891125248,0.4817320621239364
0.667860746383667,0.03165459211134058,[0.45871501],5.0,0.5,0.13851240643433352,5.0,-1.6509604057788478,0.48173206212393566
0.6768584251403809,0.027746617776607176,[0.46588093],5.0,0.5,0.11229427131369034,5.0,-0.73930225305431,0.4817320621239355
0.6852602958679199,0.024229440875347112,[0.47244525],5.0,0.5,0.08607613619304716,5.0,0.19426549744472546,0.4817320621239355
0.6944081783294678,0.020321466540613703,[0.47842085],5.0,0.5,0.05985800107240398,5.0,1.036815064250547,0.4817320621239355
0.705855131149292,0.01582729605567029,[0.48382378],5.0,0.5,0.0336398659517608,5.0,1.7549206071180434,0.4817320621239355
0.7168447971343994,0.012896315304620235,[0.48867361],5.0,0.5,0.0074217308311176206,5.0,2.326130194695621,0.4817320621239355
0.7278361320495605,0.011137726853990204,[0.49299423],5.0,0.5,0.0,5.0,2.4794166773265474,0.4817320621239355
0.7389817237854004,0.011528524287463544,[0.49681548],5.0,0.5,0.0,5.0,2.508749167963358,0.4817320621239355
0.7468173503875732,0.013287112738093578,[0.50017232],5.0,0.5,0.0,5.0,2.512887167035514,0.4817320621239355
0.7548089027404785,0.016022694772406962,[0.50310034],5.0,0.5,0.0,5.0,2.511495415394034,0.4817320621239355
0.763901948928833,0.019539871673667025,[0.50564066],5.0,0.5,0.0,5.0,2.5536397864208658,0.4817320621239355
0.7773795127868652,0.02501103574229379,[0.5078447],5.0,0.5,0.0,5.0,2.559923577544177,0.4817320621239355
0.7882416248321533,0.029700604943973877,[0.50977216],5.0,0.5,0.0,5.0,2.6072366096519626,0.4817320621239355
0.7971656322479248,0.03321778184523394,[0.51148832],5.0,0.5,0.0,5.0,2.617107433209511,0.4817320621239355
0.8068735599517822,0.03712575617996735,[0.5130482],5.0,0.5,0.0,5.0,2.58615880061347,0.4817320621239355
0.8195834159851074,0.042401521531857445,[0.51450324],5.0,0.5,0.0,5.0,2.6199057268414414,0.4817320621239355
0.8288722038269043,0.04591869843311751,[0.51591013],5.0,0.5,0.0,5.0,2.594512419346646,0.4817320621239355
0.8392684459686279,0.050412868918060925,[0.51732172],5.0,0.5,0.0,5.0,2.5901343385153837,0.4817320621239355
0.8478505611419678,0.05373464710258431,[0.51878592],5.0,0.5,0.0,3.3182476745846046,2.582505777979459,0.49187039443276176
0.857675313949585,0.0578380201540544,[0.52033468],5.0,0.5,0.0,0.026254916377692616,2.5699306267188304,0.49999948686961604
0.868821382522583,0.06194139320552447,[0.52199337],5.0,0.5,0.0,-3.711148415482677,2.555678375990177,0.48985204830384954
0.8798565864562988,0.06624016497373121,[0.52379515],5.0,0.5,0.0,-5.0,2.521797705477359,0.4817320621239355
0.8898677825927734,0.06995274059172794,[0.52576837],5.0,0.5,0.0,-5.0,2.5279166180255794,0.4817320621239355
0.904393196105957,0.0762054995273014,[0.52792843],5.0,0.5,0.0,-5.0,2.495931581899359,0.4817320621239355
0.9122779369354248,0.07952727771182479,[0.53027335],5.0,0.5,0.0,-5.0,2.5067511900939756,0.4817320621239355
0.924903392791748,0.08460764434697822,[0.53277624],5.0,0.5,0.0,-5.0,2.4755896870964023,0.4817320621239355
0.9338390827178955,0.08832021996497495,[0.53539663],5.0,0.5,0.0,-5.0,2.417639777545587,0.4817320621239355
0.946831226348877,0.09359598531686505,[0.53808951],5.0,0.5,0.0,-5.0,2.3418768092708997,0.4817320621239355
0.9568271636962891,0.09769935836833513,[0.54080537],5.0,0.5,0.0,-5.0,2.2652399952554134,0.4817320621239355
0.9652223587036133,0.10082573783612185,[0.54349462],5.0,0.5,0.0,-5.0,2.19622206083922,0.4817320621239355
0.977036714553833,0.10610150318801194,[0.5461091],5.0,0.5,0.0,-5.0,2.1246698782028526,0.4817320621239355
0.9889435768127441,0.11079107238969202,[0.54860124],5.0,0.5,0.0,-5.0,2.041408101870289,0.4817320621239355
1.0013837814331055,0.11548064159137211,[0.55092474],5.0,0.5,0.0,-5.0,1.991734128265678,0.48173206212393554
1.0098562240600586,0.11880241977589551,[0.5530473],5.0,0.5,0.0,-5.0,2.00894723957235,0.48173206212393554
1.0218372344970703,0.12368738769431226,[0.55495716],5.0,0.5,0.0,-5.0,2.0063582894214647,0.48173206212393554
1.0308539867401123,0.12739996331230902,[0.55665451],5.0,0.5,0.0,-5.0,2.0260226376193,0.4817320621239356
1.0408220291137695,0.13111253893030572,[0.5581495],5.0,0.5,0.0,-5.0,2.06303026228953,0.48173206212393566
1.0512144565582275,0.13541131069851248,[0.55946908],5.0,0.5,0.0,-5.0,2.15078209267172,0.4817320621239357
1.0602102279663086,0.1393192850332459,[0.56065693],5.0,0.5,0.0,-5.0,2.213160309404108,0.4817320621239359
1.0698716640472412,0.14342265808471594,[0.56176402],5.0,0.5,0.0,-4.9934962114960655,2.2686100911847253,0.48177867942196373
1.0801622867584229,0.14772142985292272,[0.56284493],5.0,0.5,0.0,-4.517960144997565,2.3054159258276106,0.48503388033357225
1.0923757553100586,0.1522156003378661,[0.5639694],5.0,0.5,0.0,-4.2035703755583365,2.2985274140071614,0.48701794856858704
1.1018314361572266,0.15573277723912618,[0.56521929],5.0,0.5,0.0,-3.9503609254588214,2.2473744197901744,0.4885172751708988
1.1108553409576416,0.15964075157385957,[0.56666349],5.0,0.5,0.0,-3.7175570026002234,2.217867388108648,0.48981732974913283
1.1228084564208984,0.16452571949227635,[0.56837091],5.0,0.5,0.0,-3.490945720825061,2.2600588595526667,0.4910100143729488
1.1318514347076416,0.1680428963935364,[0.57040358],5.0,0.5,0.0,-3.2674932643661334,2.218674211467313,0.4921152296281658
1.14652681350708,0.1741002566123732,[0.57281796],5.0,0.5,0.0,-3.0483039972138632,2.304450943417639,0.4931305393984192
1.1546862125396729,0.17742203479689655,[0.57567707],5.0,0.5,0.0,-2.8355537898107044,2.2502047358611077,0.49405042851991376
1.1678595542907715,0.18269780014878667,[0.57901511],5.0,0.5,0.0,-2.355234493896978,2.28947406711439,0.495887717990497
1.1789379119873047,0.1873873693504668,[0.58285567],5.0,0.5,0.0,-2.127794163458304,2.2756893376289997,0.4966410539351345
1.18818998336792,0.1910999449684635,[0.58722495],5.0,0.5,0.0,-1.9994609927245148,2.30960281212429,0.49703284161666694
1.1963632106781006,0.19481252058646023,[0.59211914],5.0,0.5,0.0,-1.90343009794233,2.2537869346056736,0.49731026325914707
1.207902193069458,0.19950208978814032,[0.59750785],5.0,0.5,0.0,-1.8132052448499416,2.2865477415540862,0.4975586043835329
1.2175304889678955,0.20301926668940037,[0.60336674],5.0,0.5,0.0,-1.7202341963310346,2.2778750723310024,0.4978020110679235
1.2278165817260742,0.20712263974087047,[0.60966465],5.0,0.5,0.0,-1.6234005617474214,2.271542638456534,0.4980420286517997
1.2374608516693115,0.2108352153588672,[0.61635159],5.0,0.5,0.0,-1.5242407582808346,2.2717692116450823,0.4982735145120232
1.2468845844268799,0.2147431896936006,[0.62337672],5.0,0.5,0.0,-1.4248814019932277,2.2749685973827534,0.49849093513727843
1.2566275596618652,0.218651164028334,[0.6306894],5.0,0.5,0.0,-1.3272374905680062,2.281022165998535,0.4986904122968889
1.26597261428833,0.22216834092959406,[0.6382399],5.0,0.5,0.0,-1.232771445672376,2.291441582358276,0.4988699944144472
1.2763278484344482,0.22627171398106416,[0.6459802],5.0,0.5,0.0,-1.1424839649813978,2.3011020073075885,0.4990293000862173
1.2869939804077148,0.23096128318274423,[0.65387474],5.0,0.5,0.0,-1.0569867957159038,2.3373348486316368,0.4991690313029832
1.2967438697814941,0.23506465623421427,[0.66189905],5.0,0.5,0.0,-0.9765927273412284,2.341591796641584,0.49929054418641594
1.3106675148010254,0.24053582030284107,[0.67002729],5.0,0.5,0.0,-0.9013976177164469,2.367516445552749,0.49939552709927437
1.3202645778656006,0.2442483959208378,[0.67823204],5.0,0.5,0.0,-0.8313468722252892,2.3699019123967555,0.499485781388133
1.328918218612671,0.24796097153883453,[0.68647559],5.0,0.5,0.0,-0.7662860911617875,2.375477728707451,0.4995630832030232
1.3393511772155762,0.25265054074051463,[0.69471191],5.0,0.5,0.0,-0.7059981939520789,2.393709623173938,0.49962910350659123
1.3495197296142578,0.2563631163585114,[0.70289816],5.0,0.5,0.0,-0.650229887485708,2.450020752550446,0.4996853673039219
1.3568406105041504,0.2592940971095614,[0.71098815],5.0,0.5,0.0,-0.5987101088174435,2.5128157448124715,0.49973323799172503
1.3651189804077148,0.2626158752940848,[0.7189345],5.0,0.5,0.0,-0.5511625927414443,2.537020284014172,0.49977391698347656
1.3745300769805908,0.2661330521953449,[0.72670407],5.0,0.5,0.0,-0.5073142221616298,2.558559319150821,0.4998084520320771
1.3833820819854736,0.26965022909660497,[0.7342765],5.0,0.5,0.0,-0.4669003961757887,2.5785261777732376,0.4998377500071162
1.3925049304962158,0.27336280471460167,[0.74163552],5.0,0.5,0.0,-0.42966831573241737,2.5958854941306724,0.4998625914832488
1.401839017868042,0.2770753803325984,[0.74876857],5.0,0.5,0.0,-0.6714171925278927,2.6114677012837904,0.49966453604724415
1.410841464996338,0.2809833546673318,[0.75566603],5.0,0.5,0.0,-0.6729702849740649,2.6238677327135607,0.49966298281539145
1.4188668727874756,0.2843051328518552,[0.76231528],5.0,0.5,0.0,-0.5888096038753169,2.6182046058574837,0.49974198534930814
1.4268338680267334,0.2876269110363786,[0.76870141],5.0,0.5,0.0,-0.20993554217873311,2.6338747056203844,0.49996719316236604
1.4373133182525635,0.2917302840878486,[0.77481896],5.0,0.5,0.0,-0.35770733650312536,2.642607252495024,0.49990475964516745
1.4456672668457031,0.29505206227237213,[0.78067075],5.0,0.5,0.0,-0.3666516078280364,2.6533542240727943,0.49989993771806546
1.455249309539795,0.29915543532384214,[0.78626188],5.0,0.5,0.0,-0.32479418590133524,2.660047768347227,0.49992147841374807
1.4648656845092773,0.3028680109418389,[0.79159527],5.0,0.5,0.0,-0.27063399868293536,2.642352477142851,0.4999454810220359
1.4763457775115967,0.30775297886025565,[0.79667871],5.0,0.5,0.0,-0.21955514862789927,2.6815187180449267,0.49996411785942996
1.4865710735321045,0.31166095319498904,[0.801536],5.0,0.5,0.0,-0.17653880886634837,2.6913116129718757,0.4999768005876704
1.4988436698913574,0.3165459211134058,[0.80619448],5.0,0.5,0.0,-0.14217323626762163,2.696419307347727,0.4999849534878807
1.5079102516174316,0.32006309801466587,[0.81067936],5.0,0.5,0.0,0.16062176902484232,2.706464256760783,0.4999807953169428
1.5172288417816162,0.3237756736326626,[0.81501917],5.0,0.5,0.0,0.21435417973206017,2.7121044263796077,0.4999657976667922
1.5275657176971436,0.32768364796739596,[0.81924502],5.0,0.5,0.0,0.17510702679175605,2.711598638931086,0.4999771753613533
1.537341594696045,0.3319824197356028,[0.82340012],5.0,0.5,0.0,0.11127612909403001,2.6454767672162647,0.49999078263699354
1.5458619594573975,0.33549959663686285,[0.82752777],5.0,0.5,0.0,0.05032182259794693,2.6997138661944375,0.4999981149686324
1.559450387954712,0.3411661594222262,[0.83167649],5.0,0.5,0.0,0.0012712348318232591,2.6814072122010297,0.49999999879702045
1.5668385028839111,0.34429253889001293,[0.83590856],5.0,0.5,0.0,-0.3106803583244048,2.6526328993065835,0.49992815392192824
1.5774333477020264,0.3485913106582197,[0.84026041],5.0,0.5,0.0,-0.36824874853792733,2.672625124426651,0.4998990641615408
1.586083173751831,0.3519130888427431,[0.84476249],5.0,0.5,0.0,-0.3285487682809075,2.7019225096514146,0.49991965266705135
1.5953350067138672,0.35562566446073984,[0.84946456],5.0,0.5,0.0,-0.26112878376177595,2.7324718365056495,0.49994924321296136
1.6038498878479004,0.35875204392852655,[0.85439921],5.0,0.5,0.0,-0.1944592095237715,2.7130182939244163,0.49997185174462827
1.615678071975708,0.3636370118469433,[0.85960343],5.0,0.5,0.0,-0.41440333566590526,2.8125368509706536,0.49987218034437686
1.6253142356872559,0.36774038489841343,[0.86515674],5.0,0.5,0.0,-0.4038364896567541,2.8417052875145368,0.4998786149869164
1.6366925239562988,0.3724299541000935,[0.87113251],5.0,0.5,0.0,-0.316206773480737,2.869541985813439,0.49992557536925003
1.6458508968353271,0.3757517322846169,[0.87757645],5.0,0.5,0.0,-0.21661797790275678,2.9050144537732927,0.4999650714545432
1.6550099849700928,0.37926890918587697,[0.88452802],5.0,0.5,0.0,-0.12950081418221424,2.9386426213320824,0.49998751621583626
1.666182279586792,0.3837630796708204,[0.89201743],5.0,0.5,0.0,-0.061397767256526445,2.9648667655936927,0.49999719385173824
1.6738677024841309,0.38708485785534374,[0.90003867],5.0,0.5,0.0,-0.01162007164765081,2.92665535407135,0.4999998994865353
1.6901404857635498,0.3941192116578639,[0.90859788],5.0,0.5,0.0,0.022938539531369994,3.0796917764834357,0.4999996083140151
1.6990582942962646,0.3976363885591239,[0.9177548],5.0,0.5,0.0,0.045755206925577094,3.0718488454504134,0.49999844157091067
1.7109365463256836,0.4025213564775407,[0.92753478],5.0,0.5,0.0,0.05990673913303794,3.1116446211027835,0.4999973284895568
1.7203190326690674,0.4064293308122741,[0.93790744],5.0,0.5,0.0,0.3438987855000322,3.0904790229326533,0.4999119701978305
1.7328317165374756,0.41150969744742755,[0.94880457],5.0,0.5,0.0,0.3806558435120006,3.072970822028008,0.49989214883661115
1.7470917701721191,0.41717626023279103,[0.96015548],5.0,0.5,0.0,0.32625152412928254,3.1331901020037245,0.4999207722425523
1.756408929824829,0.4208888358507877,[0.97189612],5.0,0.5,0.0,0.24891504361860056,3.080181093660772,0.49995388003867425
1.769078016281128,0.4259692024859411,[0.98393063],5.0,0.5,0.0,0.17590135799835385,3.115203898125632,0.4999769678194117
1.7780258655548096,0.4294863793872012,[0.99616827],5.0,0.5,0.0,0.11604139630461066,3.1263620324482804,0.4999899762964498
1.7881674766540527,0.43378515115540794,[1.0085431],5.0,0.5,0.0,0.07039782968138411,3.1805372805401233,0.4999963108729357
1.7971875667572021,0.4374977267734046,[1.02098725],5.0,0.5,0.0,0.03715944597320696,3.165454944436124,0.49999897211461874
1.8058867454528809,0.4408195049579281,[1.03341948],5.0,0.5,0.0,0.01378491071643098,3.2067180726472833,0.49999985854622925
1.8171167373657227,0.4453136754428715,[1.04577439],5.0,0.5,0.0,-0.002137722568763582,3.245843761253579,0.49999999659819544
1.8283984661102295,0.45019864336128823,[1.05802848],5.0,0.5,0.0,-0.2886482501027133,3.3250528352138153,0.49993798202268225
1.838834524154663,0.45430201641275836,[1.0701667],5.0,0.5,0.0,-0.3283489406734693,3.317681365409378,0.4999197503660605
1.8476624488830566,0.45801459203075506,[1.0821522],5.0,0.5,0.0,-0.2770935452455517,3.3672208606362912,0.4999428475737848
1.857870101928711,0.46211796508222514,[1.09395906],5.0,0.5,0.0,-0.2029636927144089,3.413971577208731,0.49996933591081205
1.8678903579711914,0.4660259394169585,[1.10558516],5.0,0.5,0.0,-0.13311737266436513,3.4601239352790323,0.4999868092216936
1.8772165775299072,0.46993391375169197,[1.11703368],5.0,0.5,0.0,-0.07632374241076795,3.5046836028067743,0.4999956636522146
1.8856768608093262,0.4730602932194786,[1.12831176],5.0,0.5,0.0,-0.03360798311090405,3.551369871679489,0.499999159202889
1.8973219394683838,0.4779452611378954,[1.13942941],5.0,0.5,0.0,-0.0031379967277589405,3.5877065705020215,0.4999999926698705
1.9069020748138428,0.4818532354726288,[1.15039841],5.0,0.5,0.0,0.017637209324131587,3.6270933172687796,0.49999976843852173
1.9173064231872559,0.4859566085240989,[1.16123149],5.0,0.5,0.0,0.031131760447579385,3.6638625509647036,0.4999992785375671
1.928260326385498,0.49025538029230564,[1.17195793],5.0,0.5,0.0,0.3153827545238791,3.7433541306406157,0.49992596272884493
1.9371933937072754,0.49377255719356566,[1.18260374],5.0,0.5,0.0,0.3529866816235904,3.7215240172085755,0.4999072565956986
1.9466168880462646,0.4974851328115624,[1.19315844],5.0,0.5,0.0,0.2997896668284454,3.759269865665419,0.49993310233807964
1.955002784729004,0.5010023097128224,[1.20361333],5.0,0.5,0.0,0.22386470555227286,3.7958681599998862,0.49996269545647437
1.9638996124267578,0.5047148853308193,[1.2139774],5.0,0.5,0.0,0.152360711684975,3.8292455824683564,0.49998271994359234
1.9754531383514404,0.5094044545324993,[1.22427312],5.0,0.5,0.0,0.09403769961801822,3.898426137003347,0.4999934172432068
1.9841187000274658,0.5127262327170228,[1.23451824],5.0,0.5,0.0,0.04991188358800702,3.875562992159493,0.49999814555571725
1.9938864707946777,0.5166342070517561,[1.24469521],5.0,0.5,0.0,0.018142527124564923,3.9065559368318366,0.49999975497966404
2.0039196014404297,0.5207375801032261,[1.25478743],5.0,0.5,0.0,-0.0038295819558794245,3.9347032340279613,0.49999998908284676
2.011866569519043,0.5240593582877495,[1.26476601],5.0,0.5,0.0,-0.01842632167022683,3.9679357681640837,0.4999997472542495
2.019878387451172,0.527381136472273,[1.27454856],5.0,0.5,0.0,-0.027653696042982227,4.00024887353706,0.4999994307372086
2.0288565158843994,0.5308983133735331,[1.284053],5.0,0.5,0.0,-0.0330670892923524,3.9877811070640012,0.49999918604900556
2.040947437286377,0.5357832812919499,[1.29326987],5.0,0.5,0.0,-0.035827030831067336,4.055264267664232,0.49999904450615174
2.0520503520965576,0.5402774517768932,[1.30226257],5.0,0.5,0.0,-0.03677824765671259,4.105380352193587,0.49999899309544876
2.0619523525238037,0.5445762235450999,[1.311097],5.0,0.5,0.0,-0.036524984955949594,4.107624601023316,0.4999990069151981
2.0717785358428955,0.5482887991630967,[1.31979934],5.0,0.5,0.0,-0.035493699941336755,4.115489301547173,0.4999990622030518
2.0831685066223145,0.5525875709313035,[1.32837638],5.0,0.5,0.0,-0.033981911495217926,4.122502508138178,0.49999914038910565
2.0928971767425537,0.5564955452660368,[1.336832],5.0,0.5,0.0,-0.03219485781093749,4.132698105699082,0.49999922842284056
2.1012003421783447,0.5598173234505602,[1.3451675],5.0,0.5,0.0,-0.030272370626234394,4.146519086688929,0.4999993178195915
2.110567331314087,0.5637252977852937,[1.35338204],5.0,0.5,0.0,-0.028308277971980645,4.157817837868817,0.4999994034685857
2.1223087310791016,0.5686102657037104,[1.361473],5.0,0.5,0.0,-0.026364266625119405,4.16435175605395,0.4999994825863988
2.1328063011169434,0.5729090374719171,[1.36943636],5.0,0.5,0.0,-0.024479712415737355,4.173622939818177,0.49999955391347506
2.145815134048462,0.5779894041070706,[1.37727607],5.0,0.5,0.0,-0.02267861215533741,4.203796653948441,0.4999996171404745
2.1578516960144043,0.5828743720254873,[1.3850103],5.0,0.5,0.0,0.25506390990849487,4.22298477783232,0.4999515734345618
2.167405605316162,0.5867823463602206,[1.39264889],5.0,0.5,0.0,0.2897893640033825,4.216698367882258,0.4999374907324695
2.1778883934020996,0.5912765168451641,[1.40017685],5.0,0.5,0.0,0.23618801356615396,4.236085147196345,0.4999584755060935
2.187110662460327,0.5949890924631609,[1.40756839],5.0,0.5,0.0,0.16149543248987036,4.29638678378618,0.4999805858343237
2.194826364517212,0.5983108706476843,[1.4147929],5.0,0.5,0.0,0.09226512036242981,4.337608998369505,0.4999936630682677
2.2038445472717285,0.6016326488322077,[1.42181769],5.0,0.5,0.0,0.03684023669640446,4.353786279746145,0.4999989896983546
2.211846113204956,0.6047590282999944,[1.42862114],5.0,0.5,0.0,-0.004050653948913827,4.367496546682912,0.499999987786027
2.2198691368103027,0.6076900090510444,[1.43519135],5.0,0.5,0.0,-0.03244372177150364,4.37954822204783,0.4999992164482737
2.2299461364746094,0.6117933821025145,[1.44152373],5.0,0.5,0.0,-0.05102848309769471,4.397578425933778,0.49999806165467825
2.237872838973999,0.6151151602870378,[1.44761562],5.0,0.5,0.0,-0.06231152328284681,4.3841751805063485,0.49999710970509964
2.2490057945251465,0.6196093307719813,[1.45346141],5.0,0.5,0.0,-0.06835189334602464,4.403870493990027,0.49999652218670804
2.2582974433898926,0.6233219063899781,[1.45906234],5.0,0.5,0.0,-0.07073623059772069,4.402927010866748,0.4999962753207078
2.2670719623565674,0.6270344820079748,[1.46442161],5.0,0.5,0.0,-0.07064146643923797,4.401473501498816,0.4999962852937684
2.2758991718292236,0.6307470576259715,[1.46953966],5.0,0.5,0.0,-0.06891873921941864,4.3999833733804286,0.49999646426434735
2.2861828804016113,0.6346550319607048,[1.47441921],5.0,0.5,0.0,-0.06617210119502151,4.397457136733093,0.49999674046904186
2.294904947280884,0.638172208861965,[1.47906496],5.0,0.5,0.0,-0.06282355990180225,4.396695898384788,0.4999970620088478
2.3042914867401123,0.6420801831966985,[1.48348325],5.0,0.5,0.0,-0.05916354588300887,4.393706439423584,0.49999739436287394
2.31494140625,0.6461835562481684,[1.48768179],5.0,0.5,0.0,-0.055388677759491994,4.38932731080793,0.4999977162546342
2.326230525970459,0.6508731254498485,[1.491673],5.0,0.5,0.0,-0.0516293874245418,4.403525300364453,0.4999980157346069
2.3365445137023926,0.6549764985013187,[1.49547299],5.0,0.5,0.0,-0.04796982565213276,4.391921842039566,0.4999982870597615
2.345613956451416,0.6586890741193153,[1.4990937],5.0,0.5,0.0,-0.04446205530580072,4.382889753397596,0.49999852841583703
2.3578953742980957,0.6635740420377321,[1.50254676],5.0,0.5,0.0,-0.31717445317954873,4.390007106421539,0.499925119186725
2.3687260150909424,0.6678728138059389,[1.5058469],5.0,0.5,0.0,-0.07113157682852295,4.373100043604276,0.4999962335699001
2.3798694610595703,0.6723669842908824,[1.50900462],5.0,0.5,0.0,0.020017570559470885,4.356537224983371,0.49999970171646463
2.389864683151245,0.6764703573423524,[1.51202979],5.0,0.5,0.0,0.043732388370902625,4.363511663678573,0.4999985763197853
2.3978636264801025,0.6799875342436125,[1.51493193],5.0,0.5,0.0,0.0407027480140352,4.3264251079393725,0.49999876674296284
2.406857490539551,0.6838955085783458,[1.51771393],5.0,0.5,0.0,0.02914859081858521,4.316500293400914,0.49999936752767316
2.4158737659454346,0.6872172867628693,[1.52037923],5.0,0.5,0.0,0.01669504597845072,4.309234708388344,0.4999997925173319
2.4262404441833496,0.691516058531076,[1.52293755],5.0,0.5,0.0,0.006117731284582011,4.317218336424159,0.49999997213959296
2.4366793632507324,0.6954240328658093,[1.52540061],5.0,0.5,0.0,-0.27795751996441215,4.29989927628559,0.4999424906373754
2.446837902069092,0.6997228046340161,[1.52777599],5.0,0.5,0.0,-0.3167509591286418,4.2816321955347325,0.4999253190013132
2.4581305980682373,0.7038261776854862,[1.53007028],5.0,0.5,0.0,-0.2653918898507866,4.284108980470616,0.4999475724938933
2.4668877124786377,0.7075387533034829,[1.53228945],5.0,0.5,0.0,-0.1915772333391264,4.245291651233525,0.49997267987989147
2.4773881435394287,0.7118375250716897,[1.53443624],5.0,0.5,0.0,-0.12225773567535372,4.2487694772228295,0.4999888736033262
2.4866042137145996,0.7157454994064231,[1.53651554],5.0,0.5,0.0,-0.06608929088866654,4.229512969723765,0.49999674862211485
2.4974141120910645,0.7202396698913666,[1.53853172],5.0,0.5,0.0,-0.024034418147137613,4.208547282390246,0.49999956999479356
2.50583553314209,0.72356144807589,[1.54048411],5.0,0.5,0.0,0.005773871592748904,4.176496617304927,0.4999999751834785
2.5141289234161377,0.7266878275436768,[1.54237028],5.0,0.5,0.0,0.02590590009631513,4.169448746958874,0.4999995004213948
2.5232226848602295,0.7304004031616733,[1.54419072],5.0,0.5,0.0,0.03878621626502948,4.158313331614452,0.4999988801469985
2.532849073410034,0.7345037762131434,[1.54594827],5.0,0.5,0.0,0.04641878639461891,4.144103420251066,0.4999983960399676
2.544478178024292,0.7391933454148236,[1.54764741],5.0,0.5,0.0,0.05035436853833593,4.141634909032397,0.49999811252953785
2.5562267303466797,0.7444691107667136,[1.54929557],5.0,0.5,0.0,0.05174750752080911,4.12955401139579,0.49999800664485095
2.5638322830200195,0.747204692801027,[1.55089713],5.0,0.5,0.0,-0.22460204637024764,4.097927902827207,0.4999624493218606
2.573838472366333,0.7513080658524971,[1.55245049],5.0,0.5,0.0,-0.2591447478921175,4.080116459354631,0.49995001153655877
2.5819623470306396,0.7546298440370205,[1.5539544],5.0,0.5,0.0,-0.2061527926873383,4.066371879307226,0.49996836474198925
2.593456268310547,0.7587332170884905,[1.55541109],5.0,0.5,0.0,-0.13256931599317837,4.061493402602871,0.4999869176120213
2.6023294925689697,0.7624457927064873,[1.55682396],5.0,0.5,0.0,-0.34078375783815623,4.041812191892108,0.49991355758205247
2.6118173599243164,0.7661583683244839,[1.55819437],5.0,0.5,0.0,-0.32004862072938656,4.0230699713219344,0.49992375603369654
2.62499737739563,0.7716295323931107,[1.55952329],5.0,0.5,0.0,-0.22569081179941722,4.007610659764854,0.4999620843971427
2.637972116470337,0.7769052977450008,[1.56081402],5.0,0.5,0.0,-0.12284619649813937,3.9892321968961046,0.4999887662378147
2.6518309116363525,0.782181063096891,[1.56207028],5.0,0.5,0.0,-0.03533515209460173,3.9682628555697046,0.499999070562477
2.6632068157196045,0.7870660310153078,[1.56329477],5.0,0.5,0.0,0.3070737655470996,3.9473095379639096,0.49992981220149085
2.6734848022460938,0.7915602015002512,[1.56448835],5.0,0.5,0.0,0.3867788591542014,3.9185624434848485,0.49988865165432156
2.6835381984710693,0.7956635745517212,[1.56564949],5.0,0.5,0.0,0.36210800732702564,3.8943458185842377,0.4999024020843626
2.6919562816619873,0.7991807514529814,[1.5667759],5.0,0.5,0.0,0.30417026682926507,3.8749379092541973,0.4999311331398475
2.7018275260925293,0.802893327070978,[1.56786574],5.0,0.5,0.0,0.24287871567214614,3.8558988612306724,0.49995608968829364
2.712221384048462,0.8071920988391849,[1.56891846],5.0,0.5,0.0,0.18923808761452401,3.8422977833145495,0.49997334294308915
2.7219927310943604,0.8111000731739182,[1.56993457],5.0,0.5,0.0,0.14598191907456368,3.8213048282074173,0.49998413653981194
2.73429536819458,0.8157896423755981,[1.57091452],5.0,0.5,0.0,0.11253643549292491,3.8042595593759962,0.4999905726660581
2.742828845977783,0.8191114205601217,[1.57185805],5.0,0.5,0.0,0.08725419712246857,3.779386683650009,0.49999433269132654
2.7518603801727295,0.8230193948948551,[1.57276368],5.0,0.5,0.0,0.06835709863496339,3.761382379195231,0.499996521656989
2.760847806930542,0.8265365717961152,[1.57363039],5.0,0.5,0.0,0.05428617871877491,3.7455268349482767,0.4999978062644817
2.7723495960235596,0.8314215397145318,[1.57445899],5.0,0.5,0.0,0.043791328941977604,3.7286806427372836,0.4999985724796588
2.781453847885132,0.8353295140492653,[1.57525099],5.0,0.5,0.0,0.035916499260395286,3.7090682747099084,0.4999990397280169
2.792372465133667,0.8398236845342087,[1.57600729],5.0,0.5,0.0,0.029950535697821454,3.6870867807517826,0.49999933224742016
2.7998318672180176,0.8427546652852588,[1.57672771],5.0,0.5,0.0,0.02537335367402025,3.668159618688533,0.49999952074989873
2.8098509311676025,0.8466626396199921,[1.57741182],5.0,0.5,0.0,0.021808543646164483,3.651417600188019,0.49999964595387036
2.8208882808685303,0.8511568101049355,[1.57806069],5.0,0.5,0.0,0.01898532878258838,3.6360130799485795,0.49999973168632733
2.8316433429718018,0.8558463793066157,[1.57867652],5.0,0.5,0.0,0.01670949444057541,3.6131821909128448,0.4999997921580514
2.841630458831787,0.859754353641349,[1.57926092],5.0,0.5,0.0,0.014841811218264618,3.594371802754888,0.49999983602395376
2.8508310317993164,0.8630761318258724,[1.57981497],5.0,0.5,0.0,0.013282310734047852,3.5786166971572917,0.4999998686730402
2.8608171939849854,0.8667887074438692,[1.58033981],5.0,0.5,0.0,0.011958962454676654,3.5610755551777737,0.49999989353824187
2.8730380535125732,0.8718690740790227,[1.58083705],5.0,0.5,0.0,0.010819583808896797,3.540464236788193,0.49999991285795486
2.8818812370300293,0.8753862509802827,[1.58130866],5.0,0.5,0.0,0.009826090322144748,3.522606415463197,0.49999992812660693
2.8905599117279053,0.8794896240317529,[1.58175606],5.0,0.5,0.0,0.008950422535256772,3.5022435985378415,0.49999994036602957
2.899643898010254,0.8832021996497494,[1.58218025],5.0,0.5,0.0,0.008171666432737392,3.48402127026557,0.499999950291814
2.909903049468994,0.8875009714179563,[1.58258221],5.0,0.5,0.0,0.007474019554900504,3.463068748864517,0.4999999584170672
2.921433925628662,0.8921905406196363,[1.5829633],5.0,0.5,0.0,0.006845354519558236,3.4432496977324485,0.4999999651182271
2.9298481941223145,0.8955123188041597,[1.58332515],5.0,0.5,0.0,0.2823145634185361,3.426096728166724,0.49994067367135275
2.9383974075317383,0.898834096988683,[1.5836689],5.0,0.5,0.0,0.31492200359397693,3.409397967348834,0.499926178880847
2.9472336769104004,0.9025466726066799,[1.58399535],5.0,0.5,0.0,0.259353476563974,3.3909642256449883,0.4999499309815402
2.959303617477417,0.9074316405250966,[1.58430555],5.0,0.5,0.0,0.18283806651078105,3.369454072572387,0.49997511548916923
2.967829465866089,0.9109488174263566,[1.58460051],5.0,0.5,0.0,0.111921631235995,3.3489592870685985,0.499990675389749
2.977389097213745,0.9148567917610901,[1.58488092],5.0,0.5,0.0,0.05493912896733321,3.3324167017056836,0.49999775317504525
2.984834671020508,0.9175923737954035,[1.58514746],5.0,0.5,0.0,0.012610759010037952,3.316330866142166,0.4999998816170721
2.99383544921875,0.9211095506966636,[1.58540055],5.0,0.5,0.0,-0.017107919159228255,3.299571258341532,0.49999978212823104
3.006164073944092,0.9261899173318169,[1.5856409],5.0,0.5,0.0,-0.31295279236926776,3.277199490823975,0.499927099136095
3.0151424407958984,0.929707094233077,[1.58586966],5.0,0.5,0.0,-0.0824476216069111,3.2594024485813824,0.4999949398808689
3.0259170532226562,0.9340058660012838,[1.58608762],5.0,0.5,0.0,-0.001302707349617599,3.2380112972497503,0.49999999873671774
3.0358431339263916,0.9381092390527538,[1.58629532],5.0,0.5,0.0,0.016346303092405184,3.217673484940278,0.4999998010950077
3.0448083877563477,0.9418218146707505,[1.58649327],5.0,0.5,0.0,0.01000016488481431,3.199335662470353,0.49999992555749745
3.053821086883545,0.9455343902887473,[1.58668196],5.0,0.5,0.0,-0.0029866469072042977,3.181035455975141,0.49999999335990275
3.0661215782165527,0.9504193582071641,[1.58686204],5.0,0.5,0.0,-0.015608421589965381,3.158471107651857,0.4999998186470725
3.074859380722046,0.9537411363916874,[1.58703408],5.0,0.5,0.0,-0.025527216074824617,3.1400654756527606,0.4999995149199947
3.0841424465179443,0.9574537120096842,[1.5871983],5.0,0.5,0.0,-0.03238475339084503,3.1219473777581532,0.4999992192939861
3.092886447906494,0.9609708889109442,[1.58735491],5.0,0.5,0.0,-0.03656501676782195,3.1048160663484348,0.4999990047371422
3.1008119583129883,0.9642926670954678,[1.58750419],5.0,0.5,0.0,-0.03865016769351745,3.0871504182939904,0.49999888798932207
3.110821008682251,0.9682006414302011,[1.58764626],5.0,0.5,0.0,-0.03920071172179256,3.068454103771139,0.4999988560841365
3.1208250522613525,0.9723040144816711,[1.58778142],5.0,0.5,0.0,-0.0386821004229746,3.0486033358610953,0.49999888615108085
3.1298413276672363,0.9760165900996679,[1.58791016],5.0,0.5,0.0,-0.037453572050612324,3.0305259667956235,0.4999989557783107
3.1413302421569824,0.980706159301348,[1.58803302],5.0,0.5,0.0,0.2402579317720228,3.008606056790852,0.49995703216393933
3.1498208045959473,0.9842233362026079,[1.58815051],5.0,0.5,0.0,0.27531031310342435,2.989709174978309,0.4999435807729062
3.158820629119873,0.9881313105373414,[1.58826283],5.0,0.5,0.0,0.22226278078241793,2.9705428791806665,0.49996322741233873
3.167950391769409,0.9920392848720748,[1.58837006],5.0,0.5,0.0,0.1482589540368485,2.9502786451888734,0.49998363780994265
3.178037166595459,0.9963380566402815,[1.58847242],5.0,0.5,0.0,0.07978882011991248,2.9304598711775847,0.4999952609782365
3.189060926437378,1.000832227125225,[1.58857036],5.0,0.5,0.0,0.025152394896488482,2.9081669439435562,0.4999995290604585
3.198622941970825,1.0045448027432218,[1.58866428],5.0,0.5,0.0,-0.014950484073915065,2.8897212205210003,0.4999998336138731
3.2088541984558105,1.0082573783612183,[1.58875441],5.0,0.5,0.0,-0.04257460833754928,2.8713356892493826,0.4999986507034431
3.216822385787964,1.0113837578290052,[1.5888409],5.0,0.5,0.0,-0.060421094675425974,2.8549448230925663,0.49999728241789715
3.225848436355591,1.0150963334470018,[1.58892376],5.0,0.5,0.0,-0.0710032960610236,2.836845490606362,0.49999624714257995
3.2348856925964355,1.0186135103482619,[1.58900314],5.0,0.5,0.0,0.19965461980280164,2.8194493661648288,0.4999703276108537
3.2436885833740234,1.0219352885327855,[1.58907928],5.0,0.5,0.0,-0.04502572538824581,2.8031885214423675,0.49999849086720644
3.255255699157715,1.0268202564512021,[1.58915238],5.0,0.5,0.0,-0.13257705666931446,2.7790861734780563,0.49998691608424456
3.265990972518921,1.0315098256528823,[1.58922272],5.0,0.5,0.0,-0.1513071678479151,2.756621494383124,0.4999829580895626
3.2764358520507812,1.0361993948545623,[1.58929061],5.0,0.5,0.0,-0.14250243901541187,2.733097087498016,0.49998488372773375
3.2888309955596924,1.0403027679060324,[1.58935625],5.0,0.5,0.0,-0.1247943609093939,2.712542133376524,0.4999884071140542
3.29787540435791,1.0440153435240291,[1.58941964],5.0,0.5,0.0,-0.10608640684643161,2.69330589425127,0.4999916223441245
3.307013988494873,1.0479233178587624,[1.58948072],5.0,0.5,0.0,-0.08933796711518882,2.67406701184174,0.49999405877189446
3.314840793609619,1.0510496973265493,[1.58953948],5.0,0.5,0.0,-0.07533063894234358,2.658034824541351,0.49999577576429666
3.3248300552368164,1.055348469094756,[1.58959592],5.0,0.5,0.0,-0.06396337337674822,2.6369582412002335,0.4999969544335986
3.3348958492279053,1.059451842146226,[1.58965017],5.0,0.5,0.0,-0.05483842794770607,2.61727974296847,0.4999977614041418
3.34718656539917,1.0643368100646429,[1.58970254],5.0,0.5,0.0,-0.047511188098722984,2.593461647649502,0.49999831965782754
3.3548264503479004,1.067267790815693,[1.58975323],5.0,0.5,0.0,-0.04158485076075092,2.5780743524845917,0.49999871270995494
3.364232063293457,1.0707849677169528,[1.58980221],5.0,0.5,0.0,-0.03673658991629351,2.5606388775157276,0.49999899537514253
3.3731515407562256,1.0744975433349495,[1.5898495],5.0,0.5,0.0,-0.03271580018420255,2.54222027882437,0.49999920325119024
3.3808364868164062,1.0776239228027364,[1.58989512],5.0,0.5,0.0,-0.02933281659724039,2.52619844047854,0.4999993595076737
3.390852212905884,1.0821180932876797,[1.58993904],5.0,0.5,0.0,-0.02644597967136894,2.504037141157166,0.4999994793741009
3.399829149246216,1.08563527018894,[1.58998129],5.0,0.5,0.0,-0.023950049230201206,2.486584402283544,0.49999957300842024
3.4088523387908936,1.0893478458069366,[1.59002194],5.0,0.5,0.0,-0.02176681687017086,2.468202105645261,0.4999996473073826
3.4188003540039062,1.09325582014167,[1.59006109],5.0,0.5,0.0,-0.019837885638197172,2.448806398901027,0.49999970704742974
3.429853916168213,1.0977499906266135,[1.59009881],5.0,0.5,0.0,-0.018119281675924317,2.4264676429228818,0.4999997556071353
3.4408347606658936,1.1022441611115568,[1.59013515],5.0,0.5,0.0,-0.016577506467195885,2.4040863923399356,0.49999979542856177
3.449842691421509,1.1059567367295535,[1.59017018],5.0,0.5,0.0,-0.015186677329127513,2.385583968349697,0.49999982831508727
3.458937644958496,1.1094739136308136,[1.59020395],5.0,0.5,0.0,-0.01392647023417841,2.3680754313347885,0.4999998556260884
3.469831705093384,1.113968084115757,[1.59023652],5.0,0.5,0.0,-0.012780645142267292,2.345727088313108,0.4999998784059914
3.478837013244629,1.1174852610170172,[1.59026794],5.0,0.5,0.0,-0.011735990081150255,2.3281624655331568,0.49999989747114715
3.488896131515503,1.1213932353517506,[1.59029825],5.0,0.5,0.0,-0.010781564350544053,2.3087033962236436,0.4999999134693041
3.499406099319458,1.1256920071199572,[1.59032749],5.0,0.5,0.0,-0.009908154580977647,2.2873088024536967,0.4999999269210682
3.508816957473755,1.129404582737954,[1.5903557],5.0,0.5,0.0,-0.009107881952081976,2.268736803194227,0.49999993824936406
3.518028974533081,1.1331171583559507,[1.59038291],5.0,0.5,0.0,-0.00837391669856745,2.250231296223792,0.4999999478007906
3.5268468856811523,1.1370251326906842,[1.59040912],5.0,0.5,0.0,-0.007700268817750575,2.2305118579736027,0.49999995586141266
3.537090301513672,1.1413239044588908,[1.59043434],5.0,0.5,0.0,-0.2831199926811909,2.2095607977679896,0.4999403346986348
3.5452539920806885,1.1446456826434142,[1.59045862],5.0,0.5,0.0,-0.31567623512127785,2.1927810102789147,0.4999258248836427
3.555859088897705,1.148944454411621,[1.59048197],5.0,0.5,0.0,-0.2600566356580597,2.1714747624673403,0.49994965913296313
3.565840244293213,1.1528524287463542,[1.59050441],5.0,0.5,0.0,-0.45952981905062856,2.152177387971201,0.49984283139253954
3.5772435665130615,1.1571512005145612,[1.590526],5.0,0.5,0.0,-0.4216902561709755,2.13106532640635,0.4998676462287061
3.584845781326294,1.160277579982348,[1.59054681],5.0,0.5,0.0,-0.3095652228647958,2.1151823022019656,0.49992866871867614
3.5939080715179443,1.163794756883608,[1.59056683],5.0,0.5,0.0,-0.19110924173506116,2.097742922221489,0.4999728131903366
3.6060338020324707,1.169070522235498,[1.59058611],5.0,0.5,0.0,-0.09082802091993739,2.0717007089119317,0.4999938589347636
3.615169048309326,1.1727830978534948,[1.5906047],5.0,0.5,0.0,-0.014362568629942486,2.0530504191438728,0.499999846442568
3.6240341663360596,1.1761048760380182,[1.59062264],5.0,0.5,0.0,0.040078121083407706,2.0362656577924967,0.49999880430376514
3.6318697929382324,1.1790358567890682,[1.59063989],5.0,0.5,0.0,0.07660216874853426,2.0216592282220662,0.49999563195695884
3.6408205032348633,1.1825530336903283,[1.59065646],5.0,0.5,0.0,0.09949826259277286,2.0039862757714237,0.49999263056030674
3.6524739265441895,1.1874380016087451,[1.59067236],5.0,0.5,0.0,0.11246191832519714,1.9799011386919485,0.4999905851466286
3.660233497619629,1.190955178510005,[1.59068761],5.0,0.5,0.0,0.394453051055124,1.9619682471640492,0.4998841897460447
3.6698954105377197,1.1948631528447384,[1.59070223],5.0,0.5,0.0,0.4287209198683325,1.9424720509321334,0.4998631966894025
3.6818056106567383,1.2001389181966287,[1.59071625],5.0,0.5,0.0,0.37156635158741486,1.916341838466515,0.49989723746754716
3.6898245811462402,1.2032652976644154,[1.59072973],5.0,0.5,0.0,0.291374330316454,1.9004586188358645,0.49993680513290434
3.700071334838867,1.2073686707158855,[1.59074269],5.0,0.5,0.0,0.2155042412604809,1.8800128358534105,0.4999654296877207
3.7099997997283936,1.211276645050619,[1.59075512],5.0,0.5,0.0,0.15285508040318638,1.8605031950011406,0.49998260762584107
3.721217155456543,1.2157708155355622,[1.59076706],5.0,0.5,0.0,0.10453213802390743,1.838124061922197,0.4999918660260602
3.7308385372161865,1.2196787898702957,[1.59077853],5.0,0.5,0.0,-0.2072891482883342,1.8187114371762523,0.4999680150332575
3.7408761978149414,1.2239775616385025,[1.59078957],5.0,0.5,0.0,0.009853332189175681,1.7973014302791546,0.4999999277295868
3.7528328895568848,1.2284717321234457,[1.59080021],5.0,0.5,0.0,0.0799084746172821,1.7747937259694944,0.4999952467579479
3.762301445007324,1.232379706458179,[1.5908105],5.0,0.5,0.0,-0.18770624424194676,1.7553757186678074,0.49997377275880717
3.7725794315338135,1.2364830795096493,[1.59082043],5.0,0.5,0.0,-0.234913027242811,1.734907927955345,0.49995892260382196
3.7831220626831055,1.2409772499945926,[1.59083003],5.0,0.5,0.0,-0.1993602098003005,1.7124985462880427,0.499970415076722
3.7922871112823486,1.2444944268958527,[1.59083928],5.0,0.5,0.0,-0.14152151381142014,1.6948962559626297,0.49998509115424505
3.801870107650757,1.2482070025138494,[1.5908482],5.0,0.5,0.0,-0.08579785900284545,1.6762680104600518,0.499994520358235
3.8098456859588623,1.2515287806983728,[1.59085678],5.0,0.5,0.0,-0.04031316755982428,1.6597203688116657,0.49999879033755246
3.819007158279419,1.2552413563163693,[1.59086502],5.0,0.5,0.0,-0.0062837556840375265,1.641195392734311,0.49999997077132136
3.8297994136810303,1.2601263242347864,[1.59087295],5.0,0.5,0.0,0.017666872982968776,1.6168522550759032,0.49999976797388135
3.8398749828338623,1.263838899852783,[1.59088057],5.0,0.5,0.0,0.033609511534187564,1.598261065617228,0.49999915963915254
3.8508903980255127,1.2681376716209898,[1.59088789],5.0,0.5,0.0,0.043541161804994254,1.5767983083771444,0.4999985896386538
3.8612303733825684,1.272631842105933,[1.59089493],5.0,0.5,0.0,0.049127766356385126,1.5543590236499238,0.4999982049566742
3.872260570526123,1.27693061387414,[1.5909017],5.0,0.5,0.0,0.32770263780369635,1.532808336059635,0.49992006868658057
3.879836320877075,1.2800569933419268,[1.59090823],5.0,0.5,0.0,0.3612797142842039,1.51697265452122,0.49990285207053997
3.890040159225464,1.2839649676766602,[1.5909145],5.0,0.5,0.0,0.30525249968277046,1.497455031329677,0.4999306487990582
3.899841785430908,1.2880683407281304,[1.59092053],5.0,0.5,0.0,0.22735484413097456,1.4769601102296843,0.499961534047552
3.908735990524292,1.2915855176293904,[1.59092633],5.0,0.5,0.0,0.15448720301844468,1.4593577941045839,0.49998225071444863
3.9183568954467773,1.295298093247387,[1.59093192],5.0,0.5,0.0,0.09523023193051125,1.4408085336295933,0.4999932748487407
3.9260244369506836,1.2982290739984372,[1.59093729],5.0,0.5,0.0,0.050471958314042394,1.4261150131854108,0.49999813985273256
3.9346508979797363,1.3019416496164338,[1.59094245],5.0,0.5,0.0,0.018280673770822247,1.4075488733651829,0.49999980687796686
3.9444620609283447,1.3058496239511672,[1.5909474],5.0,0.5,0.0,-0.0039670643129530395,1.388042230993637,0.5000000753901808
3.9549994468688965,1.310148395719374,[1.59095214],5.0,0.5,0.0,-0.01873830542910772,1.3666052820646577,0.49999988023878944
3.9649674892425537,1.3140563700541072,[1.59095669],5.0,0.5,0.0,-0.02807071904437657,1.3470430828367757,0.49999963231529254
3.972867012023926,1.3173781482386306,[1.59096103],5.0,0.5,0.0,-0.033541822989003246,1.3304261057055689,0.4999994778800264
3.9808034896850586,1.3205045277064174,[1.59096517],5.0,0.5,0.0,-0.036327573594369306,1.3148047695295568,0.4999994605788984
3.989851236343384,1.3242171033244143,[1.59096907],5.0,0.5,0.0,-0.03728341692623489,1.2962584345250117,0.49999962504947076
3.998824119567871,1.327929678942411,[1.59097274],5.0,0.5,0.0,-0.037021018879990604,1.277712641025796,0.4999999571968738
4.007816553115845,1.331446855843671,[1.59097621],5.0,0.5,0.0,-0.03597195051210486,1.2601405293755659,0.5000004479219785
4.017840385437012,1.3353548301784044,[1.5909795],5.0,0.5,0.0,-0.31047559356313004,1.2407655708605603,0.4999303586485403
4.02781343460083,1.3392628045131378,[1.59098262],5.0,0.5,0.0,-0.3417874507098725,1.2213187741839224,0.49991618365308615
4.039323329925537,1.3441477724315547,[1.5909856],5.0,0.5,0.0,-0.2847408505290763,1.1970257338836674,0.4999447521030701
4.0477118492126465,1.3476649493328146,[1.59098846],5.0,0.5,0.0,0.06937356876180487,1.1792562577176315,0.5000036186152261
4.057823181152344,1.3513775249508115,[1.59099122],5.0,0.5,0.0,0.17499124363706775,1.1606165380375724,0.49998750987846774
4.067834854125977,1.355090100568808,[1.59099389],5.0,0.5,0.0,0.17842571366064341,1.1420450483701738,0.4999909659545404
4.077211856842041,1.358802676186805,[1.59099648],5.0,0.5,0.0,0.1461635338535254,1.123465131308583,0.5000048506163923
4.086469650268555,1.3629060492382747,[1.59099899],5.0,0.5,0.0,0.10678288455800085,1.1029552752675822,0.5000217842732645
4.097135066986084,1.3672048210064816,[1.59100143],5.0,0.5,0.0,0.07131101683864637,1.0814675475582398,0.5000408498913764
4.110864162445068,1.372871383791845,[1.59100381],5.0,0.5,0.0,0.042981699451458896,1.053218839072986,0.500072262661485
4.119852781295776,1.376583959409842,[1.59100613],5.0,0.5,0.0,0.021819073181457288,1.0345524514074496,0.5001011535732091
4.128889560699463,1.3801011363111018,[1.59100839],5.0,0.5,0.0,0.28276155124292207,1.0168121413861606,0.5000773700074265
4.140328645706177,1.384790705512782,[1.59101061],5.0,0.5,0.0,0.30553130377387927,0.9933737504432131,0.5001329023595082
4.149168252944946,1.3885032811307787,[1.59101277],5.0,0.5,0.0,0.24361681005776464,0.9747142507730817,0.5002299220606922
4.157805442810059,1.3920204580320388,[1.59101489],5.0,0.5,0.0,0.16327434113556816,0.9570694466066332,0.5003436465627751
4.167842864990234,1.396123831083509,[1.59101695],5.0,0.5,0.0,0.09030384119853055,0.9365929496683105,0.5004960527022048
4.177809953689575,1.4000318054182421,[1.59101895],5.0,0.5,0.0,0.032487864168375374,0.9170422600781916,0.5006779914876732
4.1878461837768555,1.4039397797529758,[1.59102089],5.0,0.5,0.0,-0.009853175220054466,0.8974977657617162,0.5009119296667447
4.197689056396484,1.4076523553709723,[1.59102278],5.0,0.5,0.0,-0.03904824910134995,0.878928497491892,0.5011994548080484
4.207259654998779,1.4115603297057058,[1.5910246],5.0,0.5,0.0,-0.0579946790627757,0.8594034640965714,0.5015915337922379
4.217880010604858,1.416054500190649,[1.59102637],5.0,0.5,0.0,-0.06934528784054929,0.836975286963703,0.5021882220490091
4.227140665054321,1.4197670758086463,[1.59102809],5.0,0.5,0.0,-0.07526128307525332,0.8183748012805395,0.5028297809455613
4.237546682357788,1.4236750501433795,[1.59102975],5.0,0.5,0.0,-0.35343851793642833,0.7989542752287498,0.5035992696267623
4.246252775192261,1.4273876257613762,[1.59103135],5.0,0.5,0.0,-0.3861505754396771,0.7804830584651459,0.5046094521230131
4.255341291427612,1.4312956000961095,[1.59103288],5.0,0.5,0.0,-0.32897374800279344,0.7609835553815713,0.5059967139274787
4.2666215896606445,1.4355943718643163,[1.59103436],5.0,0.5,0.0,0.026269747826594803,0.7394077464691968,0.5079675171921114
4.278203248977661,1.4402839410659962,[1.59103578],5.0,0.5,0.0,0.13364085001812026,0.7159341371049267,0.5106045043255569
4.287830829620361,1.443996516683993,[1.59103716],5.0,0.5,0.0,0.13919284184158667,0.6972699375359822,0.5132298508177598
4.298155784606934,1.4484906871689365,[1.59103848],5.0,0.5,0.0,0.10923388757803362,0.6748369555222086,0.5171717094521918
4.307888746261597,1.4522032627869332,[1.59103976],5.0,0.5,0.0,0.0722218033335891,0.6562117558275383,0.521167291132679
4.316921710968018,1.4563066358384031,[1.59104099],5.0,0.5,0.0,0.03910424560176881,0.6357146402921777,0.5264973060771418
4.325831651687622,1.4596284140229265,[1.59104217],5.0,0.5,0.0,0.013063810428834845,0.6190804276659491,0.5316214696252745
4.337616443634033,1.46412258450787,[1.5910433],5.0,0.5,0.0,-0.0059068743224029475,0.5966935222195239,0.5398842243906098
4.348400831222534,1.4686167549928135,[1.5910444],5.0,0.5,0.0,-0.01892578684329386,0.5742041677817405,0.5499011584464469
4.356152772903442,1.4717431344606002,[1.59104546],5.0,0.5,0.0,-0.027327525884940935,0.5584987822293105,0.5580402426825681
4.366458892822266,1.4758465075120701,[1.59104648],5.0,0.5,0.0,-0.3083566340164157,0.5381774369396849,0.5702838365075922
4.374866247177124,1.4795590831300671,[1.59104747],5.0,0.5,0.0,-0.34403758516300464,0.5196411646437185,0.5831598406619742
4.383864164352417,1.4834670574648006,[1.5910484],5.0,0.5,0.0,-0.2898085980205791,0.50013988416081,0.5987284599703342
4.392863750457764,1.4871796330827973,[1.59104928],5.0,0.5,0.0,0.06258394454882155,0.48147825620308876,0.6155784156050514
4.4029014110565186,1.4908922087007939,[1.59105012],5.0,0.5,0.0,-0.10879715781451657,0.4630024790779484,0.634473630863523
4.413876533508301,1.494995581752264,[1.59105093],5.0,0.5,0.0,-0.13892703882464175,0.4425492080423657,0.6579594431159979
4.423887014389038,1.499294353520471,[1.5910517],5.0,0.5,0.0,-0.11618222470126949,0.42108901342341176,0.6856417744059611
4.432868957519531,1.5028115304217309,[1.59105245],5.0,0.5,0.0,-0.0793390867318799,0.4034599522116849,0.7107012409671167
4.441369295120239,1.506328707322991,[1.59105316],5.0,0.5,0.0,-0.0440044156575409,0.38589425826037704,0.7379600487662952
4.451233863830566,1.5100412829409877,[1.59105384],5.0,0.5,0.0,-0.015341005439592038,0.3673486171050458,0.7691174401404308
4.4603071212768555,1.5137538585589845,[1.59105449],5.0,0.5,0.0,0.005912302906430652,0.3487807580797561,0.802680449034954
4.471444368362427,1.5184434277606642,[1.59105512],5.0,0.5,0.0,0.0206704822291449,0.3253893252864548,0.8483691708516916
4.479858160018921,1.5219606046619245,[1.59105573],5.0,0.5,0.0,0.03028513014815853,0.3077266157266981,0.8848779775418427
4.490132093429565,1.525868578996658,[1.5910563],5.0,0.5,0.0,0.03605335628888993,0.28821786248092335,0.9274618830761339
4.49847674369812,1.529385755897918,[1.59105686],5.0,0.5,0.0,0.039054431374792184,0.2706256358842772,0.9673544286560565
4.50752329826355,1.5329029327991783,[1.59105739],5.0,0.5,0.0,0.040125626378213874,0.25303170580675083,1.0084489352306487
4.516252279281616,1.5368109071339113,[1.5910579],5.0,0.5,0.0,0.03989036542791474,0.23351700890374283,1.0551319942062911
4.52556037902832,1.5403280840351714,[1.59105839],5.0,0.5,0.0,0.038800440855906074,0.21589170255365567,1.0976711178310405
4.534648180007935,1.5444314570866415,[1.59105886],5.0,0.5,0.0,-0.23886156470247544,0.19556446831762875,1.147336859317436
4.544847011566162,1.5485348301381114,[1.5910593],5.0,0.5,0.0,-0.2739193008273869,0.1751199591261841,1.1964590184631283
4.553720951080322,1.5520520070393715,[1.59105973],5.0,0.5,0.0,-0.22091046072099596,0.15754114406937653,1.237588118513877
4.565141201019287,1.5561553800908419,[1.59106014],5.0,0.5,0.0,-0.1469649371597614,0.13706850077838384,1.2837314043025452
4.573861360549927,1.559672556992102,[1.59106052],5.0,0.5,0.0,-0.07856387175671775,0.1194504615991315,1.3211524633477447
4.586246013641357,1.5647529236272555,[1.59106089],5.0,0.5,0.0,-0.30003991752478587,0.09428997022045987,1.3706643230460118
4.594863653182983,1.5682701005285153,[1.59106123],5.0,0.5,0.0,-0.29313710570511836,0.07669617801029138,1.4012630362354948
4.603892087936401,1.5717872774297754,[1.59106156],5.0,0.5,0.0,-0.21049019071936537,0.05915052550925742,1.4283605181804484
4.6129090785980225,1.5753044543310357,[1.59106187],5.0,0.5,0.0,-0.11663070607286033,0.04157215060909434,1.4515435068078004
4.625338077545166,1.5799940235327155,[1.59106216],5.0,0.5,0.0,-0.31163286728431117,0.018348241182804596,1.475724698711299
4.633822679519653,1.5833158017172388,[1.59106243],5.0,0.5,0.0,-0.5588584734242363,0.0018941630437384126,1.4878372500928922
4.645410537719727,1.5876145734854459,[1.59106269],5.0,0.5,0.0,-0.7692208619835936,-0.019292033240455638,1.4971846592790925
4.653823137283325,1.590936351669969,[1.59106293],5.0,0.5,0.0,-0.9185137903119872,-0.035667140181204406,1.4993691630117403
4.663914918899536,1.5940627311377558,[1.59106317],5.0,0.5,0.0,-1.2847928902584018,-0.05091479874835108,1.496974881219198
4.6718151569366455,1.596798313172069,[1.5910634],5.0,0.5,0.0,-1.9119693534716586,-0.0639517230306304,1.4907298888110962
4.681058883666992,1.599338496489646,[1.59106362],5.0,0.5,0.0,-2.4810476074046233,-0.07590690956981412,1.4818373480764848
4.689706087112427,1.6018786798072226,[1.59106384],5.0,0.5,0.0,-2.8935207984132165,-0.08781189910370565,1.4706855466485125
4.69791579246521,1.604028065691326,[1.59106405],5.0,0.5,0.0,-3.418513362966218,-0.09760877969201648,1.4583215115450763
4.70735502243042,1.606372850292166,[1.59106425],5.0,0.5,0.0,-4.115004777858638,-0.10811865045192938,1.4417632564532037
4.717847585678101,1.6085222361762692,[1.59106444],5.0,0.5,0.0,-5.0,-0.11724474195100333,1.4225977231623295
4.726818084716797,1.6102808246268994,[1.59106463],5.0,0.5,0.0,-5.0,-0.12452920789201748,1.4105408186464743
4.736998081207275,1.6120394130775293,[1.59106482],5.0,0.5,0.0,-5.0,-0.1314576843347612,1.3975050710628025
4.747884750366211,1.6136026028114228,[1.59106499],5.0,0.5,0.0,-5.0,-0.13729207016149156,1.38513301618295
4.756540775299072,1.6145795963951064,[1.59106516],5.0,0.5,0.0,-5.0,-0.1404929622957645,1.3770415988231004
4.763868808746338,1.6155565899787896,[1.59106532],5.0,0.5,0.0,-5.0,-0.14353335273744947,1.3686840351446332
4.772826910018921,1.6161427861289996,[1.59106548],5.0,0.5,0.0,-5.0,-0.1444147052898841,1.363545968559964
4.785485744476318,1.6171197797126828,[1.59106564],5.0,0.5,0.0,-5.0,-0.14735311504512355,1.3547810090796197
4.79383111000061,1.617510577146156,[1.59106579],5.0,0.5,0.0,-5.0,-0.14727317456745959,1.351207369935493
4.802822828292847,1.617705975862893,[1.59106594],5.0,0.5,0.0,-5.0,-0.14633538185097184,1.3494068124195775
4.8128509521484375,1.6179013745796298,[1.59106607],5.0,0.5,0.0,-5.0,-0.14533549907581095,1.34759670151124
4.82284688949585,1.6180967732963663,[1.59106621],5.0,0.5,0.0,-4.676387212694819,-0.14445680180394793,1.3480282522495928
4.830851078033447,1.6179013745796298,[1.59106634],5.0,0.5,0.0,-3.6416556580880655,-0.14202666797096591,1.3560919263684121
4.84096884727478,1.617705975862893,[1.59106646],5.0,0.5,0.0,-3.3589580669244965,-0.13927470430138086,1.3593509946182463
4.851818799972534,1.6173151784294195,[1.59106659],5.0,0.5,0.0,-3.055782097828961,-0.13557019145928328,1.3643719671619163
4.8618292808532715,1.6167289822792097,[1.59106672],5.0,0.5,0.0,-2.766946139993525,-0.13095868867177843,1.3709280781484565
4.871844053268433,1.6161427861289996,[1.59106684],5.0,0.5,0.0,-1.6762880650566494,-0.12672044556574802,1.3797385799877693
4.886199235916138,1.6153611912620527,[1.59106696],5.0,0.5,0.0,-1.618706284585096,-0.12115922051940968,1.3867121024155908
4.893843173980713,1.6147749951118429,[1.59106708],5.0,0.5,0.0,-0.7811376950912516,-0.11693691990423376,1.393221016752248
4.903507709503174,1.6139934002448963,[1.59106719],5.0,0.5,0.0,-0.11821609243364384,-0.11186253668813141,1.4002041217373473
4.9108827114105225,1.6132118053779496,[1.59106731],5.0,0.5,0.0,0.9160093884242932,-0.10706104596856829,1.4059560102582256
4.921743392944336,1.6122348117942664,[1.59106741],5.0,0.5,0.0,1.3102230446813161,-0.10116987571191549,1.4130098302466725
4.930669546127319,1.6112578182105828,[1.59106751],5.0,0.5,0.0,1.6837679818705,-0.0953341361947737,1.4195993758379606
4.9424967765808105,1.610085425910163,[1.59106761],5.0,0.5,0.0,1.9594788376714307,-0.08856257392865563,1.4273687690335668
4.954845666885376,1.6085222361762692,[1.5910677],5.0,0.5,0.0,2.127788310611126,-0.07989286210352646,1.4375281576005299
4.9638588428497314,1.607545242592586,[1.5910678],5.0,0.5,0.0,2.480040638362309,-0.07425145364322695,1.4425891319432167
4.9733335971832275,1.606372850292166,[1.59106789],5.0,0.5,0.0,3.070872495108399,-0.06789404409038911,1.447261234535704
4.9832189083099365,1.6050050592750094,[1.59106798],5.0,0.5,0.0,3.313380077789101,-0.060523833360744614,1.4537904950581881
4.992449522018433,1.6038326669745895,[1.59106806],5.0,0.5,0.0,3.357890242577951,-0.054094006738159506,1.459614807641541
5.000850439071655,1.6026602746741694,[1.59106813],5.0,0.5,0.0,3.5659319842634964,-0.047811084328158705,1.4641057214474227
5.010899305343628,1.6012924836570126,[1.5910682],5.0,0.5,0.0,3.468273419299674,-0.04046473591563599,1.470435233715103
5.020850419998169,1.6001200913565925,[1.59106828],5.0,0.5,0.0,3.5251535615849656,-0.03419939510718304,1.4745810618503017
5.029857397079468,1.5989476990561724,[1.59106835],5.0,0.5,0.0,3.578686097831255,-0.028000391956421507,1.4782167139383229
5.038985013961792,1.5977753067557523,[1.59106842],5.0,0.5,0.0,3.578025289872201,-0.02183045764918266,1.4816041118202006
5.0498926639556885,1.596407515738596,[1.59106849],5.0,0.5,0.0,3.7931418347914696,-0.014857669788505527,1.483718692863058
5.05983304977417,1.5952351234381759,[1.59106855],5.0,0.5,0.0,3.991348841785408,-0.008888919883718878,1.4848145373370631
5.0694639682769775,1.5938673324210193,[1.59106861],5.0,0.5,0.0,4.098555460137101,-0.002021321631099992,1.4860851663027483
5.078773498535156,1.5926949401205992,[1.59106866],5.0,0.5,0.0,4.3829463900162136,0.003733893483986403,1.4853736452633797
5.089809894561768,1.5913271491034424,[1.59106872],5.0,0.5,0.0,4.341722675171248,0.010515541733810673,1.4861493574765903
5.0978920459747314,1.5907409529532324,[1.59106879],5.0,0.5,0.0,4.427421238122305,0.013308408645888161,1.4855975862700677
5.106931447982788,1.5897639593695492,[1.59106885],5.0,0.5,0.0,4.484576992705503,0.017937685148900265,1.4849104570478846
5.114840984344482,1.589177763219339,[1.59106893],5.0,0.5,0.0,4.467867445710969,0.020607164534393842,1.4846439881358626
5.12483549118042,1.5883961683523924,[1.591069],5.0,0.5,0.0,4.929010395546211,0.02394288424916858,1.480810071101902
5.13344407081604,1.5878099722021823,[1.59106906],5.0,0.5,0.0,5.0,0.026323106359353643,1.4796099875282749
5.14182186126709,1.587419174768709,[1.59106911],5.0,0.5,0.0,5.0,0.027699606475870345,1.4790711982479459
5.150851011276245,1.5870283773352356,[1.59106916],5.0,0.5,0.0,5.0,0.028816330711207705,1.478471806809184
5.1599578857421875,1.586832978618499,[1.5910692],5.0,0.5,0.0,5.0,0.028952626885110095,1.4781493876270262
5.173514366149902,1.586246782468289,[1.59106923],5.0,0.5,0.0,5.0,0.03086754179193472,1.4770916558503069
5.182841777801514,1.586246782468289,[1.59106927],5.0,0.5,0.0,5.0,0.029953091048088198,1.4770915808736484
5.192337989807129,1.5860513837515526,[1.59106931],5.0,0.5,0.0,5.0,0.030026332184064423,1.476708797174648
5.201967000961304,1.5860513837515526,[1.59106936],5.0,0.5,0.0,4.91143794528015,0.029144482338654965,1.477338667636535
5.211133241653442,1.5860513837515526,[1.5910694],5.0,0.5,0.0,4.398574357809889,0.02839342866028057,1.4807797587261664
5.223081588745117,1.5860513837515526,[1.59106943],5.0,0.5,0.0,4.069785225798296,0.02762598223141642,1.4827976560526004
5.23327898979187,1.5860513837515526,[1.59106947],5.0,0.5,0.0,3.537862221138333,0.026945020848924667,1.485745439473719
5.242250680923462,1.5860513837515526,[1.5910695],5.0,0.5,0.0,2.7231027740386495,0.026453214178617172,1.48948677420108
5.251317501068115,1.5860513837515526,[1.59106954],5.0,0.5,0.0,2.215435413812547,0.025920490450868073,1.4913359716842705
5.261971712112427,1.586246782468289,[1.59106958],5.0,0.5,0.0,1.600484919358243,0.024537741574432045,1.4934557481764164
5.273029804229736,1.5866375799017622,[1.59106961],5.0,0.5,0.0,0.7725856709178116,0.022376300442177654,1.4956350006368384
5.28084135055542,1.5866375799017622,[1.59106964],5.0,0.5,0.0,0.0241467528465118,0.022249539098913307,1.4960786403543493
5.289829730987549,1.5866375799017622,[1.59106966],5.0,0.5,0.0,-0.2807539457678606,0.02205613294607553,1.4960203633997562
5.299848318099976,1.586832978618499,[1.59106968],5.0,0.5,0.0,-0.6575735173098349,0.02101231265871912,1.4960947347477216
5.311176061630249,1.586832978618499,[1.59106969],5.0,0.5,0.0,-0.702026005455123,0.020808882275961185,1.4960497545370697
5.319457054138184,1.5870283773352356,[1.5910697],5.0,0.5,0.0,-0.8986243676122943,0.019728491920623526,1.496138107829874
5.329995632171631,1.5870283773352356,[1.59106971],5.0,0.5,0.0,-0.8200381603013993,0.019530774715979984,1.4962385285036588
5.339102745056152,1.5872237760519723,[1.59106971],5.0,0.5,0.0,-0.9339718027659282,0.018468710514244636,1.4963972116856987
5.348876237869263,1.587419174768709,[1.59106971],5.0,0.5,0.0,-1.0770417831566816,0.017466090685895486,1.4964755002085788
5.360838890075684,1.5876145734854459,[1.59106971],5.0,0.5,0.0,-1.1893858666875614,0.016452678247089056,1.4965633113592636
5.368833065032959,1.5876145734854459,[1.59106971],5.0,0.5,0.0,-1.256218205158442,0.01643969877667561,1.4964419089876173
5.376840114593506,1.5878099722021823,[1.59106971],5.0,0.5,0.0,-1.2806229989486362,0.015455048313255641,1.4966577478480594
5.388746738433838,1.588005370918919,[1.59106973],5.0,0.5,0.0,-0.9953233768654481,0.014342456518778425,1.49738679800894
5.399468183517456,1.588200769635656,[1.59106974],5.0,0.5,0.0,-0.9286003402231292,0.013280633842043333,1.4977136726363223
5.408858776092529,1.5883961683523924,[1.59106976],5.0,0.5,0.0,-0.6577547772934553,0.01212367402206484,1.498249451689225
5.419135332107544,1.588591567069129,[1.59106977],5.0,0.5,0.0,-0.6407877202070513,0.011055261124220273,1.4984668870997928
5.42996072769165,1.588591567069129,[1.59106979],5.0,0.5,0.0,-0.7011038302061086,0.010999740142198951,1.4984066586327014
5.439852237701416,1.5887869657858658,[1.59106981],5.0,0.5,0.0,-0.7664318131443937,0.010009538892805226,1.498521181308322
5.449944019317627,1.5889823645026022,[1.59106983],5.0,0.5,0.0,-0.8117641206531021,0.009021213602912085,1.4986385842008414
5.458030939102173,1.589177763219339,[1.59106985],5.0,0.5,0.0,-0.8323035127989944,0.008038528622567414,1.4987688536649517
5.4678356647491455,1.589177763219339,[1.59106987],5.0,0.5,0.0,-0.8309694595367532,0.008036568096191146,1.498770488377938
5.4784836769104,1.589373161936076,[1.59106989],5.0,0.5,0.0,-0.812873993458477,0.007032929737976325,1.4989327555356249
5.489855527877808,1.5895685606528125,[1.59106991],5.0,0.5,0.0,-0.7830650030868089,0.006094214658624219,1.4990930411121395
5.499902009963989,1.5897639593695492,[1.59106992],5.0,0.5,0.0,-0.7457511860262442,0.005095175053428814,1.49924512645378
5.510903596878052,1.5899593580862856,[1.59106994],5.0,0.5,0.0,-0.7041614257810475,0.004105877014741883,1.499384384249564
5.519848823547363,1.5901547568030223,[1.59106994],5.0,0.5,0.0,-0.660646929167612,0.003148646155482686,1.4995077104531749
5.52832818031311,1.5901547568030223,[1.59106994],5.0,0.5,0.0,-0.6168526586501467,0.0031388375035560742,1.4995493317630444
5.5383141040802,1.590350155519759,[1.59106994],5.0,0.5,0.0,-0.8499253401087812,0.002313684285033982,1.4993589412079509
5.546235799789429,1.590350155519759,[1.59106994],5.0,0.5,0.0,-0.8416279068665924,0.002376480304422283,1.4993693787476068
5.55383038520813,1.5907409529532324,[1.59106994],5.0,0.5,0.0,-0.7470862741243554,0.0004782222026943407,1.4995630486996783
5.561830520629883,1.5907409529532324,[1.59106993],5.0,0.5,0.0,-0.6337718840746364,0.00047693870952084756,1.4996794432494354
5.570858955383301,1.5907409529532324,[1.59106993],5.0,0.5,0.0,-0.5283371376724578,0.00048574703810243215,1.4997706066321626
5.579822778701782,1.590936351669969,[1.59106992],5.0,0.5,0.0,-0.4391321926891337,-0.0004770032823865902,1.4998529044470175
5.589851379394531,1.590936351669969,[1.59106991],5.0,0.5,0.0,-0.6428709566759222,-0.00034212904119726716,1.4996888786942868
5.599180698394775,1.590936351669969,[1.59106991],5.0,0.5,0.0,-0.6184744186348057,-0.0002685509435682279,1.4997117725118063
5.6070556640625,1.590936351669969,[1.5910699],5.0,0.5,0.0,-0.7938703222235788,-8.938841029393172e-05,1.4995275093185794
5.614849805831909,1.590936351669969,[1.59106989],5.0,0.5,0.0,-0.7147093667899451,1.5975111596262895e-06,1.499616330967378
5.626246452331543,1.5911317503867057,[1.59106989],5.0,0.5,0.0,-0.8360835315606897,-0.0007778049051207201,1.4994791427633325
5.634887933731079,1.590936351669969,[1.59106988],5.0,0.5,0.0,-0.7128975516733935,0.0002750633295029121,1.4996182556516708
5.6462695598602295,1.5911317503867057,[1.59106987],5.0,0.5,0.0,-0.5258137707647126,-0.0006349284408632028,1.4997934646892626
5.653899431228638,1.5911317503867057,[1.59106987],5.0,0.5,0.0,-0.34739105105061835,-0.0006206919060061334,1.4999094075441495
5.663270711898804,1.5911317503867057,[1.59106986],5.0,0.5,0.0,-0.20148881717425263,-0.0006088954883942128,1.4999690139209203
5.671891450881958,1.5911317503867057,[1.59106986],5.0,0.5,0.0,-0.09136173836805409,-0.0006029636964494098,1.4999930204041123
5.682852268218994,1.5911317503867057,[1.59106985],5.0,0.5,0.0,-0.2886204232858902,-0.0004576774081176341,1.499937227702524
5.690847158432007,1.5911317503867057,[1.59106985],5.0,0.5,0.0,-0.2678763692303656,-0.0003836223135346811,1.4999458199500826
5.700830459594727,1.5911317503867057,[1.59106984],5.0,0.5,0.0,-0.1776622870652042,-0.00034659094485794793,1.4999757378693672
5.71045994758606,1.5911317503867057,[1.59106984],5.0,0.5,0.0,-0.08008758401533822,-0.00033162701303492565,1.4999944588029803
5.7195329666137695,1.5911317503867057,[1.59106983],5.0,0.5,0.0,0.0022790963881123283,-0.0003107356972595261,1.499999229413214
5.726824760437012,1.5911317503867057,[1.59106983],5.0,0.5,0.0,0.06407177506610466,-0.00031906656782062717,1.499996177310064
5.7388224601745605,1.5911317503867057,[1.59106983],5.0,0.5,0.0,0.10673015493888693,-0.0003083340448161997,1.499990753515339
5.746826887130737,1.590936351669969,[1.59106983],5.0,0.5,0.0,0.1338414365612971,0.0006554920954095379,1.4999831021835452
5.7571845054626465,1.5911317503867057,[1.59106983],5.0,0.5,0.0,0.14918931180009334,-0.0002976906141843337,1.49998266490887
5.765823602676392,1.590936351669969,[1.59106983],5.0,0.5,0.0,0.1560430021463933,0.0006594336801246785,1.49997831147507
5.7758893966674805,1.5911317503867057,[1.59106983],5.0,0.5,0.0,0.15698684776575633,-0.00029866541843705854,1.4999808878277299
5.7844531536102295,1.5911317503867057,[1.59106983],5.0,0.5,0.0,0.15396455054217756,-0.00030857928301631146,1.4999815874522582
5.7933549880981445,1.590936351669969,[1.59106984],5.0,0.5,0.0,0.1483918171891451,0.0006583068389870449,1.4999800448876064
5.805129051208496,1.590936351669969,[1.59106984],5.0,0.5,0.0,0.14127596093323502,0.0006678109624207056,1.4999815789821427
5.81388521194458,1.5911317503867057,[1.59106985],5.0,0.5,0.0,0.13331992026002226,-0.00029942704848221635,1.4999860025991036
5.823202610015869,1.5911317503867057,[1.59106985],5.0,0.5,0.0,0.1250051488892287,-0.0003091682520806912,1.499987601603252
5.831967115402222,1.5911317503867057,[1.59106986],5.0,0.5,0.0,0.11665461100759367,-0.00030930525519774787,1.4999891039049615
5.8409857749938965,1.5911317503867057,[1.59106986],5.0,0.5,0.0,0.10847930317488738,-0.0003093254843872803,1.4999904741234538
5.850129842758179,1.590936351669969,[1.59106987],5.0,0.5,0.0,0.10061197626805195,0.00065789356836908,1.4999888993328017
5.859402418136597,1.5911317503867057,[1.59106987],5.0,0.5,0.0,0.0931312676164288,-0.00029965238777577023,1.4999927778005495
5.872254848480225,1.5911317503867057,[1.59106988],5.0,0.5,0.0,0.08607880947539516,-0.00030921576781338915,1.4999937187600056
5.882204294204712,1.5911317503867057,[1.59106989],5.0,0.5,0.0,0.07947126933186316,-0.0003092951375184051,1.4999945331756444
5.891849517822266,1.5911317503867057,[1.59106989],5.0,0.5,0.0,0.07330877017881542,-0.00030927720441106723,1.4999952341625213
5.899882793426514,1.5911317503867057,[1.5910699],5.0,0.5,0.0,0.06758074382163674,-0.00030925128246964796,1.4999958350319256
5.907862424850464,1.590936351669969,[1.5910699],5.0,0.5,0.0,0.062269973786732415,0.0006579969823859353,1.4999935464688314
5.917228698730469,1.5911317503867057,[1.59106991],5.0,0.5,0.0,0.057355366908791255,-0.00029953709499730457,1.499996786248053
5.9264421463012695,1.5911317503867057,[1.59106991],5.0,0.5,0.0,0.05281383547129573,-0.0003090951613026549,1.4999971588039775
5.936715126037598,1.5911317503867057,[1.59106991],5.0,0.5,0.0,0.04862155927309221,-0.0003091738379633771,1.499997475454143
5.945849895477295,1.5911317503867057,[1.59106992],5.0,0.5,0.0,0.04475481702832235,-0.0003091584663169509,1.49999774431895
5.956392288208008,1.5911317503867057,[1.59106992],5.0,0.5,0.0,0.0411905199387244,-0.0003091431434203353,1.4999979724367787
5.964939117431641,1.590936351669969,[1.59106992],5.0,0.5,0.0,0.037906540396850874,0.0006580946891670188,1.499995362051766
5.9749414920806885,1.590936351669969,[1.59106993],5.0,0.5,0.0,0.03488190073353831,0.0006677798819138766,1.4999955257921112
5.98734712600708,1.5911317503867057,[1.59106993],5.0,0.5,0.0,0.032096867238349314,-0.000299335346103717,1.4999984687440953
5.996140241622925,1.5911317503867057,[1.59106993],5.0,0.5,0.0,0.02953298088652183,-0.0003089961703562807,1.4999985864213514
6.004276514053345,1.5911317503867057,[1.59106993],5.0,0.5,0.0,0.027173046551065692,-0.0003090836579970818,1.4999986860855006
6.013849973678589,1.5911317503867057,[1.59106994],5.0,0.5,0.0,0.025001095730004974,-0.0003090765690730075,1.499998770481236
6.022828817367554,1.5911317503867057,[1.59106994],5.0,0.5,0.0,0.023002333107821106,-0.0003090696281118274,1.4999988419394028
6.034628391265869,1.590936351669969,[1.59106994],5.0,0.5,0.0,0.021163073986596663,0.0006581599366885821,1.4999960975664317
6.04464054107666,1.5911317503867057,[1.59106994],5.0,0.5,0.0,0.019470677337874623,-0.000299386514450213,1.4999989536538154
6.056150197982788,1.5911317503867057,[1.59106994],5.0,0.5,0.0,0.017913477640501052,-0.00030895794600684903,1.4999989970091083
6.064939022064209,1.5911317503867057,[1.59106994],5.0,0.5,0.0,0.016480717572276676,-0.0003090504166796367,1.4999990337084688
6.072845458984375,1.5911317503867057,[1.59106994],5.0,0.5,0.0,0.015162482866733641,-0.00030904880931307296,1.4999990647725026
6.0818235874176025,1.590936351669969,[1.59106994],5.0,0.5,0.0,0.01394964012762637,0.0006581767506959262,1.4999962859295841
6.090847015380859,1.5911317503867057,[1.59106994],5.0,0.5,0.0,0.012833778040610262,-0.00029937330885780096,1.4999991133199428
6.100529909133911,1.5911317503867057,[1.59106994],5.0,0.5,0.0,0.011807152183613265,-0.0003089479711683038,1.4999991321552708
6.108835935592651,1.5911317503867057,[1.59106994],5.0,0.5,0.0,0.010862633479308475,-0.00030904330895668934,1.4999991480964643
6.117837190628052,1.590936351669969,[1.59106994],5.0,0.5,0.0,0.009993660230236776,0.0006581794255402964,1.4999963564100638
6.12684440612793,1.5911317503867057,[1.59106994],5.0,0.5,0.0,0.00919419361231095,-0.000299372267575563,1.4999991730056552
6.136159896850586,1.5911317503867057,[1.59106994],5.0,0.5,0.0,0.008458676463672248,-0.0003089483181440072,1.4999991826682848
6.145864725112915,1.590936351669969,[1.59106994],5.0,0.5,0.0,0.007781995184821294,0.000658178821620424,1.4999963856919911
6.156504154205322,1.5911317503867057,[1.59106994],5.0,0.5,0.0,0.0071594445568058124,-0.00029937447371990324,1.4999991977650182
6.16590428352356,1.590936351669969,[1.59106994],5.0,0.5,0.0,0.006586695283000653,0.0006582725892550848,1.4999963984982512
6.176412343978882,1.5911317503867057,[1.59106994],5.0,0.5,0.0,0.006059764063878156,-0.00029937573878842844,1.4999992085753007
6.185858249664307,1.5911317503867057,[1.59106994],5.0,0.5,0.0,0.005574986021230225,-0.00030895344165787623,1.4999992127678312
6.195610046386719,1.5911317503867057,[1.59106994],5.0,0.5,0.0,0.005128989297255441,-0.00030905048064487655,1.4999992163152507
6.205201148986816,1.590936351669969,[1.59106994],5.0,0.5,0.0,0.00471867166388156,0.000658170915358265,1.4999964142720508
6.216598749160767,1.590936351669969,[1.59106994],5.0,0.5,0.0,0.004341178988055636,0.0006678418479687005,1.499996416831752
6.22517991065979,1.590936351669969,[1.59106994],5.0,0.5,0.0,0.003993885409110399,0.0006679372926253773,1.4999964190002302
6.234323978424072,1.5911317503867057,[1.59106994],5.0,0.5,0.0,0.003674375094451024,-0.0002992866349594636,1.4999992258223902
6.244266510009766,1.5911317503867057,[1.59106994],5.0,0.5,0.0,0.003380425449543562,-0.0003089600666555143,1.4999992273601395
6.252090215682983,1.590936351669969,[1.59106994],5.0,0.5,0.0,0.0031099916674341135,0.0006581657052163014,1.4999964237128929
6.259829521179199,1.590936351669969,[1.59106994],5.0,0.5,0.0,0.0028611925117372067,0.0006678358789909287,1.4999964248304942
6.270345211029053,1.590936351669969,[1.59106994],5.0,0.5,0.0,0.0026322972351867048,0.0006679315596303196,1.499996425777551
6.2792041301727295,1.590936351669969,[1.59106994],5.0,0.5,0.0,0.0024217135434437057,0.0006679315617119896,1.499996426580117
6.289240598678589,1.590936351669969,[1.59106994],5.0,0.5,0.0,0.0022279765209185596,0.0006679306755042485,1.4999964272602522
6.297916412353516,1.590936351669969,[1.59106994],5.0,0.5,0.0,0.0020497384419103206,0.0006679298498169765,1.499996427836639
6.3068811893463135,1.590936351669969,[1.59106994],5.0,0.5,0.0,0.0018857593964231693,0.0006679290940059043,1.4999964283250995
6.31609845161438,1.590936351669969,[1.59106994],5.0,0.5,0.0,0.0017348986656152855,0.0006679284071574629,1.499996428739035
6.324846267700195,1.590936351669969,[1.59106994],5.0,0.5,0.0,0.0015961067870002464,0.0006679277875234755,1.4999964290897982
6.333913564682007,1.590936351669969,[1.59106994],5.0,0.5,0.0,0.0014684182542841514,0.0006679272327561617,1.4999964293870076
6.34614896774292,1.590936351669969,[1.59106994],5.0,0.5,0.0,0.0013509448011121657,0.0006679267400302711,1.4999964296388122
6.35482382774353,1.590936351669969,[1.59106994],5.0,0.5,0.0,0.0012428692220427169,0.0006679263061520037,1.499996429852119
6.363852262496948,1.590936351669969,[1.59106994],5.0,0.5,0.0,0.0011434396877929658,0.0006679259276590098,1.4999964300327813
6.372992992401123,1.590936351669969,[1.59106994],5.0,0.5,0.0,0.0010519645152290934,0.000667925600906015,1.499996430185762
6.382843971252441,1.590936351669969,[1.59106994],5.0,0.5,0.0,0.0009678073557324637,0.0006679253221393128,1.4999964303152677
6.391209840774536,1.590936351669969,[1.59106994],5.0,0.5,0.0,0.0008903827684790546,0.000667925087562354,1.4999964304248665
6.39934515953064,1.590936351669969,[1.59106994],5.0,0.5,0.0,0.0008191521478443623,0.000667924893393554,1.4999964305175837
6.407108783721924,1.590936351669969,[1.59106994],5.0,0.5,0.0,0.0007536199766073543,0.000667924735911934,1.4999964305959859
6.414886713027954,1.590936351669969,[1.59106994],5.0,0.5,0.0,0.0006933303788921456,0.0006679246114938464,1.4999964306622506
6.423873424530029,1.590936351669969,[1.59106994],5.0,0.5,0.0,0.0006378639488701387,0.0006679245166485138,1.499996430718225
6.433847427368164,1.590936351669969,[1.59106994],5.0,0.5,0.0,0.0005868348331630846,0.000667924448040365,1.499996430765477
6.442905902862549,1.590936351669969,[1.59106994],5.0,0.5,0.0,0.0005398880466518266,0.0006679244025068456,1.4999964308053368
6.451847553253174,1.590936351669969,[1.59106994],5.0,0.5,0.0,0.000496697003018933,0.0006679243770772791,1.4999964308389342
6.460852861404419,1.590936351669969,[1.59106994],5.0,0.5,0.0,0.00045696124284689535,0.000667924368976354,1.4999964308672273
6.46980881690979,1.590936351669969,[1.59106994],5.0,0.5,0.0,0.0004204043434677774,0.0006679243756362485,1.4999964308910303
6.478853940963745,1.590936351669969,[1.59106994],5.0,0.5,0.0,0.0003867719960243982,0.0006679243946901563,1.4999964309110339
6.490856409072876,1.590936351669969,[1.59106994],5.0,0.5,0.0,0.0003558302363662767,0.0006679244239788171,1.499996430927824
6.500080585479736,1.590936351669969,[1.59106994],5.0,0.5,0.0,0.00032736381747365594,0.0006679244615439876,1.499996430941899
6.50942325592041,1.590936351669969,[1.59106994],5.0,0.5,0.0,0.0003011747120874405,0.000667924505620681,1.4999964309536806
6.519850730895996,1.590936351669969,[1.59106994],5.0,0.5,0.0,0.0002770807351286194,0.0006679245546337934,1.4999964309635276
6.528928756713867,1.590936351669969,[1.59106994],5.0,0.5,0.0,0.00025491427632405155,0.0006679246071859788,1.499996430971744
6.5368499755859375,1.590936351669969,[1.59106994],5.0,0.5,0.0,0.00023452113422213255,0.000667924662048735,1.4999964309785874
6.547120809555054,1.590936351669969,[1.59106994],5.0,0.5,0.0,0.0002157594434871661,0.0006679247181557202,1.4999964309842764
6.557489395141602,1.590936351669969,[1.59106994],5.0,0.5,0.0,0.00019849868801015484,0.0006679247745872981,1.499996430988996
6.5662922859191895,1.590936351669969,[1.59106994],5.0,0.5,0.0,0.00018261879297071639,0.0006679248305637886,1.499996430992903
6.574851036071777,1.590936351669969,[1.59106994],5.0,0.5,0.0,0.00016800928953402056,0.0006679248854289136,1.49999643099613
6.58487343788147,1.590936351669969,[1.59106994],5.0,0.5,0.0,0.00015456854637197208,0.0006679249386430369,1.499996430998789
6.593346834182739,1.590936351669969,[1.59106994],5.0,0.5,0.0,0.00014220306266268578,0.0006679249897732038,1.4999964310009746
6.603855848312378,1.590936351669969,[1.59106994],5.0,0.5,0.0,0.00013082681765000067,0.000667925038478754,1.4999964310027665
6.6135876178741455,1.590936351669969,[1.59106994],5.0,0.5,0.0,0.00012036067223823167,0.0006679250845034831,1.499996431004232
6.622147560119629,1.590936351669969,[1.59106994],5.0,0.5,0.0,0.00011073181845933463,0.0006679251276645732,1.4999964310054272
6.630908250808716,1.590936351669969,[1.59106994],5.0,0.5,0.0,0.00010187327298270089,0.0006679251678447885,1.4999964310064002
6.63937783241272,1.590936351669969,[1.59106994],5.0,0.5,0.0,9.372341114416416e-05,0.0006679252049836042,1.4999964310071903
6.6495137214660645,1.590936351669969,[1.59106994],5.0,0.5,0.0,8.622553825268635e-05,0.0006679252390705227,1.4999964310078306
6.658596992492676,1.590936351669969,[1.59106994],5.0,0.5,0.0,7.932749519251028e-05,0.0006679252701329171,1.4999964310083491
6.669856071472168,1.590936351669969,[1.59106994],5.0,0.5,0.0,7.29812955771368e-05,0.0006679252982348103,1.4999964310087688
6.679446458816528,1.590936351669969,[1.59106994],5.0,0.5,0.0,6.714279193098481e-05,0.0006679253234702678,1.4999964310091083
6.686901092529297,1.590936351669969,[1.59106994],5.0,0.5,0.0,6.177136857651926e-05,0.0006679253459556378,1.4999964310093838
6.694846153259277,1.590936351669969,[1.59106994],5.0,0.5,0.0,5.682965909040704e-05,0.0006679253658239784,1.4999964310096081
6.705206632614136,1.5907409529532324,[1.59106994],5.0,0.5,0.0,5.228328636318097e-05,0.0016351490310660879,1.4999783541649736
6.7148706912994385,1.590936351669969,[1.59106994],5.0,0.5,0.0,4.810062345413111e-05,0.0006775976347793021,1.4999964310099434
6.723866939544678,1.590936351669969,[1.59106994],5.0,0.5,0.0,4.425257357780385e-05,0.0006680221335937135,1.49999643101007
6.734371185302734,1.590936351669969,[1.59106994],5.0,0.5,0.0,4.0712367691581744e-05,0.0006679263893939088,1.4999964310101772
6.742124080657959,1.590936351669969,[1.59106994],5.0,0.5,0.0,3.7455378276256794e-05,0.0006679254409614041,1.4999964310102694
6.74983811378479,1.590936351669969,[1.59106994],5.0,0.5,0.0,3.4458948014157344e-05,0.0006679254388444856,1.4999964310103504
6.758871078491211,1.5907409529532324,[1.59106994],5.0,0.5,0.0,3.170223217302549e-05,0.0016351490925534925,1.4999783541646452
6.766850709915161,1.5907409529532324,[1.59106994],5.0,0.5,0.0,2.916605359918399e-05,0.0016448213336420418,1.499978354164639
6.776232481002808,1.590936351669969,[1.59106994],5.0,0.5,0.0,2.6832769311249643e-05,0.0006776944115740509,1.4999964310105494
6.784852504730225,1.590936351669969,[1.59106994],5.0,0.5,0.0,2.468614776634997e-05,0.0006680231446769125,1.4999964310106066
6.794841051101685,1.590936351669969,[1.59106994],5.0,0.5,0.0,2.271125594504215e-05,0.0006679264334181129,1.499996431010661
6.8048481941223145,1.5907409529532324,[1.59106994],5.0,0.5,0.0,2.0894355469438898e-05,0.0016351491147698132,1.499978354164742
6.8148353099823,1.590936351669969,[1.59106994],5.0,0.5,0.0,1.922280703188388e-05,0.0006775976936762963,1.4999964310107639
6.824268579483032,1.590936351669969,[1.59106994],5.0,0.5,0.0,1.7684982469333246e-05,0.0006680221788333666,1.499996431010813
6.832075357437134,1.590936351669969,[1.59106994],5.0,0.5,0.0,1.6270183871786627e-05,0.0006679264225770236,1.4999964310108607
6.83983588218689,1.5907409529532324,[1.59106994],5.0,0.5,0.0,1.4968569162043728e-05,0.0016351491113651391,1.4999783541649878
6.848827838897705,1.590936351669969,[1.59106994],5.0,0.5,0.0,1.3771083629080258e-05,0.0006775976886016816,1.4999964310109521
6.857860088348389,1.5907409529532324,[1.59106994],5.0,0.5,0.0,1.2669396938753846e-05,0.001635245820179562,1.4999783541651375
6.8675477504730225,1.5907409529532324,[1.59106994],5.0,0.5,0.0,1.1655845183653552e-05,0.0016448222992795133,1.4999783541652145
6.8774473667144775,1.5907409529532324,[1.59106994],5.0,0.5,0.0,1.0723377568961277e-05,0.0016449180617370792,1.4999783541652922
6.888364553451538,1.5907409529532324,[1.59106994],5.0,0.5,0.0,9.865507363444387e-06,0.001644919016957878,1.4999783541653693
6.897839307785034,1.5907409529532324,[1.59106994],5.0,0.5,0.0,9.076266774368825e-06,0.0016449190240777315,1.499978354165445
6.908579587936401,1.5907409529532324,[1.59106994],5.0,0.5,0.0,8.35016543241932e-06,0.0016449190217231705,1.499978354165519
6.915841579437256,1.590936351669969,[1.59106994],5.0,0.5,0.0,7.682152197825783e-06,0.0006776953714657521,1.4999964310112248
6.928370237350464,1.590936351669969,[1.59106994],5.0,0.5,0.0,7.0675800219997176e-06,0.0006680231326396366,1.4999964310112566
6.937267065048218,1.5907409529532324,[1.59106994],5.0,0.5,0.0,6.502173620239731e-06,0.0016351500558590487,1.4999783541657241
6.945847749710083,1.5907409529532324,[1.59106994],5.0,0.5,0.0,5.981999730620558e-06,0.0016448213229512546,1.4999783541657858
6.953819274902344,1.5907409529532324,[1.59106994],5.0,0.5,0.0,5.503439752170921e-06,0.0016449180335942988,1.4999783541658438
6.962287425994873,1.5907409529532324,[1.59106994],5.0,0.5,0.0,5.063164571997244e-06,0.0016449189987937547,1.499978354165898
6.972067356109619,1.590936351669969,[1.59106994],5.0,0.5,0.0,4.658111406237468e-06,0.0006776953588185912,1.4999964310113865
6.98413348197937,1.5907409529532324,[1.59106994],5.0,0.5,0.0,4.285462493738467e-06,0.0016352467686156415,1.4999783541659948
6.991816759109497,1.5907409529532324,[1.59106994],5.0,0.5,0.0,3.942625494239395e-06,0.001644822281194627,1.499978354166037
7.001857042312622,1.590936351669969,[1.59106994],5.0,0.5,0.0,3.6272154547002427e-06,0.0006776943870856452,1.499996431011442
7.010564088821411,1.590936351669969,[1.59106994],5.0,0.5,0.0,3.337038218324224e-06,0.0006680231068860621,1.499996431011457
7.019268989562988,1.5907409529532324,[1.59106994],5.0,0.5,0.0,3.070075160858285e-06,0.0016351500407963558,1.4999783541661422
7.028568744659424,1.590936351669969,[1.59106994],5.0,0.5,0.0,2.8244691479896193e-06,0.0006775976612754871,1.4999964310114826
7.0358123779296875,1.5907409529532324,[1.59106994],5.0,0.5,0.0,2.59851161615045e-06,0.001635245784428879,1.4999783541661948
7.044562578201294,1.590936351669969,[1.59106994],5.0,0.5,0.0,2.390630686858413e-06,0.0006775986170246619,1.4999964310115026
7.053680419921875,1.5907409529532324,[1.59106994],5.0,0.5,0.0,2.199380231909741e-06,0.0016352457925091525,1.4999783541662357
7.06372594833374,1.590936351669969,[1.59106994],5.0,0.5,0.0,2.0234298133569626e-06,0.000677598615826088,1.4999964310115177
7.073059797286987,1.590936351669969,[1.59106994],5.0,0.5,0.0,1.8615554282884069e-06,0.0006680221435569592,1.4999964310115237
7.083964586257935,1.5907409529532324,[1.59106994],5.0,0.5,0.0,1.7126309940253364e-06,0.001635150026259887,1.4999783541662774
7.094391107559204,1.590936351669969,[1.59106994],5.0,0.5,0.0,1.5756205145033081e-06,0.0006775976568930117,1.4999964310115326
7.104187965393066,1.590936351669969,[1.59106994],5.0,0.5,0.0,1.4495708733430422e-06,0.0006680221329179681,1.499996431011536
7.113816499710083,1.5907409529532324,[1.59106994],5.0,0.5,0.0,1.3336052034755982e-06,0.0016351500253049757,1.4999783541663008
7.122663259506226,1.5907409529532324,[1.59106994],5.0,0.5,0.0,1.2269167871975519e-06,0.0016448213040639776,1.4999783541663054
7.1329755783081055,1.5907409529532324,[1.59106994],5.0,0.5,0.0,1.1287634442217493e-06,0.0016449180167339616,1.4999783541663088
7.14339017868042,1.590936351669969,[1.59106994],5.0,0.5,0.0,1.0384623686840079e-06,0.00067769533593824,1.4999964310115428
7.153855800628662,1.5907409529532324,[1.59106994],5.0,0.5,0.0,9.55385379189287e-07,0.0016352467569383958,1.4999783541663119
7.163274765014648,1.5907409529532324,[1.59106994],5.0,0.5,0.0,8.789545488541441e-07,0.0016448222711418026,1.4999783541663123
7.1708433628082275,1.5907409529532324,[1.59106994],5.0,0.5,0.0,8.086381849458139e-07,0.0016449180263025218,1.4999783541663119
7.180476903915405,1.5907409529532324,[1.59106994],5.0,0.5,0.0,7.439471301501483e-07,0.0016449189838958955,1.4999783541663108
7.189198017120361,1.5907409529532324,[1.59106994],5.0,0.5,0.0,6.844313597381367e-07,0.001644918993532281,1.4999783541663092
7.199199199676514,1.590936351669969,[1.59106994],5.0,0.5,0.0,6.296768509590861e-07,0.0006776953458568027,1.4999964310115417
7.208280801773071,1.5907409529532324,[1.59106994],5.0,0.5,0.0,5.793027028823586e-07,0.0016352467573123616,1.499978354166305
7.217130899429321,1.5907409529532324,[1.59106994],5.0,0.5,0.0,5.329584866517697e-07,0.0016448222715214416,1.4999783541663025
7.227245092391968,1.5907409529532324,[1.59106994],5.0,0.5,0.0,4.903218077196284e-07,0.0016449180267646517,1.4999783541662999
7.2368552684783936,1.5907409529532324,[1.59106994],5.0,0.5,0.0,4.51096063102059e-07,0.0016449189844215003,1.4999783541662972
7.2458531856536865,1.5907409529532324,[1.59106994],5.0,0.5,0.0,4.1500837805389374e-07,0.0016449189941046833,1.4999783541662945
7.254872798919678,1.5907409529532324,[1.59106994],5.0,0.5,0.0,3.8180770780958175e-07,0.00164491899430813,1.4999783541662914
7.262860059738159,1.5907409529532324,[1.59106994],5.0,0.5,0.0,3.512630911848157e-07,0.00164491899441568,1.4999783541662888
7.273296594619751,1.5907409529532324,[1.59106994],5.0,0.5,0.0,3.2316204389003e-07,0.0016449189945200728,1.499978354166286
7.282368898391724,1.5907409529532324,[1.59106994],5.0,0.5,0.0,2.9730908037882797e-07,0.001644918994621137,1.4999783541662834
7.291156768798828,1.5907409529532324,[1.59106994],5.0,0.5,0.0,2.735243539485215e-07,0.0016449189947166716,1.499978354166281
7.30138087272644,1.5907409529532324,[1.59106994],5.0,0.5,0.0,2.5164240563263973e-07,0.001644918994807755,1.4999783541662786
7.309932231903076,1.590936351669969,[1.59106994],5.0,0.5,0.0,2.3151101318202845e-07,0.0006776953470467159,1.4999964310115292
7.3189427852630615,1.5907409529532324,[1.59106994],5.0,0.5,0.0,2.1299013212746624e-07,0.0016352467584948244,1.4999783541662741
7.328121900558472,1.5907409529532324,[1.59106994],5.0,0.5,0.0,1.9595092155726942e-07,0.0016448222726829467,1.4999783541662721
7.339163780212402,1.5907409529532324,[1.59106994],5.0,0.5,0.0,1.802748478326875e-07,0.0016449180278918743,1.4999783541662706
7.348435878753662,1.5907409529532324,[1.59106994],5.0,0.5,0.0,1.658528600060725e-07,0.0016449189855055142,1.4999783541662688
7.357420444488525,1.590936351669969,[1.59106994],5.0,0.5,0.0,1.5258463120558667e-07,0.0006776953472900244,1.4999964310115257
7.367278337478638,1.5907409529532324,[1.59106994],5.0,0.5,0.0,1.4037786070913965e-07,0.0016352467588039122,1.4999783541662661
7.374908208847046,1.5907409529532324,[1.59106994],5.0,0.5,0.0,1.2914763185240859e-07,0.001644822272963016,1.4999783541662648
7.386342287063599,1.5907409529532324,[1.59106994],5.0,0.5,0.0,1.1881582130421581e-07,0.0016449180281441753,1.499978354166264
7.3948235511779785,1.5907409529532324,[1.59106994],5.0,0.5,0.0,1.0931055559987857e-07,0.0016449189857311588,1.499978354166263
7.404323577880859,1.5907409529532324,[1.59106994],5.0,0.5,0.0,1.0056571115188832e-07,0.0016449189953367048,1.4999783541662621
7.41459846496582,1.5907409529532324,[1.59106994],5.0,0.5,0.0,9.25204542597373e-08,0.0016449189954580402,1.4999783541662615
7.42483377456665,1.5907409529532324,[1.59106994],5.0,0.5,0.0,8.511881791895823e-08,0.001644918995480137,1.4999783541662608
7.434826374053955,1.590936351669969,[1.59106994],5.0,0.5,0.0,7.830931248544166e-08,0.0006776953476524605,1.4999964310115228
7.443434000015259,1.5907409529532324,[1.59106994],5.0,0.5,0.0,7.204456748660634e-08,0.0016352467590361537,1.49997835416626
7.454575538635254,1.590936351669969,[1.59106994],5.0,0.5,0.0,6.628100208767788e-08,0.0006775986253154988,1.4999964310115226
7.463831186294556,1.5907409529532324,[1.59106994],5.0,0.5,0.0,6.097852192066359e-08,0.0016352457918347666,1.4999783541662595
7.473689794540405,1.5907409529532324,[1.59106994],5.0,0.5,0.0,5.610024016701052e-08,0.001644822263506554,1.4999783541662592
7.4818525314331055,1.5907409529532324,[1.59106994],5.0,0.5,0.0,5.1612220953649676e-08,0.0016449180282287676,1.499978354166259
7.490972518920898,1.5907409529532324,[1.59106994],5.0,0.5,0.0,4.748324327735774e-08,0.001644918985879287,1.499978354166259
7.499345779418945,1.590936351669969,[1.59106994],5.0,0.5,0.0,4.3684583815169096e-08,0.0006776953476103089,1.4999964310115224
7.50685453414917,1.5907409529532324,[1.59106994],5.0,0.5,0.0,4.0189817109955526e-08,0.0016352467590742014,1.499978354166259
7.515823602676392,1.590936351669969,[1.59106994],5.0,0.5,0.0,3.697463174115916e-08,0.000677598625341159,1.4999964310115224
7.52583646774292,1.5907409529532324,[1.59106994],5.0,0.5,0.0,3.401666120186641e-08,0.0016352457918482124,1.499978354166259
7.533844470977783,1.5907409529532324,[1.59106994],5.0,0.5,0.0,3.129532830571708e-08,0.0016448222635099857,1.499978354166259
7.54332423210144,1.5907409529532324,[1.59106994],5.0,0.5,0.0,2.879170204125975e-08,0.0016449180282244052,1.4999783541662592
7.553305149078369,1.5907409529532324,[1.59106994],5.0,0.5,0.0,2.6488365877959006e-08,0.0016449189858693512,1.4999783541662592
7.561852216720581,1.5907409529532324,[1.59106994],5.0,0.5,0.0,2.4369296607722257e-08,0.0016449189954436023,1.4999783541662595
7.573850154876709,1.5907409529532324,[1.59106994],5.0,0.5,0.0,2.2419752879104452e-08,0.0016449189955360477,1.4999783541662595
7.583850860595703,1.5907409529532324,[1.59106994],5.0,0.5,0.0,2.0626172648776102e-08,0.0016449189955325756,1.4999783541662595
7.592828035354614,1.5907409529532324,[1.59106994],5.0,0.5,0.0,1.8976078836874043e-08,0.0016449189955292434,1.4999783541662595
7.602206230163574,1.5907409529532324,[1.59106994],5.0,0.5,0.0,1.7457992529924085e-08,0.0016449189955259128,1.4999783541662597
7.611821174621582,1.5907409529532324,[1.59106994],5.0,0.5,0.0,1.6061353127530158e-08,0.0016449189955225821,1.49997835416626
7.622066497802734,1.5907409529532324,[1.59106994],5.0,0.5,0.0,1.4776444877327753e-08,0.0016449189955181523,1.49997835416626
7.6298301219940186,1.5907409529532324,[1.59106994],5.0,0.5,0.0,1.3594329287141552e-08,0.0016449189955148108,1.49997835416626
7.6382529735565186,1.5907409529532324,[1.59106994],5.0,0.5,0.0,1.2506782944170213e-08,0.0016449189955114799,1.4999783541662601
7.645822048187256,1.5907409529532324,[1.59106994],5.0,0.5,0.0,1.1506240308636587e-08,0.0016449189955081492,1.4999783541662601
7.658401012420654,1.5907409529532324,[1.59106994],5.0,0.5,0.0,1.058574108394566e-08,0.0016449189955037196,1.4999783541662604
7.667894124984741,1.5907409529532324,[1.59106994],5.0,0.5,0.0,9.738881797230008e-09,0.0016449189955003776,1.4999783541662604
7.675826787948608,1.5907409529532324,[1.59106994],5.0,0.5,0.0,8.959771253451606e-09,0.001644918995497047,1.4999783541662604
7.686284303665161,1.5907409529532324,[1.59106994],5.0,0.5,0.0,8.24298955317548e-09,0.0016449189954937165,1.4999783541662606
7.6951892375946045,1.5907409529532324,[1.59106994],5.0,0.5,0.0,7.58355038892145e-09,0.0016449189954914848,1.4999783541662606
7.703945636749268,1.5907409529532324,[1.59106994],5.0,0.5,0.0,6.976866357807733e-09,0.0016449189954903633,1.4999783541662608
7.713966369628906,1.5907409529532324,[1.59106994],5.0,0.5,0.0,6.4187170491831205e-09,0.0016449189954892529,1.4999783541662608
7.724585771560669,1.5907409529532324,[1.59106994],5.0,0.5,0.0,5.905219685248464e-09,0.0016449189954881429,1.4999783541662608
7.736858367919922,1.590936351669969,[1.59106994],5.0,0.5,0.0,5.432802110428591e-09,0.0006776953476404502,1.499996431011523
7.745479345321655,1.5907409529532324,[1.59106994],5.0,0.5,0.0,4.998177941594294e-09,0.0016352467590074566,1.4999783541662608
7.756613731384277,1.5907409529532324,[1.59106994],5.0,0.5,0.0,4.598323706266759e-09,0.0016448222731200275,1.4999783541662608
7.7659361362457275,1.5907409529532324,[1.59106994],5.0,0.5,0.0,4.230457809765411e-09,0.001644918028260054,1.4999783541662608
7.774899244308472,1.5907409529532324,[1.59106994],5.0,0.5,0.0,3.892021184984183e-09,0.001644918985809256,1.4999783541662608
7.782823324203491,1.5907409529532324,[1.59106994],5.0,0.5,0.0,3.5806594901854476e-09,0.0016449189953814506,1.4999783541662608
7.7918477058410645,1.5907409529532324,[1.59106994],5.0,0.5,0.0,3.294206730970611e-09,0.0016449189954749746,1.499978354166261
7.799829483032227,1.5907409529532324,[1.59106994],5.0,0.5,0.0,3.0306701924929653e-09,0.0016449189954748106,1.499978354166261
7.808839321136475,1.5907409529532324,[1.59106994],5.0,0.5,0.0,2.7882165770935253e-09,0.0016449189954737097,1.4999783541662612
7.817817211151123,1.5907409529532324,[1.59106994],5.0,0.5,0.0,2.565159250926043e-09,0.0016449189954725995,1.4999783541662612
7.826317310333252,1.5907409529532324,[1.59106994],5.0,0.5,0.0,2.3599465108519616e-09,0.0016449189954714895,1.4999783541662612
7.83686900138855,1.5907409529532324,[1.59106994],5.0,0.5,0.0,2.171150789983806e-09,0.0016449189954703793,1.4999783541662612
7.846384286880493,1.5907409529532324,[1.59106994],5.0,0.5,0.0,1.997458726785101e-09,0.001644918995469269,1.4999783541662612
7.856233596801758,1.5907409529532324,[1.59106994],5.0,0.5,0.0,1.837662028642295e-09,0.0016449189954670597,1.4999783541662612
7.865283012390137,1.5907409529532324,[1.59106994],5.0,0.5,0.0,1.6906490663509071e-09,0.0016449189954659386,1.4999783541662612
7.875814914703369,1.5907409529532324,[1.59106994],5.0,0.5,0.0,1.5553971410428341e-09,0.0016449189954659273,1.4999783541662612
7.886145114898682,1.5907409529532324,[1.59106994],5.0,0.5,0.0,1.4309653697594097e-09,0.001644918995467026,1.4999783541662612
7.8951568603515625,1.5907409529532324,[1.59106994],5.0,0.5,0.0,1.3164881401786564e-09,0.0016449189954692355,1.4999783541662612
7.902920484542847,1.5907409529532324,[1.59106994],5.0,0.5,0.0,1.2111690889643632e-09,0.0016449189954703567,1.4999783541662612
7.910858631134033,1.5907409529532324,[1.59106994],5.0,0.5,0.0,1.1142755618472156e-09,0.001644918995470368,1.4999783541662612
7.9223692417144775,1.5907409529532324,[1.59106994],5.0,0.5,0.0,1.0251335168994373e-09,0.0016449189954692689,1.4999783541662612
7.935869216918945,1.590936351669969,[1.59106994],5.0,0.5,0.0,9.43122835547483e-10,0.0006776953476204773,1.4999964310115232
7.946309566497803,1.5907409529532324,[1.59106994],5.0,0.5,0.0,8.676730087036845e-10,0.0016352467589874726,1.4999783541662612
7.9538538455963135,1.5907409529532324,[1.59106994],5.0,0.5,0.0,7.982591680073909e-10,0.0016448222731011426,1.4999783541662612
7.961865186691284,1.5907409529532324,[1.59106994],5.0,0.5,0.0,7.343984345667991e-10,0.0016449180282433783,1.4999783541662612
7.9708240032196045,1.5907409529532324,[1.59106994],5.0,0.5,0.0,6.756465598014551e-10,0.001644918985796999,1.4999783541662612
7.980837345123291,1.5907409529532324,[1.59106994],5.0,0.5,0.0,6.215948350173388e-10,0.0016449189953736344,1.4999783541662612
7.989825010299683,1.5907409529532324,[1.59106994],5.0,0.5,0.0,5.718672482159512e-10,0.0016449189954694007,1.4999783541662612
7.999824523925781,1.5907409529532324,[1.59106994],5.0,0.5,0.0,5.261178683586754e-10,0.0016449189954692593,1.4999783541662612
8.008859395980835,1.5907409529532324,[1.59106994],5.0,0.5,0.0,4.840284388899816e-10,0.0016449189954670595,1.4999783541662612
8.020615816116333,1.5907409529532324,[1.59106994],5.0,0.5,0.0,4.453061637787833e-10,0.0016449189954659386,1.4999783541662612
8.030816793441772,1.5907409529532324,[1.59106994],5.0,0.5,0.0,4.096816706764808e-10,0.0016449189954659273,1.4999783541662612
8.040848731994629,1.5907409529532324,[1.59106994],5.0,0.5,0.0,3.7690713702236235e-10,0.001644918995467026,1.4999783541662612
8.050832509994507,1.5907409529532324,[1.59106994],5.0,0.5,0.0,3.4675456606057317e-10,0.0016449189954692355,1.4999783541662612
8.061343431472778,1.5907409529532324,[1.59106994],5.0,0.5,0.0,3.1901420077572684e-10,0.0016449189954703567,1.4999783541662612
8.069832563400269,1.5907409529532324,[1.59106994],5.0,0.5,0.0,2.934930647136689e-10,0.001644918995470368,1.4999783541662612
8.078943967819214,1.5907409529532324,[1.59106994],5.0,0.5,0.0,2.7001361953657566e-10,0.0016449189954692689,1.4999783541662612
8.08993673324585,1.5907409529532324,[1.59106994],5.0,0.5,0.0,2.484125299736494e-10,0.0016449189954670597,1.4999783541662612
8.09883975982666,1.5907409529532324,[1.59106994],5.0,0.5,0.0,2.2853952757575753e-10,0.0016449189954659386,1.4999783541662612
8.108372926712036,1.5907409529532324,[1.59106994],5.0,0.5,0.0,2.10256365369697e-10,0.0016449189954659273,1.4999783541662612
8.115844249725342,1.5907409529532324,[1.59106994],5.0,0.5,0.0,1.934358561401215e-10,0.001644918995467026,1.4999783541662612
8.124492645263672,1.5907409529532324,[1.59106994],5.0,0.5,0.0,1.779609876489115e-10,0.0016449189954692355,1.4999783541662612
8.132287740707397,1.5907409529532324,[1.59106994],5.0,0.5,0.0,1.6372410863699842e-10,0.0016449189954703567,1.4999783541662612
8.13992977142334,1.5907409529532324,[1.59106994],5.0,0.5,0.0,1.5062617994603848e-10,0.001644918995470368,1.4999783541662612
8.149032831192017,1.5907409529532324,[1.59106994],5.0,0.5,0.0,1.385760855503555e-10,0.0016449189954692689,1.4999783541662612
8.156829118728638,1.5907409529532324,[1.59106994],5.0,0.5,0.0,1.2748999870632702e-10,0.0016449189954670597,1.4999783541662612
8.165750503540039,1.5907409529532324,[1.59106994],5.0,0.5,0.0,1.1729079880982078e-10,0.0016449189954659386,1.4999783541662612
8.178527593612671,1.590936351669969,[1.59106994],5.0,0.5,0.0,1.0790753490503509e-10,0.000677695347619345,1.4999964310115232
8.188324451446533,1.5907409529532324,[1.59106994],5.0,0.5,0.0,9.927493211263242e-11,0.0016352467589885603,1.4999783541662612
8.198164224624634,1.590936351669969,[1.59106994],5.0,0.5,0.0,9.133293754362193e-11,0.0006775986252578686,1.4999964310115232
8.206845045089722,1.5907409529532324,[1.59106994],5.0,0.5,0.0,8.402630254013215e-11,0.001635245791768243,1.4999783541662612
8.215262651443481,1.5907409529532324,[1.59106994],5.0,0.5,0.0,7.73041983369215e-11,0.0016448222634333467,1.4999783541662612
8.223194122314453,1.5907409529532324,[1.59106994],5.0,0.5,0.0,7.111986246996775e-11,0.0016449180281488988,1.4999783541662612
8.231504917144775,1.5907409529532324,[1.59106994],5.0,0.5,0.0,6.543027347237038e-11,0.0016449189857938558,1.4999783541662612
8.239859580993652,1.5907409529532324,[1.59106994],5.0,0.5,0.0,6.019585159458072e-11,0.0016449189953692065,1.4999783541662612
8.249843120574951,1.5907409529532324,[1.59106994],5.0,0.5,0.0,5.538018346701425e-11,0.00164491899546496,1.4999783541662612
8.259686946868896,1.5907409529532324,[1.59106994],5.0,0.5,0.0,5.094976878965313e-11,0.0016449189954670165,1.4999783541662612
8.269368886947632,1.5907409529532324,[1.59106994],5.0,0.5,0.0,4.6873787286480936e-11,0.0016449189954692355,1.4999783541662612
8.27873706817627,1.5907409529532324,[1.59106994],5.0,0.5,0.0,4.3123884303562485e-11,0.0016449189954703567,1.4999783541662612
8.28787088394165,1.5907409529532324,[1.59106994],5.0,0.5,0.0,3.9673973559277456e-11,0.001644918995470368,1.4999783541662612
8.296921730041504,1.5907409529532324,[1.59106994],5.0,0.5,0.0,3.650005567453529e-11,0.0016449189954692689,1.4999783541662612
8.307300090789795,1.5907409529532324,[1.59106994],5.0,0.5,0.0,3.358005122057245e-11,0.0016449189954670597,1.4999783541662612
8.316081047058105,1.5907409529532324,[1.59106994],5.0,0.5,0.0,3.0893647122926634e-11,0.0016449189954659386,1.4999783541662612
8.324832916259766,1.5907409529532324,[1.59106994],5.0,0.5,0.0,2.84221553530925e-11,0.0016449189954659273,1.4999783541662612
8.334834575653076,1.5907409529532324,[1.59106994],5.0,0.5,0.0,2.6148382924845115e-11,0.001644918995467026,1.4999783541662612
8.343861103057861,1.5907409529532324,[1.59106994],5.0,0.5,0.0,2.4056512290857475e-11,0.0016449189954692355,1.4999783541662612
8.353878021240234,1.5907409529532324,[1.59106994],5.0,0.5,0.0,2.2131991307588895e-11,0.0016449189954703567,1.4999783541662612
8.362312316894531,1.5907409529532324,[1.59106994],5.0,0.5,0.0,2.0361432002981806e-11,0.001644918995470368,1.4999783541662612
8.36981725692749,1.5907409529532324,[1.59106994],5.0,0.5,0.0,1.8732517442743268e-11,0.0016449189954692689,1.4999783541662612
8.377974510192871,1.5907409529532324,[1.59106994],5.0,0.5,0.0,1.7233916047323824e-11,0.0016449189954670597,1.4999783541662612
8.386821985244751,1.5907409529532324,[1.59106994],5.0,0.5,0.0,1.58552027635379e-11,0.0016449189954659386,1.4999783541662612
8.395825386047363,1.5907409529532324,[1.59106994],5.0,0.5,0.0,1.458678654245484e-11,0.0016449189954659273,1.4999783541662612
8.404074907302856,1.5907409529532324,[1.59106994],5.0,0.5,0.0,1.3419843619058459e-11,0.001644918995467026,1.4999783541662612
8.413246393203735,1.5907409529532324,[1.59106994],5.0,0.5,0.0,1.2346256129533773e-11,0.0016449189954692355,1.4999783541662612
8.4226815700531,1.5907409529532324,[1.59106994],5.0,0.5,0.0,1.1358555639171083e-11,0.0016449189954703567,1.4999783541662612
8.4318265914917,1.5907409529532324,[1.59106994],5.0,0.5,0.0,1.0449871188037405e-11,0.001644918995470368,1.4999783541662612
8.439995288848877,1.5907409529532324,[1.59106994],5.0,0.5,0.0,9.613881492994423e-12,0.0016449189954692689,1.4999783541662612
8.449246168136597,1.5907409529532324,[1.59106994],5.0,0.5,0.0,8.844770973554856e-12,0.0016449189954670597,1.4999783541662612
8.45713210105896,1.5907409529532324,[1.59106994],5.0,0.5,0.0,8.137189295670464e-12,0.0016449189954659386,1.4999783541662612
8.465830326080322,1.5907409529532324,[1.59106994],5.0,0.5,0.0,7.48621415201683e-12,0.0016449189954659273,1.4999783541662612
8.474832773208618,1.5907409529532324,[1.59106994],5.0,0.5,0.0,6.887317019855495e-12,0.001644918995467026,1.4999783541662612
8.484628438949585,1.5907409529532324,[1.59106994],5.0,0.5,0.0,6.336331658267064e-12,0.0016449189954692355,1.4999783541662612
8.49433422088623,1.5907409529532324,[1.59106994],5.0,0.5,0.0,5.8294251256056935e-12,0.0016449189954703567,1.4999783541662612
8.503222703933716,1.5907409529532324,[1.59106994],5.0,0.5,0.0,5.363071115557229e-12,0.001644918995470368,1.4999783541662612
8.513638496398926,1.5907409529532324,[1.59106994],5.0,0.5,0.0,4.934025426312654e-12,0.0016449189954692689,1.4999783541662612
8.521982669830322,1.5907409529532324,[1.59106994],5.0,0.5,0.0,4.539303392207642e-12,0.0016449189954670597,1.4999783541662612
8.53086256980896,1.5907409529532324,[1.59106994],5.0,0.5,0.0,4.176159120831023e-12,0.0016449189954659386,1.4999783541662612
8.540865182876587,1.5907409529532324,[1.59106994],5.0,0.5,0.0,3.8420663911645466e-12,0.0016449189954659273,1.4999783541662612
8.548827886581421,1.5907409529532324,[1.59106994],5.0,0.5,0.0,3.534701079871382e-12,0.001644918995467026,1.4999783541662612
8.558854103088379,1.5907409529532324,[1.59106994],5.0,0.5,0.0,3.2519249934816752e-12,0.0016449189954692355,1.4999783541662612
8.566862344741821,1.5907409529532324,[1.59106994],5.0,0.5,0.0,2.991770994003134e-12,0.0016449189954703567,1.4999783541662612
8.577285766601562,1.5907409529532324,[1.59106994],5.0,0.5,0.0,2.7524293144828854e-12,0.001644918995470368,1.4999783541662612
8.586355924606323,1.5907409529532324,[1.59106994],5.0,0.5,0.0,2.532234969324252e-12,0.0016449189954692689,1.4999783541662612
8.596327543258667,1.5907409529532324,[1.59106994],5.0,0.5,0.0,2.3296561717783155e-12,0.0016449189954670597,1.4999783541662612
8.60563588142395,1.5907409529532324,[1.59106994],5.0,0.5,0.0,2.1432836780360508e-12,0.0016449189954659386,1.4999783541662612
8.613878965377808,1.5907409529532324,[1.59106994],5.0,0.5,0.0,1.9718209837931643e-12,0.0016449189954659273,1.4999783541662612
8.623170852661133,1.5907409529532324,[1.59106994],5.0,0.5,0.0,1.8140753050897138e-12,0.001644918995467026,1.4999783541662612
8.630817651748657,1.5907409529532324,[1.59106994],5.0,0.5,0.0,1.668949280682535e-12,0.0016449189954692355,1.4999783541662612
8.639973163604736,1.5907409529532324,[1.59106994],5.0,0.5,0.0,1.535433338227936e-12,0.0016449189954703567,1.4999783541662612
8.649843215942383,1.5907409529532324,[1.59106994],5.0,0.5,0.0,1.4125986711697e-12,0.001644918995470368,1.4999783541662612
8.658868074417114,1.5907409529532324,[1.59106994],5.0,0.5,0.0,1.2995907774761231e-12,0.0016449189954692689,1.4999783541662612
8.66726303100586,1.5907409529532324,[1.59106994],5.0,0.5,0.0,1.1956235152780329e-12,0.0016449189954670597,1.4999783541662612
8.675227880477905,1.590936351669969,[1.59106994],5.0,0.5,0.0,1.0999736340557892e-12,0.0006776953476193561,1.4999964310115232
8.684365272521973,1.590936351669969,[1.59106994],5.0,0.5,0.0,1.011975743331326e-12,0.0006680231111408791,1.4999964310115232
8.694866180419922,1.5907409529532324,[1.59106994],5.0,0.5,0.0,9.310176838648216e-13,0.0016351500366237758,1.4999783541662612
8.703842401504517,1.590936351669969,[1.59106994],5.0,0.5,0.0,8.565362691556359e-13,0.0006775976580342207,1.4999964310115232
8.714600324630737,1.590936351669969,[1.59106994],5.0,0.5,0.0,7.880133676231859e-13,0.0006680221342494242,1.4999964310115232
8.724220037460327,1.590936351669969,[1.59106994],5.0,0.5,0.0,7.249722982133297e-13,0.0006679263790115762,1.4999964310115232
8.733381748199463,1.590936351669969,[1.59106994],5.0,0.5,0.0,6.669745143562631e-13,0.0006679254214580987,1.4999964310115232
8.742262125015259,1.590936351669969,[1.59106994],5.0,0.5,0.0,6.136165532077617e-13,0.0006679254118803656,1.4999964310115232
8.752331495285034,1.590936351669969,[1.59106994],5.0,0.5,0.0,5.645272289511413e-13,0.0006679254117834892,1.4999964310115232
8.762427568435669,1.5907409529532324,[1.59106994],5.0,0.5,0.0,5.193650506350499e-13,0.0016351490596291029,1.4999783541662612
8.773494005203247,1.590936351669969,[1.59106994],5.0,0.5,0.0,4.778158465842462e-13,0.0006775976482620756,1.4999964310115232
8.782010078430176,1.590936351669969,[1.59106994],5.0,0.5,0.0,4.395905788575077e-13,0.0006680221341506037,1.4999964310115232
8.794407606124878,1.590936351669969,[1.59106994],5.0,0.5,0.0,4.044233325489067e-13,0.000667926379010588,1.4999964310115232
8.80466914176941,1.590936351669969,[1.59106994],5.0,0.5,0.0,3.7206946594499404e-13,0.0006679254214591878,1.4999964310115232
8.816834211349487,1.590936351669969,[1.59106994],5.0,0.5,0.0,3.4230390866939454e-13,0.0006679254118825748,1.4999964310115232
8.824828624725342,1.590936351669969,[1.59106994],5.0,0.5,0.0,3.1491959597584286e-13,0.0006679254117846103,1.4999964310115232
8.833194255828857,1.590936351669969,[1.59106994],5.0,0.5,0.0,2.897260282977757e-13,0.0006679254117825317,1.4999964310115232
8.842867851257324,1.590936351669969,[1.59106994],5.0,0.5,0.0,2.6654794603395314e-13,0.0006679254117825109,1.4999964310115232
8.853738784790039,1.590936351669969,[1.59106994],5.0,0.5,0.0,2.4522411035123674e-13,0.0006679254117836097,1.4999964310115232
8.863934755325317,1.590936351669969,[1.59106994],5.0,0.5,0.0,2.2560618152313803e-13,0.0006679254117858191,1.4999964310115232
8.873369216918945,1.590936351669969,[1.59106994],5.0,0.5,0.0,2.075576870012868e-13,0.0006679254117869401,1.4999964310115232
8.883854627609253,1.590936351669969,[1.59106994],5.0,0.5,0.0,1.909530720411842e-13,0.0006679254117869514,1.4999964310115232
8.893322467803955,1.590936351669969,[1.59106994],5.0,0.5,0.0,1.7567682627788929e-13,0.0006679254117858525,1.4999964310115232
8.901915550231934,1.590936351669969,[1.59106994],5.0,0.5,0.0,1.616226801756583e-13,0.0006679254117836431,1.4999964310115232
8.910847187042236,1.590936351669969,[1.59106994],5.0,0.5,0.0,1.4869286576160537e-13,0.000667925411782522,1.4999964310115232
8.920172691345215,1.5907409529532324,[1.59106994],5.0,0.5,0.0,1.3679743650067698e-13,0.0016351490596290931,1.4999783541662612
8.928678512573242,1.590936351669969,[1.59106994],5.0,0.5,0.0,1.258536415806228e-13,0.0006775976482620756,1.4999964310115232
8.937861442565918,1.590936351669969,[1.59106994],5.0,0.5,0.0,1.1578535025417315e-13,0.0006680221341506037,1.4999964310115232
8.94583511352539,1.5907409529532324,[1.59106994],5.0,0.5,0.0,1.0652252223383928e-13,0.0016351500268571705,1.4999783541662612
8.955824851989746,1.5907409529532324,[1.59106994],5.0,0.5,0.0,9.800072045513211e-14,0.0016448213057842361,1.4999783541662612
8.96390962600708,1.590936351669969,[1.59106994],5.0,0.5,0.0,9.016066281872146e-14,0.0006776943707258253,1.4999964310115232
8.974997520446777,1.590936351669969,[1.59106994],5.0,0.5,0.0,8.294780979322386e-14,0.0006680231013730429,1.4999964310115232
8.984198808670044,1.590936351669969,[1.59106994],5.0,0.5,0.0,7.631198500976592e-14,0.000667926388678416,1.4999964310115232
8.991849422454834,1.590936351669969,[1.59106994],5.0,0.5,0.0,7.020702620898463e-14,0.0006679254215514697,1.4999964310115232
8.999859809875488,1.590936351669969,[1.59106994],5.0,0.5,0.0,6.459046411226591e-14,0.0006679254118812993,1.4999964310115232
9.009824514389038,1.590936351669969,[1.59106994],5.0,0.5,0.0,5.942322698328465e-14,0.0006679254117867959,1.4999964310115232
9.020309925079346,1.590936351669969,[1.59106994],5.0,0.5,0.0,5.466936882462186e-14,0.0006679254117869499,1.4999964310115232
9.029830932617188,1.5907409529532324,[1.59106994],5.0,0.5,0.0,5.029581931865211e-14,0.0016351490596335338,1.4999783541662612
9.0382719039917,1.5907409529532324,[1.59106994],5.0,0.5,0.0,4.6272153773159965e-14,0.0016448212961109006,1.4999783541662612
9.048532962799072,1.5907409529532324,[1.59106994],5.0,0.5,0.0,4.257038147130709e-14,0.001644918018473476,1.4999783541662612
9.057854413986206,1.590936351669969,[1.59106994],5.0,0.5,0.0,3.9164750953602524e-14,0.0006776953378494203,1.4999964310115232
9.065854787826538,1.590936351669969,[1.59106994],5.0,0.5,0.0,3.6031570877314314e-14,0.0006680231110431798,1.4999964310115232
9.077310562133789,1.5907409529532324,[1.59106994],5.0,0.5,0.0,3.314904520712918e-14,0.0016351500366227987,1.4999783541662612
9.08686351776123,1.5907409529532324,[1.59106994],5.0,0.5,0.0,3.04971215905588e-14,0.0016448213058807932,1.4999783541662612
9.09627652168274,1.590936351669969,[1.59106994],5.0,0.5,0.0,2.8057351863314165e-14,0.00067769437072789,1.4999964310115232
9.104748010635376,1.5907409529532324,[1.59106994],5.0,0.5,0.0,2.5812763714249028e-14,0.0016352467492229434,1.4999783541662612
9.112845182418823,1.5907409529532324,[1.59106994],5.0,0.5,0.0,2.3747742617109114e-14,0.0016448222730067947,1.4999783541662612
9.120888233184814,1.5907409529532324,[1.59106994],5.0,0.5,0.0,2.1847923207740383e-14,0.0016449180282424349,1.4999783541662612
9.129528045654297,1.5907409529532324,[1.59106994],5.0,0.5,0.0,2.010008935112112e-14,0.0016449189857936923,1.4999783541662612
9.137381315231323,1.5907409529532324,[1.59106994],5.0,0.5,0.0,1.849208220303146e-14,0.0016449189953692048,1.4999783541662612
9.14685845375061,1.5907409529532324,[1.59106994],5.0,0.5,0.0,1.701271562678895e-14,0.001644918995466059,1.4999783541662612
9.15546441078186,1.5907409529532324,[1.59106994],5.0,0.5,0.0,1.5651698376645816e-14,0.0016449189954692257,1.4999783541662612
9.163366317749023,1.5907409529532324,[1.59106994],5.0,0.5,0.0,1.4399562506514183e-14,0.0016449189954703567,1.4999783541662612
9.173090696334839,1.5907409529532324,[1.59106994],5.0,0.5,0.0,1.3247597505993046e-14,0.001644918995470368,1.4999783541662612
9.186208248138428,1.5907409529532324,[1.59106994],5.0,0.5,0.0,1.2187789705513592e-14,0.0016449189954692689,1.4999783541662612
9.195852756500244,1.5907409529532324,[1.59106994],5.0,0.5,0.0,1.1212766529072512e-14,0.0016449189954670597,1.4999783541662612
9.205259561538696,1.5907409529532324,[1.59106994],5.0,0.5,0.0,1.0315745206746701e-14,0.0016449189954659386,1.4999783541662612
9.213868379592896,1.5907409529532324,[1.59106994],5.0,0.5,0.0,9.490485590206963e-15,0.0016449189954659273,1.4999783541662612
9.222911357879639,1.5907409529532324,[1.59106994],5.0,0.5,0.0,8.731246742990424e-15,0.001644918995467026,1.4999783541662612
9.234380006790161,1.5907409529532324,[1.59106994],5.0,0.5,0.0,8.032747003551183e-15,0.0016449189954692355,1.4999783541662612
9.24481463432312,1.5907409529532324,[1.59106994],5.0,0.5,0.0,7.390127243267094e-15,0.0016449189954703567,1.4999783541662612
9.253289937973022,1.5907409529532324,[1.59106994],5.0,0.5,0.0,6.798917063805726e-15,0.001644918995470368,1.4999783541662612
9.261815786361694,1.5907409529532324,[1.59106994],5.0,0.5,0.0,6.255003698701264e-15,0.0016449189954692689,1.4999783541662612
9.270838022232056,1.590350155519759,[1.59106994],5.0,0.5,0.0,5.754603402805158e-15,0.003579366291160224,1.4998963883635055
9.279847383499146,1.590350155519759,[1.59106994],5.0,0.5,0.0,5.29423513058075e-15,0.003598710764116035,1.4998963883635055
9.287840366363525,1.5907409529532324,[1.59106994],5.0,0.5,0.0,4.8706963201342924e-15,0.0016644569131524284,1.4999783541662612
9.29844355583191,1.590350155519759,[1.59106994],5.0,0.5,0.0,4.481040614523548e-15,0.0035795616703370556,1.4998963883635055
9.30809235572815,1.590350155519759,[1.59106994],5.0,0.5,0.0,4.122557365361661e-15,0.0035987127179111004,1.4998963883635053
9.31587529182434,1.590350155519759,[1.59106994],5.0,0.5,0.0,3.7927527761327335e-15,0.00359890422838794,1.499896388363505
9.3251953125,1.590350155519759,[1.59106994],5.0,0.5,0.0,3.4893325540421096e-15,0.0035989061434927084,1.499896388363505
9.334396362304688,1.590350155519759,[1.59106994],5.0,0.5,0.0,3.210185949718741e-15,0.003598906162642657,1.4998963883635053
9.344566822052002,1.590350155519759,[1.59106993],5.0,0.5,0.0,2.95337107374125e-15,0.0035386849050426422,1.4998963902529323
9.354897022247314,1.590350155519759,[1.59106957],5.0,0.5,0.0,2.717101387841949e-15,0.0004599927094268842,1.4998964946065416
9.364710092544556,1.590350155519759,[1.5910666],5.0,0.5,0.0,2.499733276814591e-15,-0.01353349744910712,1.4998973459700602
9.373007535934448,1.590350155519759,[1.59105377],5.0,0.5,0.0,2.299754614669421e-15,-0.04614954492311055,1.4999009900664495
9.382350206375122,1.590350155519759,[1.59101505],5.0,0.5,0.0,2.1157742454958678e-15,-0.1016009067888869,1.4999115858294978
9.390825986862183,1.5901547568030223,[1.59092945],5.0,0.5,0.0,1.9465123058562e-15,-0.12017749460147803,1.499879976610499
9.399092435836792,1.5899593580862856,[1.59077055],5.0,0.5,0.0,1.7907913213877063e-15,-0.2047939009199028,1.4998684014680745
9.40729570388794,1.5897639593695492,[1.59049338],5.0,0.5,0.0,-0.27603835967867935,-0.2690138477183891,1.4998368778529867
9.415844202041626,1.589373161936076,[1.59004784],5.0,0.5,0.0,-0.5852013225188023,-0.2727921146381138,1.499654104496988
9.425484418869019,1.588591567069129,[1.5893863],5.0,0.5,0.0,-1.1153053884457413,-0.2308808584804348,1.4989485812158674
