t_s,q_rad,q_des_rad,K,B,Kff,jerk,tau_Nm,reward
0.0053615570068359375,-0.0472864894502742,[0.00054409],9.825212432529046,0.9790254919034855,1.9737818648793566,0.0,9.998999999999999,1.132830373989393
0.014460086822509766,-0.04748188816701086,[0.00262895],9.650424865058092,0.9580509838069711,1.9475637297587132,0.0,10.098989999999999,1.105186159139512
0.024866342544555664,-0.0472864894502742,[0.00653265],9.475637297587138,0.9370764757104565,1.92134559463807,0.0,10.099989899999999,1.0602904469118168
0.03301644325256348,-0.04748188816701086,[0.01192271],9.300849730116184,0.9161019676139419,1.8951274595174268,0.0,10.099999898999998,0.993722687307325
0.043917179107666016,-0.0472864894502742,[0.01849872],9.12606216264523,0.8951274595174274,1.8689093243967834,0.0,10.099999998989999,0.92082476705763
0.05295968055725098,-0.0472864894502742,[0.02599083],8.951274595174274,0.8741529514209129,1.84269118927614,0.0,2.0992963965318405,0.8416689535791276
0.06215500831604004,-0.0472864894502742,[0.03415897],8.77648702770332,0.8531784433243983,1.8164730541554968,0.0,-9.97800703603468,0.7653587425593789
0.0726625919342041,-0.04572329971638084,[0.04279164],8.601699460232366,0.8322039352278838,1.7902549190348536,0.276038359678681,-10.098780070360345,0.7086179199722866
0.08065438270568848,-0.044160109982487476,[0.05170397],8.426911892761412,0.8112294271313693,1.7640367839142101,1.6893547612335271,-10.099987800703602,0.6570178920073986
0.08867859840393066,-0.04259692024859412,[0.06073604],8.252124325290458,0.7902549190348547,1.7378186487935667,3.180072318842276,-10.099999878007035,0.61070912171106
0.09869551658630371,-0.04083833179796408,[0.06975085],8.077336757819502,0.7692804109383402,1.7116005136729235,5.0,-10.099999998780069,0.56837209233786
0.11024045944213867,-0.038884344630597374,[0.07863239],7.902549190348549,0.7483059028418256,1.6853823785522803,5.0,-10.0999999999878,0.5448950729122024
0.11827206611633301,-0.03771195233017736,[0.08728411],7.727761622877595,0.727331394745311,1.659164243431637,5.0,-10.099999999999877,0.5256776434259447
0.12842822074890137,-0.036344161313020665,[0.09562763],7.55297405540664,0.7063568866487966,1.6329461083109935,5.0,-10.099999999999998,0.5124376525498604
0.13772010803222656,-0.03536716772933732,[0.10360085],7.378186487935686,0.685382378552282,1.6067279731903503,5.0,-10.099999999999998,0.50274910077013
0.14825224876403809,-0.033999376712180625,[0.11115589],7.203398920464732,0.6644078704557674,1.5805098380697071,4.339049478122096,-10.099999999999998,0.5009664573663829
0.1609656810760498,-0.03302238312849727,[0.11825737],7.028611352993777,0.643433362359253,1.5542917029490637,2.121674785556123,-5.100499999999999,0.5069448303787989
0.16864585876464844,-0.03243618697828726,[0.12488143],6.853823785522822,0.6224588542627384,1.5280735678284203,-0.4770657554892441,-5.050504999999999,0.5069156727968492
0.179396390914917,-0.032045389544813924,[0.13101449],6.679036218051868,0.6014843461662238,1.501855432707777,-2.9751589675591505,-5.050005049999999,0.49835810770237604
0.1876373291015625,-0.03165459211134058,[0.13665146],6.504248650580913,0.6,1.475637297587134,-4.930504121794955,-5.0500000505,0.4856910907465265
0.19967198371887207,-0.03106839596113057,[0.14179449],6.329461083109958,0.6,1.4494191624664907,-5.0,-5.050000000504999,0.48427022329398334
0.21130108833312988,-0.030872997244393897,[0.14645145],6.154673515639004,0.6,1.4232010273458477,-5.0,-6.466330261475034,0.48358906412657776
0.21865224838256836,-0.030677598527657227,[0.15063531],5.97988594816805,0.6,1.3969828922252046,-5.0,-4.4319861066218955,0.48312704329169776
0.2277364730834961,-0.030482199810920558,[0.15436387],5.805098380697095,0.6,1.3707647571045614,-5.0,-2.811080921278062,0.48280902109839285
0.23956513404846191,-0.030677598527657227,[0.15765809],5.63031081322614,0.6,1.3445466219839184,-5.0,-1.7680251802664335,0.4825620775197691
0.25063157081604004,-0.030482199810920558,[0.16054084],5.455523245755186,0.6,1.3183284868632752,-5.0,-0.9583029454373027,0.4824089801695203
0.2587242126464844,-0.030482199810920558,[0.1630368],5.280735678284231,0.6,1.292110351742632,-5.0,-0.33370854554694657,0.48229074919552667
0.27019476890563965,-0.030677598527657227,[0.16517188],5.105948110813277,0.6,1.2658922166219888,-4.939815629272061,-0.012276221295968214,0.48262726294652974
0.279069185256958,-0.030482199810920558,[0.16697264],5.0,0.6,1.2396740815013456,-4.108867278705757,0.2417034054846158,0.48799975585866906
0.2866551876068115,-0.030482199810920558,[0.16846623],5.0,0.6,1.2134559463807026,-3.414345065573308,0.4940360646161268,0.4917616615029174
0.29752659797668457,-0.030482199810920558,[0.1696796],5.0,0.6,1.1872378112600595,-2.5787007887241633,0.6672466518010547,0.49540553027180484
0.307476282119751,-0.02989600366071055,[0.17063902],5.0,0.6,1.1610196761394163,-1.5494048508162184,0.7829830452634667,0.4985375293677694
0.3166360855102539,-0.0289190100770272,[0.17137017],5.0,0.6,1.1348015410187733,-0.0826497286826805,0.9460878717822552,0.5003227004994694
0.3256947994232178,-0.027746617776607176,[0.17189793],5.0,0.6,1.10858340589813,1.5233139339889978,0.9878889618533262,0.49862073998381146
0.3361539840698242,-0.025206434459030463,[0.17224565],5.0,0.6,1.082365270777487,3.954843322313188,0.9628708872683169,0.48890227927755314
0.34677743911743164,-0.022080054991243738,[0.17243513],5.0,0.6,1.0561471356568437,5.0,0.9509247746638304,0.48224918420359864
0.35581231117248535,-0.018562878089983675,[0.17248719],5.0,0.6,1.0299290005362005,5.0,0.9730589605272278,0.4824075834039486
0.3658618927001953,-0.014654903755250269,[0.17242152],5.0,0.6,1.0037108654155575,5.0,0.9328215054246978,0.48264438385446395
0.37610650062561035,-0.010746929420516863,[0.17225616],5.0,0.6,0.9774927302949143,5.0,0.9029357809996031,0.4829654062453883
0.38703322410583496,-0.0062527589355734475,[0.17200749],5.0,0.6,0.9512745951742712,5.0,0.9009688867517797,0.4834695008538556
0.39904069900512695,-0.0015631897338933619,[0.17169029],5.0,0.6,0.9250564600536281,5.0,0.8469646857568461,0.48420251573241163
0.408921480178833,0.002540183317576713,[0.17131776],5.0,0.6,0.898838324932985,5.0,0.7730358894475804,0.48508749651135064
0.42110514640808105,0.0076205499527301395,[0.17090174],5.0,0.6,0.8726201898123418,5.0,0.685001459447986,0.4865657310577216
0.4299802780151367,0.010746929420516863,[0.17045274],5.0,0.6,0.8464020546916986,5.0,0.6351476646609544,0.4878215624909321
0.43840861320495605,0.014264106321776927,[0.16998034],5.0,0.6,0.8201839195710555,4.371448321715263,0.6360628514624855,0.49380750483361513
0.4496307373046875,0.018758276806720344,[0.16949322],5.0,0.6,0.7939657844504124,2.3685109928322556,0.6399610421015803,0.5064700448069365
0.4614880084991455,0.023447846008400428,[0.16899848],5.0,0.6,0.7677476493297692,-0.0008809146483190755,0.5883103868974328,0.5144509139283446
0.46964359283447266,0.026965022909660494,[0.16850204],5.0,0.6,0.741529514209126,-2.3141145227188704,0.6135343505343988,0.5142256395652511
0.4788398742675781,0.030482199810920558,[0.16800923],5.0,0.6,0.715311379088483,-4.1419813985733756,0.606932865069859,0.5101510953864976
0.49060845375061035,0.03556256644607399,[0.16752446],5.0,0.6,0.6890932439678399,-5.0,0.5506509950131107,0.5124536948399478
0.5026001930236816,0.04044753436449074,[0.16705092],5.0,0.6,0.6628751088471967,-5.0,0.47546771684213707,0.5222632524742672
0.5119719505310059,0.044550907415960815,[0.16659092],5.0,0.6,0.6366569737265535,-5.0,0.46200609335859033,0.5325882750785605
0.519620418548584,0.04767728688374754,[0.16614663],5.0,0.6,0.6104388386059104,-5.0,0.455119839935824,0.542118122011186
0.5286107063293457,0.05099906506827094,[0.16572006],5.0,0.6,0.5842207034852673,-5.0,0.4445257136084037,0.5536534625600509
0.5378515720367432,0.05471164068626767,[0.16531248],5.0,0.6,0.5580025683646241,-5.0,0.4326377490663132,0.5683274051571785
0.5457513332366943,0.0578380201540544,[0.16492473],5.0,0.6,0.531784433243981,-5.0,0.47651471594859485,0.5826434226220822
0.5546448230743408,0.061355197055314455,[0.16455746],5.0,0.6,0.5055662981233379,-5.0,0.47865567131632797,0.6005525686268092
0.5626599788665771,0.0650677726733112,[0.1642109],5.0,0.6,0.4793481630026947,-5.0,0.46809135080168185,0.621765805115136
0.5745105743408203,0.0695619431582546,[0.16388478],5.0,0.6,0.4531300278820516,-4.918866506748674,0.4175138946497495,0.6510557892079585
0.5836353302001953,0.07327451877625135,[0.16357815],5.0,0.6,0.42691189276140845,-4.695322210400519,0.3834024600062785,0.6795989742178237
0.5936260223388672,0.07698709439424807,[0.16328995],5.0,0.6,0.4006937576407653,-4.412051185236562,0.33615692619478105,0.7111718949521206
0.6043424606323242,0.08128586616245481,[0.16301922],5.0,0.6,0.3744756225201221,-4.1104250339522626,0.3057413241501837,0.7504569898616972
0.615628719329834,0.0859754353641349,[0.16276494],5.0,0.6,0.3482574873994789,-3.810872400393749,0.26419515008102684,0.796791373914195
0.6236352920532227,0.08949261226539497,[0.162526],5.0,0.6,0.3220393522788358,-3.523171971114377,0.2596727971946259,0.8349612435965694
0.6360023021697998,0.09476837761728506,[0.16230106],5.0,0.6,0.2958212171581926,-3.251672969522566,0.22602448420540455,0.8938574969193767
0.6435883045196533,0.09789475708507178,[0.16208901],5.0,0.6,0.2696030820375494,-2.9979555623142824,0.20469095009232605,0.9319483523407084
0.6516036987304688,0.10121653526959519,[0.16188947],5.0,0.6,0.24338494691690624,-2.7621946691193733,0.1919591771764345,0.9732633103711965
0.6628217697143555,0.10590610447127527,[0.16170151],5.0,0.6,0.21716681179626307,-2.543864007114319,0.16298840132546763,1.0317398965525644
0.672184944152832,0.10961868008927202,[0.16152352],5.0,0.6,0.19094867667561988,-2.342102337247991,0.15056515172447807,1.0793681392311307
0.6800520420074463,0.11254966084032206,[0.16135448],5.0,0.6,0.16473054155497668,-2.1559053720779993,0.16431743281391936,1.1175782073688716
0.6906623840332031,0.11704383132526547,[0.16119388],5.0,0.6,0.13851240643433352,-1.9842268007374961,0.15852096056689924,1.1742392882613386
0.703601598739624,0.1221241979604189,[0.1610408],5.0,0.6,0.11229427131369034,-1.8260313591560484,0.13181424222670224,1.2361966982368193
0.7151172161102295,0.126813767162099,[0.16089371],5.0,0.6,0.08607613619304716,-1.6803222429475775,0.10681226955575363,1.2906199768669835
0.7226364612579346,0.12974474791314905,[0.16075168],5.0,0.6,0.05985800107240398,-1.5461545886733976,0.08916627470056968,1.3232945034703183
0.7320189476013184,0.13365272224788244,[0.16061471],5.0,0.6,0.0336398659517608,-1.4226412843901328,0.06867719110222156,1.363180871029441
0.7426285743713379,0.1379514940160892,[0.16048259],5.0,0.6,0.0074217308311176206,-1.3089545132050515,0.049296803061113774,1.4021802443034077
0.7523078918457031,0.1418594683508226,[0.16035466],5.0,0.6,0.0,-1.204324918044268,0.030481813153211797,1.4327948598193447
0.7608606815338135,0.14518124653534598,[0.16023032],5.0,0.6,0.0,-1.384077817305991,0.013871622438867028,1.4542915696529362
0.7716677188873291,0.14967541702028941,[0.16010902],5.0,0.6,0.0,-1.3286015354257392,-0.008544468100514296,1.477151008527835
0.7816236019134521,0.1531925939215495,[0.15999027],5.0,0.6,0.0,-1.468017092028637,-0.02629259070517991,1.48919922889231
0.7916843891143799,0.15729596697301954,[0.15987364],5.0,0.6,0.0,-1.6260826597641374,-0.04673721174395829,1.4967075688515494
0.800128698348999,0.16003154900733293,[0.15975874],5.0,0.6,0.0,-1.7406080812974085,-0.06082250211178557,1.4977348710130767
0.8095974922180176,0.16315792847511965,[0.15964516],5.0,0.6,0.0,-2.3505431680440476,-0.07626223914853124,1.4934391575137091
0.8189771175384521,0.16589351050943302,[0.15953255],5.0,0.6,0.0,-2.975905982491044,-0.089800282440766,1.485391149896182
0.8294472694396973,0.16882449126048307,[0.15942055],5.0,0.6,0.0,-4.003783438080067,-0.10391830596425279,1.4706769904090322
0.8396213054656982,0.17136467457805982,[0.15930879],5.0,0.6,0.0,-5.0,-0.11582345480626935,1.453081626832498
0.849647045135498,0.17390485789563648,[0.15919692],5.0,0.6,0.0,-5.0,-0.12789163942828416,1.4393899196286108
0.8585901260375977,0.17605424377973988,[0.15908456],5.0,0.6,0.0,-5.0,-0.13812821052826638,1.4257652014512425
0.867638349533081,0.17781283223036992,[0.15897137],5.0,0.6,0.0,-5.0,-0.14599814977159387,1.4131937961816723
0.8779690265655518,0.17957142068099996,[0.15885697],5.0,0.6,0.0,-5.0,-0.15382326806575547,1.399493620463355
0.8860611915588379,0.18093921169815663,[0.15874104],5.0,0.6,0.0,-5.0,-0.15977606312132908,1.3878808719184637
0.8958806991577148,0.18211160399857668,[0.15862352],5.0,0.6,0.0,-5.0,-0.16154599288155894,1.3772634758654658
0.9040262699127197,0.18308859758226,[0.15850463],5.0,0.6,0.0,-5.0,-0.16619734859742946,1.3678773940478905
0.9138147830963135,0.18426098988268005,[0.15838424],5.0,0.6,0.0,-5.0,-0.17119789816597758,1.3563910549385885
0.9228770732879639,0.18484718603289005,[0.15826199],5.0,0.6,0.0,-5.0,-0.17343919152094123,1.3499134945937805
0.9322054386138916,0.18543338218310007,[0.15813751],5.0,0.6,0.0,-5.0,-0.17523574802075378,1.3432900575935967
0.9396038055419922,0.18582417961657338,[0.15801082],5.0,0.6,0.0,-5.0,-0.17302192249868975,1.3383900231763217
0.9475874900817871,0.18601957833331006,[0.15788223],5.0,0.6,0.0,-4.59882188551545,-0.1738589031214527,1.3380596175065824
0.9556024074554443,0.18601957833331006,[0.15775202],5.0,0.6,0.0,-4.23921438112166,-0.17042110346358547,1.3391046851246458
0.9645817279815674,0.18621497705004675,[0.15762041],5.0,0.6,0.0,-4.1864858261171545,-0.17145665065822716,1.3362630793732129
0.9785749912261963,0.18582417961657338,[0.15748706],5.0,0.6,0.0,-4.468391248032142,-0.17184775391820586,1.3369896013377438
0.9879040718078613,0.18562878089983675,[0.15735114],5.0,0.6,0.0,-3.922751006338925,-0.16923414944444104,1.3408830916968806
0.9956073760986328,0.1850425847496267,[0.15721257],5.0,0.6,0.0,-3.443278054488199,-0.16168750464828843,1.3477508786798917
1.0055880546569824,0.18465178731615337,[0.1570719],5.0,0.6,0.0,-3.0348914941645444,-0.1590210960115049,1.35206701762187
1.0155820846557617,0.18387019244920672,[0.15692905],5.0,0.6,0.0,-2.138492781086735,-0.15781068171662777,1.361486846387114
1.0246703624725342,0.18308859758226,[0.15678371],5.0,0.6,0.0,-1.2296079969338254,-0.14945937617868316,1.3696352989979643
1.0334866046905518,0.1823070027153133,[0.15663621],5.0,0.6,0.0,-0.4746355109206022,-0.14522532549591127,1.3763504688360448
1.0449349880218506,0.18113461041489332,[0.15648692],5.0,0.6,0.0,-0.18301029079848308,-0.13866646975855684,1.3855645575918825
1.053025722503662,0.18035301554794664,[0.15633588],5.0,0.6,0.0,0.4582811607304211,-0.13443342962665544,1.390884939819022
1.0606186389923096,0.17937602196426328,[0.15618346],5.0,0.6,0.0,0.8087820293743823,-0.1260100888943387,1.3975188806102192
1.0733790397644043,0.17781283223036992,[0.15602999],5.0,0.6,0.0,0.9893477809345488,-0.12137831683768867,1.408737170883239
1.0826013088226318,0.1766404399299499,[0.15587525],5.0,0.6,0.0,1.3450531183047576,-0.11487782611462496,1.416030346946941
1.093578577041626,0.1752726489127932,[0.15571908],5.0,0.6,0.0,1.6734287507858026,-0.1074097992948212,1.4243018972669796
1.1015853881835938,0.17390485789563648,[0.1555619],5.0,0.6,0.0,1.9105317031117193,-0.09722912338562818,1.432211585881071
1.1133763790130615,0.17214626944500647,[0.15540409],5.0,0.6,0.0,2.0502689110484207,-0.09169602710192191,1.4423629333060235
1.1255686283111572,0.17038768099437648,[0.15524549],5.0,0.6,0.0,2.1075010528512275,-0.08224912381006891,1.4518829942801599
1.135657787322998,0.16862909254374644,[0.15508598],5.0,0.6,0.0,2.3780408034608587,-0.07296465450147305,1.4597895391335827
1.145308017730713,0.16706590280985303,[0.15492577],5.0,0.6,0.0,2.6373265618489303,-0.06481368419018115,1.46580265547166
1.153639554977417,0.16569811179269636,[0.15476503],5.0,0.6,0.0,2.812076321905738,-0.05790836036881661,1.4705250237194103
1.1647114753723145,0.16393952334206632,[0.15460398],5.0,0.6,0.0,3.1686964799049004,-0.04891069324367111,1.4753018793259913
1.176164150238037,0.16218093489143628,[0.15444258],5.0,0.6,0.0,3.2020583585841216,-0.04262123881021444,1.4805204896043882
1.1847610473632812,0.1608131438742796,[0.15428087],5.0,0.6,0.0,3.362605973748926,-0.03242940852094472,1.4831556068328038
1.1961314678192139,0.15885915670691292,[0.15411913],5.0,0.6,0.0,3.4932520774957974,-0.025511527816520486,1.4865147504992056
1.2072036266326904,0.15710056825628288,[0.15395742],5.0,0.6,0.0,3.8235664696029272,-0.016462221513101494,1.487260774241541
1.2145991325378418,0.15592817595586284,[0.15379602],5.0,0.6,0.0,4.109531518426459,-0.008145042504341284,1.486676300940535
1.222592830657959,0.15475578365544285,[0.15363585],5.0,0.6,0.0,4.277568341215089,-0.0008417407056420775,1.4863122947613063
1.23160719871521,0.1529971952048128,[0.15347768],5.0,0.6,0.0,4.3243744587960595,0.006297699760337956,1.4862253711051883
1.2406399250030518,0.1516294041876561,[0.15332172],5.0,0.6,0.0,4.271358633454233,0.01182676215982102,1.4860289524714334
1.2494359016418457,0.1504570118872361,[0.15316788],5.0,0.6,0.0,4.421055205383432,0.01638529768761868,1.4841911255752733
1.2576024532318115,0.14948001830355273,[0.1530161],5.0,0.6,0.0,4.554530158102779,0.01996308373012726,1.4822967057106848
1.2666053771972656,0.1485030247198694,[0.15286626],5.0,0.6,0.0,4.602767146522608,0.023453554119143148,1.4806753248976712
1.274595022201538,0.14733063241944935,[0.15271844],5.0,0.6,0.0,5.0,0.03026129248471448,1.4759431874085314
1.2854719161987305,0.1465490375525027,[0.15257294],5.0,0.6,0.0,5.0,0.03184889547117942,1.474500849231044
1.297020673751831,0.14557204396881931,[0.15242951],5.0,0.6,0.0,5.0,0.031695371436465065,1.4723711806297308
1.3055691719055176,0.14498584781860932,[0.15228764],5.0,0.6,0.0,5.0,0.03550453171947741,1.4711254753570775
1.3151476383209229,0.14459505038513598,[0.15214732],5.0,0.6,0.0,5.0,0.035191234935086496,1.4703895138245318
1.3246078491210938,0.144008854234926,[0.15200851],5.0,0.6,0.0,5.0,0.035694109742184635,1.4690147199367642
1.3329408168792725,0.14361805680145262,[0.1518709],5.0,0.6,0.0,5.0,0.03554890695149958,1.468202549294185
1.3431265354156494,0.14342265808471594,[0.15173419],5.0,0.6,0.0,5.0,0.03416202874558604,1.468010756950652
1.3521907329559326,0.14322725936797928,[0.15159811],5.0,0.6,0.0,5.0,0.03309365697704033,1.4678155777007906
1.3606047630310059,0.14303186065124263,[0.15146265],5.0,0.6,0.0,5.0,0.03466541888469915,1.4676169924679794
1.3694384098052979,0.14303186065124263,[0.15132803],5.0,0.6,0.0,4.7976732404681925,0.03185518580072371,1.4694849066402722
1.377927541732788,0.14303186065124263,[0.15119419],5.0,0.6,0.0,4.1525457272896915,0.029553278050842617,1.4740908584325174
1.3891761302947998,0.14303186065124263,[0.1510608],5.0,0.6,0.0,3.713618409892072,0.0276059181874487,1.4770286631196603
1.399400234222412,0.14303186065124263,[0.15092764],5.0,0.6,0.0,3.3799203249227334,0.02581168237011435,1.4791767278878178
1.4099986553192139,0.14303186065124263,[0.15079455],5.0,0.6,0.0,2.8269112853617204,0.024148501352591493,1.482106898776995
1.419579267501831,0.14303186065124263,[0.1506614],5.0,0.6,0.0,2.274432900514447,0.022873940672332244,1.4845895010386756
1.4279534816741943,0.14303186065124263,[0.15052815],5.0,0.6,0.0,1.5237647251211222,0.021843463329535084,1.4870986367461057
1.4356789588928223,0.14322725936797928,[0.15039503],5.0,0.6,0.0,0.8336212137952372,0.022457043149704214,1.489260199121693
1.4446020126342773,0.14322725936797928,[0.15026248],5.0,0.6,0.0,0.008052097206775577,0.021068705578982924,1.4901499318409563
1.453765869140625,0.14342265808471594,[0.15013069],5.0,0.6,0.0,-0.7043625572909067,0.019203441542768058,1.490671668162393
1.4640226364135742,0.14361805680145262,[0.14999964],5.0,0.6,0.0,-0.9604919802746394,0.017359030850719204,1.4912018848027193
1.4729995727539062,0.14361805680145262,[0.14986939],5.0,0.6,0.0,-1.0095070645806687,0.016733913918233347,1.491456589046216
1.4820477962493896,0.1438134555181893,[0.14974003],5.0,0.6,0.0,-1.2464427407180492,0.0153240477346741,1.4918445795903972
1.489978313446045,0.144008854234926,[0.14961187],5.0,0.6,0.0,-1.2078753963917184,0.01567141644075213,1.4926560293745958
1.4996552467346191,0.144008854234926,[0.14948538],5.0,0.6,0.0,-1.3494677298200624,0.014798879648776988,1.4926657284680052
1.5079188346862793,0.14420425295166264,[0.14935275],5.0,0.6,0.0,-1.2299369636974968,-0.07424350995824716,1.493587811125658
1.5156948566436768,0.1443996516683993,[0.14919653],5.0,0.6,0.0,-1.3103145211971445,-0.08061150778673623,1.4941321199763604
1.526113510131836,0.14459505038513598,[0.14900842],5.0,0.6,0.0,-1.4240670487238383,-0.04675159255952597,1.494604675184312
1.535661220550537,0.14459505038513598,[0.1487936],5.0,0.6,0.0,-1.5098645317844916,-0.029413946722830077,1.4947865217755882
1.5468735694885254,0.14459505038513598,[0.14855816],5.0,0.6,0.0,-1.5522405943641364,-0.02724444372841219,1.4950732979011163
1.555046558380127,0.1443996516683993,[0.14830548],5.0,0.6,0.0,-1.8299949802050777,-0.02076614906696867,1.4944668443247942
1.563896656036377,0.14420425295166264,[0.1480443],5.0,0.6,0.0,-2.1088079130639152,0.0469222693646381,1.4937556834455865
1.5716605186462402,0.14420425295166264,[0.14779007],5.0,0.6,0.0,-2.309681545862569,0.0507871936455057,1.493476321046968
1.5819306373596191,0.144008854234926,[0.14755002],5.0,0.6,0.0,-2.4195765552597504,0.014313347386736246,1.4931561262843975
1.5908563137054443,0.144008854234926,[0.14732042],5.0,0.6,0.0,-2.450261477473075,0.0032526315998951836,1.4933598128021628
1.599076271057129,0.144008854234926,[0.14709786],5.0,0.6,0.0,-2.144169118984309,0.0023829958594258687,1.4946827630770585
1.6072649955749512,0.144008854234926,[0.14688213],5.0,0.6,0.0,-2.0381003544732033,0.001876673944421927,1.4952676273259153
1.6146345138549805,0.144008854234926,[0.14667386],5.0,0.6,0.0,-1.7160966885476556,0.0035485969183863264,1.4963931061230482
1.625117301940918,0.144008854234926,[0.1464738],5.0,0.6,0.0,-1.3651495206299407,0.003179348641701954,1.4974001804881985
1.6347241401672363,0.144008854234926,[0.14628248],5.0,0.6,0.0,-0.779142353048871,0.0025388328597174656,1.498514965789554
1.6473698616027832,0.144008854234926,[0.1461],5.0,0.6,0.0,-0.21943751918001972,0.00024182060230522093,1.4990899609608879
1.655609130859375,0.144008854234926,[0.1459263],5.0,0.6,0.0,-0.04795106465010486,0.0009565936179946154,1.4992632420752383
1.6655454635620117,0.144008854234926,[0.14576141],5.0,0.6,0.0,-0.03347794185221022,-2.9907649134257276e-05,1.4993850646543112
1.6775829792022705,0.144008854234926,[0.14560511],5.0,0.6,0.0,-0.07191126990139984,-0.002460978097713125,1.499486675598429
1.685922622680664,0.144008854234926,[0.14545679],5.0,0.6,0.0,-0.11921520755518678,-0.0031562762166064957,1.4995702019260282
1.694305181503296,0.144008854234926,[0.14531609],5.0,0.6,0.0,-0.1589571508567736,-0.0022410879651980457,1.4996394776990172
1.703568458557129,0.144008854234926,[0.14518282],5.0,0.6,0.0,-0.18680567693936811,-0.003240353850654422,1.4996984208066413
1.716538429260254,0.144008854234926,[0.14505647],5.0,0.6,0.0,-0.20329163459848237,-0.006020701186446193,1.4997497612710253
1.7275722026824951,0.144008854234926,[0.14493618],5.0,0.6,0.0,-0.21054701365482276,-0.006253056797342649,1.49979503162729
1.7355949878692627,0.144008854234926,[0.14482142],5.0,0.6,0.0,-0.2109250602165067,-0.005358299017463299,1.4998348377544772
1.745558738708496,0.144008854234926,[0.14471184],5.0,0.6,0.0,-0.20648567614559366,-0.007711542920839478,1.4998694301969264
1.7545592784881592,0.144008854234926,[0.14460689],5.0,0.6,0.0,-0.19886073427071002,-0.0065858361933174795,1.4998990373158585
1.7641704082489014,0.144008854234926,[0.1445062],5.0,0.6,0.0,-0.18927245292792777,-0.0073890914294163865,1.4999238634301246
1.7715539932250977,0.144008854234926,[0.14440943],5.0,0.6,0.0,-0.1786024802964759,-0.008011960774793223,1.4999441636344297
1.7795531749725342,0.144008854234926,[0.14431623],5.0,0.6,0.0,-0.16746826810649015,-0.007028609176247024,1.499960227473345
1.7887213230133057,0.144008854234926,[0.14422643],5.0,0.6,0.0,-0.15629045187747626,-0.00797134213954537,1.499972349349329
1.796907901763916,0.144008854234926,[0.1441397],5.0,0.6,0.0,-0.14534689480887802,-0.008712614590608023,1.4999808501373166
1.8055343627929688,0.144008854234926,[0.14405573],5.0,0.6,0.0,-0.1348138822952608,-0.007847062508792581,1.499986031323095
1.8135981559753418,0.144008854234926,[0.14397438],5.0,0.6,0.0,-0.12479657091839169,-0.00882462931149423,1.499988168975304
1.823256492614746,0.144008854234926,[0.14389533],5.0,0.6,0.0,-0.11535104561813957,-0.009627742817325037,1.4999875178280713
1.8309812545776367,0.144008854234926,[0.14381821],5.0,0.6,0.0,-0.10650007269418857,-0.010089290576438476,1.4999842876022034
1.839543342590332,0.144008854234926,[0.1437428],5.0,0.6,0.0,-0.09824422961862703,-0.009154499483689207,1.4999786581786418
1.8508498668670654,0.144008854234926,[0.14366894],5.0,0.6,0.0,-0.09056969778317993,-0.011303287646014452,1.4999707861070415
1.8591110706329346,0.144008854234926,[0.14359636],5.0,0.6,0.0,-0.08345367284238658,-0.010148348735739103,1.4999607858165667
1.8679265975952148,0.144008854234926,[0.14352493],5.0,0.6,0.0,-0.07686808778631375,-0.010805311405682444,1.4999487665585078
1.8759191036224365,0.144008854234926,[0.14345455],5.0,0.6,0.0,-0.07078214848033908,-0.011309566153533743,1.4999348227124396
1.8845510482788086,0.144008854234926,[0.14338515],5.0,0.6,0.0,-0.06516403779226711,-0.010255870179994336,1.4999190396581374
1.8950819969177246,0.144008854234926,[0.14331679],5.0,0.6,0.0,-0.05998204049638621,-0.010916201646884168,1.4999015350940246
1.90678071975708,0.144008854234926,[0.14324935],5.0,0.6,0.0,-0.05520526671305166,-0.012417457119241186,1.4998823678506579
1.9185025691986084,0.144008854234926,[0.14318251],5.0,0.6,0.0,-0.05080409871903386,-0.012480015614687453,1.499861520170779
1.9278876781463623,0.144008854234926,[0.14311615],5.0,0.6,0.0,-0.04675044852341117,-0.012433527830140395,1.4998389999361517
1.935532808303833,0.144008854234926,[0.14305035],5.0,0.6,0.0,-0.04301788721375896,-0.011430157250009659,1.4998148921214072
1.943528413772583,0.144008854234926,[0.14298531],5.0,0.6,0.0,-0.0395816885276582,-0.011923362792196017,1.4997893260730688
1.951951026916504,0.144008854234926,[0.14292109],5.0,0.6,0.0,-0.036418816094368145,-0.012127742501747288,1.4997623961918314
1.959559679031372,0.1438134555181893,[0.14285778],5.0,0.6,0.0,-0.03350787468367585,-0.010480296029472381,1.4998165175135285
1.968360185623169,0.1438134555181893,[0.14279553],5.0,0.6,0.0,-0.03082903943408749,-0.010879454658567074,1.49979207897483
1.979804515838623,0.14361805680145262,[0.1427344],5.0,0.6,0.0,-0.028363972592587335,-0.010297219710610598,1.499843244893132
1.987529993057251,0.14361805680145262,[0.14267438],5.0,0.6,0.0,-0.3021340938859466,-0.01033774039054817,1.4997539634842625
1.995596170425415,0.14342265808471594,[0.14261212],5.0,0.6,0.0,-0.3331716539076798,-0.04608214484688063,1.4997859910867501
2.0046112537384033,0.14322725936797928,[0.142539],5.0,0.6,0.0,-0.552192492627609,-0.06208003294924974,1.4996783358552719
2.0145740509033203,0.14322725936797928,[0.1424493],5.0,0.6,0.0,-0.7835036778200397,-0.03975603255952583,1.4994222000142177
2.02555513381958,0.14283646193450597,[0.14234504],5.0,0.6,0.0,-0.6893828255775323,-0.02683230539973091,1.499598052510664
2.033646583557129,0.14264106321776926,[0.1422303],5.0,0.6,0.0,-0.7761215849788021,-0.019333241119328274,1.4995180562964767
2.042552947998047,0.1424456645010326,[0.14210792],5.0,0.6,0.0,-0.8953033160233809,-0.014977482692195425,1.4993808539291487
2.0505757331848145,0.14205486706755927,[0.14198023],5.0,0.6,0.0,-0.9915435152463554,-0.009228100158580681,1.4992675574893823
2.0596728324890137,0.1418594683508226,[0.14184957],5.0,0.6,0.0,-0.77417402150877,-0.004796832691580351,1.4995540263449654
2.067558765411377,0.14146867091734927,[0.14171848],5.0,0.6,0.0,-0.7638706818686012,0.00179623848675023,1.4995533516945858
2.075561285018921,0.1412732722006126,[0.14158954],5.0,0.6,0.0,-0.8130338301970093,0.0051387310998714094,1.4994881707187653
2.084534168243408,0.14088247476713922,[0.1414653],5.0,0.6,0.0,-0.8622477835065376,0.012246025555481169,1.4993789320450586
2.094536542892456,0.14068707605040257,[0.14134853],5.0,0.6,0.0,-0.615742111810418,0.018061922281319896,1.4996303482556745
2.1035499572753906,0.1404916773336659,[0.14124218],5.0,0.6,0.0,-0.31346189314301703,0.02337493396019221,1.4998142174799476
2.1115670204162598,0.1404916773336659,[0.14114856],5.0,0.6,0.0,-0.04689396917995406,0.022402951912311477,1.4999120677700748
2.1205365657806396,0.14029627861692923,[0.14106927],5.0,0.6,0.0,0.43412777764416977,0.026921918735804864,1.4997402294676565
2.1326613426208496,0.14029627861692923,[0.14100627],5.0,0.6,0.0,0.887599990201247,0.03297706794083729,1.499313067452961
2.1406049728393555,0.14029627861692923,[0.14096129],5.0,0.6,0.0,1.23539033245607,0.02815330031230142,1.4987767500206575
2.150611639022827,0.14029627861692923,[0.14093328],5.0,0.6,0.0,1.4682462634556783,0.0139906380358645,1.4983166813825355
2.160076856613159,0.14029627861692923,[0.14091742],5.0,0.6,0.0,1.6022317319797157,-0.007086696595400575,1.4980155020844905
2.1693103313446045,0.1404916773336659,[0.14090823],5.0,0.6,0.0,1.9357352514619777,-0.004028244871025823,1.497183741856013
2.177503824234009,0.1404916773336659,[0.14090396],5.0,0.6,0.0,1.9708507319549329,0.004077128000300255,1.4970829090685864
2.187695264816284,0.1404916773336659,[0.14090552],5.0,0.6,0.0,1.8795631138162077,0.007084349267416281,1.4973428645505416
2.1985628604888916,0.1404916773336659,[0.14091338],5.0,0.6,0.0,1.4663252283199666,0.007318008926725699,1.4983664495541658
2.2065815925598145,0.1404916773336659,[0.14092716],5.0,0.6,0.0,1.0103386522390505,0.0060599421722591215,1.4992027771641452
2.215540647506714,0.14029627861692923,[0.14094598],5.0,0.6,0.0,0.6151003834183756,0.006221283491980111,1.4996340184972659
2.227078437805176,0.1404916773336659,[0.14096891],5.0,0.6,0.0,0.30713713601040454,0.00462227807214996,1.4998842339175753
2.235905408859253,0.1404916773336659,[0.14099509],5.0,0.6,0.0,0.08210381687271526,0.004202942107901839,1.499944298408047
2.244548797607422,0.1404916773336659,[0.14102371],5.0,0.6,0.0,-0.07445498052825673,0.0037833310381581637,1.499939263957391
2.25419545173645,0.1404916773336659,[0.14105402],5.0,0.6,0.0,-0.17832535065748015,0.003588734674806221,1.4999130859407068
2.2639999389648438,0.1404916773336659,[0.14108535],5.0,0.6,0.0,-0.2433547726727603,0.0034521488730254388,1.4998854305075209
2.2722225189208984,0.1404916773336659,[0.14111713],5.0,0.6,0.0,-0.2806015619403728,0.003394412479784458,1.499863156596033
2.2795846462249756,0.1404916773336659,[0.14114885],5.0,0.6,0.0,-0.2984582347591054,0.003475801968387013,1.4998473227315205
2.28802227973938,0.1404916773336659,[0.14118011],5.0,0.6,0.0,-0.3030970234286307,0.0035257628570213883,1.4998368340876596
2.2990994453430176,0.1404916773336659,[0.14121057],5.0,0.6,0.0,-0.2989611192737579,0.003742306031656737,1.499830115070775
2.3095524311065674,0.1404916773336659,[0.1412401],5.0,0.6,0.0,-0.2891980523875695,0.005220470287517078,1.4998257254275529
2.3189492225646973,0.1404916773336659,[0.14126916],5.0,0.6,0.0,-0.2760076451816227,0.009950283940398357,1.4998224049332736
2.3282008171081543,0.1404916773336659,[0.14129936],5.0,0.6,0.0,-0.26090772001966367,0.017768900788799325,1.499818867339641
2.3386521339416504,0.1404916773336659,[0.14133352],5.0,0.6,0.0,-0.24493102321640592,0.027367929405009993,1.4998136161563136
2.3482160568237305,0.1404916773336659,[0.14137548],5.0,0.6,0.0,-0.2287684060586711,0.03828427037452155,1.499804834779773
2.3577678203582764,0.1404916773336659,[0.14142988],5.0,0.6,0.0,-0.2128715989340604,0.05013815901602976,1.499790239429149
2.36653208732605,0.1404916773336659,[0.14150195],5.0,0.6,0.0,-0.19752631680658328,0.062497814451468126,1.499766845549017
2.3764257431030273,0.1404916773336659,[0.14159739],5.0,0.6,0.0,-0.18290391353072472,0.07583009653554827,1.4997306064044518
2.3868248462677,0.14068707605040257,[0.14172231],5.0,0.6,0.0,-0.16909768690513163,0.08901368149830217,1.4997643963197818
2.39553165435791,0.14088247476713922,[0.14188133],5.0,0.6,0.0,-0.15614827997692532,0.08306532783556601,1.4997823261114012
2.4055349826812744,0.14107787348387593,[0.14207968],5.0,0.6,0.0,0.13197698273076777,0.12278652723939126,1.499786332909447
2.4140264987945557,0.1412732722006126,[0.14232444],5.0,0.6,0.0,0.452381347292224,0.11219953170285905,1.4996267171696118
2.423184871673584,0.1416640696340859,[0.14262035],5.0,0.6,0.0,0.716874177216409,0.13025850812103484,1.4994347135287434
2.4305460453033447,0.1418594683508226,[0.14296997],5.0,0.6,0.0,0.9045073651752007,0.1211871587411929,1.4991447399185134
2.4391849040985107,0.14225026578429595,[0.1433758],5.0,0.6,0.0,1.0208873543268626,0.14414905068973585,1.498971445907348
2.447563886642456,0.14283646193450597,[0.14384335],5.0,0.6,0.0,1.3559993269505712,0.16373830473900805,1.4984303739602123
2.4579782485961914,0.14342265808471594,[0.14438071],5.0,0.6,0.0,1.957638091209049,0.1806479624304858,1.4969717675646537
2.469545364379883,0.14420425295166264,[0.14499548],5.0,0.6,0.0,2.2312571003916224,0.19515448596847468,1.4961824961195227
2.479233741760254,0.14518124653534598,[0.14569463],5.0,0.6,0.0,2.596529411169047,0.20664762466266604,1.4949536703649553
2.4875361919403076,0.14596284140229268,[0.14648428],5.0,0.6,0.0,2.6147156333995922,0.21790466166069733,1.4948821635473073
2.4972684383392334,0.1471352337027127,[0.1473696],5.0,0.6,0.0,2.762346524972127,0.2257522438010467,1.4943409660679428
2.5055272579193115,0.14791682856965938,[0.14835074],5.0,0.6,0.0,2.8904605723743337,0.20073904403962778,1.4937815751383066
2.514518976211548,0.14948001830355273,[0.14942339],5.0,0.6,0.0,2.9532630000787856,0.2144432037731799,1.4935488446545149
2.524503707885742,0.15084780932070943,[0.15058712],5.0,0.6,0.0,3.223701828654445,0.22514536710586616,1.4923099471182641
2.5338118076324463,0.15260639777133944,[0.15184471],5.0,0.6,0.0,3.470931778937408,0.23087893737784332,1.4909958535819707
2.54388165473938,0.1543649862219695,[0.15319766],5.0,0.6,0.0,3.898101958187791,0.2341279016241163,1.488543179396961
2.554511308670044,0.15651437210607286,[0.1546502],5.0,0.6,0.0,3.979234973931171,0.2623823077414114,1.487655990523653
2.566020965576172,0.15885915670691292,[0.15620864],5.0,0.6,0.0,4.161816290025568,0.2518593777172558,1.4858672090312326
2.575521945953369,0.1610085425910163,[0.15786876],5.0,0.6,0.0,4.016393353616078,0.21363030485550974,1.4861651107319327
2.5842738151550293,0.162962529758383,[0.15961739],5.0,0.6,0.0,3.7447866855747254,0.2162715565646962,1.4874336774100554
2.5935041904449463,0.16511191564248637,[0.1614459],5.0,0.6,0.0,3.715255042327573,0.21605182803675282,1.4871454867896639
2.6045398712158203,0.16784749767679974,[0.16335336],5.0,0.6,0.0,3.4486611490944967,0.23899415237474383,1.4871932589298553
2.6124801635742188,0.16999688356090312,[0.16533365],5.0,0.6,0.0,3.1150021172910973,0.2371649040738671,1.4884891246740874
2.624513626098633,0.1735140604621632,[0.16737239],5.0,0.6,0.0,3.3378400208605656,0.24274701047941832,1.4842592669489214
2.635495662689209,0.1768358386466866,[0.1694668],5.0,0.6,0.0,3.3814382960128757,0.2422740489149121,1.4807586886267123
2.646484613418579,0.18015761683120995,[0.17162028],5.0,0.6,0.0,2.7663837596264464,0.21735329075194496,1.479864037332947
2.6553540229797363,0.18289319886552335,[0.17382347],5.0,0.6,0.0,2.5749834940797696,0.17198225756353427,1.4787711146583251
2.6647377014160156,0.18582417961657338,[0.1760602],5.0,0.6,0.0,1.9733894329110855,0.16099398066334886,1.4782230440354203
2.6765222549438477,0.1897321539513068,[0.17832204],5.0,0.6,0.0,1.606373527657866,0.17045644551148117,1.4723807193051894
2.6871283054351807,0.19324933085256688,[0.18060703],5.0,0.6,0.0,1.3653483282756778,0.14913914412041077,1.4671541932289067
2.694535493850708,0.19598491288688025,[0.18290618],5.0,0.6,0.0,0.6422260247698954,0.1083395510538324,1.4660609961405942
2.7025156021118164,0.198525096204457,[0.18520486],5.0,0.6,0.0,-0.10644502089479801,0.10336171395627271,1.4651280625904473
2.7105045318603516,0.20145607695550702,[0.18749021],5.0,0.6,0.0,-0.719817922607708,0.06995690279347906,1.4613563900319264
2.719515562057495,0.20458245642329373,[0.18975102],5.0,0.6,0.0,-0.8884077958926515,0.06832134642375912,1.456372214912654
2.7284717559814453,0.20770883589108044,[0.19197356],5.0,0.6,0.0,-1.4231612839062922,-0.0032478682260988915,1.4501809257561997
2.7407987117767334,0.21181220894255054,[0.19412941],5.0,0.6,0.0,-1.681099998054491,-0.13221089697814897,1.4372796800277767
2.749518394470215,0.2147431896936006,[0.19618683],5.0,0.6,0.0,-2.332799518710526,-0.10312829745058918,1.4294155168196365
2.7587766647338867,0.21767417044465065,[0.19813617],5.0,0.6,0.0,-2.9594735159128858,-0.07607998070805204,1.4200174574793405
2.7691903114318848,0.22040975247896405,[0.19998192],5.0,0.6,0.0,-3.699545912582472,-0.06773401127106156,1.4098433254325868
2.781332492828369,0.22353613194675076,[0.20172796],5.0,0.6,0.0,-5.0,-0.06654023391016478,1.390996529717874
2.7915127277374268,0.22607631526432748,[0.20337585],5.0,0.6,0.0,-5.0,-0.08501515363973272,1.3838028990736952
2.8044590950012207,0.22881189729864085,[0.20492579],5.0,0.6,0.0,-5.0,-0.0839881318524579,1.3738926063300387
2.815107822418213,0.23076588446600757,[0.20637947],5.0,0.6,0.0,-5.0,-0.08999407143035837,1.369593631095306
2.8234260082244873,0.23213367548316424,[0.20773932],5.0,0.6,0.0,-5.0,-0.09265240096153772,1.3695248502899562
2.8324906826019287,0.23350146650032094,[0.20900702],5.0,0.6,0.0,-5.0,-0.10162001369883131,1.368656424064854
2.841505765914917,0.23486925751747764,[0.21018436],5.0,0.6,0.0,-5.0,-0.10150868723628667,1.366996509691554
2.8505594730377197,0.2360416498178977,[0.21127507],5.0,0.6,0.0,-5.0,-0.09471543567105567,1.3662816829858895
2.858603000640869,0.237018643401581,[0.21228393],5.0,0.6,0.0,-5.0,-0.101963939867628,1.3665607316727426
2.87100887298584,0.238191035702001,[0.21321519],5.0,0.6,0.0,-5.0,-0.09591395745703282,1.3644420552305128
2.880500316619873,0.2389726305689477,[0.21407331],5.0,0.6,0.0,-5.0,-0.10206321201178627,1.365116093623648
2.8944761753082275,0.2397542254358944,[0.2148628],5.0,0.6,0.0,-5.0,-0.09472990711155957,1.3651855588598538
2.904512882232666,0.24014502286936773,[0.21558917],5.0,0.6,0.0,-5.0,-0.08856507395872015,1.3681223184489593
2.9134819507598877,0.24034042158610439,[0.21625775],5.0,0.6,0.0,-5.0,-0.09356292271590683,1.3722117015195088
2.9215235710144043,0.24053582030284107,[0.21687167],5.0,0.6,0.0,-5.0,-0.09632730808356497,1.3757777652475613
2.9320762157440186,0.24053582030284107,[0.21743416],5.0,0.6,0.0,-4.448300208515924,-0.08713523086743456,1.3842468494846523
2.9397621154785156,0.24053582030284107,[0.21794942],5.0,0.6,0.0,-4.292984023561571,-0.08915347784676955,1.3894707090428329
2.9504857063293457,0.24034042158610439,[0.21842107],5.0,0.6,0.0,-3.691220907410995,-0.08444032576124037,1.3983404832071031
2.9595274925231934,0.24014502286936773,[0.21885301],5.0,0.6,0.0,-3.015742220594902,-0.07593690681132953,1.406594627131248
2.969489097595215,0.23994962415263102,[0.21924935],5.0,0.6,0.0,-2.4086791638724483,-0.07768652891007496,1.413569090885354
2.9780914783477783,0.2397542254358944,[0.21961314],5.0,0.6,0.0,-1.3580070514935745,-0.07426505494876648,1.4207004100377416
2.987476110458374,0.2391680292856844,[0.21994725],5.0,0.6,0.0,-0.6238627996060695,-0.06915440136708156,1.4284864047359964
2.9984729290008545,0.23877723185221103,[0.2202548],5.0,0.6,0.0,-0.12364157306014134,-0.06538945403668865,1.4336736703401578
3.007469892501831,0.238191035702001,[0.22053862],5.0,0.6,0.0,0.4837364648374582,-0.060889012627497005,1.4394065818721946
3.0164694786071777,0.23780023826852767,[0.22080103],5.0,0.6,0.0,0.7283739715330193,-0.06106983368046506,1.4434489933720651
3.029482841491699,0.237018643401581,[0.22104412],5.0,0.6,0.0,0.8009874132510002,-0.05132258034084473,1.4497660593650596
3.0414819717407227,0.23623704853463434,[0.22127075],5.0,0.6,0.0,1.0708390628394417,-0.043470345843088294,1.4553377180340679
3.052483081817627,0.23545545366768764,[0.22148374],5.0,0.6,0.0,1.340079533186287,-0.03967027019280544,1.4603755485307834
3.0615015029907227,0.23486925751747764,[0.2216847],5.0,0.6,0.0,1.817924919731888,-0.039833856524459796,1.4633768176067095
3.069981098175049,0.23428306136726765,[0.22187449],5.0,0.6,0.0,2.2503353668130464,-0.035999670392854864,1.4659193245131523
3.0797746181488037,0.23350146650032094,[0.22205667],5.0,0.6,0.0,2.2829153943607943,-0.003983709180308117,1.4702788854659095
3.0881173610687256,0.23291527035011095,[0.22223873],5.0,0.6,0.0,2.7052415562097414,0.010472997251916593,1.4720420033017794
3.0954864025115967,0.2325244729166376,[0.22242649],5.0,0.6,0.0,2.864322744199179,0.005082224984046732,1.4737425100006292
3.1074628829956055,0.2317428780496909,[0.22262081],5.0,0.6,0.0,2.8740417519574635,0.0009694587116895594,1.4773841059728845
3.1182658672332764,0.2311566818994809,[0.22282057],5.0,0.6,0.0,3.07536938486244,0.0010798662917299794,1.4792068489096888
3.1283700466156006,0.23076588446600757,[0.22302509],5.0,0.6,0.0,3.5392766718730333,0.0029774415805704614,1.4788492409583776
3.1410751342773438,0.2303750870325342,[0.22323482],5.0,0.6,0.0,4.233159262589834,0.01054285473839537,1.476692095478973
3.1484713554382324,0.2303750870325342,[0.2234503],5.0,0.6,0.0,4.542419938034078,0.00456008857052648,1.4753291877618362
3.1594817638397217,0.23017968831579752,[0.22367101],5.0,0.6,0.0,5.0,0.005635102649622915,1.4732952619266841
3.1700520515441895,0.23017968831579752,[0.22389626],5.0,0.6,0.0,5.0,0.00569052451092295,1.473866870274788
3.178586721420288,0.22998428959906086,[0.2241258],5.0,0.6,0.0,5.0,0.006324668245429706,1.4748911850663808
3.1894850730895996,0.22998428959906086,[0.2243592],5.0,0.6,0.0,5.0,0.0059234096154879776,1.4754237247357032
3.2010929584503174,0.22998428959906086,[0.22459631],5.0,0.6,0.0,5.0,0.009252997565766023,1.4759428291513434
3.2090718746185303,0.22998428959906086,[0.22483682],5.0,0.6,0.0,4.775134431820145,0.0037723244011357445,1.4780258527910324
3.2164571285247803,0.22998428959906086,[0.22507925],5.0,0.6,0.0,4.232776507749942,0.00020660113929817244,1.4820390035936
3.224797487258911,0.23017968831579752,[0.22532222],5.0,0.6,0.0,3.6404407325633867,0.004055790106852281,1.4855234152817114
3.2334415912628174,0.22998428959906086,[0.22556519],5.0,0.6,0.0,3.100870597812051,0.0014321754354314393,1.488995209906975
3.2424545288085938,0.22998428959906086,[0.22580731],5.0,0.6,0.0,2.3675605180311843,0.0028037154616582538,1.4923613916165066
3.2504661083221436,0.22998428959906086,[0.22604753],5.0,0.6,0.0,1.9588227245714809,0.0004305780230037931,1.4940570787600675
3.259094715118408,0.22998428959906086,[0.22628504],5.0,0.6,0.0,1.4327131556909938,0.003209531540340494,1.495741175886878
3.2694993019104004,0.22998428959906086,[0.22652001],5.0,0.6,0.0,0.9515781353440182,0.01035654401642315,1.4969290323032882
3.279963254928589,0.22998428959906086,[0.22675361],5.0,0.6,0.0,0.5649216358666298,0.012643356276261312,1.4976772063130257
3.2875866889953613,0.22998428959906086,[0.22698584],5.0,0.6,0.0,0.27537289537955156,0.013799232949005072,1.498147028986436
3.29695987701416,0.22998428959906086,[0.22721631],5.0,0.6,0.0,0.06880263923534516,0.023439367181524905,1.4984653056984027
3.3054897785186768,0.22998428959906086,[0.227446],5.0,0.6,0.0,-0.07262582795388221,0.020095339733908667,1.4987083230110527
3.3136610984802246,0.22998428959906086,[0.22767613],5.0,0.6,0.0,-0.1653357203982068,0.025989686780645584,1.4989146945477614
3.322307586669922,0.23017968831579752,[0.22790843],5.0,0.6,0.0,-0.22275932356547246,0.0321964488776606,1.4989318721760116
3.333301305770874,0.23017968831579752,[0.22814584],5.0,0.6,0.0,-0.2552371451009602,0.040418435767441,1.4991245397980872
3.341534376144409,0.23017968831579752,[0.2283918],5.0,0.6,0.0,-0.27044879311805925,0.04982669040135278,1.499306454263803
3.3501079082489014,0.23017968831579752,[0.22865033],5.0,0.6,0.0,-0.27396513462157235,0.06042468173680125,1.4994764513774415
3.3577847480773926,0.23017968831579752,[0.22892448],5.0,0.6,0.0,-0.269759900926585,0.05645156072466815,1.4996307735548247
3.369488477706909,0.2303750870325342,[0.22921641],5.0,0.6,0.0,0.015408164070072755,0.07032280855344306,1.4997313522566504
3.3785040378570557,0.2305704857492709,[0.22953011],5.0,0.6,0.0,0.06064107074898108,0.08359878133167581,1.4997808111988817
3.388720989227295,0.23076588446600757,[0.22987122],5.0,0.6,0.0,0.295331271010275,0.09630935217132658,1.4997750054968655
3.396498680114746,0.23096128318274423,[0.23024335],5.0,0.6,0.0,0.5428916065033281,0.08743454145960612,1.4996775700769729
3.4054996967315674,0.2313520806162176,[0.23064817],5.0,0.6,0.0,0.7410449625192872,0.1025990591115861,1.4994922880110966
3.417495012283325,0.2317428780496909,[0.23109155],5.0,0.6,0.0,0.8767475939503584,0.1378791152863658,1.499343274221472
3.4285473823547363,0.2323290741999009,[0.23158292],5.0,0.6,0.0,1.2320749806444689,0.14210636290166492,1.4987599275325014
3.4387919902801514,0.23291527035011095,[0.23212841],5.0,0.6,0.0,1.5758244352936641,0.146568306870073,1.4980310779831099
3.4486753940582275,0.23350146650032094,[0.23273104],5.0,0.6,0.0,1.831623506217525,0.15080040051191917,1.4973901741458435
3.459864377975464,0.2344784600840043,[0.23339316],5.0,0.6,0.0,1.988521248031684,0.15298486345761622,1.4968295806146263
3.46943736076355,0.23526005495095098,[0.23411636],5.0,0.6,0.0,2.335938295630128,0.1553523408682596,1.4956929797665008
3.4779105186462402,0.23623704853463434,[0.23490143],5.0,0.6,0.0,2.374623701421168,0.15664356150709413,1.4954633040863556
3.485468864440918,0.2368232446848443,[0.23574595],5.0,0.6,0.0,2.278051807032871,0.1350950984418081,1.49591971595158
3.494452953338623,0.23799563698526438,[0.23664472],5.0,0.6,0.0,2.4049774599148916,0.1417512300597368,1.4953480062872873
3.504443407058716,0.2391680292856844,[0.23759514],5.0,0.6,0.0,2.550893719451386,0.14585901446173472,1.4946848565842927
3.5150668621063232,0.24073121901957772,[0.23859671],5.0,0.6,0.0,2.6445901403852776,0.14592433582556957,1.4939099689324982
3.524656295776367,0.24190361131999777,[0.23965057],5.0,0.6,0.0,2.671934371627066,0.16928266154057162,1.4936989667694727
3.534961223602295,0.2434668010538911,[0.24075676],5.0,0.6,0.0,2.916692941071211,0.13695487465047101,1.492239464510126
3.543475389480591,0.24483459207104782,[0.24190959],5.0,0.6,0.0,2.8739161242505933,0.1362335801963019,1.492179685116695
3.5534610748291016,0.24639778180494118,[0.24310325],5.0,0.6,0.0,2.712193514757642,0.1335842452648632,1.4923856302433212
3.5639498233795166,0.24796097153883453,[0.24433429],5.0,0.6,0.0,2.2343129739720684,0.13017157520240374,1.4936705127097707
3.571446657180786,0.24932876255599123,[0.24559674],5.0,0.6,0.0,1.7186151263718887,0.10527475237680119,1.4950244198368308
3.5809099674224854,0.2508919522898846,[0.24688465],5.0,0.6,0.0,1.5441376751836418,0.12852996699308886,1.4950216856027079
3.5904581546783447,0.25245514202377795,[0.24819447],5.0,0.6,0.0,1.2181158955849112,0.10133461948582057,1.4952725939079725
3.599909782409668,0.25440912919114467,[0.24952043],5.0,0.6,0.0,0.8906235896147678,0.09904799619575218,1.4946414029081319
3.608438491821289,0.25577692020830134,[0.25085685],5.0,0.6,0.0,0.33815546953327913,0.09823548031758476,1.4950851670092653
3.6169838905334473,0.2573401099421947,[0.25220036],5.0,0.6,0.0,0.09019457416769527,0.09506125631107754,1.49472447964006
3.6254260540008545,0.25909869839282473,[0.25354569],5.0,0.6,0.0,-0.01368475960989457,0.07142427931178744,1.4938516481125124
3.633532762527466,0.26105268556019146,[0.25488603],5.0,0.6,0.0,-0.3273068997017904,0.07056068624689055,1.4923435811870398
3.643756151199341,0.2630066727275582,[0.25621708],5.0,0.6,0.0,-0.3689119743342934,0.06767783558141531,1.490721349857838
3.6514456272125244,0.2645698624614515,[0.25753499],5.0,0.6,0.0,-0.5866340056954176,0.048068467537801314,1.4898948250150996
3.662461519241333,0.2667192483455549,[0.25883614],5.0,0.6,0.0,-0.8126589030961716,0.06301253066681738,1.4871568551551186
3.6727142333984375,0.26886863422965823,[0.26011449],5.0,0.6,0.0,-0.9886606860183704,-0.008255814700995985,1.4840627594166738
3.6844775676727295,0.27121341883049827,[0.26135649],5.0,0.6,0.0,-1.379289118769735,-0.026313465033737486,1.4793416054687631
3.692462921142578,0.2727766085643917,[0.2625513],5.0,0.6,0.0,-1.7482564611181093,-0.024538422093104004,1.477035735297883
3.704479932785034,0.27473059573175834,[0.26369776],5.0,0.6,0.0,-2.295204419455782,-0.005143613275956164,1.4720431103285823
3.7171237468719482,0.27668458289912506,[0.2647995],5.0,0.6,0.0,-2.767999571024399,-0.002315786315035401,1.4664732413875396
3.7244625091552734,0.2776615764828084,[0.26585846],5.0,0.6,0.0,-3.0938704451630077,-0.01698514986065575,1.4654469888294295
3.7328219413757324,0.2786385700664918,[0.26687293],5.0,0.6,0.0,-3.549428150219601,-0.019896288007267022,1.4634027866155523
3.7405591011047363,0.2798109623669118,[0.26784081],5.0,0.6,0.0,-3.9175959130683564,-0.030576993917545082,1.4604546022686342
3.748884677886963,0.28059255723385845,[0.26876084],5.0,0.6,0.0,-4.416699448306787,-0.029414954730646526,1.4580780288878525
3.758751392364502,0.28137415210080513,[0.26963304],5.0,0.6,0.0,-5.0,-0.028816730097872507,1.454537903059522
3.769472599029541,0.2823511456844885,[0.27045916],5.0,0.6,0.0,-5.0,-0.02181208861640114,1.4538444635392294
3.7809460163116455,0.2831327405514352,[0.27124173],5.0,0.6,0.0,-5.0,-0.02420953488504325,1.4538489633813447
3.788998603820801,0.28352353798490854,[0.27198197],5.0,0.6,0.0,-5.0,-0.03017783158002161,1.4554422817670147
3.7993881702423096,0.28391433541838185,[0.27268011],5.0,0.6,0.0,-5.0,-0.027798175425921418,1.4568063823094373
3.80859637260437,0.2843051328518552,[0.27333725],5.0,0.6,0.0,-5.0,-0.026088337726282048,1.4579602996979086
3.8208532333374023,0.2845005315685919,[0.27395575],5.0,0.6,0.0,-5.0,-0.01859492320422882,1.4597390150899505
3.829742908477783,0.2846959302853286,[0.27453786],5.0,0.6,0.0,-4.8840762648771054,-0.02329105718783586,1.4621287424622116
3.8399698734283447,0.2848913290020652,[0.27508489],5.0,0.6,0.0,-4.679941436157738,-0.02107840710032245,1.4649097414558219
3.8494606018066406,0.2848913290020652,[0.27559827],5.0,0.6,0.0,-4.153990595844429,-0.018293011821116374,1.4701946030126745
3.8594064712524414,0.2848913290020652,[0.27607994],5.0,0.6,0.0,-3.8505361319859395,-0.015736563631763133,1.473675800752045
3.8687996864318848,0.2848913290020652,[0.27653184],5.0,0.6,0.0,-2.80206033685917,-0.013603160905204154,1.4803103501039736
3.877680540084839,0.2848913290020652,[0.276957],5.0,0.6,0.0,-2.231350069453131,0.0005500420421347181,1.48379561626692
3.8894879817962646,0.2848913290020652,[0.27736162],5.0,0.6,0.0,-1.620100692268184,0.02387647320711296,1.4867747227000359
3.8997886180877686,0.2848913290020652,[0.27775239],5.0,0.6,0.0,-1.0924938950923753,0.0168247725306265,1.488971202127822
3.9076781272888184,0.2846959302853286,[0.27813153],5.0,0.6,0.0,-0.4029170137231184,0.009690008810517946,1.4912979213695448
3.916463613510132,0.2848913290020652,[0.27849822],5.0,0.6,0.0,0.48866799113963866,0.003590794560762204,1.4916812164646307
3.9254400730133057,0.2848913290020652,[0.2788523],5.0,0.6,0.0,1.2700344449497014,0.007492506446864493,1.4915332969198527
3.9343338012695312,0.2848913290020652,[0.27919527],5.0,0.6,0.0,1.8522104857574766,0.01244764163185021,1.4909847017594453
3.9425206184387207,0.2848913290020652,[0.27952959],5.0,0.6,0.0,2.237407239995961,0.01747001668230688,1.4905542417693556
3.951474666595459,0.2848913290020652,[0.27985715],5.0,0.6,0.0,2.4591403937738687,0.014243015897679134,1.4904627706511215
3.9604105949401855,0.2848913290020652,[0.28017929],5.0,0.6,0.0,2.5565992842603835,0.021953702764766887,1.4907272243203362
3.971599817276001,0.2848913290020652,[0.28049946],5.0,0.6,0.0,2.5648454813634967,0.04055113745629601,1.491276647009376
3.9833967685699463,0.2850867277188019,[0.28082316],5.0,0.6,0.0,2.512020267971212,0.045962248685747,1.4916956527729273
3.9927854537963867,0.2850867277188019,[0.2811551],5.0,0.6,0.0,2.4194226077282814,0.053851813352092145,1.4925747382951469
4.001415014266968,0.2850867277188019,[0.28149794],5.0,0.6,0.0,2.3025787037528684,0.04827483519063706,1.4934962621870045
4.011562824249268,0.2852821264355385,[0.28185349],5.0,0.6,0.0,2.4485352662845608,0.060536138343485174,1.493208592516021
4.023458242416382,0.2854775251522752,[0.2822273],5.0,0.6,0.0,2.34596104927643,0.0924186703550732,1.4938093445772116
4.0314154624938965,0.28567292386901194,[0.28262656],5.0,0.6,0.0,2.430735849575386,0.0819130219579523,1.4937666654923172
4.047181606292725,0.28606372130248525,[0.28305975],5.0,0.6,0.0,2.8065993508741975,0.1440403884374138,1.4923674663759363
4.05542254447937,0.2862591200192219,[0.28353797],5.0,0.6,0.0,2.8950617967590144,0.1258454054320443,1.492319827686671
4.06579065322876,0.2868453161694319,[0.28407018],5.0,0.6,0.0,2.839432496521307,0.16823880942797348,1.4924951451339545
4.073876619338989,0.28723611360290524,[0.28466333],5.0,0.6,0.0,2.7139020311190505,0.14840087133225707,1.493224272644201
4.0859222412109375,0.288017708469852,[0.28532469],5.0,0.6,0.0,2.8331857142654906,0.19716450505758004,1.4926108852207285
4.095418214797974,0.2887993033367986,[0.28606172],5.0,0.6,0.0,3.2506757845542884,0.17328783525068198,1.4906978034192906
4.105445861816406,0.28977629692048196,[0.28688191],5.0,0.6,0.0,3.3698187290547192,0.22486694081897435,1.4899437880278983
4.113918781280518,0.2907532905041653,[0.28779264],5.0,0.6,0.0,3.3298189148475514,0.19834370520556668,1.4900625146328879
4.123640775680542,0.29192568280458536,[0.2887966],5.0,0.6,0.0,3.7582939894150886,0.21577065224673267,1.4876389769125877
4.131625413894653,0.2929026763882687,[0.28989688],5.0,0.6,0.0,3.935069826448597,0.23221949632708466,1.486799644383604
4.1420392990112305,0.2942704674054254,[0.29110083],5.0,0.6,0.0,4.226028621721076,0.2449782869804921,1.4848733995617749
4.149749517440796,0.29544285970584544,[0.29241018],5.0,0.6,0.0,3.8956830956267074,0.2204169232425622,1.48699164958384
4.1588966846466064,0.2970060494397388,[0.29382154],5.0,0.6,0.0,4.209410109898679,0.24124364963190256,1.484956166853847
4.168151378631592,0.29837384045689547,[0.29533719],5.0,0.6,0.0,4.068330708780788,0.2585128490129816,1.485987207736765
4.17780876159668,0.3001324289075255,[0.29696427],5.0,0.6,0.0,4.034827119293072,0.27026061448548344,1.486021535525609
4.18569540977478,0.3015002199246822,[0.29870901],5.0,0.6,0.0,3.9939106977214287,0.28154784080227757,1.4867087593665183
4.194647550582886,0.30345420709204884,[0.30057075],5.0,0.6,0.0,4.186492895623383,0.2552494940782861,1.4854603643565032
4.2043986320495605,0.30560359297615225,[0.30254271],5.0,0.6,0.0,4.091394756968308,0.27191401348548416,1.4858210422525353
4.214689254760742,0.30814377629372897,[0.30462478],5.0,0.6,0.0,4.148673818881379,0.2813488077513596,1.4848769156896022
4.226210832595825,0.31127015576151573,[0.30682906],5.0,0.6,0.0,4.470389591466041,0.3000493563007365,1.4814058417774647
4.234980344772339,0.31381033907909234,[0.30916539],5.0,0.6,0.0,4.210406593640926,0.28140847977042394,1.4826704317507031
4.244499921798706,0.3165459211134058,[0.31162856],5.0,0.6,0.0,4.314065201564265,0.2855902888685702,1.481511611654315
4.252930164337158,0.3194769018644558,[0.31421348],5.0,0.6,0.0,3.9112757692570663,0.2872885332432008,1.4832154014900114
4.26649284362793,0.3237756736326626,[0.31692849],5.0,0.6,0.0,4.203119829938948,0.2827312059190854,1.4776877306710747
4.274905204772949,0.32670665438371266,[0.31977977],5.0,0.6,0.0,4.060671346517135,0.27720268118373537,1.478324540138137
4.285435199737549,0.330614628718446,[0.32275772],5.0,0.6,0.0,4.0327561792645366,0.2742248955563212,1.4757688015214354
4.294446706771851,0.33393640690296944,[0.32585316],5.0,0.6,0.0,3.4465548280879146,0.2736064462474937,1.478252423314631
4.303781986236572,0.33745358380422946,[0.32906425],5.0,0.6,0.0,3.0266432841529207,0.27182267151203643,1.479249576063252
4.312773704528809,0.34097076070548954,[0.33238841],5.0,0.6,0.0,2.151663812730199,0.2703482086149711,1.4819421646099362
4.321017265319824,0.34429253889001293,[0.33582243],5.0,0.6,0.0,1.8226553218312962,0.27000695422802123,1.4832870683524713
4.33040714263916,0.34780971579127296,[0.3393553],5.0,0.6,0.0,1.4340508763912383,0.2583584848888381,1.484277753634317
4.34042763710022,0.35230388627621645,[0.34296948],5.0,0.6,0.0,1.3589211273845396,0.25932886076159556,1.4813519702625197
4.348398923873901,0.35543026574400316,[0.34665664],5.0,0.6,0.0,0.5545827503759767,0.26432058351617527,1.4844936893040428
4.357457399368286,0.35894744264526324,[0.35041641],5.0,0.6,0.0,-0.06235314654340868,0.26603549871109056,1.4855468272210155
4.366389989852905,0.3624646195465233,[0.35424057],5.0,0.6,0.0,-0.7770177463795517,0.2549287523623687,1.4861148404069513
4.375746726989746,0.36637259388125676,[0.35812164],5.0,0.6,0.0,-1.6540788613081239,0.2640780469636079,1.4844440932033311
4.385967016220093,0.3702805682159901,[0.36206775],5.0,0.6,0.0,-2.3969410959243134,0.2640564664145439,1.4823419107488838
4.3947155475616455,0.37399314383398685,[0.36607769],5.0,0.6,0.0,-3.202722533030496,0.2634872135010294,1.4799696733846617
4.403798580169678,0.3779011181687203,[0.37013479],5.0,0.6,0.0,-3.8372328098918698,0.2675258605925365,1.4771677346004388
4.412409782409668,0.381613693786717,[0.37423185],5.0,0.6,0.0,-4.249990026832042,0.270376123999309,1.4758943434494276
4.421436548233032,0.38532626940471365,[0.37836222],5.0,0.6,0.0,-4.461919006936993,0.2615243790275799,1.4757446999934314
4.429398059844971,0.38825725015576373,[0.38251213],5.0,0.6,0.0,-4.515371760477835,0.27464892430976523,1.4784712338495063
4.43947958946228,0.39216522449049723,[0.38667684],5.0,0.6,0.0,-4.453454684766498,0.2787590372529084,1.4794455849813166
4.4512176513671875,0.39685479369217724,[0.39086635],5.0,0.6,0.0,-4.31271131220392,0.2673176602567548,1.479197852213697
4.460050106048584,0.4003719705934373,[0.39508829],5.0,0.6,0.0,-4.12157457709571,0.2793679524908782,1.481945254255446
4.467843770980835,0.4033029513444874,[0.39933359],5.0,0.6,0.0,-3.9010682639932703,0.28691106042933856,1.4856526247807835
4.476648569107056,0.4068201282457474,[0.40359374],5.0,0.6,0.0,-3.666188327098128,0.290975977823271,1.4880142573837352
4.485429286956787,0.4103373051470075,[0.40786812],5.0,0.6,0.0,-3.4273130114267296,0.29486169346481794,1.4901132973283437
4.497420787811279,0.4156130704988976,[0.41215557],5.0,0.6,0.0,-3.1914097376297574,0.2900472316057724,1.4900873979645648
4.506398439407349,0.4191302474001577,[0.41644769],5.0,0.6,0.0,-2.962988166486252,0.28129667128924957,1.4920690203237448
4.514820337295532,0.4226474243014178,[0.42072995],5.0,0.6,0.0,-2.7448199441165664,0.29079084030734287,1.4936879266583492
4.522934675216675,0.4259692024859411,[0.42499685],5.0,0.6,0.0,-2.5384674229729174,0.29846697673538625,1.4950370807235025
4.530756711959839,0.4292909806704645,[0.4292506],5.0,0.6,0.0,-2.344664927565651,0.30459154131234545,1.4959240679011252
4.541399955749512,0.4333943537219346,[0.43348611],5.0,0.6,0.0,-2.1635900354420503,0.2874062163379907,1.4965258010517482
4.553408861160278,0.43847472035708807,[0.43769895],5.0,0.6,0.0,-1.7190162209753472,0.30313792593871414,1.49768476008358
4.562864542007446,0.44238269469182145,[0.44189897],5.0,0.6,0.0,-1.8055133029684534,0.3046513591877959,1.4975324263326881
4.570423126220703,0.4457044728763448,[0.4460877],5.0,0.6,0.0,-1.7488762487287133,0.29472328354785027,1.497699003428374
4.579423666000366,0.44922164977760487,[0.45025968],5.0,0.6,0.0,-1.635924527942683,0.3122753383852248,1.4977962846952753
4.59056282043457,0.4537158202625483,[0.4544238],5.0,0.6,0.0,-1.5066692171428415,0.3108532693329488,1.4982127823688627
4.5993688106536865,0.4570375984470717,[0.45858102],5.0,0.6,0.0,-1.3786426288047977,0.3019246582566535,1.4981108362043254
4.609384775161743,0.46094557278180515,[0.4627189],5.0,0.6,0.0,-1.258793029338081,0.30805406279412567,1.498193102708723
4.62201189994812,0.4662213381336952,[0.46684088],5.0,0.6,0.0,-1.1492423278344637,0.3092429273271526,1.4989410297260735
4.629418134689331,0.4693477176014819,[0.47095702],5.0,0.6,0.0,-1.0500315968266918,0.3077021055625973,1.4986620835574407
4.637422323226929,0.4724740970692687,[0.47506259],5.0,0.6,0.0,-0.9603999960481514,0.3156485084131443,1.4979746954985278
4.647418975830078,0.4765774701207387,[0.47915403],5.0,0.6,0.0,-1.1553964390773481,0.31764298056812645,1.4976804015389305
4.659638166427612,0.4812670393224188,[0.48324257],5.0,0.6,0.0,-1.1150906710895976,0.31261434604669425,1.4982950090220946
4.667863845825195,0.4847842162236789,[0.48733797],5.0,0.6,0.0,-0.9932945990189475,0.3163592240911846,1.4979626096699405
4.6755993366241455,0.48810599440820224,[0.49142775],5.0,0.6,0.0,-0.8564803675387601,0.3018896880143013,1.4972498610331568
4.68583869934082,0.492404766176409,[0.49550159],5.0,0.6,0.0,-0.7305472282995321,0.322816442884688,1.497686648043317
4.69729471206665,0.4970943353780891,[0.49957193],5.0,0.6,0.0,-0.6232785304777253,0.3199585645630476,1.4984839556133636
4.7054078578948975,0.5004161135626125,[0.5036424],5.0,0.6,0.0,-0.534921493012692,0.3117118132790949,1.497707419636248
4.713411808013916,0.5035424930303992,[0.50770206],5.0,0.6,0.0,-0.4630227893848004,0.3218785411367659,1.4963860164213587
4.722347259521484,0.507255068648396,[0.51174865],5.0,0.6,0.0,-0.4045281494691737,0.3264814298851984,1.495847882599197
4.731388092041016,0.510772245549656,[0.51578035],5.0,0.6,0.0,-0.35660926185916847,0.31080031203979236,1.4949016853698087
4.739411354064941,0.5138986250174427,[0.51978867],5.0,0.6,0.0,-0.31692104399525434,0.32488972657315485,1.4930107274168587
4.748404264450073,0.5174158019187027,[0.52376659],5.0,0.6,0.0,-0.2836208106557355,0.3061290743446089,1.4919060796553167
4.759932518005371,0.5221053711203829,[0.52771515],5.0,0.6,0.0,-0.25530110293967856,0.33414477930469794,1.4936773343601313
4.7693774700164795,0.5262087441718529,[0.53164893],5.0,0.6,0.0,-0.23090225570519077,0.33368031811814564,1.4940586698110927
4.780363082885742,0.5310937120902697,[0.53558008],5.0,0.6,0.0,-0.2096308794518587,0.32892440414505425,1.4959498828701454
4.788376569747925,0.5342200915580564,[0.53950504],5.0,0.6,0.0,-0.19089253978908316,0.31603195895574987,1.4944023210116617
4.797424793243408,0.5379326671760531,[0.54341394],5.0,0.6,0.0,0.10179894771158499,0.32336881309078114,1.4940014326738909
4.807127952575684,0.5418406415107866,[0.54731172],5.0,0.6,0.0,0.14983201913982208,0.33444315274884556,1.494014636941983
4.818376064300537,0.54633481199573,[0.55121583],5.0,0.6,0.0,0.1081608127916498,0.33178055659495376,1.495237748775999
4.82638144493103,0.5494611914635167,[0.55512774],5.0,0.6,0.0,0.044224428452206865,0.32252667292387777,1.493597168811854
4.839586973190308,0.5551277542488802,[0.55904209],5.0,0.6,0.0,-0.015264123317417555,0.3267640438847754,1.4969401089038163
4.853086471557617,0.5604035196007703,[0.56297479],5.0,0.6,0.0,-0.06183447868355614,0.30883963564800615,1.4986757372405797
4.860392093658447,0.5633345003518203,[0.56694651],5.0,0.6,0.0,-0.09465479354399325,0.32038210775289283,1.497387416142876
4.869508504867554,0.5666562785363436,[0.57095461],5.0,0.6,0.0,-0.1156758780155035,0.324962932966401,1.4963017334565054
4.881784439086914,0.5715412464547605,[0.57499056],5.0,0.6,0.0,-0.12751549371606968,0.3197504222261049,1.4976111739140732
4.89183783531189,0.5762308156564405,[0.57906182],5.0,0.6,0.0,-0.13261896356470804,0.3183722559564424,1.498385273141416
4.9012579917907715,0.580138789991174,[0.58317534],5.0,0.6,0.0,-0.13299230761497785,0.3198860699543685,1.4981444007538847
4.910767078399658,0.5840467643259073,[0.58732302],5.0,0.6,0.0,-0.1301757080972022,0.3193866719641273,1.4978429180054535
4.919477224349976,0.5875639412271675,[0.59149105],5.0,0.6,0.0,-0.40134335184040315,0.3262822377879394,1.4968004191016995
4.929470062255859,0.5914719155619009,[0.59568409],5.0,0.6,0.0,-0.42835758970167576,0.310703873357712,1.496321229396639
4.938400745391846,0.5949890924631609,[0.59991457],5.0,0.6,0.0,-0.36648143459897553,0.33193130967176276,1.4950597236448449
4.949625015258789,0.5994832629481043,[0.60417801],5.0,0.6,0.0,-0.2833412652161814,0.32983019367198313,1.495541812097224
4.9583680629730225,0.6033912372828377,[0.6084717],5.0,0.6,0.0,-0.2057506202352971,0.32842305258648113,1.4948195628968206
4.967710733413696,0.6071038129008345,[0.61280243],5.0,0.6,0.0,-0.1422201372153922,0.3266814829078301,1.4935111442915028
4.975402355194092,0.6102301923686212,[0.61716818],5.0,0.6,0.0,-0.09358117647414654,0.34179919234685374,1.4904125483347603
4.9863762855529785,0.6145289641368279,[0.62155936],5.0,0.6,0.0,-0.057855714329689494,0.3405677132692538,1.4901609140268663
4.997395753860474,0.6188277359050346,[0.62598685],5.0,0.6,0.0,-0.03238196796894888,0.27935406687111214,1.4898010003479034
5.005736827850342,0.622149514089558,[0.63047908],5.0,0.6,0.0,-0.014660702283491586,0.2837144315811712,1.4862193505577335
5.01414680480957,0.6256666909908181,[0.63504238],5.0,0.6,0.0,0.273411512250296,0.3435002788205383,1.4825172742167974
5.0243895053863525,0.6297700640422882,[0.63966388],5.0,0.6,0.0,0.31448371372625616,0.33234440360034545,1.4805392620020612
5.033498287200928,0.6332872409435483,[0.64434261],5.0,0.6,0.0,0.26444438815237514,0.3217660025217163,1.4758000304443128
5.041365146636963,0.6368044178448083,[0.64907779],5.0,0.6,0.0,0.1914012900697707,0.3630384558219284,1.4702948878147004
5.051252841949463,0.6407123921795417,[0.65386921],5.0,0.6,0.0,0.12253235039407835,0.27407056969427374,1.4659609053079574
5.0603859424591064,0.6446203665142752,[0.65872682],5.0,0.6,0.0,0.06662220005914428,0.3522638765294564,1.4609798435391241
5.072396516799927,0.6495053344326919,[0.66365918],5.0,0.6,0.0,0.024708242054848752,0.29315246652629817,1.4607253245316876
5.080618381500244,0.6526317139004786,[0.66867342],5.0,0.6,0.0,-0.005031788902826533,0.34219127981867703,1.449834707118296
5.090782165527344,0.6567350869519486,[0.67377521],5.0,0.6,0.0,-0.025140828002701097,0.31636340039617245,1.4435804745686565
5.09943151473999,0.6602522638532087,[0.67896879],5.0,0.6,0.0,0.23801207931937102,0.3396338981883555,1.432294141199768
5.108811616897583,0.6641602381879422,[0.68424645],5.0,0.6,0.0,0.2634817763675442,0.3224451041530583,1.4224268560146003
5.120455503463745,0.6688498073896222,[0.68961164],5.0,0.6,0.0,0.20441645595198493,0.346810933456069,1.4173697551383668
5.129499435424805,0.6723669842908824,[0.69507705],5.0,0.6,0.0,0.12690027332063641,0.3341517872756235,1.4019802291023973
5.139457941055298,0.6766657560590891,[0.70063104],5.0,0.6,0.0,0.05664818447594898,0.32824352242570853,1.3914823756704173
5.152058124542236,0.6817461226942425,[0.70627348],5.0,0.6,0.0,0.00140325249728563,0.37088249599022255,1.3866381904325078
5.160366773605347,0.6852632995955026,[0.71202447],5.0,0.6,0.0,-0.03852967692454251,0.3747721462795531,1.3665518625779554
5.172365427017212,0.6901482675139192,[0.71788863],5.0,0.6,0.0,-0.0654825288097681,0.37397399377831547,1.3573497882411463
5.181911945343018,0.6942516405653893,[0.72385728],5.0,0.6,0.0,-0.08234896352436749,0.3786901208894823,1.3392012197452292
5.1927032470703125,0.6985504123335962,[0.72992104],5.0,0.6,0.0,-0.0917747617518824,0.38357020061534247,1.32132948551184
5.201456308364868,0.7020675892348561,[0.73606985],5.0,0.6,0.0,-0.0959124762263755,0.39287541332639353,1.293549497417526
5.211914300918579,0.7061709622863263,[0.74229287],5.0,0.6,0.0,-0.09641031226752877,0.39969300300582916,1.2703059627043243
5.221567630767822,0.7100789366210597,[0.74856877],5.0,0.6,0.0,-0.09448459485805394,0.46129711474810725,1.2435625740141978
5.232219696044922,0.7141823096725297,[0.75487705],5.0,0.6,0.0,-0.09101056440703031,0.42406094306755954,1.2180464991799598
5.2428319454193115,0.7182856827239998,[0.76121754],5.0,0.6,0.0,0.1894324435092817,0.4267284203075441,1.1916553191918835
5.250364542007446,0.7214120621917866,[0.76757849],5.0,0.6,0.0,0.22746374166444938,0.5127990611998631,1.1529029399667663
5.2595624923706055,0.7249292390930466,[0.77392885],5.0,0.6,0.0,0.1774829577271601,0.5236137944091354,1.1186409147682317
5.267366647720337,0.7286418147110434,[0.78024953],5.0,0.6,0.0,0.10652883681144187,0.5374411553072096,1.0870262769163594
5.275371074676514,0.7319635928955668,[0.78652326],5.0,0.6,0.0,0.04102423832088883,0.5788415126768861,1.0513674850391141
5.2843310832977295,0.7356761685135634,[0.79272551],5.0,0.6,0.0,-0.010772031095366678,0.590046423441088,1.0215627879273923
5.295346736907959,0.7399749402817702,[0.79884968],5.0,0.6,0.0,-0.04818366298749532,0.5728084668915124,0.9999483924067358
5.3053600788116455,0.7438829146165036,[0.80489665],5.0,0.6,0.0,-0.07327702758150413,0.611531401915042,0.9749509941522387
5.315038204193115,0.7479862876679737,[0.8108505],5.0,0.6,0.0,-0.08875684650172849,0.6211048757202271,0.9536656942233933
5.322930574417114,0.7513080658524971,[0.8166959],5.0,0.6,0.0,-0.09713485596209115,0.633330839099425,0.925227788063782
5.331316709518433,0.7548252427537571,[0.82242563],5.0,0.6,0.0,-0.10046864270728093,0.6430009013159185,0.9009248276191704
5.340493440628052,0.7585378183717539,[0.82802653],5.0,0.6,0.0,-0.10033914654417489,0.6311955065485833,0.8806953640170534
5.348360538482666,0.7616641978395406,[0.83348102],5.0,0.6,0.0,-0.09791500779711096,0.6433693312668455,0.8564535753945526
5.357590198516846,0.7651813747408006,[0.83877997],5.0,0.6,0.0,-0.09403760040633272,0.6503417585718578,0.8384530327319326
5.365388631820679,0.7683077542085874,[0.84391633],5.0,0.6,0.0,-0.08930049671168372,0.6283808395155327,0.8187494484206141
5.377707242965698,0.7729973234102675,[0.84888427],5.0,0.6,0.0,-0.0841150145485781,0.6600834953136169,0.8160729449386057
5.385894536972046,0.7767098990282643,[0.85368932],5.0,0.6,0.0,-0.07876101595505991,0.6585280292295641,0.8056907179269444
5.3943610191345215,0.7804224746462608,[0.85833239],5.0,0.6,0.0,-0.07342488261231661,0.6275884604583654,0.7970055252071229
5.4024248123168945,0.7837442528307843,[0.86280582],5.0,0.6,0.0,-0.06822726862396633,0.6352321540585502,0.7864594627835095
5.413383722305298,0.7882384233157278,[0.8671092],5.0,0.6,0.0,-0.3392814369808459,0.63505602404975,0.7881087689417292
5.422370195388794,0.7915602015002512,[0.87124843],5.0,0.6,0.0,-0.3676786503425525,0.6389592135274315,0.7807189758280755
5.433463096618652,0.7960543719851946,[0.87523026],5.0,0.6,0.0,-0.30813270985306174,0.6360830159566159,0.7853576438414736
5.445319175720215,0.8009393399036113,[0.87906231],5.0,0.6,0.0,-0.22788520999813205,0.6307638812277784,0.7950027566038633
5.457372426986694,0.8058243078220281,[0.88275746],5.0,0.6,0.0,-0.15348421048006675,0.6527726529809262,0.8061135415119294
5.465352773666382,0.8091460860065515,[0.88632866],5.0,0.6,0.0,-0.3692985231318165,0.6184078432321123,0.80368499618209
5.473618030548096,0.8120770667576015,[0.88977999],5.0,0.6,0.0,-0.35708750494216257,0.6251664563201633,0.7988341522590241
5.483357667922974,0.8163758385258082,[0.89311691],5.0,0.6,0.0,0.00655098606046145,0.6242874321214448,0.8079436074309321
5.492628812789917,0.8198930154270683,[0.89635046],5.0,0.6,0.0,0.13814083850688458,0.6263188973367229,0.8106171944201088
5.501939535140991,0.823605591045065,[0.8994918],5.0,0.6,0.0,0.1683512673113114,0.6266266547513749,0.8160641477165116
5.511368751525879,0.8275135653797985,[0.90255197],5.0,0.6,0.0,0.15815732502246183,0.6251188367783181,0.8242598829504239
5.519417762756348,0.8308353435643218,[0.90553695],5.0,0.6,0.0,0.1349921363761692,0.5918670060769147,0.8275523777229128
5.5284106731414795,0.8343525204655821,[0.90844819],5.0,0.6,0.0,0.11043168660901817,0.601370801796553,0.8335171989880313
5.539846181869507,0.8394328871007354,[0.91129282],5.0,0.6,0.0,0.08876326797744115,0.5990153591230254,0.8560135834691286
5.5507729053497314,0.8441224563024156,[0.91408736],5.0,0.6,0.0,0.07107792369580601,0.6237702673297907,0.8756762947901391
5.559345960617065,0.8476396332036755,[0.91684646],5.0,0.6,0.0,0.05718240968402645,0.586219362219532,0.8836888999907457
5.570382833480835,0.8519384049718822,[0.91957814],5.0,0.6,0.0,0.04646117976518019,0.6119950048632674,0.9005042594306423
5.578333139419556,0.8548693857229324,[0.9222895],5.0,0.6,0.0,0.03824156885160376,0.5769767022655463,0.9028878429520868
5.591734886169434,0.8601451510748225,[0.92498663],5.0,0.6,0.0,-0.24410805317359863,0.5974123613368743,0.9312849352090345
5.604377508163452,0.8656163151434492,[0.92767941],5.0,0.6,0.0,-0.2821134542752197,0.5788444205294379,0.9627846433526084
5.613498210906982,0.8693288907614459,[0.930376],5.0,0.6,0.0,-0.23083362857877707,0.5694573406918901,0.974528538167614
5.622364521026611,0.8728460676627059,[0.93307361],5.0,0.6,0.0,-0.15777712319272005,0.5310494680793437,0.9840777423208096
5.633459806442261,0.8769494407141761,[0.93576498],5.0,0.6,0.0,-0.089695937491652,0.5303869975576547,1.0006412470166794
5.642871141433716,0.8806620163321728,[0.93845298],5.0,0.6,0.0,-0.03507587876254693,0.5575735650410275,1.0127530664877513
5.6516358852386475,0.8843745919501695,[0.94114898],5.0,0.6,0.0,0.005252796468353475,0.5468171558802266,1.0248377025064497
5.659387111663818,0.8878917688514296,[0.9438531],5.0,0.6,0.0,0.033254164361213895,0.5075125719296012,1.0345469796368798
5.670814275741577,0.8923859393363729,[0.94656057],5.0,0.6,0.0,0.05156682941935402,0.5332366909123076,1.0560029719803896
5.678391933441162,0.8957077175208964,[0.94926721],5.0,0.6,0.0,0.0626615238505055,0.5304492644473439,1.0634205499633884
5.690364122390747,0.900592685439313,[0.95196492],5.0,0.6,0.0,-0.20746625816689157,0.5384860369925875,1.0898567701727415
5.699023485183716,0.9041098623405732,[0.95465577],5.0,0.6,0.0,0.037742915437849994,0.5246751579979274,1.0999076500986158
5.709314823150635,0.9082132353920432,[0.95734595],5.0,0.6,0.0,0.12580957110413188,0.509578408488979,1.1170385395001114
5.719299077987671,0.9121212097267768,[0.96003604],5.0,0.6,0.0,0.1450339565643566,0.49719945513474184,1.1317945316776685
5.731822490692139,0.9172015763619301,[0.96273073],5.0,0.6,0.0,0.13669809030204924,0.5049227330098156,1.1606032056123163
5.740640878677368,0.9209141519799268,[0.96543803],5.0,0.6,0.0,0.11943126049127042,0.4898426094241335,1.1726763287890436
5.750305652618408,0.9248221263146603,[0.9681599],5.0,0.6,0.0,0.10113618295599655,0.475511029805542,1.1868471072224391
5.759549140930176,0.9287301006493937,[0.97088889],5.0,0.6,0.0,0.08477244018971863,0.4330329784982919,1.2008367109463844
5.7704362869262695,0.9330288724176004,[0.97361413],5.0,0.6,0.0,0.07112242906240691,0.4283802426667392,1.2193280195772565
5.78035044670105,0.9371322454690706,[0.97633041],5.0,0.6,0.0,0.06008627248821268,0.4231824603837715,1.235427768724011
5.789336442947388,0.9408448210870671,[0.97903737],5.0,0.6,0.0,0.327305971238117,0.4184080971382734,1.2468873263889892
5.79815936088562,0.9443619979883273,[0.98173436],5.0,0.6,0.0,0.3533862813062722,0.4135796715349638,1.2561908103938162
5.8083274364471436,0.9482699723230607,[0.98442047],5.0,0.6,0.0,0.29262381393032266,0.4060191371665806,1.269930946986617
5.818320035934448,0.9525687440912673,[0.98709457],5.0,0.6,0.0,-0.06410700442701517,0.39603772218273503,1.2878792469510243
5.827297925949097,0.9564767184260008,[0.98975533],5.0,0.6,0.0,-0.17155313258075514,0.3873755619772938,1.301299437085611
5.837224245071411,0.9605800914774709,[0.99240127],5.0,0.6,0.0,0.09978217113004272,0.3773017644379041,1.3166647987084943
5.846452474594116,0.9642926670954678,[0.9950271],5.0,0.6,0.0,-0.11174271721484647,0.33813937774514097,1.327842562524273
5.855326414108276,0.9676144452799911,[0.99762448],5.0,0.6,0.0,-0.16117958633080007,0.34130132957538944,1.3351503065949304
5.863307237625122,0.9709362234645145,[1.00018649],5.0,0.6,0.0,-0.14709695308709891,0.30931735551042927,1.342708066724575
5.872713804244995,0.9748441977992479,[1.00271117],5.0,0.6,0.0,-0.11347157696279367,0.3459385136026657,1.3561370224589469
5.8803324699401855,0.9777751785502978,[1.00520081],5.0,0.6,0.0,-0.07858060017101837,0.3115368277094903,1.3603307736197987
5.8907036781311035,0.9818785516017681,[1.00765393],5.0,0.6,0.0,-0.04896841835269614,0.3111159923282954,1.375573611280286
5.898818016052246,0.9852003297862914,[1.01006956],5.0,0.6,0.0,-0.026094702041104652,0.3118091413910798,1.3836481897634962
5.907283067703247,0.9887175066875513,[1.01245079],5.0,0.6,0.0,-0.009423641297412872,0.3094002843218684,1.3934598861723346
5.915697813034058,0.9920392848720748,[1.01480053],5.0,0.6,0.0,0.002195746507739337,0.30643898284925913,1.4015724794985935
5.924318313598633,0.9953610630565983,[1.01711795],5.0,0.6,0.0,0.009954462985609987,0.271300335468816,1.40967078835808
5.937190771102905,1.0004414296917516,[1.01940266],5.0,0.6,0.0,0.014876433609429945,0.2976122586931146,1.4306185030458949
5.945763826370239,1.0039586065930115,[1.02165819],5.0,0.6,0.0,0.017771280446466566,0.2588386923135476,1.439267199543573
5.954483509063721,1.0076711822110085,[1.02388431],5.0,0.6,0.0,0.01925011715967782,0.2585481103042534,1.4487847026853777
5.963314056396484,1.0111883591122686,[1.02607766],5.0,0.6,0.0,0.019761018231680957,0.22516109887880909,1.456630049771299
5.9743170738220215,1.0154871308804754,[1.02823925],5.0,0.6,0.0,0.019626040604727647,0.258396382123247,1.4679996009350784
5.985327959060669,1.0201767000821553,[1.03037729],5.0,0.6,0.0,0.01907322329856479,0.24575598128453194,1.479404347582295
5.995710849761963,1.0244754718503621,[1.03250256],5.0,0.6,0.0,0.01826201822429792,0.26297865530273085,1.487195614486386
6.005873203277588,1.028774243618569,[1.03462445],5.0,0.6,0.0,0.017302597034067425,0.2447651398696252,1.4931781792829562
6.013653516769409,1.031705224369619,[1.03674413],5.0,0.6,0.0,0.2923084687949847,0.20549707179245413,1.494871158723879
6.023392200469971,1.035808597421089,[1.03885587],5.0,0.6,0.0,0.3243779879473476,0.20153460920670738,1.4980662335786217
6.033987522125244,1.0401073691892957,[1.04095888],5.0,0.6,0.0,0.2682362570654123,0.19634039484983118,1.499801439618191
6.041305780410767,1.0430383499403457,[1.04305299],5.0,0.6,0.0,0.1911385974552991,0.16431607861901432,1.4999727619709549
6.051317453384399,1.0471417229918158,[1.04513508],5.0,0.6,0.0,0.1196480209510738,0.16987899511613522,1.4991843431219807
6.0593345165252686,1.0500727037428659,[1.04720727],5.0,0.6,0.0,0.06211035849141096,0.17897346178477874,1.498356334541271
6.0693347454071045,1.053980678077599,[1.04927641],5.0,0.6,0.0,0.019252365919489648,0.18189755424546072,1.4955834833659432
6.079306364059448,1.0578886524123328,[1.05134976],5.0,0.6,0.0,-0.01096678275092113,0.1840396439655424,1.4914849410459072
6.0901689529418945,1.0625782216140127,[1.05343499],5.0,0.6,0.0,-0.03124298404473961,0.18202941541300569,1.4834185275355831
6.099331378936768,1.0662907972320095,[1.05554022],5.0,0.6,0.0,-0.04409016222884309,0.1846750133220297,1.4771486585242508
6.108407497406006,1.070198771566743,[1.05767394],5.0,0.6,0.0,-0.05157514916993252,0.18625143491067345,1.4691107878683969
6.1164305210113525,1.0735205497512663,[1.05984494],5.0,0.6,0.0,-0.05529246122187528,0.19049190862553153,1.4632841793555162
6.1263587474823,1.0774285240859998,[1.06205654],5.0,0.6,0.0,-0.056426783135084514,0.15516934761730133,1.4538374045362308
6.139166355133057,1.0827042894378898,[1.06431308],5.0,0.6,0.0,-0.055836739662357485,0.19264005096800155,1.434587733545795
6.148711681365967,1.0864168650558865,[1.06663111],5.0,0.6,0.0,-0.05413351791928875,0.19083170600048477,1.4246892381511005
6.156364917755127,1.08973864324041,[1.06901943],5.0,0.6,0.0,-0.05174586268939158,0.16171543225171367,1.417723294729281
6.16536545753479,1.09325582014167,[1.07147417],5.0,0.6,0.0,-0.048970524018086756,0.17205448559145195,1.4094729656785696
6.175285339355469,1.0975545919098768,[1.07399914],5.0,0.6,0.0,-0.04601001933791628,0.17426281932488205,1.3949623733230931
6.184685707092285,1.1010717688111367,[1.07660479],5.0,0.6,0.0,-0.04300026686016839,0.17697256600427963,1.3871615489412121
6.195331573486328,1.105175141862607,[1.07930079],5.0,0.6,0.0,-0.040030506359950674,0.1745617428878151,1.3746794751838476
6.20431661605835,1.1086923187638669,[1.08209603],5.0,0.6,0.0,-0.03715751169529632,0.17341106038215298,1.3680779847786977
6.213296175003052,1.1124048943818636,[1.08499856],5.0,0.6,0.0,-0.03441565447566074,0.17010810066700474,1.3605165727207194
6.225667953491211,1.1174852610170172,[1.0880237],5.0,0.6,0.0,-0.031823988531220794,0.1348556944326409,1.340635058215078
6.23430609703064,1.1210024379182773,[1.09118453],5.0,0.6,0.0,-0.0293912128445594,0.15755496279390746,1.3370912038348481
6.243226766586304,1.1249104122530105,[1.09447598],5.0,0.6,0.0,-0.027119132647233625,0.15238160687923322,1.3308952532499045
6.251320123672485,1.1280367917207974,[1.09789365],5.0,0.6,0.0,-0.025005062043165716,0.14957858448716357,1.333832840839058
6.259415626525879,1.1315539686220573,[1.10143304],5.0,0.6,0.0,0.25299487648032126,0.15554538347908936,1.3340089573548648
6.269002676010132,1.1354619429567907,[1.10508133],5.0,0.6,0.0,0.28793577795787517,0.1538566292222777,1.3313781683955992
6.278758764266968,1.1391745185747875,[1.10883601],5.0,0.6,0.0,0.23451766889047554,0.14810372362588267,1.3318241158217037
6.287754535675049,1.1426916954760478,[1.11270337],5.0,0.6,0.0,0.15998318712368104,0.14143747907665496,1.3353681642493995
6.2963707447052,1.1462088723773076,[1.11667917],5.0,0.6,0.0,0.09089098663791478,0.15900231017406655,1.339954122686805
6.30662202835083,1.1505076441455144,[1.12075927],5.0,0.6,0.0,0.03558802697728039,0.10603551439974916,1.3377845717896926
6.315293550491333,1.1542202197635112,[1.12494855],5.0,0.6,0.0,-0.005194291125858536,0.1537097809748992,1.342513013689658
6.324010372161865,1.1577373966647713,[1.12924079],5.0,0.6,0.0,-0.03348999071441382,0.1476700625832686,1.3500906497509586
6.334390640258789,1.1616453709995045,[1.13363897],5.0,0.6,0.0,-0.051986936330824685,0.06834291570992665,1.3548117511654159
6.343608617782593,1.1655533453342382,[1.13815353],5.0,0.6,0.0,-0.06319042026516045,0.14869457607589892,1.3605759320250788
6.352717876434326,1.1692659209522347,[1.14277295],5.0,0.6,0.0,-0.06915846254719227,0.1450147309158732,1.3690283353764876
6.361603736877441,1.172587699136758,[1.14748566],5.0,0.6,0.0,-0.34751522271167296,0.14588251454734424,1.3815051469440829
6.371601819992065,1.1770818696217016,[1.15228919],5.0,0.6,0.0,-0.38048482325184096,0.144348236384579,1.3842130394200751
6.380310535430908,1.1805990465229617,[1.15717053],5.0,0.6,0.0,-0.3236097164112864,0.18679267192102558,1.3959540818903564
6.391395330429077,1.1850932170079052,[1.16210787],5.0,0.6,0.0,-0.24472756749694233,0.18356922512630458,1.399681193688404
6.4008684158325195,1.1890011913426384,[1.16709845],5.0,0.6,0.0,-0.44684838819731326,0.1304954107626694,1.4083644491868546
6.410337686538696,1.1925183682438982,[1.1721469],5.0,0.6,0.0,-0.41964866884351437,0.1974289578616863,1.420220663686809
6.420301914215088,1.196426342578632,[1.1772379],5.0,0.6,0.0,-0.318739898243309,0.20163704208684455,1.4289311106775144
6.430316209793091,1.200529715630102,[1.1823563],5.0,0.6,0.0,-0.20944460077683705,0.20632263456674138,1.4360470662780758
6.438862085342407,1.2038514938146252,[1.18749567],5.0,0.6,0.0,-0.1157016129688445,0.21658717062490854,1.4478935190964812
6.447454452514648,1.2073686707158855,[1.19264849],5.0,0.6,0.0,-0.04338921719868504,0.22682812692616067,1.457587473545067
6.457277536392212,1.211276645050619,[1.19780638],5.0,0.6,0.0,0.008803843345329427,0.23544174554163813,1.4643608948388789
6.467947244644165,1.2157708155355622,[1.20296031],5.0,0.6,0.0,0.044496150322922014,0.2409141110175345,1.467709506235608
6.478315353393555,1.2202649860205057,[1.20810079],5.0,0.6,0.0,0.3435980822013121,0.24560690824002446,1.4707521859026698
6.489009141921997,1.2245637577887123,[1.21321804],5.0,0.6,0.0,0.39052700957573605,0.2503553929027589,1.4744699783331268
6.4973084926605225,1.2278855359732357,[1.21830219],5.0,0.6,0.0,0.3426534091837935,0.2588461856372056,1.4817121598729655
6.509303092956543,1.2327705038916528,[1.22334943],5.0,0.6,0.0,0.2692375380153645,0.25710203943717397,1.4823513473795815
6.517812490463257,1.2362876807929126,[1.22835518],5.0,0.6,0.0,0.198315220722744,0.25952033953812503,1.4874646825015452
6.526288270950317,1.2400002564109094,[1.23329673],5.0,0.6,0.0,0.13929128541510874,0.23964819786993574,1.4910383635153472
6.537307262420654,1.2446898256125896,[1.23815404],5.0,0.6,0.0,0.09364168139003486,0.2656987777471855,1.4914865544619726
6.545304298400879,1.247816205080376,[1.24292178],5.0,0.6,0.0,-0.21619002305269705,0.2461646236324379,1.495185583757488
6.554295301437378,1.2513333819816361,[1.24759014],5.0,0.6,0.0,-0.27358770003045696,0.2539506187901451,1.4971458341180326
6.562387943267822,1.254459761449423,[1.25215091],5.0,0.6,0.0,-0.23551300913832945,0.2609680994608665,1.4988931187485512
6.5716235637664795,1.2581723370674196,[1.25660293],5.0,0.6,0.0,-0.17110425095191567,0.26371222883821444,1.4994857227529304
6.579822301864624,1.2612987165352065,[1.26094088],5.0,0.6,0.0,-0.10840033614077742,0.2374389992515198,1.4999656439985591
6.590576648712158,1.2659882857368865,[1.26516117],5.0,0.6,0.0,-0.33289668035550135,0.27205737997966056,1.4997806972670618
6.600283622741699,1.26989626007162,[1.26926694],5.0,0.6,0.0,-0.3271840827328596,0.24022662112105247,1.4998411122281037
6.609309196472168,1.27341343697288,[1.2732572],5.0,0.6,0.0,-0.24450339039412353,0.2488839270489597,1.499950618554482
6.61833643913269,1.27693061387414,[1.27713254],5.0,0.6,0.0,-0.14981426241641216,0.2551793411306454,1.4999751376135464
6.62730073928833,1.2804477907754,[1.28089497],5.0,0.6,0.0,-0.0674515813296924,0.22587040024444952,1.4999566210330717
6.635282039642334,1.2837695689599238,[1.28454284],5.0,0.6,0.0,-0.003897506572492243,0.24112041709476448,1.4998804063646534
6.645029783248901,1.2880683407281304,[1.28808146],5.0,0.6,0.0,0.04157169282173431,0.2473111291367386,1.4999986791010063
6.654277801513672,1.291780916346127,[1.29152202],5.0,0.6,0.0,0.0720795541502263,0.25322343261595376,1.4999827269886603
6.662262678146362,1.295298093247387,[1.29487572],5.0,0.6,0.0,0.09110841631934566,0.2581418906357933,1.499958141960648
6.672397136688232,1.2992060675821204,[1.29815373],5.0,0.6,0.0,0.10173225595117531,0.25976791786910786,1.4997708362623494
6.681292295455933,1.302918643200117,[1.30136174],5.0,0.6,0.0,0.10641036172457613,0.22759399053399923,1.4995068970483183
6.690318584442139,1.306435820101377,[1.30450069],5.0,0.6,0.0,0.107008176757905,0.2402317891321199,1.499242811420768
6.700621128082275,1.3107345918695839,[1.30757808],5.0,0.6,0.0,0.10489445519550675,0.2448372211359161,1.4980010774023502
6.712131023406982,1.3150333636377907,[1.31061246],5.0,0.6,0.0,0.10105049248378065,0.2712262746024587,1.4960911541135016
6.720279932022095,1.318355141822314,[1.3136207],5.0,0.6,0.0,0.09616713912740012,0.24160440844437509,1.4955201538928784
6.729001998901367,1.3220677174403108,[1.31660683],5.0,0.6,0.0,0.09072293345166778,0.24528358513135765,1.4940473607601645
6.7376487255096436,1.3257802930583074,[1.31957509],5.0,0.6,0.0,0.3610822168846531,0.24695854020620578,1.4922316239001185
6.7453930377960205,1.3289066725260943,[1.32252956],5.0,0.6,0.0,0.38851061367709927,0.21817134523631995,1.4917871224372559
6.755051136016846,1.333205444294301,[1.32546844],5.0,0.6,0.0,0.3278417422166519,0.2255367737369171,1.4880191332732762
6.765603303909302,1.337504216062508,[1.32840219],5.0,0.6,0.0,0.24639853504964798,0.25170470811144674,1.483521955504705
6.773463249206543,1.3406305955302946,[1.33134564],5.0,0.6,0.0,0.17078341872625782,0.22474439606810842,1.4828840108938337
6.781266212463379,1.3437569749980813,[1.33429393],5.0,0.6,0.0,0.10936241873129701,0.19685171053815678,1.4822406961744437
6.79152250289917,1.3478603480495512,[1.33724283],5.0,0.6,0.0,0.06286956516831738,0.23595518218431874,1.4777029886547295
6.80028223991394,1.3513775249508115,[1.34020015],5.0,0.6,0.0,0.02926278215138206,0.20566735045167925,1.4753222149167218
6.813436031341553,1.3568486890194382,[1.34317207],5.0,0.6,0.0,0.005839449237677454,0.2266806086242748,1.463281081138046
6.821286201477051,1.3601704672039616,[1.34616877],5.0,0.6,0.0,-0.009924452880078406,0.22284446395864926,1.4615491789723745
6.8322625160217285,1.3642738402554317,[1.34919799],5.0,0.6,0.0,-0.020107783444554245,0.21496679751243583,1.4555611204816863
6.844163417816162,1.3687680107403752,[1.35225942],5.0,0.6,0.0,-0.026318043760268858,0.20508707525732722,1.4469516188330904
6.853872060775757,1.3726759850751085,[1.35535155],5.0,0.6,0.0,-0.02975320947082665,0.19801778218756064,1.441738257330866
6.861295700073242,1.3759977632596319,[1.35846672],5.0,0.6,0.0,-0.03128507471981477,0.16547448602726647,1.4403827702464245
6.870450019836426,1.3797103388776286,[1.36159717],5.0,0.6,0.0,-0.031537601926298564,0.19389874847663738,1.436488410556485
6.878288745880127,1.3832275157788887,[1.36474055],5.0,0.6,0.0,-0.030951750890735135,0.15918134589875607,1.4339294577184898
6.889241933822632,1.387721686263832,[1.36788885],5.0,0.6,0.0,-0.3058741924258639,0.15509418364031693,1.4242768445389626
6.899257183074951,1.3916296605985656,[1.37103417],5.0,0.6,0.0,-0.3375661902894575,0.15142975408525736,1.4185791618438104
6.908258676528931,1.3953422362165622,[1.37417372],5.0,0.6,0.0,-0.004827351734564084,0.14669836429007937,1.4142774273123027
6.918735027313232,1.3996410079847688,[1.37730406],5.0,0.6,0.0,0.10605740536389734,0.1375884695759267,1.4050209876530726
6.928295612335205,1.4035489823195024,[1.38042117],5.0,0.6,0.0,0.12316435552020327,0.12923875625667527,1.398533115452443
6.938270807266235,1.4076523553709723,[1.3835166],5.0,0.6,0.0,0.1053465590452845,0.08859182961351775,1.3900156364906007
6.948538780212402,1.411951127139179,[1.38658227],5.0,0.6,0.0,0.07840421677672595,0.11520803686436279,1.3792192771726963
6.958625078201294,1.415663702757176,[1.38961867],5.0,0.6,0.0,0.05270196519236743,0.10340467384935217,1.3731297648974023
6.966629505157471,1.4189854809416993,[1.39262537],5.0,0.6,0.0,0.03165002702703433,0.09308918741686824,1.3702524060126444
6.975071430206299,1.4225026578429594,[1.39559367],5.0,0.6,0.0,0.015715557709749625,0.05325831738153783,1.365178974374906
6.984591722488403,1.4264106321776928,[1.39851227],5.0,0.6,0.0,0.004267875839310274,0.04895280627292407,1.355846959223269
6.994779348373413,1.4301232077956894,[1.40137483],5.0,0.6,0.0,-0.003611215427983087,0.0430184383845365,1.347644584800264
7.003292083740234,1.4334449859802127,[1.40417609],5.0,0.6,0.0,-0.008800858595161878,0.008468232037701707,1.3425403294184637
7.0125510692596436,1.4371575615982095,[1.40691131],5.0,0.6,0.0,-0.2880712166477545,0.03520699243027334,1.3327337828576307
7.021295547485352,1.4404793397827331,[1.40958252],5.0,0.6,0.0,-0.5990773422638411,0.02410082056490151,1.3259293683573168
7.03173565864563,1.444582712834203,[1.41219116],5.0,0.6,0.0,-0.854022293061097,0.00878593660846848,1.3101692564871865
7.0430381298065186,1.4488814846024096,[1.41473516],5.0,0.6,0.0,-1.308266097077171,-0.007554610992993558,1.2907271705816834
7.053695440292358,1.45239866150367,[1.41721265],5.0,0.6,0.0,-1.4486402562230372,-0.020309819030718736,1.2791037283313176
7.062244176864624,1.4551342435379833,[1.4196196],5.0,0.6,0.0,-1.9959703357655891,-0.05235259485563971,1.2740874006186949
7.071897983551025,1.4584560217225064,[1.42195262],5.0,0.6,0.0,-2.270357502855041,-0.03433104496406139,1.2622338769494126
7.083639621734619,1.4615824011902934,[1.42421369],5.0,0.6,0.0,-2.9295559197105394,-0.04682897661451432,1.249976975474071
7.093771696090698,1.4645133819413436,[1.42640462],5.0,0.6,0.0,-3.276222829073089,-0.058129299753970416,1.2399961339261671
7.102462291717529,1.466662767825447,[1.42852465],5.0,0.6,0.0,-3.6931115659737905,-0.06533797364707337,1.2375374469058695
7.111445665359497,1.4690075524262869,[1.43057329],5.0,0.6,0.0,-4.28512389221766,-0.07282794520695356,1.2307214193916365
7.120300769805908,1.4707661408769173,[1.43254854],5.0,0.6,0.0,-4.769622185537122,-0.09585851768784806,1.2300301713357435
7.130788326263428,1.473110925477757,[1.43444899],5.0,0.6,0.0,-5.0,-0.07912640516984908,1.223329209685134
7.138277053833008,1.4746741152116503,[1.43627402],5.0,0.6,0.0,-5.0,-0.0758719177196298,1.2263280373096996
7.1516876220703125,1.4770188998124902,[1.43802348],5.0,0.6,0.0,-5.0,-0.052503638554368064,1.2194981099208309
7.159234523773193,1.4781912921129103,[1.43970102],5.0,0.6,0.0,-5.0,-0.08094773238632832,1.2252962134208638
7.168109178543091,1.4793636844133302,[1.44130861],5.0,0.6,0.0,-5.0,-0.08626328264279698,1.2302667748394835
7.176262855529785,1.4805360767137503,[1.44284519],5.0,0.6,0.0,-5.0,-0.10508504827683718,1.2344079522954323
7.187735080718994,1.4817084690141706,[1.44431183],5.0,0.6,0.0,-4.7510090161340806,-0.08940634462474469,1.2394857493091562
7.19556736946106,1.4826854625978536,[1.44571269],5.0,0.6,0.0,-4.0808546555767835,-0.09280300165889459,1.2485462074396327
7.203631162643433,1.4832716587480639,[1.44705043],5.0,0.6,0.0,-3.6294831200425435,-0.10690400601407934,1.2594962181271234
7.212266206741333,1.483857854898274,[1.44832507],5.0,0.6,0.0,-3.2907664484767234,-0.10306107844917939,1.2688474295870151
7.220233917236328,1.4844440510484838,[1.4495372],5.0,0.6,0.0,-3.0131916133244787,-0.11257380712144631,1.2770113595864587
7.2288312911987305,1.4846394497652204,[1.45068788],5.0,0.6,0.0,-2.495847009137761,-0.10447054940806758,1.2894875547342783
7.238288640975952,1.485030247198694,[1.45177968],5.0,0.6,0.0,-2.521718569365171,-0.09883035709477418,1.2969090603961795
7.251587390899658,1.4852256459154307,[1.45281741],5.0,0.6,0.0,-2.9633678749369725,-0.08212786180163363,1.3040422048995088
7.260206460952759,1.4852256459154307,[1.45380549],5.0,0.6,0.0,-2.591308752915788,-0.09129786345354528,1.3158513897490725
7.269076824188232,1.4852256459154307,[1.45474585],5.0,0.6,0.0,-2.2728694050373197,-0.0858455127062023,1.3266059194560014
7.278693199157715,1.485030247198694,[1.45564045],5.0,0.6,0.0,-1.7288863079906485,-0.0803768611148076,1.3391261238669
7.28672456741333,1.484834848481957,[1.45649224],5.0,0.6,0.0,-0.9188499167760696,-0.07571509213596411,1.350952897483933
7.294241905212402,1.4846394497652204,[1.45730312],5.0,0.6,0.0,-0.44206343984759183,-0.08060347103995641,1.36103178037669
7.305257797241211,1.4844440510484838,[1.45807417],5.0,0.6,0.0,0.11817025502121223,-0.07335357490428486,1.370153172474481
7.3159167766571045,1.483857854898274,[1.45880842],5.0,0.6,0.0,0.5974115089814889,-0.055976555346001156,1.3817946807536756
7.323347330093384,1.483662456181537,[1.45950964],5.0,0.6,0.0,1.2283867802876522,-0.06215863719368797,1.38875528381432
7.3342626094818115,1.483076260031327,[1.46017969],5.0,0.6,0.0,1.4975561025888944,-0.05438815496396074,1.398792368215611
7.343842267990112,1.4826854625978536,[1.46082044],5.0,0.6,0.0,1.8571494245209381,-0.04804277392848155,1.40625224890627
7.351389408111572,1.4822946651643805,[1.46143385],5.0,0.6,0.0,2.15525075007276,-0.05102776630088711,1.4131993456214857
7.3594887256622314,1.4817084690141706,[1.46202101],5.0,0.6,0.0,2.3510493919344193,-0.04199475939757301,1.4213115357426775
7.369243860244751,1.4811222728639604,[1.46258398],5.0,0.6,0.0,2.4484922349909213,-0.03401940691660345,1.429132369520642
7.378440856933594,1.4805360767137503,[1.46312551],5.0,0.6,0.0,2.7424068235102146,-0.02689058898657481,1.435608291868557
7.388244867324829,1.4799498805635405,[1.46364814],5.0,0.6,0.0,2.7347943006890647,-0.02035280261229555,1.4427018457557383
7.396250247955322,1.4793636844133302,[1.46415347],5.0,0.6,0.0,2.874757255422719,-0.022495124607700243,1.4486697856659578
7.405255317687988,1.4787774882631204,[1.46464221],5.0,0.6,0.0,3.0011494654645463,-0.01426168269665742,1.4541667308695554
7.414243221282959,1.4779958933961739,[1.46511671],5.0,0.6,0.0,3.063143582222094,0.0022814889575026778,1.460433550709986
7.427243232727051,1.477214298529227,[1.4655806],5.0,0.6,0.0,3.0558649077714994,0.007556921613301221,1.4663911316113718
7.438026666641235,1.476628102379017,[1.4660363],5.0,0.6,0.0,3.2670313234829216,0.012069788603453273,1.4699300245491111
7.448209285736084,1.4760419062288068,[1.46648521],5.0,0.6,0.0,3.469211063359548,0.016467618098554966,1.4730203363871253
7.458916425704956,1.4756511087953337,[1.46692857],5.0,0.6,0.0,3.864490769959179,0.01998824919537003,1.4739042332466634
7.46728253364563,1.475455710078597,[1.46736751],5.0,0.6,0.0,4.2004716323501725,0.022846682964990764,1.4740382701734898
7.477327346801758,1.4750649126451236,[1.46780311],5.0,0.6,0.0,4.403116243463495,0.026511697566576325,1.4752829547918538
7.485254764556885,1.474869513928387,[1.46823557],5.0,0.6,0.0,4.747525070310998,0.02096294571955402,1.474737134239864
7.493673324584961,1.474869513928387,[1.46866437],5.0,0.6,0.0,5.0,0.024842150623965227,1.4740608656062386
7.502630233764648,1.474869513928387,[1.46908985],5.0,0.6,0.0,5.0,0.028131253081924417,1.4750734181292366
7.5102057456970215,1.474869513928387,[1.46951236],5.0,0.6,0.0,5.0,0.02251484755183344,1.476008691490721
7.519061803817749,1.474869513928387,[1.46993149],5.0,0.6,0.0,4.971502072475767,0.027165532422497755,1.4770709668707362
7.528902769088745,1.474869513928387,[1.47034764],5.0,0.6,0.0,4.8313521036220894,0.030745797893182308,1.4788415679075855
7.537217855453491,1.474869513928387,[1.47076195],5.0,0.6,0.0,4.623902446299066,0.033666092603609137,1.480966267600805
7.54744029045105,1.474869513928387,[1.47117533],5.0,0.6,0.0,4.378710894824698,0.035809049063631526,1.4832036232839885
7.5562427043914795,1.474869513928387,[1.4715878],5.0,0.6,0.0,3.8393699577971487,0.029908177265851644,1.4869948855954067
7.565212965011597,1.4750649126451236,[1.4719986],5.0,0.6,0.0,3.261715257163146,0.03310089913165751,1.4902641879676573
7.576231241226196,1.4750649126451236,[1.47240785],5.0,0.6,0.0,2.4662989750036854,0.036902459691180806,1.4940815240267833
7.589083433151245,1.4752603113618603,[1.47281714],5.0,0.6,0.0,1.9983353291819625,0.04743045289141891,1.49584306804011
7.597216606140137,1.4756511087953337,[1.47322869],5.0,0.6,0.0,1.4247061413382525,0.04661514339911451,1.4973183716747904
7.605395078659058,1.4756511087953337,[1.47364293],5.0,0.6,0.0,1.1849840806363905,0.03965117046740467,1.498149585513552
7.613798379898071,1.4758465075120701,[1.47405883],5.0,0.6,0.0,1.0841074974399212,0.043256827220843994,1.498486926548777
7.6235878467559814,1.476237304945544,[1.47447648],5.0,0.6,0.0,1.0340964188382376,0.046102630737629144,1.4985846980181141
7.632510185241699,1.4764327036622804,[1.47489701],5.0,0.6,0.0,0.9975569806243354,0.04961784786524073,1.4987882214848203
7.6425182819366455,1.476628102379017,[1.47532165],5.0,0.6,0.0,0.9603272201084485,0.05364411852870815,1.4989726594213444
7.652730226516724,1.4770188998124902,[1.4757518],5.0,0.6,0.0,0.6423865439893598,0.05714204237158802,1.4993718549449406
7.660204887390137,1.477214298529227,[1.47618796],5.0,0.6,0.0,0.5627954026594746,0.050102280904698385,1.499553623476638
7.6692328453063965,1.4776050959627003,[1.4766298],5.0,0.6,0.0,0.568321583552478,0.05686173518719451,1.4995694022507458
7.678990840911865,1.4779958933961739,[1.47707847],5.0,0.6,0.0,0.5933857088289516,0.06335444910117444,1.4995696430123846
7.6881279945373535,1.4783866908296472,[1.47753646],5.0,0.6,0.0,0.6128582398884233,0.06941633476070565,1.4995759175909855
7.699217081069946,1.478972886979857,[1.47800632],5.0,0.6,0.0,0.6194761978300618,0.07435943089011275,1.4995275849268908
7.70872163772583,1.4795590831300671,[1.4784906],5.0,0.6,0.0,0.6132638568448863,0.07873530892623423,1.499491811526648
7.716277599334717,1.4797544818468038,[1.47899033],5.0,0.6,0.0,0.5967413381103193,0.069444660084153,1.499618208924352
7.7262468338012695,1.4805360767137503,[1.47950657],5.0,0.6,0.0,0.5728773246426933,0.09194668158272948,1.4995438024667922
7.734252214431763,1.4809268741472237,[1.48004177],5.0,0.6,0.0,0.5443089845341589,0.07886877724931056,1.4996228339285
7.744295120239258,1.4817084690141706,[1.48059648],5.0,0.6,0.0,0.513122128053463,0.08419486738795769,1.4995567683878355
7.754456281661987,1.482490063881117,[1.48117119],5.0,0.6,0.0,0.4808601464956188,0.08823805810498103,1.4994800799666892
7.762737512588501,1.483076260031327,[1.48176773],5.0,0.6,0.0,0.44861142940098475,0.091915979702316,1.49950781986701
7.770240306854248,1.483662456181537,[1.48238591],5.0,0.6,0.0,0.6931492622373465,0.07804706868207689,1.4993166166146163
7.781358003616333,1.4846394497652204,[1.4830238],5.0,0.6,0.0,0.6959940250870542,0.08300049158332695,1.4991176096708636
7.7916505336761475,1.4856164433489039,[1.48368266],5.0,0.6,0.0,0.8881595458372511,0.10209612812386576,1.4986655185969582
7.802941560745239,1.4867888356493237,[1.48436638],5.0,0.6,0.0,0.818078627460137,0.09783942681535127,1.4983290827701894
7.81125545501709,1.4875704305162705,[1.48507473],5.0,0.6,0.0,0.9430911463248415,0.07901256537498805,1.4980934250760294
7.824034690856934,1.4889382215334273,[1.48580551],5.0,0.6,0.0,1.0958542796412196,0.09448706164599639,1.4971460051562806
7.833247661590576,1.4899152151171104,[1.48655946],5.0,0.6,0.0,0.9393395044465497,0.08994031121629077,1.4970939196081015
7.843348264694214,1.4912830061342672,[1.48733668],5.0,0.6,0.0,0.9777413356236295,0.08361631144589163,1.496179027410548
7.852733135223389,1.4924553984346873,[1.4881352],5.0,0.6,0.0,0.7838387104226168,0.0785621334654107,1.4958169790148517
7.860308647155762,1.4934323920183705,[1.48895141],5.0,0.6,0.0,0.8186078442096336,0.05995783120444762,1.4954936271884975
7.871311664581299,1.494995581752264,[1.48978177],5.0,0.6,0.0,0.6345414951620827,0.07194839533517247,1.494278338049417
7.8812432289123535,1.496167974052684,[1.4906242],5.0,0.6,0.0,0.6834065886975824,0.051930217826422265,1.4935246181683168
7.889387845993042,1.497340366353104,[1.49147522],5.0,0.6,0.0,0.5137520002300054,0.05053433399003398,1.492947179706292
7.899525880813599,1.4987081573702605,[1.49233144],5.0,0.6,0.0,0.29980342196352366,0.04737889052288479,1.4918335584025542
7.907849073410034,1.4994897522372075,[1.49319094],5.0,0.6,0.0,0.10864476778886797,0.04616167025100003,1.4920876021402107
7.917224884033203,1.5006621445376274,[1.49405056],5.0,0.6,0.0,-0.040159123748492745,0.030166428935676504,1.4912942965385942
7.927786350250244,1.5020299355547841,[1.49490726],5.0,0.6,0.0,-0.422608492518263,0.041150015345840035,1.4897718818556909
7.937814474105835,1.503397726571941,[1.49576047],5.0,0.6,0.0,-0.5265166633017022,0.03495137696911643,1.4881959322851117
7.9467453956604,1.504570118872361,[1.4966094],5.0,0.6,0.0,-0.7907121756037586,0.029732167720045766,1.486940187216302
7.9566872119903564,1.505547112456044,[1.49745194],5.0,0.6,0.0,-1.0468345184301482,0.025512416252573354,1.4861640540160834
7.967698812484741,1.5071103021899377,[1.49828602],5.0,0.6,0.0,-1.2391320413272315,0.018673485219210292,1.4834053707210761
7.976332664489746,1.508087295773621,[1.49910879],5.0,0.6,0.0,-1.3594718583606835,0.004903645893783143,1.4826326921555328
7.984923839569092,1.509259688074041,[1.49991681],5.0,0.6,0.0,-1.4174630665693773,0.0032975272881179455,1.48120021341196
7.99444580078125,1.510432080374461,[1.500708],5.0,0.6,0.0,-1.4273501363779877,0.0006712962351508395,1.4797518676139054
8.005297899246216,1.5116044726748812,[1.50148145],5.0,0.6,0.0,-1.402740928721618,-0.0026654664099170513,1.478250895445011
8.014730215072632,1.5127768649753008,[1.50223631],5.0,0.6,0.0,-1.6309051377102808,-0.006307051209051895,1.476048324059477
8.024696588516235,1.5137538585589845,[1.5029718],5.0,0.6,0.0,-1.6015019658195557,-0.009383159107018956,1.4751120557341015
8.034368515014648,1.514535453425931,[1.50368725],5.0,0.6,0.0,-2.027607395712443,-0.011432960520468168,1.4736871113183767
8.042864322662354,1.5149262508594041,[1.50438208],5.0,0.6,0.0,-2.2190569152727972,-0.011885541957003115,1.4743573018794567
8.050196170806885,1.5155124470096146,[1.50505515],5.0,0.6,0.0,-2.547981499684992,-0.019993867222790316,1.4735568911089656
8.062307119369507,1.5160986431598242,[1.50570554],5.0,0.6,0.0,-3.104139965623615,-0.012273767249925757,1.4715067408723241
8.070209980010986,1.516294041876561,[1.50633322],5.0,0.6,0.0,-3.8665863129766174,-0.017894537011290575,1.4693457952759297
8.080329895019531,1.5166848393100343,[1.50693772],5.0,0.6,0.0,-4.228155156713581,-0.016274992018183373,1.468045781480741
8.088177919387817,1.5168802380267712,[1.50751868],5.0,0.6,0.0,-4.065167142416925,-0.014296920358617756,1.4704734102733608
8.09818983078003,1.5170756367435079,[1.50807652],5.0,0.6,0.0,-4.267534256198152,-0.012435240586391151,1.4705588693936957
8.106199502944946,1.5172710354602443,[1.50861119],5.0,0.6,0.0,-4.221847198848949,-0.016449745500420096,1.4720196379299486
8.115198135375977,1.5172710354602443,[1.5091223],5.0,0.6,0.0,-4.054305072905931,-0.012260127283344763,1.474719919304694
8.124186038970947,1.5172710354602443,[1.50961018],5.0,0.6,0.0,-3.830706957930026,-0.009174185251756964,1.4775257707134624
8.135195016860962,1.5172710354602443,[1.51007572],5.0,0.6,0.0,-3.8616123325144476,-0.0061898526114218975,1.4787207006131582
8.145552396774292,1.5172710354602443,[1.51051981],5.0,0.6,0.0,-3.094141382540053,-0.003957639570805191,1.4838494936447615
8.156227588653564,1.5172710354602443,[1.51094332],5.0,0.6,0.0,-2.7303597593197155,-0.002011722367402734,1.4865052708844773
8.165223836898804,1.5172710354602443,[1.51134711],5.0,0.6,0.0,-1.9808435712568677,-0.00046203913108602596,1.4900936736942
8.175248384475708,1.5172710354602443,[1.51173201],5.0,0.6,0.0,-1.2257588061915872,0.0009487703728009617,1.4927654268685044
8.183163404464722,1.5172710354602443,[1.51209886],5.0,0.6,0.0,-0.5976379590196158,0.0019923311179965777,1.4943982053471871
8.192176103591919,1.5170756367435079,[1.51244814],5.0,0.6,0.0,0.15346756081494545,0.00017573869146544465,1.4957088866563364
8.201206922531128,1.5170756367435079,[1.51278004],5.0,0.6,0.0,0.7996224857485131,0.002046818255093417,1.4958406325349853
8.210591316223145,1.5170756367435079,[1.51309548],5.0,0.6,0.0,1.2796184135575954,0.006720065794170518,1.4956192769710634
8.219198942184448,1.5168802380267712,[1.51339571],5.0,0.6,0.0,1.3235181373675062,0.004776789909901496,1.496272284396874
8.230576276779175,1.5168802380267712,[1.51368153],5.0,0.6,0.0,1.4788100779960616,0.009135285633580256,1.4963304837046052
8.239225387573242,1.5168802380267712,[1.51395379],5.0,0.6,0.0,1.622719122784849,0.006318949600578308,1.4963323105824209
8.248206377029419,1.5168802380267712,[1.51421275],5.0,0.6,0.0,1.7161475271299436,0.004675144949094793,1.4963903314991513
8.263253211975098,1.5168802380267712,[1.5144592],5.0,0.6,0.0,1.7549759981010369,0.013998306218974112,1.496540942808523
8.272960424423218,1.5168802380267712,[1.51469533],5.0,0.6,0.0,1.7477861690639855,0.01556017210013268,1.49677689285305
8.28127932548523,1.5168802380267712,[1.51492273],5.0,0.6,0.0,1.982209440591259,0.01312817615756557,1.4963176026191234
8.292612552642822,1.5168802380267712,[1.5151427],5.0,0.6,0.0,1.9500668359442956,0.022380797894916035,1.4965735932801376
8.303090572357178,1.5168802380267712,[1.51535776],5.0,0.6,0.0,1.814796312020813,0.026448310731975396,1.4970908474028817
8.314276218414307,1.5168802380267712,[1.51557077],5.0,0.6,0.0,1.6502424418915025,0.03160751423207321,1.4976339962110732
8.323174953460693,1.5170756367435079,[1.51578371],5.0,0.6,0.0,1.4877216603057906,0.028339596378548985,1.4980213585432134
8.334722518920898,1.5170756367435079,[1.51599902],5.0,0.6,0.0,1.3388818218087322,0.04588444718146284,1.4984355676593535
8.343183755874634,1.5170756367435079,[1.51622006],5.0,0.6,0.0,1.2066602344389552,0.04180026544024402,1.4987709149769115
8.352216482162476,1.5172710354602443,[1.51644934],5.0,0.6,0.0,1.3664702623978369,0.04971048824199669,1.4984769261270787
8.361216068267822,1.5172710354602443,[1.51668955],5.0,0.6,0.0,1.2975145623528999,0.057785369977429515,1.4986807143773049
8.370830059051514,1.517466434176981,[1.51694433],5.0,0.6,0.0,1.1524277061510406,0.06466032881984224,1.4989578285329281
8.380646228790283,1.517661832893718,[1.51721714],5.0,0.6,0.0,1.2726023475498707,0.07086421750403062,1.4987563331990665
8.390836477279663,1.518052630327191,[1.5175112],5.0,0.6,0.0,1.4400867811397482,0.0756276010088968,1.4983999788872908
8.40217900276184,1.5182480290439277,[1.51782941],5.0,0.6,0.0,1.5737018840593895,0.08051316150334183,1.4981248114147265
8.413169622421265,1.5186388264774013,[1.51817558],5.0,0.6,0.0,1.6521397703397713,0.09824841218987101,1.4979293138090726
8.42122483253479,1.518834225194138,[1.51855283],5.0,0.6,0.0,1.678081717224961,0.08383432539228594,1.4978923507183337
8.430198431015015,1.5192250226276112,[1.51896097],5.0,0.6,0.0,1.938092380788693,0.08741456475183133,1.4971977404897658
8.439188718795776,1.5198112187778212,[1.5193996],5.0,0.6,0.0,1.9247756767976587,0.08940451291738212,1.4972158795395953
8.44939136505127,1.5202020162112944,[1.51986941],5.0,0.6,0.0,2.0789187857694014,0.0915026208004104,1.49677097576872
8.46013617515564,1.5209836110782413,[1.5203706],5.0,0.6,0.0,1.9567113787026087,0.09107128479834029,1.497082853721182
8.468201875686646,1.5213744085117145,[1.52090291],5.0,0.6,0.0,1.7452579762696696,0.09223521092385548,1.497693283271598
8.477918148040771,1.5221560033786614,[1.52146563],5.0,0.6,0.0,1.8003387737545333,0.09102303117678634,1.4974977287963238
8.487122535705566,1.5227421995288712,[1.52205771],5.0,0.6,0.0,1.9091741668057538,0.0902941162958765,1.4972003480040632
8.496696472167969,1.5237191931125544,[1.5226777],5.0,0.6,0.0,1.9917297249479375,0.08724933254315495,1.496838759527693
8.507203340530396,1.5245007879795012,[1.52332383],5.0,0.6,0.0,1.7501985038243348,0.08479497875780666,1.4974479391604212
8.516223907470703,1.5254777815631846,[1.52399273],5.0,0.6,0.0,1.7052382494234308,0.06796524902662832,1.4973991036533114
8.526612043380737,1.526454775146868,[1.52468105],5.0,0.6,0.0,1.711653435650328,0.08148195351524594,1.4971948148224516
8.536747932434082,1.527627167447288,[1.52538797],5.0,0.6,0.0,1.7128527871484551,0.07554319055209484,1.4968184906502593
8.545237064361572,1.5286041610309713,[1.52611109],5.0,0.6,0.0,1.4155521699548115,0.0583819468434178,1.4972682927676777
8.55455994606018,1.5295811546146547,[1.52684552],5.0,0.6,0.0,1.3376734137484454,0.05764249612239571,1.497174148974516
8.562180042266846,1.5303627494816012,[1.52758682],5.0,0.6,0.0,1.0531550198155124,0.04517525793088658,1.4976350668999032
8.573184967041016,1.5317305404987582,[1.52833094],5.0,0.6,0.0,1.0195576568228013,0.044560047702363305,1.4969180133930104
8.581159830093384,1.5325121353657045,[1.52907531],5.0,0.6,0.0,0.7848673132008825,0.04512070933012047,1.4971820882698448
8.589169025421143,1.533489128949388,[1.52981853],5.0,0.6,0.0,0.244559427667432,0.043706326146197974,1.4972644457740854
8.599562406539917,1.534661521249808,[1.53055909],5.0,0.6,0.0,-0.018395161563504348,0.04048783720086958,1.496639413731605
8.607216358184814,1.5354431161167548,[1.53129453],5.0,0.6,0.0,-0.1418598754923859,0.028490746841412038,1.4965487894631626
8.617268562316895,1.5366155084171749,[1.53202254],5.0,0.6,0.0,-0.4712865951002936,0.03711264257623777,1.4956245032132496
8.627250671386719,1.5377879007175947,[1.53274193],5.0,0.6,0.0,-0.5227482049914556,0.02269195850703213,1.4947172014754924
8.636167764663696,1.5387648943012782,[1.53345072],5.0,0.6,0.0,-0.7446927248932897,0.021224683392128598,1.493955178431888
8.645262241363525,1.539546489168225,[1.53414705],5.0,0.6,0.0,-0.9704269703384867,0.020081451683018774,1.4934856436454869
8.65654730796814,1.5407188814686448,[1.53483081],5.0,0.6,0.0,-1.142846877130013,0.024135734733427512,1.492118779908873
8.666309833526611,1.5418912737690649,[1.53550244],5.0,0.6,0.0,-1.2516256220591035,0.017275615622966038,1.4907050027251392
8.67520546913147,1.5426728686360116,[1.53616078],5.0,0.6,0.0,-1.304224443867239,0.005763661301525719,1.4902897844507508
8.683197736740112,1.5434544635029583,[1.53680338],5.0,0.6,0.0,-1.3130888609604945,0.004212097159651377,1.489909783939376
8.691272497177124,1.5444314570866415,[1.53742824],5.0,0.6,0.0,-1.5664678538349706,-0.0053310253179822634,1.4884156392782604
8.701210975646973,1.545408450670325,[1.53803374],5.0,0.6,0.0,-1.5556025575401584,-0.006506365857527081,1.4873835334857994
8.71172571182251,1.5463854442540081,[1.53861974],5.0,0.6,0.0,-1.443047775738369,-0.0023522663683332927,1.4864634718149863
8.719196319580078,1.5469716404042184,[1.53918679],5.0,0.6,0.0,-1.5778561745155155,-0.010716232458662685,1.4861025259808738
8.727164268493652,1.5475578365544282,[1.53973377],5.0,0.6,0.0,-1.7477676475772292,-0.01692889570260326,1.485562689744064
8.737338781356812,1.5481440327046383,[1.54025977],5.0,0.6,0.0,-2.151764278584575,-0.010283317547245806,1.4842098655430975
8.745198488235474,1.5485348301381114,[1.54076523],5.0,0.6,0.0,-2.252517439537355,-0.0160492926776714,1.4842365093529442
8.75714898109436,1.548925627571585,[1.54125056],5.0,0.6,0.0,-2.761529612634414,-0.009979376894864412,1.4826430696566206
8.76516318321228,1.5493164250050584,[1.54171621],5.0,0.6,0.0,-3.272150519401883,-0.015263511579409403,1.4806067507282235
8.776443481445312,1.549511823721795,[1.54216266],5.0,0.6,0.0,-3.6470056598926104,-0.009022516615071594,1.4794524791663208
8.786190509796143,1.549511823721795,[1.54259038],5.0,0.6,0.0,-4.415234398387626,-0.012020200640260862,1.4761614777209788
8.797658205032349,1.5497072224385315,[1.54299984],5.0,0.6,0.0,-4.559106442987943,-0.006078006774943786,1.475806820354818
8.8071768283844,1.5497072224385315,[1.54339157],5.0,0.6,0.0,-4.419890666364273,-0.008842099357135685,1.4777215076029597
8.817684888839722,1.5497072224385315,[1.54376612],5.0,0.6,0.0,-3.886894561189906,-0.0030785747678302965,1.4818446827910743
8.82620620727539,1.5497072224385315,[1.54412397],5.0,0.6,0.0,-3.557766075149753,-0.005828192599353196,1.4844506906915356
8.834290266036987,1.5497072224385315,[1.54446537],5.0,0.6,0.0,-2.76204746255928,-0.003845412724290431,1.4888728387017354
8.843542575836182,1.549511823721795,[1.54479063],5.0,0.6,0.0,-1.9341287960610907,-0.0013012666371499616,1.4927750306798293
8.852778196334839,1.549511823721795,[1.54510045],5.0,0.6,0.0,-1.505975072965232,2.6292138609800583e-05,1.4944300963418875
8.860203981399536,1.549511823721795,[1.54539523],5.0,0.6,0.0,-0.9937848084788563,-0.0018976942998228837,1.495881825466577
8.87223768234253,1.549511823721795,[1.54567537],5.0,0.6,0.0,-0.2638871505367193,0.0028652158023141352,1.4970088256649348
8.881170988082886,1.5493164250050584,[1.54594166],5.0,0.6,0.0,0.4005983788955968,0.0015053068710415493,1.4976053407231735
8.893395900726318,1.5493164250050584,[1.54619484],5.0,0.6,0.0,0.6369234121301981,0.005630925955961117,1.4977511425694239
8.902821779251099,1.5493164250050584,[1.54643585],5.0,0.6,0.0,0.9588742880076695,0.005861827460796798,1.4976578674684873
8.914204359054565,1.5493164250050584,[1.54666557],5.0,0.6,0.0,1.2357195273433363,0.005894075759367072,1.4974601687345142
8.923692226409912,1.5493164250050584,[1.54688454],5.0,0.6,0.0,1.4306115219106403,0.006136537322441302,1.49729667466223
8.933597087860107,1.5493164250050584,[1.54709329],5.0,0.6,0.0,1.5449177544318193,0.006466942546713113,1.4972384609715514
8.942842721939087,1.5493164250050584,[1.54729236],5.0,0.6,0.0,1.8690565340206207,0.006491196996661885,1.496587251864098
8.950165510177612,1.5493164250050584,[1.54748206],5.0,0.6,0.0,1.9007079875563946,0.004521176249936728,1.496645180534414
8.959838390350342,1.5493164250050584,[1.54766253],5.0,0.6,0.0,1.8093562500806226,0.005475845348809247,1.4970220077795549
8.969732761383057,1.5493164250050584,[1.54783415],5.0,0.6,0.0,1.6740420402185592,0.006255505570191639,1.4974788943313921
8.978279113769531,1.5493164250050584,[1.54799751],5.0,0.6,0.0,1.530193109639284,0.006646819617164315,1.49791218115136
8.987772226333618,1.5493164250050584,[1.54815312],5.0,0.6,0.0,1.3925649784834522,0.007099993219148844,1.498287895393752
8.997172117233276,1.5493164250050584,[1.54830133],5.0,0.6,0.0,1.2663785099197788,0.005886195815436414,1.4986015550873582
9.007570505142212,1.5493164250050584,[1.54844248],5.0,0.6,0.0,1.152655143618841,0.0084128500879256,1.4988592131725926
9.016210079193115,1.5493164250050584,[1.54857724],5.0,0.6,0.0,1.0507204741202547,0.008533629616418391,1.4990695728902912
9.024292469024658,1.5493164250050584,[1.54870603],5.0,0.6,0.0,0.9593407065073152,0.0071629540240007745,1.4992408583013739
9.033886194229126,1.5493164250050584,[1.54882898],5.0,0.6,0.0,0.8772096846699244,0.007693191742092969,1.4993799940116475
9.042661190032959,1.5493164250050584,[1.54894635],5.0,0.6,0.0,0.8031351369053266,0.00836168515813207,1.4994926818575138
9.05018138885498,1.5493164250050584,[1.54905845],5.0,0.6,0.0,0.7360913162245761,0.007345692927978303,1.4995835139649794
9.059553146362305,1.5493164250050584,[1.54916545],5.0,0.6,0.0,0.6752166197994731,0.008081722988313412,1.499656171140968
9.069130659103394,1.5493164250050584,[1.54926761],5.0,0.6,0.0,0.6197919742678635,0.008538251623532054,1.499713649546545
9.078421354293823,1.5493164250050584,[1.54936531],5.0,0.6,0.0,0.5692154240837506,0.009063355646011111,1.4997583897428377
9.086387634277344,1.5493164250050584,[1.54945893],5.0,0.6,0.0,0.5229789200475089,0.009362438412179082,1.4997923813317602
9.095149040222168,1.5493164250050584,[1.54954866],5.0,0.6,0.0,0.4806490995971966,0.008408139335294355,1.4998172690585676
9.104472637176514,1.5493164250050584,[1.5496346],5.0,0.6,0.0,0.4418521079519471,0.00904927935273197,1.4998344430615198
9.115224123001099,1.549511823721795,[1.54971705],5.0,0.6,0.0,0.40626189029910165,0.009639764467630927,1.4998687289247923
9.124122381210327,1.5493164250050584,[1.54979643],5.0,0.6,0.0,0.3735912525422611,0.00952078266971294,1.4998500354629145
9.132450342178345,1.5493164250050584,[1.54987285],5.0,0.6,0.0,0.3435850456552277,0.009839570104791065,1.4998502114618835
9.143227577209473,1.549511823721795,[1.54994644],5.0,0.6,0.0,0.31601494426894505,0.009194763983959433,1.4998878876540838
9.152760982513428,1.5493164250050584,[1.55001743],5.0,0.6,0.0,0.2906754087860707,0.010322439972428907,1.4998388322740308
9.160151720046997,1.5493164250050584,[1.5500859],5.0,0.6,0.0,0.26738052236040727,0.00962173381825308,1.4998283719607601
9.168130874633789,1.5493164250050584,[1.55015189],5.0,0.6,0.0,0.24596147508371752,0.01006378726326586,1.4998153783201673
9.180043697357178,1.549511823721795,[1.55021557],5.0,0.6,0.0,0.2262645292945628,0.010313295257198192,1.4998628433009342
9.18814992904663,1.5493164250050584,[1.55027714],5.0,0.6,0.0,0.20814934553279968,0.011587768579694672,1.4997831710370224
9.198704957962036,1.5493164250050584,[1.55033657],5.0,0.6,0.0,0.19148758191219728,0.012259262830593514,1.4997645863769766
9.210134029388428,1.5493164250050584,[1.55039401],5.0,0.6,0.0,0.17616170368201708,0.012028132731135108,1.4997446880173453
9.221444845199585,1.549511823721795,[1.55044973],5.0,0.6,0.0,0.1620639569671032,0.011610318006494483,1.499804530513587
9.229117155075073,1.5493164250050584,[1.55050383],5.0,0.6,0.0,0.1490954729923329,0.012841150390611797,1.4997015067684976
9.24025297164917,1.5493164250050584,[1.55055625],5.0,0.6,0.0,0.13716547789918776,0.013119161864985577,1.499678610091447
9.251134634017944,1.5493164250050584,[1.55060713],5.0,0.6,0.0,0.12619058955883306,0.013348414750798518,1.4996550203198598
9.262147665023804,1.5493164250050584,[1.55065671],5.0,0.6,0.0,0.11609418730283813,0.012754279556927645,1.4996307604440222
9.271139144897461,1.5493164250050584,[1.55070501],5.0,0.6,0.0,0.10680584374701221,0.011752370894169162,1.4996059514276108
9.281160593032837,1.5493164250050584,[1.55075192],5.0,0.6,0.0,0.09826081024328312,0.011853481626165388,1.4995807665958418
9.29214072227478,1.5493164250050584,[1.5507975],5.0,0.6,0.0,0.09039954921911868,0.012339441691149528,1.4995552944940973
9.300597906112671,1.5493164250050584,[1.55084187],5.0,0.6,0.0,0.08316730793733576,0.01211246693619051,1.4995295619572657
9.310359954833984,1.5493164250050584,[1.55088507],5.0,0.6,0.0,0.0765137291608905,0.012033493578160621,1.4995036337154048
9.320273637771606,1.5493164250050584,[1.55092704],5.0,0.6,0.0,0.07039249492875788,0.01145081017423997,1.4994776286598386
9.330402135848999,1.5493164250050584,[1.55096774],5.0,0.6,0.0,0.064761000204854,0.012087812879258433,1.4994516572642163
9.34199857711792,1.5493164250050584,[1.55100722],5.0,0.6,0.0,0.059580053597683195,0.012033537220385115,1.49942576089707
9.350162506103516,1.5493164250050584,[1.55104548],5.0,0.6,0.0,0.05481360269629092,0.011414331040465573,1.4994000161459176
9.360371828079224,1.5493164250050584,[1.55108236],5.0,0.6,0.0,0.05042848185106816,0.011059035800931236,1.4993745988905243
9.37012505531311,1.5493164250050584,[1.55111764],5.0,0.6,0.0,0.04639418046231148,0.010331174026569724,1.4993497314234268
9.378529071807861,1.5493164250050584,[1.55115099],5.0,0.6,0.0,0.042682630036852964,0.008733773646989578,1.4993257476709971
9.388585090637207,1.5493164250050584,[1.55118172],5.0,0.6,0.0,0.039268008441971425,0.0061118623573904515,1.4993032276160698
9.398150444030762,1.5493164250050584,[1.55120876],5.0,0.6,0.0,0.0361265599322594,0.0022668893080226684,1.4992830994060882
