t_s,q_rad,q_des_rad,K,B,Kff,jerk,tau_Nm,reward
0.00531458854675293,-0.04044753436449074,[0.00276511],9.825212432529046,0.9790254919034855,1.9737818648793566,0.0,9.998999999999999,1.188344062850207
0.014235734939575195,-0.04044753436449074,[0.01336466],9.650424865058092,0.9580509838069711,1.9475637297587132,0.0,10.098989999999999,1.0603742484413385
0.024333715438842773,-0.04044753436449074,[0.03322418],9.475637297587138,0.9370764757104565,1.92134559463807,0.0,10.099989899999999,0.8377314164106249
0.03255295753479004,-0.04044753436449074,[0.06066939],9.300849730116184,0.9161019676139419,1.8951274595174268,0.0,10.099999898999998,0.6293897210096057
0.041217803955078125,-0.04044753436449074,[0.09418442],9.12606216264523,0.8951274595174274,1.8689093243967834,0.0,10.099999998989999,0.5266450360038627
0.049254417419433594,-0.04044753436449074,[0.1324035],8.951274595174274,0.8741529514209129,1.84269118927614,0.0,10.0999999999899,0.5025402423696226
0.0572819709777832,-0.04044753436449074,[0.17411076],8.77648702770332,0.8531784433243983,1.8164730541554968,0.0,-9.8980000000001,0.5001003293793685
0.0651252269744873,-0.04044753436449074,[0.2182346],8.601699460232366,0.8322039352278838,1.7902549190348536,0.0,-10.09798,0.5000015406766269
0.07323980331420898,-0.04044753436449074,[0.26383755],8.426911892761412,0.8112294271313693,1.7640367839142101,0.0,-10.099979799999998,0.5000000090737312
0.0814371109008789,-0.04044753436449074,[0.31010954],8.252124325290458,0.7902549190348547,1.7378186487935667,0.0,-10.099999797999999,0.5000000000211782
0.08930468559265137,-0.04044753436449074,[0.35635874],8.077336757819502,0.7692804109383402,1.7116005136729235,0.0,-5.100499997979999,0.5000000000000211
0.09870457649230957,-0.04044753436449074,[0.40200232],7.902549190348549,0.7483059028418256,1.6853823785522803,0.0,-5.0505049999797995,0.5
0.10611891746520996,-0.04044753436449074,[0.44655724],7.727761622877595,0.727331394745311,1.659164243431637,0.0,-5.050005049999798,0.5
0.11723160743713379,-0.04044753436449074,[0.48962932],7.55297405540664,0.7063568866487966,1.6329461083109935,0.0,-5.050000050499998,0.5
0.12529373168945312,-0.04044753436449074,[0.53090655],7.378186487935686,0.685382378552282,1.6067279731903503,0.0,-5.050000000504999,0.5
0.13439011573791504,-0.04044753436449074,[0.57014656],7.203398920464732,0.6644078704557674,1.5805098380697071,0.0,-5.050000000005049,0.5
0.14480376243591309,-0.04044753436449074,[0.60716912],7.028611352993777,0.643433362359253,1.5542917029490637,0.0,-5.05000000000005,0.5
0.15349578857421875,-0.04044753436449074,[0.64185262],6.853823785522822,0.6224588542627384,1.5280735678284203,0.0,-5.05,0.5
0.16192388534545898,-0.04044753436449074,[0.67412271],6.679036218051868,0.6014843461662238,1.501855432707777,0.0,-5.05,0.5
0.17239737510681152,-0.04044753436449074,[0.70395001],6.504248650580913,0.6,1.475637297587134,0.0,-5.05,0.5
0.1813201904296875,-0.04044753436449074,[0.73134551],6.329461083109958,0.6,1.4494191624664907,0.0,-5.05,0.5
0.1891345977783203,-0.04044753436449074,[0.75634606],6.154673515639004,0.6,1.4232010273458477,0.0,-5.05,0.5
0.2039179801940918,-0.04044753436449074,[0.77901405],5.97988594816805,0.6,1.3969828922252046,0.0,-5.05,0.5
0.21230244636535645,-0.04044753436449074,[0.79943878],5.805098380697095,0.6,1.3707647571045614,0.0,-5.05,0.5
0.22230768203735352,-0.04044753436449074,[0.81772283],5.63031081322614,0.6,1.3445466219839184,0.0,-5.05,0.5
0.2300872802734375,-0.04044753436449074,[0.83397447],5.455523245755186,0.6,1.3183284868632752,0.0,-5.05,0.5
0.24039244651794434,-0.04044753436449074,[0.84831163],5.280735678284231,0.6,1.292110351742632,0.0,-3.9176528079809634,0.5
0.24808716773986816,-0.04044753436449074,[0.86086096],5.105948110813277,0.6,1.2658922166219888,0.0,-2.7446316846425667,0.5
0.2597494125366211,-0.04044753436449074,[0.87175273],5.0,0.6,1.2396740815013456,0.0,-0.8299470740591148,0.5
0.2698657512664795,-0.04044753436449074,[0.8811207],5.0,0.6,1.2134559463807026,0.0,0.6843128596763678,0.5
0.278789758682251,-0.04044753436449074,[0.88909776],5.0,0.6,1.1872378112600595,0.0,2.3729017127144014,0.5
0.2891716957092285,-0.040056736931017405,[0.89581217],5.0,0.6,1.1610196761394163,0.0,2.8893803360874033,0.5
0.2985091209411621,-0.0381027497636507,[0.90139088],5.0,0.6,1.1348015410187733,0.8281150790360429,4.402752199002261,0.49948976954649793
0.3070979118347168,-0.03536716772933732,[0.90595598],5.0,0.6,1.10858340589813,2.583719046592454,4.101887126486319,0.4950552893095394
0.3169693946838379,-0.031849990828077254,[0.9096196],5.0,0.6,1.082365270777487,5.0,4.0360409939763215,0.4817320621239355
0.32616257667541504,-0.028332813926817187,[0.91248826],5.0,0.6,1.0561471356568437,5.0,4.0862986959663505,0.4817320621239355
0.3389134407043457,-0.02383864344187377,[0.91466662],5.0,0.6,1.0299290005362005,5.0,4.681726965895081,0.4817320621239355
0.3482480049133301,-0.019930669107140364,[0.91625429],5.0,0.6,1.0037108654155575,5.0,4.49856927149675,0.4817320621239355
0.35706663131713867,-0.01621809348914363,[0.91733896],5.0,0.6,0.9774927302949143,5.0,4.413989071721338,0.4817320621239355
0.36710572242736816,-0.012310119154410226,[0.91799709],5.0,0.6,0.9512745951742712,5.0,4.429405103400585,0.4817320621239355
0.3784372806549072,-0.008011347386203481,[0.91830324],5.0,0.6,0.9250564600536281,5.0,4.938570893457077,0.4817320621239355
0.3872063159942627,-0.004494170484943416,[0.91832724],5.0,0.6,0.898838324932985,5.0,4.282108015678092,0.4817320621239355
0.3951447010040283,-0.0013677910171566918,[0.91812755],5.0,0.6,0.8726201898123418,4.522320092366781,4.040118690248269,0.48500541874447584
0.4044818878173828,0.0027355820343133836,[0.91775658],5.0,0.6,0.8464020546916986,2.4319059792307907,4.402066427232369,0.49561681648558453
0.41210293769836426,0.005666562785363437,[0.91726094],5.0,0.6,0.8201839195710555,0.19018726166802558,4.194640359979858,0.4999730748685274
0.4230959415435791,0.009965334553570182,[0.91668173],5.0,0.6,0.7939657844504124,-2.2286839486806835,4.1911428017533865,0.49631617620944224
0.4350919723510742,0.015045701188723608,[0.91605923],5.0,0.6,0.7677476493297692,-3.9422301646772997,4.58311921463475,0.4885639505796757
0.4472944736480713,0.019735270390403698,[0.9154303],5.0,0.6,0.741529514209126,-5.0,5.151053517114854,0.4817320621239355
0.4562356472015381,0.023252447291663758,[0.91482401],5.0,0.6,0.715311379088483,-5.0,4.967371067897067,0.4817320621239355
0.4657015800476074,0.026965022909660494,[0.9142602],5.0,0.6,0.6890932439678399,-5.0,5.177266709215048,0.4817320621239355
0.4733390808105469,0.02989600366071055,[0.9137529],5.0,0.6,0.6628751088471967,-5.0,4.532684302328999,0.4817320621239355
0.4851670265197754,0.03458557286239063,[0.91331542],5.0,0.6,0.6366569737265535,-5.0,4.564829385314349,0.4817320621239355
0.49308347702026367,0.03771195233017736,[0.91296035],5.0,0.6,0.6104388386059104,-5.0,3.9367697015073415,0.4817320621239355
0.5037238597869873,0.0420107240983841,[0.91269721],5.0,0.6,0.5842207034852673,-5.0,4.2980444147135195,0.4817320621239355
0.5120820999145508,0.04552790099964417,[0.91253289],5.0,0.6,0.5580025683646241,-5.0,4.167319111392536,0.4817320621239355
0.5240144729614258,0.050412868918060925,[0.9124719],5.0,0.6,0.531784433243981,-5.0,4.672540649691639,0.4817320621239355
0.535153865814209,0.05471164068626767,[0.91251895],5.0,0.6,0.5055662981233379,-5.0,4.605407706204073,0.4817320621239355
0.5450754165649414,0.058619615021001076,[0.91267665],5.0,0.6,0.4793481630026947,-4.6647043682649585,4.77648914861264,0.4840617982958635
0.5537385940551758,0.06194139320552447,[0.91294142],5.0,0.6,0.4531300278820516,-4.42170055672173,4.341592969240642,0.48565568218571625
0.5624268054962158,0.06526317139004786,[0.91330669],5.0,0.6,0.42691189276140845,-4.477563388471475,4.370497330487668,0.48529636211987776
0.5704507827758789,0.06838955085783459,[0.91376794],5.0,0.6,0.4006937576407653,-4.289278220988761,4.1934302081105415,0.4864904512023229
0.579218864440918,0.07229752519256799,[0.91432017],5.0,0.6,0.3744756225201221,-4.006680240923076,3.9232908487258014,0.4881914529494343
0.5873229503631592,0.07561930337709137,[0.91495591],5.0,0.6,0.3482574873994789,-3.699326988527096,3.8770785037117537,0.4899159402171732
0.5966048240661621,0.07894108156161479,[0.91567016],5.0,0.6,0.3220393522788358,-3.398007732533642,4.079882175109784,0.4914782673418403
0.6080865859985352,0.08323985332982153,[0.91646025],5.0,0.6,0.2958212171581926,-3.115105989230099,4.200813930024161,0.4928283522846782
0.6175928115844727,0.0867570302310816,[0.9173232],5.0,0.6,0.2696030820375494,-2.8545047443696485,4.275317056005336,0.49397111980454833
0.6260683536529541,0.09046960584907832,[0.91825341],5.0,0.6,0.24338494691690624,-2.340306079920275,4.281246953888439,0.49593947175580333
0.6351094245910645,0.09418218146707506,[0.91924058],5.0,0.6,0.21716681179626307,-2.0901014793283523,4.159494603436479,0.49675862043316543
0.6450662612915039,0.09828555451854513,[0.92027545],5.0,0.6,0.19094867667561988,-1.9473606236589338,4.143307273914575,0.49718502825871125
0.6560008525848389,0.10258432628675188,[0.92135729],5.0,0.6,0.16473054155497668,-1.842975528947878,4.273804454517992,0.49747798186445613
0.6670925617218018,0.10727389548843196,[0.92249024],5.0,0.6,0.13851240643433352,-1.7486584509131604,4.3009630117515805,0.4977289406845698
0.675065279006958,0.11040027495621868,[0.92367238],5.0,0.6,0.11229427131369034,-1.6545196176638637,4.26869465858548,0.49796639858666575
0.6846096515655518,0.11411285057421541,[0.92489923],5.0,0.6,0.08607613619304716,-1.5584703221408773,4.377190822118306,0.4981952428510078
0.6934425830841064,0.11743462875873882,[0.9261721],5.0,0.6,0.05985800107240398,-1.4613535800494466,4.346448334490505,0.4984128167461036
0.7020654678344727,0.12114720437673555,[0.92748902],5.0,0.6,0.0336398659517608,-1.3648090581997123,4.20627252683374,0.49861532320152346
0.7140882015228271,0.1260321722951523,[0.92884547],5.0,0.6,0.0074217308311176206,-1.2704145417208812,4.184723987480325,0.49880001471923874
0.7235329151153564,0.12974474791314905,[0.93024298],5.0,0.6,0.0,-1.1794023106017577,4.160949284251309,0.498965617868346
0.7331008911132812,0.1332619248144091,[0.93168264],5.0,0.6,0.0,-1.092618671553962,4.150706983248873,0.49911211233893454
0.741631031036377,0.1365837029989325,[0.93316239],5.0,0.6,0.0,-1.010574106513495,4.142447757158635,0.4992403511449007
0.7504427433013916,0.14029627861692923,[0.93468027],5.0,0.6,0.0,-0.9335171013830077,4.132931225135795,0.49935170968905224
0.7596275806427002,0.1438134555181893,[0.93623443],5.0,0.6,0.0,-0.8615047163016565,4.124674452268021,0.49944781821783946
0.7690675258636475,0.14752603113618606,[0.9378201],5.0,0.6,0.0,-0.5184226357672083,4.086794056205517,0.4997999734234939
0.7790529727935791,0.15143400547091945,[0.93942998],5.0,0.6,0.0,-0.6990973563267067,4.085446962787669,0.4996363161622857
0.7887117862701416,0.15534197980565284,[0.94106393],5.0,0.6,0.0,-0.7296660419774821,4.11015058453406,0.49960382886138577
0.796086311340332,0.1582729605567029,[0.94272476],5.0,0.6,0.0,-0.6973365416103271,4.0729609313043245,0.49963814521198113
0.8057019710540771,0.16237633360817297,[0.94440848],5.0,0.6,0.0,-0.36649003223700527,4.067391164527613,0.49990002588047106
0.8150622844696045,0.16569811179269636,[0.94611157],5.0,0.6,0.0,-0.27402236203663727,4.064419392180864,0.4999441073872591
0.8262193202972412,0.1701922822776398,[0.94783404],5.0,0.6,0.0,-0.2725932670434543,4.054466432139568,0.4999446888227267
0.8361310958862305,0.1741002566123732,[0.94957576],5.0,0.6,0.0,-0.2974790021112884,4.046529482790842,0.49993412953965655
0.8487071990966797,0.17937602196426328,[0.95133966],5.0,0.6,0.0,-0.3225400747704827,4.059070735095347,0.4999225644463316
0.8572118282318115,0.18250240143205002,[0.95312805],5.0,0.6,0.0,-0.3390255214316286,4.017905372636595,0.4999144471852375
0.8671202659606934,0.1864103757667834,[0.95493626],5.0,0.6,0.0,-0.3455490753985427,4.011027519719688,0.49991112337704596
0.8751680850982666,0.18953675523457011,[0.95676011],5.0,0.6,0.0,-0.3434788357595176,4.007307279651663,0.4999121850417201
0.8859810829162598,0.1938355270027769,[0.9585991],5.0,0.6,0.0,-0.33491299408158753,3.997100984117974,0.4999165100099755
0.895066499710083,0.19774350133751029,[0.96045262],5.0,0.6,0.0,-0.04582576285831472,3.988048629639398,0.49999843676092154
0.9057183265686035,0.20184687438898036,[0.96231995],5.0,0.6,0.0,0.0031743313417535862,3.9777204121294933,0.4999999924991378
0.915701150894165,0.20595024744045046,[0.9642003],5.0,0.6,0.0,-0.31052010213242043,3.9674093443258087,0.4999282280172667
0.9247918128967285,0.20985822177518385,[0.96609286],5.0,0.6,0.0,-0.40163563025339877,3.9578798813453875,0.49987993429011135
0.9344956874847412,0.21376619610991726,[0.96799675],5.0,0.6,0.0,-0.12291081326587819,3.948039047628009,0.4999887544169824
0.9426600933074951,0.21708797429444063,[0.9699111],5.0,0.6,0.0,-0.052618550300569236,3.9410408543829867,0.49999793897368194
0.950096845626831,0.219823556328754,[0.97183181],5.0,0.6,0.0,-0.06216567709023096,3.9075844045797217,0.4999971232192604
0.9621868133544922,0.22451312553043412,[0.97375534],5.0,0.6,0.0,-0.09486114516581143,3.9315265375769526,0.4999933014547955
0.9717674255371094,0.22822570114843083,[0.97568185],5.0,0.6,0.0,-0.12765990645913106,3.8914852665111614,0.4999878686131903
0.9803500175476074,0.2313520806162176,[0.97760828],5.0,0.6,0.0,-0.1527282446454123,3.8923619345928513,0.4999826364766682
0.9894871711730957,0.23506465623421427,[0.97953207],5.0,0.6,0.0,-0.16871166339999216,3.888684327105845,0.4999788121110482
0.9989898204803467,0.2389726305689477,[0.98145436],5.0,0.6,0.0,-0.1767083485734407,3.8825604493115162,0.4999767560080251
1.0070888996124268,0.24209901003673442,[0.98337296],5.0,0.6,0.0,-0.17849343516790506,3.849186115587957,0.4999762840311647
1.0170600414276123,0.2462023830882045,[0.98528292],5.0,0.6,0.0,-0.17579729934495353,3.849322249520646,0.4999769950611987
1.0299291610717773,0.25128274972335796,[0.9871867],5.0,0.6,0.0,-0.1700609081178287,3.870554525058401,0.4999784718696998
1.040393590927124,0.255386122774828,[0.98909301],5.0,0.6,0.0,-0.16239473808635332,3.8569842980816293,0.49998036901659915
1.0496432781219482,0.25909869839282473,[0.99100607],5.0,0.6,0.0,-0.153615014728741,3.846071830886254,0.49998243426283245
1.061089277267456,0.2637882675945048,[0.99292622],5.0,0.6,0.0,-0.14430149446137402,3.8311615280263327,0.49998449964655123
1.072066307067871,0.26808703936271155,[0.99485703],5.0,0.6,0.0,-0.1348540425062928,3.8462630696815965,0.4999864628034146
1.0835456848144531,0.2727766085643917,[0.9968048],5.0,0.6,0.0,-0.12554023190915067,3.8247442005727907,0.4999882681248288
1.0920774936676025,0.27629378546565175,[0.99876813],5.0,0.6,0.0,-0.11653259505983887,3.7822228549623187,0.499989891257804
1.10219144821167,0.28020175980038514,[1.0007391],5.0,0.6,0.0,-0.10793660601798621,3.7770501820724762,0.49999132757755566
1.1145176887512207,0.2850867277188019,[1.00271764],5.0,0.6,0.0,-0.09981116621588165,3.794602729169849,0.49999258413671666
1.1240403652191162,0.2884085059033253,[1.00471036],5.0,0.6,0.0,-0.09218334283673851,3.7824835057936665,0.49999367429646885
1.1340956687927246,0.292707277671532,[1.00671603],5.0,0.6,0.0,-0.08505883827378198,3.737529482107159,0.4999946142867078
1.1421170234680176,0.29583365713931875,[1.00872684],5.0,0.6,0.0,-0.07842935217738725,3.737818203844719,0.49999542109174083
1.15238356590271,0.3001324289075255,[1.01074289],5.0,0.6,0.0,-0.07227771215934845,3.7597446390707656,0.4999961112163616
1.1643261909484863,0.3048219981092056,[1.012771],5.0,0.6,0.0,-0.06658141763602878,3.7415231294224016,0.49999670001992375
1.1746079921722412,0.3089253711606756,[1.0148135],5.0,0.6,0.0,-0.33735342298856014,3.727623354007405,0.4999152889381863
1.183044672012329,0.3122471493451991,[1.01686542],5.0,0.6,0.0,-0.36561493912956206,3.6887760694026075,0.4999005026929977
1.192077398300171,0.31576432624645917,[1.01891907],5.0,0.6,0.0,-0.30603101040813635,3.688501750325865,0.4999302880436872
1.2036783695220947,0.32045389544813924,[1.02097473],5.0,0.6,0.0,-0.2258094227731123,3.709573055913737,0.4999620445353731
1.214371681213379,0.3245572684996093,[1.02303941],5.0,0.6,0.0,-0.1514748975453601,3.6946480108853677,0.4999829202860664
1.2230360507965088,0.3280744454008694,[1.02511217],5.0,0.6,0.0,-0.09134186743543803,3.6540189988201246,0.4999937892542535
1.2321417331695557,0.3315916223021294,[1.02718868],5.0,0.6,0.0,-0.04611089206510058,3.6821633304777097,0.49999841724739724
1.241015911102295,0.3349134004866528,[1.02926864],5.0,0.6,0.0,-0.013718932936575487,3.6424259313594645,0.4999998598970497
1.2508296966552734,0.3388213748213862,[1.03134836],5.0,0.6,0.0,0.00854901792295179,3.6388912314162476,0.4999999455949634
1.263054370880127,0.34370634273980294,[1.03342467],5.0,0.6,0.0,0.02322353924150278,3.628788787557055,0.49999959852055614
1.273953914642334,0.3480051145080097,[1.03550163],5.0,0.6,0.0,0.03238613472644001,3.64834676838442,0.49999921922738444
1.2850520610809326,0.35249928499295313,[1.03758589],5.0,0.6,0.0,0.037644363334098256,3.629570547748287,0.49999894511253884
1.2963931560516357,0.35757965162810657,[1.03968272],5.0,0.6,0.0,0.040194590011758444,3.635505282414822,0.4999987973441742
1.304551601409912,0.3607060310958933,[1.0417929],5.0,0.6,0.0,0.040905961919152675,3.5914429432826886,0.4999987543978367
1.314218521118164,0.3646140054306266,[1.04391008],5.0,0.6,0.0,0.04039919038497661,3.5811305337979515,0.4999987850693982
1.3250510692596436,0.3685219797653601,[1.04602858],5.0,0.6,0.0,0.03911167296952863,3.5709552511974,0.4999988612747083
1.3368346691131592,0.37340694768377686,[1.04814982],5.0,0.6,0.0,0.03734804361362515,3.582571250647663,0.49999896165437113
1.346045970916748,0.37672872586830025,[1.05027472],5.0,0.6,0.0,0.035318019267203155,3.5398515987160937,0.4999990714635637
1.3560154438018799,0.38063670020303364,[1.0523974],5.0,0.6,0.0,-0.24287425555035846,3.5316074442043632,0.49995609130090873
1.3654954433441162,0.3849354719712404,[1.05451264],5.0,0.6,0.0,-0.27818139205885956,3.520851430774003,0.4999423979672127
1.3759870529174805,0.38884344630597373,[1.05661908],5.0,0.6,0.0,-0.2252329813906616,3.5114066371385886,0.49996223806448997
1.3860490322113037,0.39255602192397054,[1.05871544],5.0,0.6,0.0,-0.15122368678176962,3.502475811481038,0.49998297688920296
1.39406156539917,0.3956824013917572,[1.06080055],5.0,0.6,0.0,-0.08267986927825258,3.4962639024292383,0.4999949113330444
1.4039015769958496,0.3995903757264907,[1.06287339],5.0,0.6,0.0,-0.027927102297038528,3.4860963102693376,0.4999994194252085
1.4152283668518066,0.4042799449281707,[1.06493313],5.0,0.6,0.0,0.0123170459171376,3.472027167228682,0.4999998870672907
1.423037052154541,0.4074063243959575,[1.0669791],5.0,0.6,0.0,0.04009522617664844,3.465554440230249,0.49999880328291596
1.433368444442749,0.4122912923143742,[1.0690108],5.0,0.6,0.0,0.05810036779132688,3.4506615139904913,0.49999748716861775
1.4413774013519287,0.4150268743486876,[1.071025],5.0,0.6,0.0,0.06884040964206449,3.418243617544015,0.49999647229683086
1.4490368366241455,0.4179578550997376,[1.07301617],5.0,0.6,0.0,0.07437439650146482,3.4214296393536787,0.4999958823275512
1.4570538997650146,0.4212796332842611,[1.07497993],5.0,0.6,0.0,0.07628808339239426,3.391410743902118,0.4999956677031982
1.4657304286956787,0.42499220890225775,[1.07691291],5.0,0.6,0.0,0.07575697618349742,3.3951366067682893,0.49999572781468193
1.4750761985778809,0.42850938580351783,[1.07881563],5.0,0.6,0.0,0.07363047192988165,3.3960097983294775,0.4999959642887004
1.4850785732269287,0.43241736013825127,[1.08069188],5.0,0.6,0.0,0.07051071997290143,3.3919672026872134,0.4999962990316897
1.4943933486938477,0.43632533447298466,[1.0825452],5.0,0.6,0.0,0.0668177664876293,3.385885128819099,0.4999966765500654
1.5030112266540527,0.439647112657508,[1.08437885],5.0,0.6,0.0,0.06284009007457736,3.381233477613621,0.49999706046255693
1.5135548114776611,0.4437504857089781,[1.08619581],5.0,0.6,0.0,0.33481076999503834,3.371569725343565,0.4999165609645431
1.5225880146026611,0.44746306132697483,[1.08799878],5.0,0.6,0.0,0.3639063025514393,3.363109688398764,0.4999014303945617
1.5308599472045898,0.45058944079476154,[1.08978723],5.0,0.6,0.0,0.028862651161476405,3.329177377807077,0.4999993798755613
1.542724847793579,0.4552790099964417,[1.09156085],5.0,0.6,0.0,0.19195484384844574,3.35083735664762,0.49997257207743345
1.5550107955932617,0.46016397791485847,[1.09332541],5.0,0.6,0.0,0.20611744391274534,3.3332214696403457,0.4999683755896363
1.565190076828003,0.4642673509663285,[1.09508582],5.0,0.6,0.0,-0.10887794786537433,3.319818613211848,0.4999911756505867
1.5742852687835693,0.46876152145127187,[1.0968433],5.0,0.6,0.0,-0.19266819352579934,3.304866988945494,0.49997236784696913
1.5870158672332764,0.4732556919362153,[1.09859887],5.0,0.6,0.0,-0.18377821713854636,3.2901346899869583,0.49997485892610133
1.596008062362671,0.4767728688374754,[1.10035338],5.0,0.6,0.0,-0.14452896615982655,3.2805566114089904,0.49998445074039244
1.6070330142974854,0.48107164060568214,[1.10210755],5.0,0.6,0.0,-0.10122703885472326,3.2673206395026178,0.4999923722503913
1.6170048713684082,0.4849796149404155,[1.10386198],5.0,0.6,0.0,-0.06363279149417082,3.2561450739119766,0.4999969858329526
1.6250097751617432,0.48810599440820224,[1.10561719],5.0,0.6,0.0,-0.034255730576431956,3.249055478196272,0.4999991264801782
1.6345150470733643,0.49181857002619894,[1.10737363],5.0,0.6,0.0,-0.012695176500675602,3.2392107599303857,0.49999988002683676
1.642052412033081,0.49494494949398576,[1.10912875],5.0,0.6,0.0,0.2784426588942565,3.204330252589238,0.4999422897234587
1.6550712585449219,0.4998299174124025,[1.11088046],5.0,0.6,0.0,0.04565015888480553,3.2245199840250907,0.49999844871858856
1.6660068035125732,0.504324087897346,[1.11263291],5.0,0.6,0.0,-0.03612677635097234,3.2088691438870973,0.4999990284510775
1.6758058071136475,0.5082320622320793,[1.11438957],5.0,0.6,0.0,-0.053305560718638026,3.1963980308795725,0.49999788480316093
1.685034990310669,0.5117492391333394,[1.1161475],5.0,0.6,0.0,0.23025825493041835,3.1584874880648197,0.49996053428703713
1.693009614944458,0.5148756186011261,[1.11790124],5.0,0.6,0.0,0.27798260407367703,3.158711794513764,0.49994248025770843
1.7049925327301025,0.5195651878028061,[1.11965194],5.0,0.6,0.0,-0.03867513226274083,3.1755987400980765,0.4999988865523398
1.7130258083343506,0.5228869659873295,[1.1214034],5.0,0.6,0.0,-0.13599646895386916,3.136075951384961,0.4999862324722383
1.7230067253112793,0.526794940322063,[1.12315283],5.0,0.6,0.0,-0.14256847336039347,3.1286922184662997,0.4999848697152114
1.73577880859375,0.5318753069572164,[1.12490032],5.0,0.6,0.0,-0.11695969025374425,3.1390544303437036,0.4999898170251338
1.7490456104278564,0.5369556735923698,[1.12665375],5.0,0.6,0.0,-0.08445084607510824,3.1380887109653206,0.4999946910042273
1.7580897808074951,0.5406682492103666,[1.12841893],5.0,0.6,0.0,-0.05488345247223874,3.1142655026854857,0.499997757726689
1.7664570808410645,0.5443808248283633,[1.13019203],5.0,0.6,0.0,0.244815950369022,3.069096611858135,0.49995538645653964
1.7761199474334717,0.54809340044636,[1.13196401],5.0,0.6,0.0,0.29557882256206724,3.0568563844157706,0.49993496830697715
1.785078525543213,0.5516105773476201,[1.13372693],5.0,0.6,0.0,0.2529922402989303,3.0214558663397417,0.49995235685907974
1.792999505996704,0.5547369568154068,[1.13547385],5.0,0.6,0.0,0.18540267744729827,3.018597648711159,0.49997441251707647
1.8030273914337158,0.5586449311501402,[1.13720107],5.0,0.6,0.0,0.1203793396586467,3.009326271503627,0.4999892128702176
1.8130297660827637,0.5625529054848736,[1.13890757],5.0,0.6,0.0,0.06709220844426804,2.9980980407174043,0.4999966491931446
1.8220288753509521,0.5658746836693971,[1.14059223],5.0,0.6,0.0,0.026903584176109527,2.9882489258986435,0.49999946120106936
1.8326284885406494,0.5699780567208671,[1.14225585],5.0,0.6,0.0,-0.0017543252544827328,2.994048763401447,0.4999999977089904
1.8430509567260742,0.5738860310556004,[1.1438989],5.0,0.6,0.0,-0.021233289812518975,2.953429908167397,0.4999996643851997
1.853605031967163,0.5785756002572806,[1.14551941],5.0,0.6,0.0,-0.033800831377785175,2.956087944441991,0.4999991495259418
1.8640143871307373,0.582483574592014,[1.14711554],5.0,0.6,0.0,-0.04134945186545533,2.9171943860647276,0.49999872724258376
1.8731591701507568,0.5861961502100108,[1.14868386],5.0,0.6,0.0,-0.04535154845112341,2.9056897501536474,0.4999984689469104
1.8830132484436035,0.5902995232614808,[1.15022143],5.0,0.6,0.0,-0.04690704740762981,2.891731872155284,0.49999836211970594
1.8946750164031982,0.5949890924631609,[1.15172962],5.0,0.6,0.0,-0.04681631255694832,2.892815165064918,0.4999983684500488
1.9020345211029053,0.5979200732142109,[1.1532097],5.0,0.6,0.0,-0.045650934291231814,2.8601295510692584,0.49999844866588855
1.9127399921417236,0.6022188449824176,[1.15465935],5.0,0.6,0.0,-0.04381313150495199,2.845938618252735,0.4999985710578565
1.9218285083770752,0.6057360218836778,[1.15607681],5.0,0.6,0.0,-0.041582232974341195,2.8351068153749055,0.4999987128720207
1.9337499141693115,0.6108163885188312,[1.15746438],5.0,0.6,0.0,-0.03914964153920977,2.834027837990978,0.4999988590627493
1.9433703422546387,0.6147243628535647,[1.15882598],5.0,0.6,0.0,0.23939385801569257,2.8151831913280025,0.49995734065768993
1.9531021118164062,0.6180461410380881,[1.1601617],5.0,0.6,0.0,0.27501071909484165,2.782782719865002,0.4999437034905352
1.9619908332824707,0.621563317939348,[1.16146841],5.0,0.6,0.0,0.22233787035069494,2.7732718378719516,0.4999632025624513
1.972581386566162,0.6256666909908181,[1.16274542],5.0,0.6,0.0,-0.12746283781822304,2.760296260040127,0.4999879060382803
1.980475902557373,0.6287930704586048,[1.1639941],5.0,0.6,0.0,-0.22890866843718125,2.7509728772371695,0.4999609955450393
1.9889945983886719,0.6321148486431284,[1.16521413],5.0,0.6,0.0,0.04767574303242221,2.722836207001021,0.49999830799796463
1.998114824295044,0.6358274242611249,[1.16640386],5.0,0.6,0.0,0.11682438568027245,2.7143914454562217,0.49998984057157314
2.007875919342041,0.6397353985958584,[1.16756366],5.0,0.6,0.0,0.10463857603627666,2.7030091996219157,0.4999918494525982
2.017022132873535,0.643447974213855,[1.1686956],5.0,0.6,0.0,0.0673227136742236,2.690890725863807,0.49999662612928303
2.026592969894409,0.6477467459820617,[1.16980147],5.0,0.6,0.0,0.02819711562156887,2.674530495128743,0.4999994081443626
2.0370328426361084,0.6514593216000585,[1.17088276],5.0,0.6,0.0,-0.004415719080784123,2.6599930233277647,0.4999999854852506
2.0460803508758545,0.6547810997845819,[1.17194065],5.0,0.6,0.0,-0.028682016762000044,2.6465336225632683,0.49999938761325774
2.056137800216675,0.6590798715527887,[1.17297602],5.0,0.6,0.0,-0.04530594876181811,2.6276022838538595,0.4999984720242184
2.064077377319336,0.661815453587102,[1.1739882],5.0,0.6,0.0,-0.05576682054716883,2.602413797547472,0.49999768496565106
2.0739948749542236,0.6659188266385723,[1.1749765],5.0,0.6,0.0,-0.06158641945762174,2.6009479229209522,0.4999971765808219
2.082073211669922,0.6692406048230957,[1.17594159],5.0,0.6,0.0,-0.06406676767586009,2.5723767069962555,0.4999969445795921
2.0900325775146484,0.672562383007619,[1.1768817],5.0,0.6,0.0,-0.06423180979768306,2.5481141635880387,0.49999692881725344
2.1013243198394775,0.6770565534925623,[1.17779531],5.0,0.6,0.0,-0.3388875433143914,2.5454864474773906,0.4999145168024463
2.1119751930236816,0.6811599265440325,[1.17868464],5.0,0.6,0.0,-0.3696396798936459,2.5274525596574438,0.49989830029926885
2.120917797088623,0.6846771034452925,[1.17955166],5.0,0.6,0.0,-0.03553791647151833,2.5120299042205576,0.49999905986506415
2.13053297996521,0.6881942803465526,[1.18039705],5.0,0.6,0.0,0.07695556301975849,2.496915788812475,0.4999955915613575
2.138014316558838,0.6913206598143393,[1.18122152],5.0,0.6,0.0,-0.18024441245298478,2.4842703205626817,0.4999758164644546
2.148190498352051,0.6956194315825459,[1.18202492],5.0,0.6,0.0,-0.22941639245612905,2.45477833907001,0.49996082233461164
2.1600756645202637,0.7005043995009628,[1.18280739],5.0,0.6,0.0,-0.19950768500806476,2.4486051148886983,0.4999703712679747
2.1710569858551025,0.7048031712691696,[1.1835715],5.0,0.6,0.0,-0.14742355839570012,2.4301591199189754,0.4999838216797358
2.180887460708618,0.7087111456039029,[1.18431977],5.0,0.6,0.0,-0.09632584816801174,2.4140852831101887,0.4999930930015402
2.1918489933013916,0.712814518655373,[1.18505366],5.0,0.6,0.0,-0.054098418781416996,2.3975920932273844,0.4999978214131786
2.203003406524658,0.7171132904235799,[1.18577476],5.0,0.6,0.0,-0.02210125038377714,2.3805776416731854,0.49999963638632605
2.2116341590881348,0.7204350686081032,[1.18648481],5.0,0.6,0.0,0.0007875269844863989,2.3687904988268054,0.4999999995383237
2.2190041542053223,0.7233660493591532,[1.1871857],5.0,0.6,0.0,0.016385084417510166,2.359276354394855,0.4999998001500909
2.228545904159546,0.7272740236938866,[1.1878794],5.0,0.6,0.0,-0.24956364757259764,2.3453967781809397,0.4999536393848877
2.236971378326416,0.7304004031616733,[1.18856669],5.0,0.6,0.0,-0.27660690222931583,2.321521167108754,0.49994304813293805
2.24737811088562,0.7348945736466168,[1.18924729],5.0,0.6,0.0,-0.21826509197313088,2.3087797442778064,0.49996453827646853
2.258373737335205,0.7391933454148236,[1.189924],5.0,0.6,0.0,0.13514330601877103,2.31073207631153,0.4999864046670265
2.2664647102355957,0.742515123599347,[1.19060085],5.0,0.6,0.0,0.23875547029212746,2.2829557039184705,0.49995756786264356
2.2769789695739746,0.7466184966508169,[1.1912788],5.0,0.6,0.0,0.23938187045269563,2.2712386088757084,0.49995734492970373
2.2872426509857178,0.7507218697022872,[1.19195903],5.0,0.6,0.0,0.20385525609301897,2.258977748305717,0.49996906592974005
2.296443462371826,0.7544344453202838,[1.19264424],5.0,0.6,0.0,0.16099116471299588,2.248128075713575,0.4999807068837545
2.3070905208587646,0.7587332170884905,[1.19333696],5.0,0.6,0.0,0.12197668911814295,2.2340742861844447,0.49998892469877065
2.3159825801849365,0.7624457927064873,[1.19403961],5.0,0.6,0.0,-0.1858875397790639,2.222828305858214,0.49997427851351417
2.328596591949463,0.767330760624904,[1.19475607],5.0,0.6,0.0,-0.24355817559302761,2.2228075868955552,0.4999558436748868
2.3360023498535156,0.7702617413759542,[1.19548972],5.0,0.6,0.0,-0.20678635552249752,2.1921392349496123,0.4999681700021252
2.3440098762512207,0.7731927221270041,[1.1962384],5.0,0.6,0.0,-0.14410927420419112,2.167010363490319,0.4999845409136425
2.356646776199341,0.7780776900454209,[1.19700036],5.0,0.6,0.0,-0.08327003292420537,2.173883648527101,0.4999948384289912
2.364008903503418,0.7810086707964708,[1.19777746],5.0,0.6,0.0,-0.30962115126331224,2.145543070567031,0.4999286429436886
2.372502326965332,0.7847212464144676,[1.19856934],5.0,0.6,0.0,-0.3056870394214805,2.1368594371007634,0.4999304446536186
2.381552219390869,0.7882384233157278,[1.19937548],5.0,0.6,0.0,0.051358039440309894,2.127590097225257,0.4999980365371203
2.389070749282837,0.7911694040667778,[1.20019532],5.0,0.6,0.0,0.17761162854684326,2.101567095567836,0.4999765177736659
2.3995742797851562,0.7952727771182478,[1.20102816],5.0,0.6,0.0,-0.07260752319918623,2.1105273537261704,0.4999960756456511
2.4076590538024902,0.7983991565860346,[1.20187486],5.0,0.6,0.0,-0.11959960871098185,2.080875823994702,0.499989352158732
2.416957139968872,0.8021117322040313,[1.2027342],5.0,0.6,0.0,-0.09078888734359467,2.0710525722438446,0.4999938642254019
2.4252383708953857,0.8056289091052914,[1.2036048],5.0,0.6,0.0,-0.04195423257276425,2.060589156716439,0.499998689739456
2.4346556663513184,0.8093414847232882,[1.2044869],5.0,0.6,0.0,0.28059135481695996,2.047650945180487,0.4999413956579586
2.443997859954834,0.8132494590580216,[1.20537872],5.0,0.6,0.0,0.07454438529090072,2.016134127259108,0.4999958634836061
2.4529573917388916,0.8167666359592817,[1.20627691],5.0,0.6,0.0,0.012583363703062574,2.0082490084598463,0.4999998821309241
2.4630115032196045,0.8210654077274883,[1.20718003],5.0,0.6,0.0,0.28467797076714074,1.9944715224758458,0.4999396762685554
2.4719648361206055,0.8243871859120117,[1.20808828],5.0,0.6,0.0,0.3331860195871823,1.9843134728216134,0.4999173687493183
2.482064723968506,0.8282951602467451,[1.20900163],5.0,0.6,0.0,0.2964844351417366,1.9705370480208781,0.49993456922667784
2.4932174682617188,0.8323985332982152,[1.20991993],5.0,0.6,0.0,-0.0402775230708286,1.9555462779562103,0.4999987923766245
2.5041189193725586,0.8368927037831586,[1.21084297],5.0,0.6,0.0,0.14288590005809396,1.9382461257056143,0.4999848022672142
2.513960599899292,0.8409960768346287,[1.21177054],5.0,0.6,0.0,0.18091125510513673,1.922960809886339,0.49997563719734356
2.525653839111328,0.8456856460363087,[1.21270408],5.0,0.6,0.0,0.1628063997096144,1.921952743680023,0.4999802693675118
2.5358917713165283,0.8499844178045155,[1.21364654],5.0,0.6,0.0,0.12811386228020671,1.9017410281037492,0.4999877821862131
2.546208143234253,0.8540877908559856,[1.21459899],5.0,0.6,0.0,0.0931343070001362,1.8844070498553667,0.49999354311725097
2.5560195446014404,0.857995765190719,[1.21556095],5.0,0.6,0.0,0.06359083579128741,1.869518181017708,0.4999969898142071
2.5668234825134277,0.8622945369589258,[1.21653228],5.0,0.6,0.0,0.0406479531536511,1.8539852597362008,0.4999987700738004
2.576249599456787,0.8658117138601857,[1.21751317],5.0,0.6,0.0,0.02370183229925562,1.8433736979756141,0.4999995818312188
2.586819648742676,0.8703058843451292,[1.21850418],5.0,0.6,0.0,0.011622009713764472,1.8287434641667824,0.49999989948245155
2.597975969314575,0.8748000548300726,[1.2195082],5.0,0.6,0.0,0.0032648373455286695,1.835657033895606,0.4999999921130779
2.606964111328125,0.8783172317313327,[1.22052811],5.0,0.6,0.0,-0.0023449569509224593,1.8002391811431362,0.4999999959739869
2.615142345428467,0.8812482124823828,[1.22156264],5.0,0.6,0.0,-0.005976095108558776,1.7967516430257016,0.499999973501897
2.6259207725524902,0.8853515855338528,[1.22261116],5.0,0.6,0.0,-0.008208476598206485,1.7876252404803286,0.4999999499748963
2.637084484100342,0.8898457560187963,[1.22367798],5.0,0.6,0.0,-0.009467804238487035,1.7998470335183323,0.4999999334814273
2.646277904510498,0.8937537303535298,[1.22476713],5.0,0.6,0.0,-0.010060922636789513,1.7610418131934789,0.49999992495417844
2.654050588607788,0.8968801098213164,[1.2258752],5.0,0.6,0.0,-0.010206098091879428,1.7329899093136982,0.49999992285675654
2.6629841327667236,0.900592685439313,[1.22699712],5.0,0.6,0.0,-0.010056979405731893,1.7336673544239205,0.4999999252664958
2.6720468997955322,0.9041098623405732,[1.22813366],5.0,0.6,0.0,-0.00972074680352187,1.7327364448982194,0.4999999304189845
2.681149482727051,0.90782243795857,[1.22928822],5.0,0.6,0.0,-0.009271498753200644,1.728992590981032,0.49999993706759027
2.6904332637786865,0.9115350135765666,[1.23046398],5.0,0.6,0.0,-0.008759958873030292,1.723696771969007,0.4999999443395013
2.7020552158355713,0.9160291840615101,[1.23166386],5.0,0.6,0.0,-0.008220434094481137,1.713579054107406,0.4999999519183124
2.713029384613037,0.9205233545464535,[1.23289044],5.0,0.6,0.0,-0.007675762677394612,1.70263369768659,0.49999995949079123
2.7209861278533936,0.9238451327309769,[1.234146],5.0,0.6,0.0,-0.007140812459790114,1.6968337792927506,0.4999999663737368
2.7319746017456055,0.9281439044991837,[1.23543245],5.0,0.6,0.0,-0.006624943260279506,1.68581843886467,0.4999999736124126
2.743117570877075,0.9324426762673904,[1.23675427],5.0,0.6,0.0,-0.00613373397741543,1.7013257671591688,0.4999999810381465
2.7512292861938477,0.9353736570184404,[1.23811509],5.0,0.6,0.0,-0.005670190143646788,1.6614985282034798,0.4999999870107319
2.7589805126190186,0.9385000364862272,[1.23950888],5.0,0.6,0.0,-0.005235585631259093,1.6288068031244451,0.49999999308567594
2.7675468921661377,0.9420172133874872,[1.24092734],5.0,0.6,0.0,-0.004830047410068007,1.6307743652049758,0.4999999999874509
2.7769510746002197,0.945729789005484,[1.24236914],5.0,0.6,0.0,0.27158539945094207,1.628455788246736,0.49994511979530615
2.7875804901123047,0.949833162056954,[1.24383597],5.0,0.6,0.0,0.30505971751823413,1.6218146892919842,0.4999307608740224
2.796936273574829,0.9533503389582141,[1.24532904],5.0,0.6,0.0,-0.02575220460779154,1.6165179808470462,0.49999954569963084
2.805495023727417,0.9570629145762107,[1.2468491],5.0,0.6,0.0,-0.13466264473803086,1.6090021889676425,0.49998655201045494
2.8139328956604004,0.9607754901942076,[1.24839647],5.0,0.6,0.0,-0.14981187230409843,1.6005628344684077,0.49998335849528247
2.825969696044922,0.9654650593958877,[1.24997409],5.0,0.6,0.0,0.14594446595946903,1.6133937187593297,0.4999842378263283
2.8376407623291016,0.9697638311640945,[1.25158706],5.0,0.6,0.0,-0.06820936079884529,1.5933307302019424,0.4999966629429961
2.8449370861053467,0.9724994131984078,[1.25323014],5.0,0.6,0.0,-0.12900816160182993,1.5877652695584192,0.4999877537985508
2.8582394123077393,0.9779705772670346,[1.25489241],5.0,0.6,0.0,0.14871158572323706,1.589159750959097,0.4999837561079612
2.8689355850219727,0.9822693490352413,[1.25657335],5.0,0.6,0.0,0.20484465484639874,1.5649497535629706,0.49996905634670924
2.8799588680267334,0.986568120803448,[1.25827812],5.0,0.6,0.0,0.1765033945970993,1.5681684413591404,0.49997719673048807
2.8891139030456543,0.9900852977047081,[1.26000764],5.0,0.6,0.0,0.12422819900196247,1.5203345252104057,0.49998898155450183
2.8989486694335938,0.9941886707561782,[1.26175635],5.0,0.6,0.0,0.07268782500055174,1.5056960567260653,0.4999966716852067
2.9092485904693604,0.9982920438076482,[1.26351913],5.0,0.6,0.0,0.03030448071259556,1.4919696675072478,0.5000000923962613
2.9204020500183105,1.0027862142925916,[1.26529721],5.0,0.6,0.0,-0.0014411183615375932,1.502372298697563,0.5000010321145943
2.9281394481658936,1.006107992477115,[1.26709126],5.0,0.6,0.0,-0.023712406232292753,1.4595138737901192,0.5000007943926192
2.9380035400390625,1.0102113655285851,[1.26889574],5.0,0.6,0.0,-0.038416872325379235,1.448714587871891,0.5000004416919493
2.946981906890869,1.013923941146582,[1.27070853],5.0,0.6,0.0,-0.047429970780481986,1.4654111406446093,0.5000001989683287
2.9579591751098633,1.0182227129147887,[1.27253328],5.0,0.6,0.0,0.2237095591784043,1.445423609655854,0.4999651598212368
2.9669437408447266,1.021544491099312,[1.27436717],5.0,0.6,0.0,0.2548188504055594,1.4057097131163159,0.49995447212918753
2.975919246673584,1.025061668000572,[1.2762019],5.0,0.6,0.0,0.19966981322308433,1.4006416173293383,0.49997364728843413
2.9854846000671387,1.028578844901832,[1.27803321],5.0,0.6,0.0,0.12482787359866143,1.3945705370532784,0.49999233629660045
2.9949889183044434,1.032291420519829,[1.27986024],5.0,0.6,0.0,0.056366853433407874,1.3867169944518052,0.5000023815661445
3.0067718029022217,1.0367855910047723,[1.28168228],5.0,0.6,0.0,0.0022916809242673405,1.3742912754802048,0.5000061718568188
3.0174508094787598,1.041084362772979,[1.28349874],5.0,0.6,0.0,-0.03690446603402922,1.362473587229261,0.5000068522917064
3.0258750915527344,1.0447969383909759,[1.28530913],5.0,0.6,0.0,-0.06341944525052257,1.3531836658879146,0.5000064585870523
3.036104202270508,1.048704912725709,[1.2871131],5.0,0.6,0.0,-0.08005220905990541,1.3427811333041753,0.50000679272302
3.0444324016571045,1.0522220896269692,[1.28891039],5.0,0.6,0.0,-0.08938204787577367,1.3343105146810093,0.5000076688365824
3.052917718887329,1.0555438678114926,[1.29069811],5.0,0.6,0.0,-0.09351509089414264,1.2998740576143268,0.5000092270907498
3.0629472732543945,1.0592564434294893,[1.29247117],5.0,0.6,0.0,-0.09406730640150714,1.29809992481939,0.500012285277257
3.0712194442749023,1.0627736203307494,[1.29422821],5.0,0.6,0.0,-0.09223276682716733,1.2949638421763625,0.5000158935715086
3.082265615463257,1.0670723920989562,[1.29597379],5.0,0.6,0.0,-0.08887146143365746,1.3122042220647088,0.5000222367154754
3.090650796890259,1.0705895690002163,[1.29771193],5.0,0.6,0.0,-0.08459072793394773,1.2723229532639726,0.5000277424402763
3.0983028411865234,1.073715948468003,[1.29944059],5.0,0.6,0.0,-0.07981218921377248,1.269311909755771,0.5000327899767871
3.10593843460083,1.0768423279357897,[1.30115539],5.0,0.6,0.0,-0.07482353329890865,1.238060055845398,0.5000384489085117
3.1154067516326904,1.0803595048370498,[1.30285278],5.0,0.6,0.0,-0.06981718187159908,1.2390072127346348,0.500046513495297
3.123947858810425,1.0836812830215732,[1.3045327],5.0,0.6,0.0,-0.06491853307801485,1.2378664055820112,0.5000548626964543
3.1331870555877686,1.0870030612060964,[1.3061953],5.0,0.6,0.0,-0.060206285406268406,1.2072364142308873,0.5000644204100265
3.141928195953369,1.0905202381073567,[1.30783819],5.0,0.6,0.0,-0.05572691052857698,1.2092772721633922,0.5000767392241592
3.1507318019866943,1.0940374150086165,[1.30946226],5.0,0.6,0.0,-0.3275432386697028,1.2079564360420862,0.5000132682281145
3.1594228744506836,1.09794538934335,[1.31107123],5.0,0.6,0.0,-0.3567128022932943,1.2018164211547864,0.5000186957865795
3.1669986248016357,1.1008763700944002,[1.31266562],5.0,0.6,0.0,-0.29792733702622787,1.1719148690745156,0.500060979918202
3.1772725582122803,1.10497974314587,[1.31424603],5.0,0.6,0.0,-0.21841446281282417,1.1960473083551135,0.5001216137028328
3.1874592304229736,1.1086923187638669,[1.3158158],5.0,0.6,0.0,-0.14471383546551256,1.158557148377292,0.5001722308646649
3.196493148803711,1.1124048943818636,[1.31737515],5.0,0.6,0.0,-0.08515130477942912,1.1549146022688013,0.500218894644554
3.2049400806427,1.115726672566387,[1.31892439],5.0,0.6,0.0,-0.040436306391240545,1.1510812456702453,0.5002579953568196
3.2169673442840576,1.1206116404848039,[1.32046922],5.0,0.6,0.0,-0.008512827420111658,1.1633265362543905,0.5003392512542791
3.225228786468506,1.1239334186693273,[1.32201453],5.0,0.6,0.0,0.013328475223237555,1.123764629703619,0.5003907027359057
3.2359962463378906,1.1280367917207974,[1.32355902],5.0,0.6,0.0,0.02761352788419642,1.114612055908189,0.5004774855481261
3.245900869369507,1.1319447660555308,[1.32510161],5.0,0.6,0.0,0.03641994571057649,1.1054915303166242,0.5005735685745105
3.255950927734375,1.135852740390264,[1.32664403],5.0,0.6,0.0,0.041351984384752946,1.0954695944478772,0.5006877312566188
3.266900062561035,1.1401515121584709,[1.32818775],5.0,0.6,0.0,0.04360316181111607,1.0829252296291347,0.5008475221606188
3.280026912689209,1.145427277510361,[1.32973663],5.0,0.6,0.0,0.044040140263044134,1.0902457436299648,0.5011190483804606
3.2879483699798584,1.148358258261411,[1.33129387],5.0,0.6,0.0,0.04328143905614458,1.0512620290762544,0.5012380553071457
3.2982802391052246,1.152461631312881,[1.33285941],5.0,0.6,0.0,0.041762504959703114,1.0664329236635957,0.5014891601204648
3.3081815242767334,1.1569558017978245,[1.33443576],5.0,0.6,0.0,0.03978622329162325,1.0466016068043615,0.501835443812334
3.3158788681030273,1.1598867825488746,[1.33602227],5.0,0.6,0.0,-0.23847762513572826,1.0103148152111052,0.5019774964584707
3.325920581817627,1.1639901556003445,[1.33761292],5.0,0.6,0.0,-0.2739358476781099,1.0027559474826457,0.5023521091013421
3.3364498615264893,1.1680935286518146,[1.33920529],5.0,0.6,0.0,-0.22118636623028143,0.9940566778352788,0.5028266928680586
3.3444366455078125,1.1712199081196015,[1.34080007],5.0,0.6,0.0,-0.14740216917797608,0.9893831573537165,0.5031618795071904
3.355577230453491,1.1753232811710714,[1.3423979],5.0,0.6,0.0,-0.07909496511078143,0.9787346445721254,0.5037574153696697
3.365983009338379,1.1794266542225416,[1.34399925],5.0,0.6,0.0,-0.02458058197627342,0.9678867771775903,0.5044407613782936
3.375910997390747,1.1835300272740117,[1.34560461],5.0,0.6,0.0,0.015429747006108368,0.9567736657927965,0.5052283075660853
3.3842222690582275,1.1870472041752715,[1.34721438],5.0,0.6,0.0,0.042982651080779595,0.9483069654945285,0.5059110172327483
3.3924171924591064,1.1901735836430585,[1.34882894],5.0,0.6,0.0,0.060773420748024484,0.9416224893576902,0.506507974205687
3.4009060859680176,1.1932999631108452,[1.35044586],5.0,0.6,0.0,0.07131125585030856,0.9080246705797386,0.5071582111176712
3.4101033210754395,1.1968171400121053,[1.3520603],5.0,0.6,0.0,0.0766557222830276,0.90683968751909,0.5080617068829938
3.419919729232788,1.200529715630102,[1.35367094],5.0,0.6,0.0,0.07839260671447713,0.9022876102298714,0.5091780060181136
3.42992901802063,1.2048284873983088,[1.3552767],5.0,0.6,0.0,0.07769713041905205,0.865768632020908,0.5108092998650877
3.442063570022583,1.209908854033462,[1.35687661],5.0,0.6,0.0,0.07541820890060216,0.8853316861981745,0.5132969197052925
3.4504809379577637,1.2134260309347222,[1.3584753],5.0,0.6,0.0,0.07215739460211645,0.875033396854822,0.5148743227468865
3.4583637714385986,1.2163570116857723,[1.36007655],5.0,0.6,0.0,0.0683340768098829,0.8672374470391637,0.5160623492108569
3.466761827468872,1.2196787898702957,[1.36167796],5.0,0.6,0.0,0.06423605435154488,0.8315168067179147,0.517722398155028
3.475008726119995,1.223000568054819,[1.36327207],5.0,0.6,0.0,0.060057368605470327,0.8028570674089327,0.5195387372586706
3.48608660697937,1.2274947385397625,[1.36485519],5.0,0.6,0.0,0.05592597114930309,0.8267274206768908,0.5229673875201594
3.495706558227539,1.231207314157759,[1.36643211],5.0,0.6,0.0,0.05192365438539279,0.816597291122382,0.5258039747923507
3.504885673522949,1.234919889775756,[1.36800679],5.0,0.6,0.0,0.04810025793690746,0.8056857918413176,0.5289413483332818
3.5139169692993164,1.2386324653937526,[1.3695798],5.0,0.6,0.0,0.044483716059901666,0.7944080788796543,0.5324035854235509
3.5218842029571533,1.2417588448615395,[1.37114894],5.0,0.6,0.0,0.04108711971888786,0.7607089440300828,0.5351407039322317
3.532982349395752,1.2460576166297461,[1.37270975],5.0,0.6,0.0,0.03791365370858278,0.7538053006639753,0.5404301759600143
3.54288387298584,1.2497701922477427,[1.37426349],5.0,0.6,0.0,0.03496003036217431,0.7718520308491997,0.5450610875881394
3.5529885292053223,1.2540689640159497,[1.37581625],5.0,0.6,0.0,0.032218864425111945,0.7538929592518759,0.5515865075652233
3.5619187355041504,1.2575861409172095,[1.37736806],5.0,0.6,0.0,0.029680304928702966,0.7161015353140068,0.5567242701605511
3.5728518962860107,1.2616895139686797,[1.37891387],5.0,0.6,0.0,0.027333147351420905,0.7078672771225967,0.5640354357867815
3.5830471515655518,1.2657928870201498,[1.38045436],5.0,0.6,0.0,0.025165583363587575,0.7221662511693262,0.5721175897598766
3.591488838195801,1.2693100639214097,[1.38199259],5.0,0.6,0.0,0.023165698668858706,0.6833159381416967,0.5789077870336091
3.5990726947784424,1.272631842105933,[1.38352619],5.0,0.6,0.0,0.021321796414471673,0.6776584778545635,0.5854763694806919
3.606912612915039,1.27575822157372,[1.38505074],5.0,0.6,0.0,0.019622600377217907,0.6472999135861943,0.591723748812224
3.617947816848755,1.2800569933419268,[1.38656257],5.0,0.6,0.0,0.01805737578445267,0.6423717051615806,0.6034476289747919
3.6279163360595703,1.2837695689599238,[1.38806119],5.0,0.6,0.0,0.01661599416001803,0.6377716904314084,0.6135683769926497
3.6389174461364746,1.2880683407281304,[1.38954883],5.0,0.6,0.0,0.015288960550138177,0.6284200699740241,0.6274973799971699
3.6469171047210693,1.2913901189126538,[1.39102759],5.0,0.6,0.0,0.014067415860197168,0.6226261569373207,0.6373083293597761
3.6579105854034424,1.2954934919641234,[1.39249943],5.0,0.6,0.0,0.012943123103179615,0.6121943845991206,0.6522804659948367
3.6679086685180664,1.2995968650155938,[1.39396622],5.0,0.6,0.0,0.011908443615265166,0.6012768862364453,0.6684501104386402
3.6769003868103027,1.302918643200117,[1.39542975],5.0,0.6,0.0,0.010956307379262531,0.593936759164568,0.68056554118336
3.6891231536865234,1.307803611118534,[1.39689433],5.0,0.6,0.0,0.01008018026664819,0.6035028738896812,0.7044500154686097
3.6968984603881836,1.3109299905863208,[1.39836382],5.0,0.6,0.0,0.00927403008000514,0.5650582186673747,0.7167663758936205
3.7068870067596436,1.3146425662043173,[1.39983646],5.0,0.6,0.0,0.008532292638023627,0.5578049135423362,0.7341952122576895
3.7162671089172363,1.318355141822314,[1.40131102],5.0,0.6,0.0,0.007849838702139999,0.5503656553795808,0.7525020788335006
3.7289657592773438,1.3234355084574676,[1.40279198],5.0,0.6,0.0,0.00722194223863875,0.5612704445057322,0.7837987340068109
3.736905574798584,1.3265618879252543,[1.40428334],5.0,0.6,0.0,0.006644250302402896,0.522886433244491,0.7987569885230159
3.7478981018066406,1.330860659693461,[1.40578325],5.0,0.6,0.0,0.006112754688165838,0.5139590372548912,0.8254068540826633
3.7572009563446045,1.3345732353114577,[1.40729039],5.0,0.6,0.0,0.005623765400142713,0.507471903749201,0.8473032698103744
3.767881393432617,1.3386766083629278,[1.40880656],5.0,0.6,0.0,0.005173885929063172,0.49848884478459654,0.873946699406881
3.77711820602417,1.3425845826976612,[1.41033351],5.0,0.6,0.0,0.0047599902873058896,0.4901514443240382,0.8993234822374092
3.784940242767334,1.3455155634487113,[1.41187291],5.0,0.6,0.0,0.004379201727166519,0.4863539296025476,0.9145094266792477
3.794431447982788,1.3494235377834447,[1.41342632],5.0,0.6,0.0,0.004028873052981951,0.47746984984029184,0.940752773025698
3.802919864654541,1.3525499172512316,[1.41499215],5.0,0.6,0.0,0.003706568433560758,0.44375514669989313,0.9584947189855504
3.8111624717712402,1.3560670941524915,[1.41656619],5.0,0.6,0.0,0.003410046616254009,0.4448639324573123,0.9809326042463604
3.8218607902526855,1.3601704672039616,[1.41814798],5.0,0.6,0.0,0.0031372454471013623,0.4406588174605235,1.0105440790870133
3.8329315185546875,1.3644692389721682,[1.41974026],5.0,0.6,0.0,0.0028862676034181276,0.4336481613826363,1.0428202064868786
3.8433923721313477,1.3683772133069014,[1.42134863],5.0,0.6,0.0,0.0026553674496681183,0.4550421820254166,1.070527305413515
3.8513965606689453,1.3713081940579517,[1.42297784],5.0,0.6,0.0,0.0024429389318331393,0.4160230465565227,1.0862842669768362
3.861952066421509,1.3756069658261585,[1.42462557],5.0,0.6,0.0,0.0022475044319927627,0.40832177929299823,1.1184340364085934
3.8728737831115723,1.3799057375943653,[1.42628982],5.0,0.6,0.0,0.002067704507689109,0.3996537686712231,1.1503161696401143
3.8828988075256348,1.3838137119290987,[1.42797196],5.0,0.6,0.0,0.0019022884482203808,0.39169929572872153,1.1770634999347553
3.8931896686553955,1.3881124836973056,[1.42967625],5.0,0.6,0.0,0.0017501055832588248,0.4091793968621161,1.2078597547480006
3.9059066772460938,1.3931928503324589,[1.43141249],5.0,0.6,0.0,0.0016100972841889016,0.41228426339261975,1.2466578486680278
3.9164891242980957,1.3974916221006655,[1.43318539],5.0,0.6,0.0,0.0014812896047557641,0.36076904580859004,1.2750644642834348
3.925776481628418,1.4010087990019255,[1.43498873],5.0,0.6,0.0,0.27740114618742734,0.35036218830622007,1.29374003802938
3.93388295173645,1.4041351784697123,[1.43681672],5.0,0.6,0.0,0.3104167264787767,0.3426482808019054,1.307586271643519
3.9441182613372803,1.408433950237919,[1.43866723],5.0,0.6,0.0,0.25521916883119883,0.3292672513689159,1.332877755430305
3.9519193172454834,1.4115603297057058,[1.44053487],5.0,0.6,0.0,0.1790418866944382,0.29266503701329716,1.3454104873974457
3.962578773498535,1.415663702757176,[1.44241154],5.0,0.6,0.0,0.10843431423778555,0.288827163465075,1.3666678594816046
3.9728996753692627,1.4195716770919091,[1.4442932],5.0,0.6,0.0,0.051734415293971395,0.2831934310777979,1.3849422038328962
3.981175422668457,1.4226980565596958,[1.44617918],5.0,0.6,0.0,-0.26637340464157805,0.27949497917563093,1.395537105975499
3.990438461303711,1.4262152334609561,[1.44806858],5.0,0.6,0.0,-0.32897924881426976,0.27245105394198127,1.408825306644645
3.9988794326782227,1.4295370116454795,[1.44996026],5.0,0.6,0.0,-0.2934705954127388,0.265218635595413,1.4198989263572364
4.010205984115601,1.434031182130423,[1.45185287],5.0,0.6,0.0,-0.22959407079367272,0.2511996899659237,1.4384137387763671
4.018675327301025,1.4373529603149464,[1.45374488],5.0,0.6,0.0,-0.16596450247067882,0.24230033346255728,1.447658935229755
4.028880834579468,1.4412609346496796,[1.45563457],5.0,0.6,0.0,-0.11251249802672084,0.2302171834729852,1.459512353466219
4.040133714675903,1.4457551051346231,[1.45752016],5.0,0.6,0.0,-0.07114340001985381,0.2147839398164824,1.4726925983093824
4.0495445728302,1.4494676807526197,[1.45939978],5.0,0.6,0.0,-0.0406714057067566,0.20283553282866013,1.480462784128955
4.056976556777954,1.45239866150367,[1.46126889],5.0,0.6,0.0,-0.01900990083416057,0.16913863635517284,1.4843867116958078
4.065520763397217,1.45532964225472,[1.46312077],5.0,0.6,0.0,-0.28011130035570914,0.16871604131039192,1.4878746471802873
4.072899341583252,1.4578698255722966,[1.46494975],5.0,0.6,0.0,-0.5792917535789327,0.14253684269611683,1.4897752770492254
4.08285117149353,1.4613870024735567,[1.4667535],5.0,0.6,0.0,-0.8269378749387661,0.16716935451445827,1.4937479149348487
4.092378377914429,1.46470878065808,[1.46853494],5.0,0.6,0.0,-1.001013923880811,0.15681866702769492,1.496331024001191
4.100207805633545,1.4674443626923934,[1.47029397],5.0,0.6,0.0,-1.1063137931188263,0.12550156570710927,1.4974669975333454
4.108891487121582,1.4705707421601801,[1.47202548],5.0,0.6,0.0,-1.432223351498188,0.12261815416619354,1.4980522028748267
4.11820125579834,1.4736971216279668,[1.47372745],5.0,0.6,0.0,-2.026098093149736,0.11765703610030742,1.496953316149674
4.125859975814819,1.4758465075120701,[1.47539828],5.0,0.6,0.0,-2.5691082457832746,0.09380369344252534,1.495070600664902
4.135390281677246,1.4787774882631204,[1.47703442],5.0,0.6,0.0,-2.685700413124575,0.0939316874779745,1.4940519051111705
4.142870903015137,1.4807314754304872,[1.47863308],5.0,0.6,0.0,-2.8866434321281704,0.0743893885026595,1.4929551814866073
4.151879549026489,1.4832716587480639,[1.48019213],5.0,0.6,0.0,-3.0419285305706985,0.07859929167289002,1.4912641453673163
4.160539388656616,1.4854210446321672,[1.48171209],5.0,0.6,0.0,-3.11650446752175,0.08131754339901108,1.4900744682685065
4.168247699737549,1.487375031799534,[1.48319569],5.0,0.6,0.0,-3.1135245728415075,0.08238171579725588,1.489348293002189
4.176997661590576,1.4895244176836373,[1.48464337],5.0,0.6,0.0,-3.3248139451698795,0.060392187360003895,1.4870848664330822
4.187855958938599,1.4920646010012137,[1.48605556],5.0,0.6,0.0,-3.801093633069227,0.08149423847140388,1.4821638147657905
4.196855545043945,1.4938231894518441,[1.48743469],5.0,0.6,0.0,-4.226593938284694,0.05900806945415367,1.4787478811626755
4.20598578453064,1.4959725753359474,[1.48878103],5.0,0.6,0.0,-3.952102377668292,0.05852891896944913,1.478216922448605
4.214406251907349,1.497340366353104,[1.49009472],5.0,0.6,0.0,-3.732979963917801,0.060048515488271226,1.479288590401798
4.2218663692474365,1.4989035560869972,[1.49137602],5.0,0.6,0.0,-3.5285239145037046,0.041601496628210916,1.4795484360259337
4.229896783828735,1.5000759483874173,[1.49262349],5.0,0.6,0.0,-3.3252947968205904,0.047028257461542274,1.4807897496844047
4.239149808883667,1.5014437394045743,[1.49383763],5.0,0.6,0.0,-3.3972091056314166,0.049190988816252654,1.479978338946755
4.246881008148193,1.5024207329882575,[1.49501901],5.0,0.6,0.0,-3.2272510101529988,0.035463866693625445,1.4814094554997588
4.256886720657349,1.5035931252886776,[1.49616662],5.0,0.6,0.0,-2.9729750265125032,0.04078299731807311,1.4824936838150498
4.265190601348877,1.5041793214388874,[1.49728129],5.0,0.6,0.0,-2.9802237791360655,0.04685536434498404,1.4839605116951327
4.274015188217163,1.5049609163058342,[1.49836389],5.0,0.6,0.0,-3.0345435484885415,0.03562782725632567,1.4845256087123175
4.2833030223846436,1.505742511172781,[1.49941534],5.0,0.6,0.0,-2.7812465467902214,0.05784308799326463,1.486300186797438
4.291027307510376,1.506328707322991,[1.50043807],5.0,0.6,0.0,-2.443648416574714,0.0452746397079637,1.4886586713762981
4.298844337463379,1.5067195047564643,[1.50143301],5.0,0.6,0.0,-2.113725186718716,0.05270222179501047,1.4911113638156237
4.3095738887786865,1.5073057009066742,[1.50240124],5.0,0.6,0.0,-1.8235939862105413,0.05819642634903374,1.4927314180201887
4.319955110549927,1.5076964983401473,[1.50334539],5.0,0.6,0.0,-1.8555559790930456,0.06428596658102265,1.4936642576101606
4.327940464019775,1.5076964983401473,[1.50426671],5.0,0.6,0.0,-1.686854170171835,0.057074369841102625,1.4955363770809873
4.337562561035156,1.508087295773621,[1.50516524],5.0,0.6,0.0,-1.1893113510441746,0.06661300255528849,1.4972419530735332
4.345005750656128,1.508087295773621,[1.50604288],5.0,0.6,0.0,-0.9421814857304252,0.0772629167283029,1.4985040525854139
4.35309362411499,1.508087295773621,[1.50690316],5.0,0.6,0.0,-0.5352947284469193,0.08678254635006633,1.4995063463512222
4.362710475921631,1.508087295773621,[1.5077495],5.0,0.6,0.0,-0.14785119909167382,0.0957243491971996,1.4999609073855036
4.372893810272217,1.508087295773621,[1.50858374],5.0,0.6,0.0,0.16149155468232,0.087624558098176,1.4999312974114873
4.381374359130859,1.508087295773621,[1.50940623],5.0,0.6,0.0,0.38497283684585143,0.1004497453162877,1.4995418320622027
4.390881299972534,1.508087295773621,[1.51021928],5.0,0.6,0.0,0.8097639671763012,0.11173675289744653,1.4986034667474313
4.399993419647217,1.508087295773621,[1.51102677],5.0,0.6,0.0,1.2089493862475869,0.12162025238016066,1.4971865877683599
4.408895492553711,1.508087295773621,[1.51183064],5.0,0.6,0.0,1.785575503713618,0.11243560693701636,1.4948336656700065
4.417922496795654,1.508087295773621,[1.51263103],5.0,0.6,0.0,2.5643900173783027,0.12479084279674724,1.4910080519170343
4.426854133605957,1.508087295773621,[1.51342984],5.0,0.6,0.0,2.9535233971354264,0.13493786551833148,1.4878560542278207
4.435219049453735,1.508087295773621,[1.51423039],5.0,0.6,0.0,3.383840188533549,0.14267833608565514,1.484029472923456
4.444169044494629,1.508087295773621,[1.51503529],5.0,0.6,0.0,3.705051765852013,0.1488529803670445,1.48027655873168
4.453176498413086,1.508087295773621,[1.51584649],5.0,0.6,0.0,3.8856406433561,0.1533501948520193,1.476917439423511
4.4608659744262695,1.508087295773621,[1.5166637],5.0,0.6,0.0,3.940009437073903,0.1406850897797279,1.4739734310395636
4.471083641052246,1.508087295773621,[1.51748464],5.0,0.6,0.0,3.8961251797612637,0.14780798012608193,1.4713199360118905
4.48078465461731,1.508087295773621,[1.5183084],5.0,0.6,0.0,3.782187946749075,0.15231968112163957,1.4687865728611924
4.490621328353882,1.508087295773621,[1.51913501],5.0,0.6,0.0,3.6219554744729616,0.15442651242537908,1.4662144270549744
4.499896049499512,1.508087295773621,[1.5199636],5.0,0.6,0.0,3.4337966391926606,0.15452006307507607,1.4634842354761342
4.510773420333862,1.508087295773621,[1.52079247],5.0,0.6,0.0,3.2311901340579405,0.1531866970812893,1.4605193752666417
4.520114898681641,1.508087295773621,[1.52161915],5.0,0.6,0.0,3.0236524335970087,0.15031201544687153,1.4572807317836203
4.52944540977478,1.508087295773621,[1.52244045],5.0,0.6,0.0,2.8176752221254464,0.14654724210922485,1.4537594720583227
4.538916110992432,1.508087295773621,[1.52325262],5.0,0.6,0.0,2.61752405562256,0.14169998963245195,1.4499701303950354
4.547910928726196,1.508087295773621,[1.52405102],5.0,0.6,0.0,2.425867308567658,0.13177611130704095,1.4459474243627346
4.559199094772339,1.508087295773621,[1.52483077],5.0,0.6,0.0,2.244250138812627,0.13214224026059868,1.4417388556269137
4.566883087158203,1.508087295773621,[1.52558755],5.0,0.6,0.0,2.0734419735358602,0.124051760104019,1.4373962880514553
4.576482057571411,1.508087295773621,[1.52631694],5.0,0.6,0.0,1.913686555421252,0.11965333656132297,1.432977912924259
4.584391117095947,1.508087295773621,[1.52701444],5.0,0.6,0.0,1.764879412669575,0.11449254047477417,1.428545823436502
4.595390319824219,1.508087295773621,[1.52767594],5.0,0.6,0.0,1.626692418755547,0.10916196065400927,1.4241619509670211
4.602902173995972,1.508087295773621,[1.52829771],5.0,0.6,0.0,1.4986603325858403,0.10646677943152155,1.4198864906767874
4.610856771469116,1.508087295773621,[1.52887655],5.0,0.6,0.0,1.3802402990910188,0.1010815594659095,1.4157757626680696
4.621990203857422,1.508087295773621,[1.52940934],5.0,0.6,0.0,1.270852269332436,0.09559889956322144,1.4118845294923221
4.631472110748291,1.508087295773621,[1.52989307],5.0,0.6,0.0,1.1699060431990636,0.09009306049908739,1.4082657228351794
4.643299579620361,1.508087295773621,[1.530325],5.0,0.6,0.0,1.0768189882799608,0.08479949376980653,1.4049680399223954
4.651883363723755,1.508087295773621,[1.53070282],5.0,0.6,0.0,0.9910272990671216,0.07962350212904824,1.4020349937564647
4.66216778755188,1.508087295773621,[1.53102381],5.0,0.6,0.0,0.9119928109733328,0.0661399791538371,1.3995106879894743
4.674295902252197,1.508087295773621,[1.53128498],5.0,0.6,0.0,0.8392067806460212,0.063355137879636,1.3974388932800783
4.685154676437378,1.508087295773621,[1.53148475],5.0,0.6,0.0,0.7721916181139483,0.060083138807433975,1.395849100616949
4.6941797733306885,1.508087295773621,[1.53162271],5.0,0.6,0.0,0.7105012564756719,0.05615069085237758,1.394757168910528
4.70386004447937,1.508087295773621,[1.53169878],5.0,0.6,0.0,0.6537206343587605,0.051778571936178124,1.3941729837724912
4.712980508804321,1.508087295773621,[1.53171423],5.0,0.6,0.0,0.6014646189576387,0.059241510722298656,1.3940912587487673
4.724762916564941,1.508087295773621,[1.53167028],5.0,0.6,0.0,0.5533765944177205,0.03747447144731121,1.3945037893866112
4.733927488327026,1.508087295773621,[1.53156705],5.0,0.6,0.0,0.5091268684646831,0.04630515028516349,1.3954085391355044
4.7443037033081055,1.5078918970568842,[1.53140462],5.0,0.6,0.0,0.46841100016612125,0.02227793395533104,1.395160669808123
4.7529706954956055,1.508087295773621,[1.53118304],5.0,0.6,0.0,0.4309481170070344,0.03189264485605265,1.3986726015650823
4.767996549606323,1.5078918970568842,[1.5309023],5.0,0.6,0.0,0.3964792654590002,0.00454120452276643,1.3994014387744502
4.777441740036011,1.5078918970568842,[1.53056051],5.0,0.6,0.0,0.3647658226983437,-0.0023030971927541504,1.4022325434655583
4.785817861557007,1.5078918970568842,[1.53015595],5.0,0.6,0.0,0.33558798581936744,-0.010101887065227255,1.405534219259808
4.795850515365601,1.5078918970568842,[1.52969065],5.0,0.6,0.0,0.30874334721146496,0.002290974116052681,1.409268201112136
4.804814338684082,1.5076964983401473,[1.52916838],5.0,0.6,0.0,0.28404555961581246,-0.010901705463116685,1.4118550828985563
4.820701360702515,1.5076964983401473,[1.52859044],5.0,0.6,0.0,-0.01471526870479234,-0.023968672059429024,1.4163915968823804
4.831138372421265,1.5075010996234108,[1.52795592],5.0,0.6,0.0,-0.06874489585477832,-0.03521117822010263,1.419722069608131
4.842215299606323,1.5073057009066742,[1.52726168],5.0,0.6,0.0,-0.032880508319070585,-0.06900252894389101,1.4234403117637067
4.85245156288147,1.5071103021899377,[1.52650033],5.0,0.6,0.0,-0.25052827526520566,-0.0952238257513157,1.4275162430578276
4.862823486328125,1.5067195047564643,[1.52566324],5.0,0.6,0.0,-0.505447540931546,-0.11459286924381534,1.4305520047862181
4.871479034423828,1.506133308606254,[1.52474843],5.0,0.6,0.0,-0.9939065578966906,-0.0829266625370777,1.4323076341216592
4.879866123199463,1.505742511172781,[1.52376242],5.0,0.6,0.0,-1.4528312828619123,-0.08476669298141581,1.4355517115968832
4.889863729476929,1.5047655175890977,[1.52270911],5.0,0.6,0.0,-1.7976162926654244,-0.10734617667978824,1.4352353456935796
4.899076461791992,1.5039839227221508,[1.52159024],5.0,0.6,0.0,-2.2946061264908924,-0.07766363774673367,1.4359820941870065
4.908340215682983,1.503202327855204,[1.52041326],5.0,0.6,0.0,-2.718642571706702,-0.07943389641437264,1.4370057942575327
4.917843818664551,1.5022253342715206,[1.51918552],5.0,0.6,0.0,-3.282035750017397,-0.07918867195426106,1.436139415397609
4.9281065464019775,1.500857543254364,[1.51791185],5.0,0.6,0.0,-3.7438726635054094,-0.07614736404609544,1.4331638427091629
4.937823534011841,1.4996851509539442,[1.51659739],5.0,0.6,0.0,-3.7642946145170466,-0.07340143622940441,1.4339630865331239
4.946824073791504,1.498121961220051,[1.51524972],5.0,0.6,0.0,-3.8695676012235545,-0.046460596715741986,1.4319930210860834
4.955893039703369,1.4969495689196308,[1.5138784],5.0,0.6,0.0,-3.6596875830562086,-0.049169954654579885,1.4344234010058692
4.965059518814087,1.4953863791857371,[1.51249024],5.0,0.6,0.0,-3.6203276094532884,-0.04725965579641349,1.4335082139064583
4.973817586898804,1.4940185881685808,[1.51108976],5.0,0.6,0.0,-3.047832834513869,-0.04481323938063514,1.4365137047560428
4.983727931976318,1.4922599997179506,[1.50968172],5.0,0.6,0.0,-2.9279453861257796,-0.03845701049722086,1.434761360687654
4.99248480796814,1.4906968099840574,[1.50827107],5.0,0.6,0.0,-2.6654024077687604,-0.03197234428540975,1.434837588187885
5.002055883407593,1.4889382215334273,[1.50686447],5.0,0.6,0.0,-2.09878432607767,-0.007478089946779983,1.434483403535401
5.011859893798828,1.4871796330827973,[1.50546835],5.0,0.6,0.0,-1.5167260847214044,-0.019984744056311402,1.4335834445910964
5.021326541900635,1.4854210446321672,[1.50408568],5.0,0.6,0.0,-1.0220864647939674,-0.00980934267289388,1.431921016926037
5.03061056137085,1.483857854898274,[1.50272085],5.0,0.6,0.0,-0.36127377149662177,0.01246187290155304,1.4312133487928438
5.039855241775513,1.4822946651643805,[1.50138079],5.0,0.6,0.0,-0.0442108347213887,0.01617561607129007,1.4297332045699624
5.050356149673462,1.4803406779970136,[1.50006902],5.0,0.6,0.0,0.37849161216178706,0.009982320917642045,1.4250044447469121
5.059167861938477,1.4787774882631204,[1.49878726],5.0,0.6,0.0,0.7503546170459572,0.030636182261466513,1.4226251898480067
5.067814588546753,1.4776050959627003,[1.49753931],5.0,0.6,0.0,1.0261890952738888,0.03223190309811717,1.4228182018398803
5.077810525894165,1.4758465075120701,[1.49632811],5.0,0.6,0.0,1.4824179275906293,0.03611830959703719,1.4178907050359926
5.088621377944946,1.4744787164949138,[1.49515456],5.0,0.6,0.0,2.168299608331381,0.03744353772735055,1.4145673227041644
5.096824645996094,1.473110925477757,[1.49401999],5.0,0.6,0.0,2.7717923916239116,0.05107428442844127,1.4105893347544107
5.106825828552246,1.471938533177337,[1.4929249],5.0,0.6,0.0,3.4768691720917593,0.033838992813353334,1.406764258329539
5.114819765090942,1.4707661408769173,[1.49186781],5.0,0.6,0.0,4.038968981296053,0.0466950889425747,1.4027969202654589
5.1235761642456055,1.4697891472932336,[1.49084792],5.0,0.6,0.0,4.3997636142291014,0.041168808279283806,1.400920825554286
5.133822202682495,1.4684213562760768,[1.48986372],5.0,0.6,0.0,4.574389836774794,0.037867012435165374,1.3968097555882761
5.143561840057373,1.4674443626923934,[1.48891186],5.0,0.6,0.0,4.877036530529468,0.033084114606401774,1.3945533721277887
5.151884317398071,1.466662767825447,[1.48799017],5.0,0.6,0.0,5.0,0.04274752529849344,1.3947757267514251
5.161841154098511,1.4656857742417637,[1.48709602],5.0,0.6,0.0,4.875607231823516,0.019212385237415208,1.3950112220756656
5.1728246212005615,1.4645133819413436,[1.4862237],5.0,0.6,0.0,4.569151336539484,0.01773870574330913,1.394737314186607
5.180811643600464,1.4639271857911336,[1.48536929],5.0,0.6,0.0,4.207467918392286,0.029952380169580694,1.3991424146799847
5.189837694168091,1.4631455909241868,[1.48453201],5.0,0.6,0.0,3.846231472310393,0.022747652918282218,1.4016915088864539
5.199840545654297,1.4623639960572403,[1.48370777],5.0,0.6,0.0,3.507619098321375,0.0005135288959176395,1.4038407582241454
5.211106061935425,1.4615824011902934,[1.48288975],5.0,0.6,0.0,3.198536597424333,0.0007024165148782733,1.4056418063733875
5.220373868942261,1.4609962050400835,[1.4820751],5.0,0.6,0.0,2.643267591985583,0.01639762760484197,1.4097959382927225
5.228781223297119,1.4604100088898735,[1.48126452],5.0,0.6,0.0,2.0825084320139124,0.010846680247272896,1.4134755017958647
5.238827705383301,1.4600192114564001,[1.48045703],5.0,0.6,0.0,1.8775739411717933,0.005613615827600001,1.417236142691561
5.247967004776001,1.45943301530619,[1.4796503],5.0,0.6,0.0,1.5275833000766323,0.0026324980601990563,1.4197703242144306
5.256793022155762,1.4590422178727167,[1.47884255],5.0,0.6,0.0,1.4550901604858462,-0.0003688218431808097,1.4230110268796525
5.266211271286011,1.4584560217225064,[1.4780325],5.0,0.6,0.0,1.1922254712971794,-0.0014030606444363164,1.4251590945825514
5.274853706359863,1.4580652242890333,[1.47722081],5.0,0.6,0.0,1.1797370881070068,0.01208253152756964,1.42820593455389
5.283799648284912,1.45767442685556,[1.47640973],5.0,0.6,0.0,0.9600474635184786,0.0066773454632831665,1.4315195711488906
5.294792652130127,1.4572836294220868,[1.4755988],5.0,0.6,0.0,0.7038594983092877,-0.010378767740730141,1.434743234844942
5.304830551147461,1.4568928319886134,[1.47478659],5.0,0.6,0.0,0.4761484668302554,0.005154062314507327,1.437801271475792
5.31279993057251,1.456697433271877,[1.47397612],5.0,0.6,0.0,0.5711966820701126,0.015009371758918106,1.4417943107544815
5.323824167251587,1.4565020345551398,[1.4731704],5.0,0.6,0.0,0.4692214939943399,-0.003486005725714416,1.4457849011382946
5.331800222396851,1.4563066358384031,[1.47236869],5.0,0.6,0.0,0.3175493978573903,-0.003678306330314079,1.4496356097592116
5.340710401535034,1.4561112371216667,[1.47157178],5.0,0.6,0.0,0.45092036249515444,0.007391987869486593,1.4531676712068795
5.35083270072937,1.45591583840493,[1.4707829],5.0,0.6,0.0,0.3692853053925967,0.003917953000443672,1.4566554115120538
5.361068964004517,1.4557204396881933,[1.47000395],5.0,0.6,0.0,0.2294975464744107,0.0014034431214689077,1.459978303443539
5.371507883071899,1.45532964225472,[1.46923572],5.0,0.6,0.0,0.09479032120835719,0.0007531851724785093,1.4620558972185687
5.380910396575928,1.4551342435379833,[1.46847908],5.0,0.6,0.0,-0.013824083275655645,-0.0002571177252166944,1.4650097242403355
5.390828371047974,1.4551342435379833,[1.46773425],5.0,0.6,0.0,-0.3692723332952598,-0.010209139738296544,1.4686452741550093
5.4006993770599365,1.45474344610451,[1.46700083],5.0,0.6,0.0,-0.7322346460740582,-0.006415437009346212,1.4699993204439308
5.409132242202759,1.45474344610451,[1.4662803],5.0,0.6,0.0,-1.0198668318804625,0.0027420986733134693,1.4729577126676712
5.4168078899383545,1.4545480473877732,[1.46557563],5.0,0.6,0.0,-0.9403158398372793,0.002021259428126618,1.4753141131912522
5.4248366355896,1.4543526486710365,[1.46488935],5.0,0.6,0.0,-1.0224011226153706,0.008650194997059827,1.4772627671341363
5.435176134109497,1.4541572499542998,[1.46422359],5.0,0.6,0.0,-1.128668268686694,0.006528029685398782,1.4789903640569628
5.442816257476807,1.4539618512375632,[1.46357955],5.0,0.6,0.0,-1.2089871977606537,0.005578147496660884,1.4805831725556873
5.450817346572876,1.4537664525208267,[1.46295822],5.0,0.6,0.0,-1.251182358064278,0.010787702476600037,1.4820802726111841
5.459808111190796,1.4537664525208267,[1.46236097],5.0,0.6,0.0,-1.2580703960693935,0.00824083677954039,1.484158623959177
5.467987775802612,1.4537664525208267,[1.46178847],5.0,0.6,0.0,-1.2371839687205854,0.00663485425443712,1.4860738327455012
5.475830316543579,1.45357105380409,[1.46124116],5.0,0.6,0.0,-1.1964763770994402,0.011070863603935208,1.4872383133841351
5.485816240310669,1.4533756550873536,[1.46071984],5.0,0.6,0.0,-1.1427630964654214,0.009834946870334016,1.488299402623325
5.496184587478638,1.4531802563706164,[1.46022431],5.0,0.6,0.0,-1.0813543501321383,0.00605511291202113,1.489255636897207
5.505106210708618,1.4529848576538797,[1.45975399],5.0,0.6,0.0,-1.0161590734454335,0.010645132103271395,1.4901095617019786
5.513896226882935,1.4527894589371433,[1.45930892],5.0,0.6,0.0,-0.9499377276740519,0.010716941421764041,1.490864069211294
5.524868488311768,1.4525940602204066,[1.45888875],5.0,0.6,0.0,-0.8845687906218811,0.008144118689987436,1.491524558663835
5.5338757038116455,1.45239866150367,[1.4584927],5.0,0.6,0.0,-0.8212796017297462,0.011771441485691656,1.4920982083124956
5.541995048522949,1.4522032627869332,[1.45812062],5.0,0.6,0.0,-0.7608296824138909,0.014467765666887586,1.49259071307414
5.550808668136597,1.4520078640701966,[1.45777214],5.0,0.6,0.0,-0.7036495363826396,0.01046601573048476,1.4930082173926762
5.561174631118774,1.4518124653534599,[1.45744585],5.0,0.6,0.0,-0.6499426906583793,0.01011058511931281,1.493358749292504
5.569301605224609,1.4516170666367234,[1.45714047],5.0,0.6,0.0,-0.5997592360326839,0.01264271811539317,1.4936492860840476
5.577077627182007,1.4514216679199867,[1.45685512],5.0,0.6,0.0,-0.5530480588872114,0.011047706469349983,1.4938852821049045
5.5851781368255615,1.4514216679199867,[1.45658872],5.0,0.6,0.0,-0.5096935020413625,0.01186982978442305,1.4944812011945936
5.593790292739868,1.4512262692032498,[1.45634001],5.0,0.6,0.0,-0.46954082070821235,0.009520604794741533,1.49461950390061
5.604877233505249,1.4510308704865131,[1.45610686],5.0,0.6,0.0,-0.43241366289494665,0.0029425951469345952,1.494720944126006
5.613265752792358,1.4506400730530398,[1.45588675],5.0,0.6,0.0,-0.39812591968486555,0.006690319885998533,1.4943916189482238
5.620880365371704,1.4504446743363033,[1.45567824],5.0,0.6,0.0,-0.6425279878293895,0.008657947336816723,1.494229701782465
5.631725311279297,1.4502492756195666,[1.45547959],5.0,0.6,0.0,-0.64648308675,-0.0010195735797947259,1.4942326738578613
5.6430487632751465,1.4500538769028297,[1.45528746],5.0,0.6,0.0,-0.5645049957445967,-0.004764618301403355,1.4942997411107426
5.650848150253296,1.4498584781860933,[1.45509899],5.0,0.6,0.0,-0.4636581949251073,-0.001788031740697081,1.4943624542544014
5.660815477371216,1.4496630794693566,[1.45491146],5.0,0.6,0.0,-0.37033266336208803,-0.016922399494195127,1.4944039702948966
5.672882080078125,1.4494676807526197,[1.45472033],5.0,0.6,0.0,-0.2927168395362767,-0.02275032349424359,1.494433352488754
5.682516813278198,1.4492722820358832,[1.45452089],5.0,0.6,0.0,-0.23139394605431493,-0.02964247647114771,1.4944657197404085
5.691319704055786,1.4488814846024096,[1.45431007],5.0,0.6,0.0,-0.1841919985519963,-0.02388339932472293,1.4940981723355014
5.7008888721466064,1.4484906871689365,[1.45408426],5.0,0.6,0.0,-0.14829506169793982,-0.048782380882200396,1.49374556496778
5.711492300033569,1.4480998897354633,[1.45383693],5.0,0.6,0.0,-0.3971175752131975,-0.05683755368925492,1.4933215170751915
5.718761920928955,1.4477090923019897,[1.45356325],5.0,0.6,0.0,-0.40953970359824,-0.04754885017230241,1.4930443770398325
5.72788143157959,1.44712289615178,[1.4532612],5.0,0.6,0.0,-0.890642946492373,-0.05962798699735893,1.491902421864552
5.737897634506226,1.4463413012848332,[1.45292675],5.0,0.6,0.0,-1.4205641767506436,-0.07028017992570418,1.4898639266730203
5.748928785324097,1.4453643077011498,[1.452554],5.0,0.6,0.0,-1.8484729950700867,-0.07952658407344612,1.487177863726992
5.756868124008179,1.444582712834203,[1.45213938],5.0,0.6,0.0,-2.4160878250023674,-0.06566778223739161,1.4843177196776096
5.766420364379883,1.4436057192505198,[1.45167906],5.0,0.6,0.0,-2.6158097594081458,-0.10463581072187143,1.4819811643743548
5.7748329639434814,1.4426287256668366,[1.45116709],5.0,0.6,0.0,-3.179810016161757,-0.08480335907742222,1.4780546305210414
5.78477668762207,1.4414563333664165,[1.45060063],5.0,0.6,0.0,-3.439751764055554,-0.09654411138572748,1.4746848704705322
5.7957751750946045,1.439893143632523,[1.4499738],5.0,0.6,0.0,-3.7871590785066926,-0.13282584839349365,1.4693177738777479
5.8061747550964355,1.4383299538986296,[1.44927569],5.0,0.6,0.0,-3.775238647022814,-0.1327271236826018,1.4658252257734374
5.814962387084961,1.4369621628814728,[1.44850269],5.0,0.6,0.0,-3.6045766995655333,-0.10500345125155389,1.4641358530373614
5.8238747119903564,1.4353989731475796,[1.4476577],5.0,0.6,0.0,-3.371970833586891,-0.11476423007145412,1.4619991741000264
5.83278751373291,1.4338357834136866,[1.44674014],5.0,0.6,0.0,-3.123150490377283,-0.1230272209622107,1.460035536763812
5.840909957885742,1.4324679923965296,[1.44574991],5.0,0.6,0.0,-2.878907144824612,-0.09852842293819836,1.4592014977074823
5.850860595703125,1.4303186065124263,[1.44469053],5.0,0.6,0.0,-2.924035302113257,-0.11019326928521268,1.453206925281937
5.860647439956665,1.427973821911586,[1.44356175],5.0,0.6,0.0,-2.742639950127911,-0.11740159988097984,1.4469970060361041
5.869832992553711,1.4262152334609561,[1.44236013],5.0,0.6,0.0,-2.7658958253107264,-0.12476009555032912,1.4435415156553795
5.879054069519043,1.4240658475768528,[1.44108297],5.0,0.6,0.0,-2.817440029453211,-0.12832429050435554,1.4378544801550839
5.887810707092285,1.422111860409486,[1.43972837],5.0,0.6,0.0,-2.5584520367015307,-0.13136917575219978,1.4349697492854876
5.897889137268066,1.4195716770919091,[1.4382952],5.0,0.6,0.0,-2.4940173304109745,-0.13070873540993358,1.4276785974439314
5.905812740325928,1.4178130886412792,[1.43678702],5.0,0.6,0.0,-2.198504808912535,-0.09985382081347499,1.4269439465955562
5.916768789291382,1.4150775066069659,[1.43520756],5.0,0.6,0.0,-1.8583505522949002,-0.13826937268847106,1.4195891600953172
5.927169561386108,1.4121465258559158,[1.43355284],5.0,0.6,0.0,-1.546150759098682,-0.1313482960546662,1.4106516305114396
5.938338756561279,1.4088247476713924,[1.43182036],5.0,0.6,0.0,-1.559754814400947,-0.12231588016587348,1.3978330981774731
5.946923732757568,1.406089165637079,[1.43001684],5.0,0.6,0.0,-1.6569658806394874,-0.08463405667419312,1.389766338276857
5.95778226852417,1.4027673874525557,[1.42814891],5.0,0.6,0.0,-1.1906679918891463,-0.11646035811260691,1.3780565749729572
5.967633008956909,1.3998364067015054,[1.42621522],5.0,0.6,0.0,-0.8932671622709705,-0.1079691431124183,1.3694879138815597
5.978464841842651,1.396514628516982,[1.42421558],5.0,0.6,0.0,-0.6960381373735217,-0.0981459648961095,1.3573672133663188
5.98577356338501,1.394169843916142,[1.42215866],5.0,0.6,0.0,-0.5601854906782162,-0.06254871641576899,1.3547485042107714
5.99639892578125,1.3906526670148822,[1.42005267],5.0,0.6,0.0,-0.18714745506928898,-0.09274531577818212,1.34121919172108
6.004209756851196,1.3879170849805686,[1.41790139],5.0,0.6,0.0,0.19363281846499086,-0.054936527769145815,1.3353995557055593
6.012786626815796,1.3851815029462553,[1.41571259],5.0,0.6,0.0,0.22619588713945557,-0.05758964253862874,1.3298790071777005
6.023202657699585,1.3814689273282585,[1.41349339],5.0,0.6,0.0,0.689808401512564,-0.05399294126031972,1.31420101359793
6.031028509140015,1.3789287440106817,[1.41125024],5.0,0.6,0.0,0.9198163991729036,-0.022171531719742132,1.310817936246497
6.0387938022613525,1.3759977632596319,[1.40899282],5.0,0.6,0.0,1.2959027857849426,-0.030250098976492792,1.3030902162995726
6.049823999404907,1.3724805863583718,[1.40672189],5.0,0.6,0.0,1.6320191667536905,-0.06216886001781271,1.2889927206777487
6.058701038360596,1.3695496056073215,[1.40443448],5.0,0.6,0.0,1.8718188635202113,-0.024473831451555454,1.2813636491782487
6.0667946338653564,1.367009422289745,[1.40213604],5.0,0.6,0.0,2.012580819225683,-0.02901080956606704,1.2783096790886828
6.076478958129883,1.3640784415386948,[1.39983146],5.0,0.6,0.0,2.346595240573462,-0.029834527222326917,1.2703262739802166
6.084810733795166,1.3609520620709084,[1.39752504],5.0,0.6,0.0,2.6512150729151056,0.004032784691329171,1.2600725585128059
6.096142530441284,1.357434885169648,[1.39522438],5.0,0.6,0.0,2.856677498576861,-0.0009931624881479376,1.2455182342007869
6.106777906417847,1.353917708268388,[1.39292859],5.0,0.6,0.0,2.9568932484290382,-0.03196270973371059,1.2311218004346491
6.11483359336853,1.351572923667548,[1.39063334],5.0,0.6,0.0,2.968695857217477,0.0027661940358987744,1.2305001746040738
6.122809171676636,1.3492281390667082,[1.38834623],5.0,0.6,0.0,3.4662393079843716,0.030122988484838138,1.2274891487214319
6.1319050788879395,1.3464925570323945,[1.38607393],5.0,0.6,0.0,3.7080248228480697,-0.011750685609202565,1.220872507760162
6.141777515411377,1.3437569749980813,[1.38381483],5.0,0.6,0.0,4.0530590963314115,0.021676350634581103,1.213396555708859
6.1512205600738525,1.3412167916805044,[1.38157127],5.0,0.6,0.0,4.5931846086511,0.014942393937496308,1.2065632651564306
6.161798000335693,1.3384812096461913,[1.37934545],5.0,0.6,0.0,5.0,0.01225661277216927,1.1978021829984251
6.171846389770508,1.3359410263286144,[1.3771325],5.0,0.6,0.0,5.0,-0.016768823506831336,1.1939670082075358
6.180400371551514,1.3339870391612478,[1.3749286],5.0,0.6,0.0,5.0,0.016855884562993733,1.196896830602662
6.188893795013428,1.332033051993881,[1.37273759],5.0,0.6,0.0,4.8864059945488005,0.01338106976895847,1.2004762836077183
6.198770761489868,1.3298836661097777,[1.37055982],5.0,0.6,0.0,5.0,-0.015054094627367542,1.2000019619269608
6.2114152908325195,1.3275388815089375,[1.36838943],5.0,0.6,0.0,5.0,-0.006137591161296651,1.1979624249735634
6.219913721084595,1.325975691775044,[1.36622827],5.0,0.6,0.0,5.0,0.02420979856900057,1.2049432486844847
6.230179786682129,1.3240217046076777,[1.36408445],5.0,0.6,0.0,5.0,0.019938281940429497,1.207151861335182
6.238744497299194,1.322458514873784,[1.36196177],5.0,0.6,0.0,4.729929228471022,0.015165875881472342,1.2155276567690056
6.247072458267212,1.3210907238566276,[1.35986036],5.0,0.6,0.0,4.316328403379723,0.010357017369320924,1.2266831493659291
6.255762815475464,1.3197229328394708,[1.35778327],5.0,0.6,0.0,3.883299116968154,0.0337611200814623,1.237374222818339
6.264743328094482,1.318355141822314,[1.35573585],5.0,0.6,0.0,3.4796898410260297,0.021522863799303585,1.2472566728607366
6.273098945617676,1.317182749521894,[1.3537194],5.0,0.6,0.0,3.120483292791776,0.010829669027754741,1.2584879898265786
6.281833171844482,1.316010357221474,[1.35173167],5.0,0.6,0.0,2.806377867530452,0.001702719329154629,1.2689311520712594
6.292760372161865,1.314837964921054,[1.34977035],5.0,0.6,0.0,2.256760140576991,-0.005900498805769638,1.2796682331094662
6.302353620529175,1.313665572620634,[1.34783307],5.0,0.6,0.0,1.9846920585916221,-0.012938517097627847,1.2888469485374285
6.309738397598267,1.3126885790369507,[1.34592043],5.0,0.6,0.0,1.5538332334813956,0.007865572390347953,1.3000259478208567
6.319786787033081,1.3117115854532673,[1.34403242],5.0,0.6,0.0,1.4110993267328182,-0.035374279252407895,1.3099742135284482
6.328043460845947,1.3109299905863208,[1.34216559],5.0,0.6,0.0,1.3713278940581417,-0.013389506321133863,1.3213277063013915
6.336798667907715,1.3099529970026373,[1.34031958],5.0,0.6,0.0,1.0797726558360214,-0.02683858093024381,1.3307144782407825
6.3459930419921875,1.3091714021356906,[1.33849351],5.0,0.6,0.0,0.7495812556198752,-0.03953813284472561,1.3415971205396455
6.353780508041382,1.308389807268744,[1.33668621],5.0,0.6,0.0,0.46069040221524454,-0.021248740004805675,1.3518688364114497
6.3617377281188965,1.3076082124017971,[1.33489928],5.0,0.6,0.0,-0.041579057474512376,-0.04014600305851128,1.3616019182185992
6.3698039054870605,1.3066312188181142,[1.33313356],5.0,0.6,0.0,-0.5166262823572998,-0.024140215754099786,1.3687469412808668
6.379351377487183,1.3056542252344305,[1.33138924],5.0,0.6,0.0,-0.886449459516202,-0.045559657631208186,1.375354941267843
6.390750408172607,1.3042864342172737,[1.32966257],5.0,0.6,0.0,-1.4175250558123542,-0.060954191453185404,1.377665291959801
6.401748418807983,1.3027232444833805,[1.32794293],5.0,0.6,0.0,-2.158647626783318,-0.1016094714616833,1.3770950998709233
6.411268472671509,1.3015508521829606,[1.32621712],5.0,0.6,0.0,-3.076726623272367,-0.1041686647488739,1.378429988668765
6.420197010040283,1.3001830611658038,[1.32448046],5.0,0.6,0.0,-3.5643915002873885,-0.0758336980321845,1.3792628272530119
6.42875862121582,1.2990106688653837,[1.32273558],5.0,0.6,0.0,-3.7780340061954822,-0.08912734409223037,1.3830178642442568
6.439023017883301,1.2972520804147536,[1.32098074],5.0,0.6,0.0,-4.369589543767612,-0.09756663919474938,1.3794862463064548
6.4467456340789795,1.2958842893975973,[1.31921421],5.0,0.6,0.0,-4.641964091192946,-0.07328430148085732,1.3810729350612712
6.457749605178833,1.2941257009469669,[1.31743403],5.0,0.6,0.0,-4.704107626685905,-0.12131244163108901,1.3808350952585997
6.4677557945251465,1.2919763150628636,[1.31563035],5.0,0.6,0.0,-4.630300213072752,-0.122393556507308,1.3784235690935684
6.478220701217651,1.2900223278954968,[1.3137945],5.0,0.6,0.0,-4.747214759555723,-0.12436267374524786,1.3766323693386724
6.4871506690979,1.2880683407281304,[1.31192689],5.0,0.6,0.0,-4.846361436243229,-0.09342269804495737,1.375213586583293
6.49576997756958,1.2863097522775002,[1.31002762],5.0,0.6,0.0,-4.862792653051031,-0.13860268606716775,1.3762942783745333
6.505010366439819,1.284160366393397,[1.30809254],5.0,0.6,0.0,-4.791114048747488,-0.10557677409699406,1.3749687153146104
6.515314817428589,1.281815581792557,[1.30612235],5.0,0.6,0.0,-4.647189648278799,-0.11396384483939669,1.372729885977906
6.525759935379028,1.2794707971917167,[1.30411751],5.0,0.6,0.0,-4.451581461754622,-0.1202957745564337,1.371062107302036
6.53576135635376,1.27693061387414,[1.30206947],5.0,0.6,0.0,-4.499116033697808,-0.1531170772581745,1.3664255103556324
6.544524669647217,1.2745858292732999,[1.29997103],5.0,0.6,0.0,-4.285883253115219,-0.11795997243926958,1.3655895506068367
6.554058074951172,1.2718502472389868,[1.29782521],5.0,0.6,0.0,-3.7017286546139863,-0.12196970598090673,1.363671533179454
6.563718557357788,1.2689192664879365,[1.29563474],5.0,0.6,0.0,-3.3407442202814535,-0.12319365434634444,1.358737251849209
6.571712255477905,1.2667698806038332,[1.29340233],5.0,0.6,0.0,-3.0801186906910822,-0.09322310783874894,1.3607323087902623
6.581544876098633,1.2636435011360463,[1.29113523],5.0,0.6,0.0,-2.8643661547615196,-0.1025141698772178,1.353640595373739
6.591724157333374,1.2607125203849965,[1.28883029],5.0,0.6,0.0,-2.3936449510815794,-0.13876663680874152,1.3494988957272875
6.602492094039917,1.257390742200473,[1.28647564],5.0,0.6,0.0,-2.1775754853508653,-0.13124554329682478,1.340834207413305
6.611308574676514,1.254459761449423,[1.28407135],5.0,0.6,0.0,-2.0584261719044465,-0.09517221026807249,1.336002888542752
6.619713306427002,1.2517241794151095,[1.28162768],5.0,0.6,0.0,-1.6923840433068928,-0.10100747401809486,1.3341089454325046
6.6301140785217285,1.2484024012305863,[1.27914447],5.0,0.6,0.0,-1.2960818241444845,-0.1290296138410863,1.326525257810915
6.639916658401489,1.245080623046063,[1.2766176],5.0,0.6,0.0,-1.2258186552500132,-0.09056119837517924,1.3185012801513496
6.647721529006958,1.2427358384452227,[1.27405388],5.0,0.6,0.0,-0.9831418790900672,-0.09480442506225123,1.3211584880107747
6.657726526260376,1.2390232628272257,[1.27146],5.0,0.6,0.0,-0.7192588063119905,-0.09066042691597914,1.3098521116544855
6.6688549518585205,1.2351152884924925,[1.26883791],5.0,0.6,0.0,-0.4900539841749072,-0.0838034920611177,1.2963890602466543
6.676915407180786,1.2321843077414425,[1.26619463],5.0,0.6,0.0,-0.30968382714023235,-0.04874748202536819,1.293397900383704
6.686717510223389,1.2290579282736558,[1.26353716],5.0,0.6,0.0,0.10044580349929172,-0.08383908262572205,1.2883816523084695
6.696196556091309,1.2257361500891324,[1.26086378],5.0,0.6,0.0,0.22938964549736765,-0.07471562533027556,1.28126555057772
6.704147577285767,1.223000568054819,[1.25817819],5.0,0.6,0.0,0.5165780175059803,-0.03821223396646906,1.2805570499856636
6.71270751953125,1.2198741885870323,[1.25549286],5.0,0.6,0.0,0.7939564012862856,-0.038967820342121644,1.2754260421127546
6.720828056335449,1.2167478091192456,[1.25281891],5.0,0.6,0.0,1.0059465991233625,-0.005140143200117877,1.270125497867012
6.729959964752197,1.213621429651459,[1.25016621],5.0,0.6,0.0,1.144532304308251,-0.01109027482532123,1.2646191326457639
6.739731311798096,1.2101042527501988,[1.24753634],5.0,0.6,0.0,1.495454450900933,-0.03889304658880178,1.253946217623283
6.750837564468384,1.2061962784154654,[1.24492408],5.0,0.6,0.0,1.8301282703635198,-0.024240717135650337,1.2383544676935716
6.760110855102539,1.202874500230942,[1.24233277],5.0,0.6,0.0,2.0740205635479496,0.015530133465051546,1.229235594385648
6.767711162567139,1.199943519479892,[1.23977265],5.0,0.6,0.0,2.2174534228031995,0.015777089904937234,1.2244858440209831
6.77974534034729,1.1962309438618952,[1.23724605],5.0,0.6,0.0,2.550715019679802,-0.005277191214864191,1.2094833688618019
6.790968179702759,1.1927137669606351,[1.23474865],5.0,0.6,0.0,2.8511731864278254,0.00859628983945617,1.1962909814863985
6.800821304321289,1.1901735836430585,[1.2322832],5.0,0.6,0.0,3.6018442381124496,0.043222772475593384,1.191858459690034
6.809721946716309,1.1876334003254816,[1.22985821],5.0,0.6,0.0,4.03559584839059,0.04077391986595036,1.1880840989071333
6.819711923599243,1.1850932170079052,[1.22747436],5.0,0.6,0.0,4.236459442402362,0.012409030388089926,1.1850289197982955
6.8316490650177,1.1819668375401182,[1.22512564],5.0,0.6,0.0,4.825408218362586,0.021617120857156058,1.1719485166730212
6.840217590332031,1.1796220529392785,[1.22281261],5.0,0.6,0.0,5.0,0.0531739917322728,1.170338904715155
6.84771203994751,1.1778634644886483,[1.22054129],5.0,0.6,0.0,5.0,0.04427696871216585,1.1764291267699258
6.855750799179077,1.1761048760380182,[1.21831609],5.0,0.6,0.0,5.0,0.06536073612275925,1.1819544393547186
6.865704536437988,1.1741508888706513,[1.21613996],5.0,0.6,0.0,5.0,0.051121577493866276,1.1845788169210651
6.875719308853149,1.1723923004200216,[1.21400827],5.0,0.6,0.0,5.0,0.009464218301453432,1.1889772538849561
6.8866260051727295,1.1702429145359179,[1.21190983],5.0,0.6,0.0,5.0,0.008924024193279673,1.1883774156729643
6.8955161571502686,1.1686797248020246,[1.20984071],5.0,0.6,0.0,5.0,0.034510237010461055,1.1943247025278225
6.9050657749176025,1.1669211363513945,[1.20780333],5.0,0.6,0.0,4.766470437993978,0.022024993295428206,1.1992305838923767
6.914750814437866,1.1655533453342382,[1.2057921],5.0,0.6,0.0,4.253811707516493,-0.020026022473143317,1.210082132686209
6.926605463027954,1.163794756883608,[1.20379459],5.0,0.6,0.0,3.9736711627704238,-0.021276066107987344,1.2145339464330926
6.935527563095093,1.162622364583188,[1.20180648],5.0,0.6,0.0,3.7739441233783717,0.004245898880303148,1.2251018274539038
6.944718360900879,1.1614499722827678,[1.1998305],5.0,0.6,0.0,3.316732681035562,-0.01110352122955834,1.236697591446724
6.95472526550293,1.1598867825488746,[1.19786073],5.0,0.6,0.0,2.547642283136626,-0.05367744871384906,1.244650417207694
6.964101552963257,1.158909788965191,[1.19588777],5.0,0.6,0.0,2.069720689430474,-0.027518805337988804,1.2575533182259833
6.972712755203247,1.1577373966647713,[1.19391457],5.0,0.6,0.0,1.7515239052054474,-0.0076758019926483016,1.26741912274347
6.9827187061309814,1.1565650043643512,[1.19194283],5.0,0.6,0.0,1.2481592520948959,-0.06436582592215317,1.2773947235391276
6.99253511428833,1.1551972133471944,[1.18996132],5.0,0.6,0.0,1.0418702779477773,-0.07307527803336603,1.2844776087124172
7.0007030963897705,1.1542202197635112,[1.18796414],5.0,0.6,0.0,0.40585541482208776,-0.04971147947763741,1.2962163147823662
7.00969672203064,1.1528524287463542,[1.18594973],5.0,0.6,0.0,-0.25255862553871217,-0.09974079249043895,1.303204947816541
7.020492792129517,1.1510938402957245,[1.18390769],5.0,0.6,0.0,-1.0660941894728213,-0.10322317871865358,1.305414116680879
7.029308795928955,1.1497260492785677,[1.18183343],5.0,0.6,0.0,-2.0382523562550823,-0.0760539619346325,1.3106061853572637
7.0387022495269775,1.1481628595446745,[1.17973177],5.0,0.6,0.0,-2.852317921190761,-0.09075235810489707,1.3132685710115817
7.04970383644104,1.1462088723773076,[1.17759753],5.0,0.6,0.0,-3.7026157556184907,-0.12994226661778588,1.3110480964169773
7.058981418609619,1.1444502839266775,[1.17542178],5.0,0.6,0.0,-4.634630762892609,-0.09950995213089951,1.309696770711635
7.067691326141357,1.1428870941927842,[1.17321114],5.0,0.6,0.0,-5.0,-0.07488286795616866,1.313743100082399
7.075856924057007,1.1413239044588908,[1.17097134],5.0,0.6,0.0,-5.0,-0.12756961539228973,1.3205227321865838
7.084787368774414,1.1395653160082608,[1.16869802],5.0,0.6,0.0,-5.0,-0.09919654926011941,1.3256138092602028
7.0940351486206055,1.1374159301241575,[1.16639254],5.0,0.6,0.0,-5.0,-0.1106834444439727,1.3271460784520315
7.103681802749634,1.1354619429567907,[1.16405635],5.0,0.6,0.0,-4.894243062584039,-0.1198435673089946,1.3316258543409296
7.113781690597534,1.1333125570726872,[1.16168625],5.0,0.6,0.0,-4.919950220431778,-0.12550904677902106,1.333582674591481
7.121685028076172,1.1313585699053208,[1.15928478],5.0,0.6,0.0,-4.6480266946394915,-0.09726885369747959,1.3397546719205864
7.131712913513184,1.1290137853044806,[1.15685455],5.0,0.6,0.0,-4.552193597958663,-0.14045251827825855,1.341206403854616
7.141517162322998,1.1266690007036406,[1.15438878],5.0,0.6,0.0,-4.476643584645588,-0.13930060647015066,1.3428510852082756
7.150250196456909,1.1243242161028004,[1.15188708],5.0,0.6,0.0,-4.368259503690652,-0.10693277228615415,1.3450333048551988
7.159697771072388,1.1219794315019607,[1.14935923],5.0,0.6,0.0,-3.9414383546134797,-0.11539954036582153,1.3493361683540854
7.169984817504883,1.1190484507509104,[1.14680474],5.0,0.6,0.0,-3.7219175873489605,-0.14588110649138933,1.346995138609193
7.1782636642456055,1.1165082674333338,[1.14421912],5.0,0.6,0.0,-3.566193477760171,-0.11151106897560441,1.3482556309125617
7.190213918685913,1.1129910905320737,[1.14160849],5.0,0.6,0.0,-3.6938435107104066,-0.110279998645613,1.3388648800171208
7.199693441390991,1.1100601097810237,[1.13897865],5.0,0.6,0.0,-3.2920836698117752,-0.11066537252862757,1.3379797814552012
7.210876226425171,1.1067383315965003,[1.13632593],5.0,0.6,0.0,-3.032721574945469,-0.13469378977391905,1.3325856294444922
7.21973180770874,1.1041981482789236,[1.13364776],5.0,0.6,0.0,-2.8320976934268804,-0.0995575314148589,1.3348190341690356
7.22905421257019,1.1010717688111367,[1.13095145],5.0,0.6,0.0,-2.378482522094915,-0.09938162046542785,1.332281074535203
7.23870587348938,1.09794538934335,[1.1282436],5.0,0.6,0.0,-1.9010492477310232,-0.09849630502463647,1.329588672334416
7.248629808425903,1.09442821244209,[1.12552557],5.0,0.6,0.0,-1.7598846350258655,-0.09491326491434263,1.3218444336906139
7.256702423095703,1.0916926304077768,[1.12280318],5.0,0.6,0.0,-1.1806244728111315,-0.062193694299988986,1.3229729652575601
7.266711711883545,1.0881754535065165,[1.12008145],5.0,0.6,0.0,-0.8322278404800876,-0.09921294711305204,1.3152745427297854
7.274882555007935,1.08563527018894,[1.11736025],5.0,0.6,0.0,-0.6143778908287462,-0.06616156198010044,1.3173903503968742
7.2848920822143555,1.0823134920044164,[1.1146439],5.0,0.6,0.0,-0.19654456906536694,-0.07050157673014287,1.311325068457677
7.294680118560791,1.078991713819893,[1.11193595],5.0,0.6,0.0,0.2086536022118328,-0.07284926480316575,1.3048456150397976
7.304940462112427,1.0756699356353696,[1.10923041],5.0,0.6,0.0,0.254253399584611,-0.10187781299618241,1.2982596781995113
7.314138412475586,1.072543556167583,[1.10652208],5.0,0.6,0.0,0.4483858779429929,-0.0645723521245283,1.2936628758200255
7.3252270221710205,1.0686355818328495,[1.10381536],5.0,0.6,0.0,0.924118437833999,-0.0634203551511586,1.2800966924222412
7.334693431854248,1.065313803648326,[1.10111378],5.0,0.6,0.0,1.1130092566665364,-0.06413185556061522,1.2729670905596318
7.34568977355957,1.0614058293135928,[1.09841104],5.0,0.6,0.0,1.160291668220065,-0.08910853945975855,1.2594242906522881
7.354655981063843,1.058279449845806,[1.09570162],5.0,0.6,0.0,1.1390690144159084,-0.052188724139080676,1.25475558183869
7.365550994873047,1.0545668742278094,[1.0929897],5.0,0.6,0.0,1.362189565295059,-0.05211674267250533,1.2429566669619325
7.374703884124756,1.0514404947600227,[1.09027857],5.0,0.6,0.0,1.6052494486317188,-0.05423212223822625,1.2376607491551037
7.383894205093384,1.048314115292236,[1.08756611],5.0,0.6,0.0,1.5132470661234079,-0.055459859257121824,1.2331078863252065
7.391784429550171,1.0455785332579226,[1.08485495],5.0,0.6,0.0,1.588714481574824,-0.024292432521593566,1.2326524459143697
7.401700973510742,1.0416705589231892,[1.08214698],5.0,0.6,0.0,1.6847037892546282,-0.06298264364331416,1.218493805088521
7.409716606140137,1.0389349768888756,[1.07943879],5.0,0.6,0.0,1.748846732301721,-0.03071026803494009,1.2180109970855992
7.420002222061157,1.0354177999876155,[1.07673205],5.0,0.6,0.0,1.7695618259705035,-0.036489122152851015,1.2084678278914205
7.4296793937683105,1.0320960218030921,[1.07402794],5.0,0.6,0.0,1.7511225424307941,-0.040438686130409365,1.2012438237716674
7.440312623977661,1.028578844901832,[1.0713176],5.0,0.6,0.0,1.7025655427932842,-0.06877309751404552,1.191821192812143
7.45276665687561,1.0246708705670988,[1.06858864],5.0,0.6,0.0,1.633105681989914,-0.058725877130824576,1.177956301241485
7.462134122848511,1.021544491099312,[1.0658356],5.0,0.6,0.0,1.8265535649385785,-0.05354939842857831,1.1729967382753204
7.470649242401123,1.0186135103482619,[1.06306389],5.0,0.6,0.0,1.7699456411571788,-0.019798546143700486,1.171240829936095
7.4801926612854,1.0156825295972118,[1.06027844],5.0,0.6,0.0,1.6223359054332993,-0.054841589615254864,1.1698684518313232
7.489468097686768,1.0123607514126884,[1.0574789],5.0,0.6,0.0,1.73003976486495,-0.019207850302096343,1.1633349450396828
7.499159097671509,1.008648175794692,[1.05467015],5.0,0.6,0.0,1.6026920317876674,-0.02019113832289058,1.1527743609623953
7.508677959442139,1.0057171950436417,[1.05185677],5.0,0.6,0.0,1.40462145082571,-0.02291018379326563,1.151798698007738
7.518890857696533,1.002004619425645,[1.04903826],5.0,0.6,0.0,1.2045560658176666,-0.02011248767927931,1.1413926689770943
7.5297300815582275,0.9984874425243848,[1.04621468],5.0,0.6,0.0,1.3034444639472302,-0.01715949906053805,1.1328183253599966
7.538694381713867,0.9955564617733349,[1.0433866],5.0,0.6,0.0,1.1881274913564996,-0.0162373232379655,1.1317860354341305
7.548680782318115,0.9922346835888115,[1.04055052],5.0,0.6,0.0,1.2875274439683881,-0.0386928103262977,1.1257203085676981
7.5588319301605225,0.9889129054042881,[1.03770403],5.0,0.6,0.0,1.4217299261717637,-0.0007379168983229025,1.119689741016291
7.567022085189819,0.9863727220867115,[1.0348589],5.0,0.6,0.0,1.2485412324921294,0.029806937373239938,1.1237295029006942
7.577681541442871,0.9832463426189246,[1.03202541],5.0,0.6,0.0,1.5463726565447269,-0.010886265131722769,1.1195615117798154
7.5907392501831055,0.9793383682841913,[1.02919487],5.0,0.6,0.0,1.6446897563799396,-0.028902378831466666,1.106261857573279
7.60119891166687,0.9764073875331412,[1.02635593],5.0,0.6,0.0,1.9163850774505513,-0.019759184416904104,1.1044285024485727
7.610316038131714,0.9740626029323012,[1.02351235],5.0,0.6,0.0,2.4453278135048633,0.013612415968699498,1.108773761636776
7.619669198989868,0.9717178183314611,[1.02067617],5.0,0.6,0.0,2.6512228038928316,0.00817196339403502,1.1139595289601592
7.629914045333862,0.9691776350138844,[1.0178492],5.0,0.6,0.0,2.95820005803448,-0.023492014162063386,1.1161695663698195
7.639139652252197,0.9670282491297811,[1.01502879],5.0,0.6,0.0,3.479940081800244,0.00826168706821135,1.121838408083558
7.647651672363281,0.965269660679151,[1.01222529],5.0,0.6,0.0,3.653905472209141,0.032625182806967926,1.1335739936959948
7.658685684204102,0.9627294773615743,[1.00944742],5.0,0.6,0.0,3.6389871408328975,-0.013510969522451483,1.1365249796814674
7.669973611831665,0.9603846927607341,[1.00668564],5.0,0.6,0.0,3.7984532479920383,-0.042106407182027204,1.1406932318090772
7.679394483566284,0.9584307055933676,[1.00393182],5.0,0.6,0.0,3.6621527853447624,-0.010527070873420507,1.1510700602591917
7.689984321594238,0.9560859209925274,[1.00119145],5.0,0.6,0.0,3.688605101377326,-0.015126412446337228,1.15568333573852
7.698652982711792,0.9543273325418974,[0.99846902],5.0,0.6,0.0,3.1660978915247173,-0.022014134745549318,1.1698549455192806
7.708876371383667,0.9521779466577941,[0.99576401],5.0,0.6,0.0,2.5281089095108045,-0.026392468300821304,1.1791611364426975
7.719492435455322,0.9500285607736906,[0.99307575],5.0,0.6,0.0,1.9438153965294513,-0.030382669822454102,1.187506939788908
7.730066537857056,0.9478791748895873,[0.99040344],5.0,0.6,0.0,1.1884634476060274,-0.033926384486138966,1.1954669999775303
7.7396790981292725,0.9459251877222207,[0.9877462],5.0,0.6,0.0,0.5072859912334121,-0.038176978922816955,1.204637884574911
7.751097679138184,0.9437758018381173,[0.98509892],5.0,0.6,0.0,-0.026670993721845393,-0.06861349621192264,1.2106886677953415
7.759461879730225,0.9418218146707505,[0.98245712],5.0,0.6,0.0,-0.6874894674932246,-0.03630539048218026,1.2183955165450806
7.768818378448486,0.9398678275033839,[0.9798252],5.0,0.6,0.0,-1.531390316715603,-0.04225729950103785,1.2249015364682323
7.7786805629730225,0.9377184416192806,[0.97720676],5.0,0.6,0.0,-1.9794874860016827,-0.04671441352132454,1.2291716416191216
7.788839817047119,0.9353736570184404,[0.97460052],5.0,0.6,0.0,-2.4672819180305963,-0.049291029531180044,1.230588514364362
7.796751260757446,0.9336150685678104,[0.97200936],5.0,0.6,0.0,-2.845570543560786,-0.021867878511382652,1.2386709433533607
7.807687044143677,0.9312702839669704,[0.96943559],5.0,0.6,0.0,-3.082576614025011,-0.064002926467611,1.240254239592682
7.818657398223877,0.9289254993661303,[0.96686859],5.0,0.6,0.0,-3.1920676290014054,-0.08900934955150394,1.2422821618245405
7.830772876739502,0.9259945186150802,[0.96429529],5.0,0.6,0.0,-3.2013906917172195,-0.07829559855788784,1.2381600062938327
7.839068651199341,0.9240405314477135,[0.96171714],5.0,0.6,0.0,-2.8622332439098113,-0.045152734876569164,1.2467765538844064
7.84765887260437,0.9218911455636103,[0.95914371],5.0,0.6,0.0,-2.716996547549109,-0.05025418715290978,1.2521719794941806
7.85871148109436,0.9193509622460335,[0.95657904],5.0,0.6,0.0,-2.6291933468922584,-0.05242762297690831,1.2527941726949172
7.866955280303955,0.9170061776451935,[0.95402238],5.0,0.6,0.0,-2.545016019814052,-0.054655890177438514,1.2555033567756735
7.875674247741699,0.9148567917610901,[0.95147716],5.0,0.6,0.0,-2.4474597239352684,-0.025011170802657058,1.2603077905728886
7.8861823081970215,0.9123166084435134,[0.94894612],5.0,0.6,0.0,-2.610799939311163,-0.06603309550707324,1.2595960908334922
7.894243240356445,0.9103626212761465,[0.94642735],5.0,0.6,0.0,-2.2437078717605705,-0.03572384809627795,1.2672155980032507
7.902649164199829,0.9080178366753067,[0.94392308],5.0,0.6,0.0,-2.0246779671597577,-0.04422782780902826,1.26967865059073
7.9136199951171875,0.9052822546409932,[0.94143495],5.0,0.6,0.0,-1.870643625297038,-0.048858889169704475,1.2673720644287247
7.924299478530884,0.9025466726066799,[0.93895991],5.0,0.6,0.0,-1.7443566560863384,-0.05170499054109234,1.264804259095346
7.935080528259277,0.8996156918556298,[0.93649504],5.0,0.6,0.0,-1.6300665851465712,-0.05263804026244528,1.2598670080313796
7.943662166595459,0.8972709072547898,[0.93403753],5.0,0.6,0.0,-1.2457554702281675,-0.05587627386590351,1.2619531798963795
7.951869249343872,0.8949261226539497,[0.93158464],5.0,0.6,0.0,-1.1086059850191219,-0.05870525060953623,1.2634054249115372
7.960310459136963,0.8927767367698464,[0.92913801],5.0,0.6,0.0,-1.0637976749459217,-0.028997884010030058,1.2668028408721366
7.968653202056885,0.8902365534522696,[0.92670296],5.0,0.6,0.0,-0.7684328704023611,-0.04035486455947642,1.2660305517575476
7.977092504501343,0.8876963701346929,[0.92427942],5.0,0.6,0.0,-0.7153253527364395,-0.048402367903912634,1.2647841292401858
7.985984563827515,0.8853515855338528,[0.92186704],5.0,0.6,0.0,-0.4656928458901585,-0.020446129830983893,1.2657600138241194
7.996645450592041,0.8826160034995394,[0.9194652],5.0,0.6,0.0,-0.4706595143566318,-0.06652910181491689,1.2620150464117605
8.006656408309937,0.8800758201819627,[0.91706447],5.0,0.6,0.0,-0.551015536092867,-0.06642044456968037,1.260385893320714
8.015414714813232,0.8777310355811228,[0.91466115],5.0,0.6,0.0,-0.35772873934028254,-0.034492943578326066,1.2611751355563228
8.024667978286743,0.8753862509802827,[0.91226074],5.0,0.6,0.0,-0.3847990612238549,-0.04476403772144019,1.2617855135428315
8.03467869758606,0.8726506689459693,[0.90985919],5.0,0.6,0.0,-0.1970250657370506,-0.079763483254549,1.25810538721209
8.046005249023438,0.8693288907614459,[0.90744445],5.0,0.6,0.0,-0.2494223180893086,-0.07116424041756485,1.2477989415328798
8.05409836769104,0.8669841061606058,[0.90501526],5.0,0.6,0.0,-0.09016780680308706,-0.037240137684362885,1.2488012045360202
8.062637567520142,0.8646393215597659,[0.90257944],5.0,0.6,0.0,0.10806222891200393,-0.044375678049567914,1.2498350432197642
8.072842359542847,0.861512942091979,[0.9001395],5.0,0.6,0.0,0.0038435702816767697,-0.04537164352649026,1.2420027964417208
8.083909749984741,0.8587773600576656,[0.89769348],5.0,0.6,0.0,0.09803021404716442,-0.04664206658419295,1.2386711076707158
8.094966650009155,0.8554555818731422,[0.89523993],5.0,0.6,0.0,-0.039006819378524835,-0.0437284232187969,1.2286509513952368
8.104641914367676,0.8525246011220923,[0.89277795],5.0,0.6,0.0,0.052045601002305965,-0.042089631714051036,1.2232002052669793
8.115298748016357,0.8493982216543056,[0.89030284],5.0,0.6,0.0,-0.07742004125420353,-0.06624371626385057,1.2155929543495478
8.124375820159912,0.8466626396199921,[0.88781096],5.0,0.6,0.0,-0.25236498715622996,-0.02845707581445852,1.2126937948074406
8.134038925170898,0.8435362601522054,[0.88530796],5.0,0.6,0.0,-0.12964798958608134,-0.02741738951810448,1.2053982358496318
8.142707347869873,0.8411914755513653,[0.88279887],5.0,0.6,0.0,0.06715570011876602,-0.02974725333485475,1.2073428113480658
8.153814315795898,0.8378696973668419,[0.88028393],5.0,0.6,0.0,-0.02642162443302363,-0.026655029139730346,1.1978199285351963
8.161641597747803,0.8353295140492653,[0.8777676],5.0,0.6,0.0,0.08063347526124841,0.005422734395867717,1.1975331916947956
8.17164421081543,0.8325939320149518,[0.8752537],5.0,0.6,0.0,0.23098414491770458,-0.03488759907390373,1.1948714866753616
8.183655500411987,0.8294675525471652,[0.87273715],5.0,0.6,0.0,0.36393755112828546,-0.030133106263975112,1.1875677396221889
8.193053722381592,0.8269273692295884,[0.87021358],5.0,0.6,0.0,0.4616606407157098,-0.028718325174083764,1.1873099212311482
8.201016664505005,0.8247779833454851,[0.86768762],5.0,0.6,0.0,0.7999706133189332,0.002085141664838773,1.1914698219483175
8.211043119430542,0.8220424013111718,[0.86516307],5.0,0.6,0.0,1.1418710200988786,-0.03740978328708254,1.1884683658235637
8.22000789642334,0.8196976167103317,[0.86263883],5.0,0.6,0.0,1.4062640171543215,-0.005146018710297727,1.1901010090968531
8.23206639289856,0.8165712372425449,[0.86011372],5.0,0.6,0.0,1.8546281503107513,-0.041153816521854375,1.1818619759695626
8.240648031234741,0.8144218513584416,[0.8575865],5.0,0.6,0.0,1.9787479065095819,-0.009808089225208622,1.1860088540604603
8.251375913619995,0.8114908706073914,[0.85505579],5.0,0.6,0.0,1.9511332447721244,-0.04627582775809471,1.1813224959424016
8.260678768157959,0.8091460860065515,[0.85252012],5.0,0.6,0.0,1.8564932872521152,-0.014030252826500642,1.1838638643491666
8.26964259147644,0.8069967001224482,[0.84998235],5.0,0.6,0.0,1.7359748569718323,-0.024213266147933152,1.1888046646541266
8.279659271240234,0.804065719371398,[0.8474445],5.0,0.6,0.0,1.6091903619323784,-0.029127235538924247,1.1844424436476264
8.289809942245483,0.8013301373370847,[0.84490339],5.0,0.6,0.0,1.2091286040760758,-0.03365343234593647,1.1829618878038046
8.297733783721924,0.7991807514529814,[0.84236052],5.0,0.6,0.0,0.7825737583365138,-0.006007036653379772,1.1882795037606249
8.307678461074829,0.7966405681354046,[0.8398166],5.0,0.6,0.0,0.4191426738890463,-0.052878667521246966,1.1886488245267537
8.318730592727661,0.7937095873843545,[0.83726232],5.0,0.6,0.0,0.1400596345359968,-0.052762673204345,1.1842790411176773
8.32802152633667,0.7915602015002512,[0.83468928],5.0,0.6,0.0,-0.06051827243403607,-0.05638811626616907,1.1893353176925183
8.33648157119751,0.7894108156161478,[0.83209965],5.0,0.6,0.0,-0.19698150518320728,-0.02800878750248368,1.1945375985715139
8.347622156143188,0.7864798348650976,[0.82949486],5.0,0.6,0.0,-0.28450802054868946,-0.0692521288638481,1.190633647222154
8.35672926902771,0.783939651547521,[0.82687081],5.0,0.6,0.0,-0.33623277875062896,-0.03933276274496202,1.1916061742336066
8.369521617889404,0.7802270759295242,[0.82422363],5.0,0.6,0.0,-0.3625668737425249,-0.07280727831818043,1.1788985809307744
8.379080057144165,0.7776868926119475,[0.8215444],5.0,0.6,0.0,-0.37137089464741335,-0.07292535978287341,1.1805547112659023
8.388063192367554,0.7753421080111076,[0.81882541],5.0,0.6,0.0,-0.6444393766672587,-0.07461027039688298,1.184812189863279
8.39660120010376,0.7731927221270041,[0.81607068],5.0,0.6,0.0,-0.6669463713837125,-0.048302897002617896,1.1919912144695757
8.404927492141724,0.7710433362429008,[0.81328908],5.0,0.6,0.0,-0.8725312414144035,-0.06170578976459728,1.1992476385936048
8.417123079299927,0.7675261593416408,[0.81048276],5.0,0.6,0.0,-1.0875356870934416,-0.06547898913339775,1.190508486023715
8.426612615585327,0.764985976024064,[0.8076481],5.0,0.6,0.0,-1.2516719632071203,-0.07190969048682867,1.1937183645993032
8.435614585876465,0.7624457927064873,[0.80478216],5.0,0.6,0.0,-1.0771843730219908,-0.07709456285013128,1.1978790575475686
8.443840265274048,0.7599056093889106,[0.80188264],5.0,0.6,0.0,-1.0899246872262407,-0.08131910240905856,1.2021053655328078
8.453141927719116,0.7573654260713338,[0.7989479],5.0,0.6,0.0,-1.1474526306983666,-0.08490494673876371,1.2066603788494532
8.461237907409668,0.7546298440370205,[0.79598251],5.0,0.6,0.0,-1.1947024499666392,-0.057493722813090085,1.209280718776711
8.47124171257019,0.7516988632859705,[0.79299628],5.0,0.6,0.0,-1.2153288181807116,-0.06828030388986861,1.2098928851712047
8.481229782104492,0.7485724838181836,[0.78999224],5.0,0.6,0.0,-1.2088794793765154,-0.07447303714894277,1.2084669530893917
8.490753889083862,0.7458369017838703,[0.7869677],5.0,0.6,0.0,-1.1804305835326545,-0.08015055803072373,1.2119105988551768
8.500667572021484,0.7427105223160836,[0.78392072],5.0,0.6,0.0,-1.1361379535299914,-0.08237300880144857,1.2110551477939877
8.510623216629028,0.7397795415650336,[0.78085006],5.0,0.6,0.0,-1.0815255853863506,-0.08462843900014641,1.2127837323258461
8.52064824104309,0.7366531620972468,[0.77775503],5.0,0.6,0.0,-1.0209883044839538,-0.0853672293755513,1.2125106850999765
8.532235383987427,0.7329405864792501,[0.77462999],5.0,0.6,0.0,-0.9577934253908855,-0.1011811270207827,1.2056981015484691
8.544447422027588,0.7290326121445166,[0.77146508],5.0,0.6,0.0,-0.8942563056034611,-0.09354589561819843,1.197009640350414
8.552602529525757,0.7262970301102033,[0.7682635],5.0,0.6,0.0,-0.8319499614047767,-0.06835275215206697,1.2025985367458798
8.56164836883545,0.7233660493591532,[0.76503939],5.0,0.6,0.0,-0.7718947328065648,-0.07402345620599003,1.2061263353602985
8.571629524230957,0.7200442711746298,[0.76179942],5.0,0.6,0.0,-0.714712120071668,-0.07674735598979175,1.2052257098491976
8.580371856689453,0.7175040878570531,[0.75854383],5.0,0.6,0.0,-0.6607426406235548,-0.08242271832460474,1.2136895378745047
8.59045958518982,0.713986910955793,[0.75527285],5.0,0.6,0.0,-0.6101330795014308,-0.0829015619947088,1.2108488705357567
8.601619720458984,0.7100789366210597,[0.75198666],5.0,0.6,0.0,-0.8389379914181907,-0.08095908090836074,1.2032830833638553
8.611133813858032,0.7071479558700097,[0.74868538],5.0,0.6,0.0,-0.5520974551348372,-0.0838534661570303,1.20794283451932
8.622710227966309,0.7034353802520129,[0.74536908],5.0,0.6,0.0,-0.4231319766419927,-0.08283357354467268,1.2033670351353494
8.635236263275146,0.6991366084838061,[0.74203203],5.0,0.6,0.0,-0.6404664836302942,-0.09516249806106264,1.1918094982908656
8.645869255065918,0.6954240328658093,[0.73866369],5.0,0.6,0.0,-0.6442920721335132,-0.09041809081083826,1.1877136663586445
8.655035495758057,0.6921022546812859,[0.73526095],5.0,0.6,0.0,-0.2948710625246062,-0.08820100473862608,1.1889210507737966
8.664193153381348,0.6881942803465526,[0.73182713],5.0,0.6,0.0,-0.17059454707770524,-0.08384648465341428,1.183316724053265
8.675967931747437,0.6846771034452925,[0.72836525],5.0,0.6,0.0,-0.1403799621209711,-0.08201506686333375,1.1826640672579813
8.685668468475342,0.6811599265440325,[0.72487818],5.0,0.6,0.0,0.13152882930033113,-0.08074893786120602,1.1823066646825098
8.695183038711548,0.6780335470762457,[0.72136866],5.0,0.6,0.0,0.1519837792028771,-0.08175176908677698,1.1868692051615874
8.704543352127075,0.674320971458249,[0.71783932],5.0,0.6,0.0,0.08576034630447116,-0.08001104872510716,1.1846980155399807
8.71571969985962,0.6706083958402522,[0.71429275],5.0,0.6,0.0,0.0031798022392080516,-0.07846078220082264,1.1827239982364341
8.725631475448608,0.6668958202222556,[0.71073151],5.0,0.6,0.0,0.20702277380240766,-0.07680731144121516,1.1808859719445113
8.734060049057007,0.6637694407544688,[0.7071583],5.0,0.6,0.0,0.46187967951535536,-0.07809216671034291,1.1860875499928218
8.745866537094116,0.6596660677029987,[0.70357595],5.0,0.6,0.0,0.40315934410615994,-0.07432429140908985,1.179910885146465
8.758643388748169,0.6549764985013187,[0.69998745],5.0,0.6,0.0,0.24978608865413843,-0.06730154407716007,1.1667989165620092
8.770210981369019,0.6508731254498485,[0.69639054],5.0,0.6,0.0,0.3681164380990239,-0.07922416518718785,1.160657494028152
8.779588460922241,0.6477467459820617,[0.69278409],5.0,0.6,0.0,0.5470351846690084,-0.05621549993721037,1.1663057057988209
8.789953470230103,0.6438387716473285,[0.68917353],5.0,0.6,0.0,0.4288660513702299,-0.07442177571101193,1.1628181520938785
8.798602104187012,0.6407123921795417,[0.68556428],5.0,0.6,0.0,0.23234036346409506,-0.04738903892705119,1.168714286392991
8.808629274368286,0.636999816561545,[0.68196669],5.0,0.6,0.0,0.32117402099366826,-0.04703002653920874,1.1672977196268608
8.818610668182373,0.633482639660285,[0.67839021],5.0,0.6,0.0,0.4811609045709354,-0.046539082798945024,1.1679139725470093
8.828601598739624,0.6297700640422882,[0.67483817],5.0,0.6,0.0,0.6278876882010984,-0.04410439538581429,1.1658657059301882
8.837269067764282,0.6266436845745015,[0.67131387],5.0,0.6,0.0,0.7349319785001406,-0.04372903611285264,1.170531750795289
8.8476722240448,0.6231265076732413,[0.66781595],5.0,0.6,0.0,0.8000409070476951,-0.06428775845134413,1.1702264797296333
8.857889413833618,0.6196093307719813,[0.66433921],5.0,0.6,0.0,1.1057138214813789,-0.05520623190845497,1.1693086269948947
8.86573839187622,0.616873748737668,[0.66088887],5.0,0.6,0.0,1.1414635600914673,-0.022764865697323867,1.1778055700593457
8.875220775604248,0.6139427679866178,[0.65747872],5.0,0.6,0.0,1.3458463827080964,-0.026236153347680494,1.1831471619110678
8.88391375541687,0.6108163885188312,[0.65412021],5.0,0.6,0.0,1.273507805806441,0.00513913276249712,1.186053040998461
8.893606185913086,0.607299211617571,[0.65082268],5.0,0.6,0.0,1.3865655338803027,-0.0034235733364660586,1.1832134557429717
8.905162334442139,0.603195838566101,[0.64758501],5.0,0.6,0.0,1.2451627577369933,-0.034503730944565214,1.1731474624126654
8.913590431213379,0.6004602565317877,[0.64439739],5.0,0.6,0.0,1.309786633288783,-0.03150046102331861,1.1784310018204773
8.923269510269165,0.5975292757807376,[0.64125967],5.0,0.6,0.0,1.6887934744107453,0.0023228306247069265,1.180056158974729
8.93490982055664,0.5940120988794776,[0.63817565],5.0,0.6,0.0,2.076754808940178,-0.03109454001413866,1.1737998567933288
8.945152282714844,0.5910811181284275,[0.63513974],5.0,0.6,0.0,2.3689657790790823,-0.027328319844771843,1.17409455634363
8.953018426895142,0.5889317322443242,[0.63214669],5.0,0.6,0.0,2.546397458208712,-0.028281066006706556,1.1835129597405298
8.960943460464478,0.5863915489267474,[0.62919981],5.0,0.6,0.0,2.6226014171003214,0.003154745064430171,1.1880556844895727
8.968603372573853,0.5840467643259073,[0.62630538],5.0,0.6,0.0,2.6202600808807617,-0.007995460524202021,1.1945770720744087
8.980096578598022,0.5809203848581206,[0.62346373],5.0,0.6,0.0,2.837667252225099,-0.013478447127690394,1.1903328166367877
8.990628004074097,0.5779894041070706,[0.62067436],5.0,0.6,0.0,2.7744357137442694,0.015817521615099576,1.18891520124095
8.99897050857544,0.576035416939704,[0.61794007],5.0,0.6,0.0,2.875597634124796,-0.003340394714874637,1.1977251992267122
9.007894277572632,0.5734952336221272,[0.61525798],5.0,0.6,0.0,2.975966311776906,-0.01586786599279826,1.1989668486583605
9.021108627319336,0.5709550503045504,[0.61262035],5.0,0.6,0.0,3.2973362804539246,-0.025699478375756746,1.198636113399155
9.030588626861572,0.5691964618539204,[0.61001954],5.0,0.6,0.0,3.5892403354268727,-0.03762055770643695,1.2070533693718297
9.040613174438477,0.5674378734032904,[0.60744807],5.0,0.6,0.0,3.77312371171716,-0.04840963855092821,1.2155444373961137
9.050951719284058,0.5654838862359236,[0.604894],5.0,0.6,0.0,3.842009103435849,-0.08568546043784103,1.222115684707945
9.05918836593628,0.5641160952187669,[0.60234636],5.0,0.6,0.0,3.538634450776031,-0.05965967661427236,1.237301581448332
9.069092988967896,0.5621621080514002,[0.59980442],5.0,0.6,0.0,3.1305696344223515,-0.07041862932118793,1.2459844620899572
9.078957319259644,0.5602081208840336,[0.59726681],5.0,0.6,0.0,2.728760064853385,-0.08020105546859144,1.2543111235547137
9.0905921459198,0.5578633362831935,[0.59472702],5.0,0.6,0.0,2.096525022510309,-0.08697692326162114,1.2587559063717377
9.100143194198608,0.5557139503990901,[0.59217893],5.0,0.6,0.0,0.932982616351685,-0.09359524334240152,1.2658383572267324
9.110954284667969,0.5533691657982501,[0.58961689],5.0,0.6,0.0,-0.46780185486033365,-0.0984249505609759,1.2687485274135444
9.122832536697388,0.5506335837639368,[0.58703576],5.0,0.6,0.0,-1.6732155992309568,-0.10069302822716726,1.265108101974193
9.137650728225708,0.5471164068626767,[0.58443097],5.0,0.6,0.0,-3.1186894902948223,-0.09829225079414323,1.2497489132324964
9.153686046600342,0.5432084325279433,[0.58179341],5.0,0.6,0.0,-4.053360075729492,-0.11581761494547493,1.230397505590007
9.163818120956421,0.5406682492103666,[0.57911549],5.0,0.6,0.0,-4.597324264610304,-0.08731033576408949,1.228568444903964
9.174680233001709,0.5377372684593165,[0.57640675],5.0,0.6,0.0,-4.856959906738048,-0.05674341854318664,1.2242550100810008
9.184691190719604,0.5351970851417398,[0.573686],5.0,0.6,0.0,-4.91742746592618,-0.033150699318596946,1.2258995022538783
9.194772481918335,0.5324615031074265,[0.57096398],5.0,0.6,0.0,-4.84326493657094,-0.055568101743162214,1.226264287764272
9.206363916397095,0.5293351236396396,[0.56823914],5.0,0.6,0.0,-4.681723220043296,-0.06821878218340859,1.2227645475481932
9.215636491775513,0.526794940322063,[0.5655101],5.0,0.6,0.0,-4.466557652745935,-0.042575319102596265,1.2263540798669883
9.226599931716919,0.5240593582877495,[0.56278092],5.0,0.6,0.0,-3.9453696117755657,-0.061432776809931734,1.229459097505992
9.236184120178223,0.5211283775366995,[0.56004955],5.0,0.6,0.0,-3.3773236267255458,-0.07295143072079407,1.2302009705855823
9.247102737426758,0.5181973967856495,[0.55730878],5.0,0.6,0.0,-2.861590237320727,-0.08024477799087745,1.230372144336465
9.258637428283691,0.5150710173178628,[0.55455785],5.0,0.6,0.0,-2.426351764852697,-0.05032945453965875,1.2277339765648234
9.270539045333862,0.511944637850076,[0.55180149],5.0,0.6,0.0,-1.7945733845503102,-0.06401677722363584,1.2254195224410422
9.281700849533081,0.5086228596655527,[0.54903818],5.0,0.6,0.0,-1.4740505252468081,-0.07165805136566103,1.2196999059868372
9.291002988815308,0.5062780750647126,[0.5462611],5.0,0.6,0.0,-1.2969626806696573,-0.08069771732776349,1.2250956728003763
9.301355123519897,0.5033470943136626,[0.54346438],5.0,0.6,0.0,-0.9081056894573192,-0.08493917335364165,1.2241721967278563
9.311084270477295,0.5004161135626125,[0.54064306],5.0,0.6,0.0,-0.7900829527640016,-0.08785358208027848,1.2230451265510274
9.31996202468872,0.49768053152829916,[0.53779861],5.0,0.6,0.0,-0.4961738108856689,-0.060272186604876515,1.2245932121938885
9.33171033859253,0.49435875334377566,[0.53494352],5.0,0.6,0.0,-0.47155625744271557,-0.03333578878384096,1.2191720125004952
9.342275857925415,0.4914277725927257,[0.53208833],5.0,0.6,0.0,-0.5326692555408286,-0.05478623925046474,1.2182409299376837
9.351908683776855,0.4884967918416756,[0.52923627],5.0,0.6,0.0,-0.6033839905299552,-0.030835011860125577,1.2172587201863458
9.36460828781128,0.4845888175069422,[0.52639553],5.0,0.6,0.0,-0.6565140772637441,-0.006805601802118142,1.2046772731535138
9.37479543685913,0.48165783675589213,[0.52357847],5.0,0.6,0.0,-0.4099706621740274,0.007549400269789029,1.2035293115804473
9.386540412902832,0.47853145728810537,[0.52079515],5.0,0.6,0.0,-0.3848943400968541,0.019219703846071884,1.1994915343805224
9.39863634109497,0.4750142803868453,[0.51804782],5.0,0.6,0.0,0.12080052827425442,-0.01761184708262014,1.1904630888671215
9.412422895431519,0.47149710348558527,[0.51532628],5.0,0.6,0.0,0.6837229372221099,-0.03908530440822798,1.1806477962631703
9.42414379119873,0.46837072401779856,[0.51261564],5.0,0.6,0.0,1.4259510409676661,-0.05312660165746421,1.174515474544736
9.434597253799438,0.4656351419834852,[0.50990291],5.0,0.6,0.0,2.0677808262347517,-0.06340273993806089,1.1725806161871555
9.445590734481812,0.46309495866590844,[0.50717692],5.0,0.6,0.0,2.8065596835149513,-0.07141944390572587,1.172146456390444
9.456509828567505,0.46035937663159504,[0.50442231],5.0,0.6,0.0,3.1264710832192675,-0.09366718289590394,1.1709793942557398
9.466123104095459,0.4578191933140183,[0.50162044],5.0,0.6,0.0,2.9371679829629818,-0.09359881114423968,1.1749482476917548
9.478703498840332,0.454497415129495,[0.49876183],5.0,0.6,0.0,2.860657746651219,-0.09016245155453878,1.1697387471851326
9.489756345748901,0.4515664343784449,[0.49584497],5.0,0.6,0.0,2.24859914511167,-0.08912597856352839,1.1718748454057
9.50161600112915,0.4484400549106582,[0.49287516],5.0,0.6,0.0,1.2773635548412003,-0.06415439516003166,1.1725371425464233
9.513816118240356,0.4451182767261348,[0.48986347],5.0,0.6,0.0,0.35967937369273195,-0.06967637969739846,1.1699379391734572
9.524596691131592,0.44218729597508477,[0.48681385],5.0,0.6,0.0,-0.3707174117845522,-0.07481443633075174,1.171354356732737
9.53516411781311,0.439060916507298,[0.48371827],5.0,0.6,0.0,-1.173622017352308,-0.09248918066856439,1.170063116563895
9.548696756362915,0.4353483408893013,[0.48055887],5.0,0.6,0.0,-1.5572004420444379,-0.0906131921276273,1.162646407876131
