t_s,q_rad,q_des_rad,K,B,Kff,jerk,tau_Nm,reward
0.005835533142089844,-0.059987406038157755,1.1912034420288575,9.825212432529046,0.9781515540661307,1.9737818648793566,0.0,9.9,0.5
0.06656265258789062,-0.059987406038157755,1.4094405955975284,9.650424865058092,0.9563031081322615,1.9475637297587132,0.0,9.999,0.5
0.13371634483337402,-0.059987406038157755,1.5284449661251038,9.475637297587138,0.9344546621983922,1.92134559463807,0.0,9.99999,0.5
0.19446873664855957,-0.0597920073214211,1.5483387964097515,9.300849730116184,0.9126062162645229,1.8951274595174268,0.0,9.9999999,0.5
0.25836753845214844,-0.059987406038157755,1.517246402170603,9.12606216264523,0.8907577703306536,1.8689093243967834,0.0,9.999999999,0.5
0.32340526580810547,-0.059987406038157755,1.5248060332231836,8.951274595174274,0.8689093243967844,1.84269118927614,0.0,9.99999999999,0.5
0.3869190216064453,-0.059987406038157755,1.6668940244118955,8.77648702770332,0.847060878462915,1.8164730541554968,0.0,-9.8000000000001,0.5
0.45031285285949707,-0.059987406038157755,1.8758099358756037,8.601699460232366,0.8252124325290457,1.7902549190348536,0.0,-9.998000000000001,0.5
0.5143692493438721,-0.059987406038157755,2.0834665049655343,8.426911892761412,0.8033639865951765,1.7640367839142101,0.0,-9.99998,0.5
0.5789222717285156,-0.059987406038157755,2.2362463272929105,8.252124325290458,0.7815155406613071,1.7378186487935667,0.0,-9.999999800000001,0.5
0.6446115970611572,-0.059987406038157755,2.35957267844067,8.077336757819502,0.7596670947274378,1.7116005136729235,0.0,4.850000002,0.5
0.7062137126922607,-0.056470229136897705,2.3929097184971972,7.902549190348549,0.7378186487935685,1.6853823785522803,5.0,4.99850000002,0.4817320621239355
0.7701997756958008,-0.03126379467786724,2.381643649172107,7.727761622877595,0.7159702028596993,1.659164243431637,5.0,-4.9000149999998,0.4817320621239355
0.8370075225830078,-0.004494170484943416,2.3813361665222788,7.55297405540664,0.6941217569258299,1.6329461083109935,5.0,-4.999000149999998,0.4817320621239355
0.9038906097412109,0.014850302471986938,2.3811522899753266,7.378186487935686,0.6722733109919605,1.6067279731903503,5.0,-4.9999900015000005,0.4817320621239355
0.9624037742614746,0.019539871673667025,2.3810417599173332,7.203398920464732,0.6504248650580913,1.5805098380697071,-5.0,-4.999999900015,0.4817320621239355
1.0262689590454102,-0.005471164068626767,2.380964924187834,7.028611352993777,0.6285764191242219,1.5542917029490637,-5.0,-4.99999999900015,0.4817320621239355
1.093580722808838,-0.023447846008400428,2.3809156747745477,6.853823785522822,0.6067279731903527,1.5280735678284203,-5.0,-4.999999999990002,0.4817320621239355
1.154378890991211,-0.031459193394603915,2.3798343468265775,6.679036218051868,0.5848795272564833,1.501855432707777,-5.0,-4.9999999999999005,0.4817320621239355
1.2182574272155762,-0.034390174145653964,2.374554290577276,6.504248650580913,0.563031081322614,1.475637297587134,4.060441325424487,-4.999999999999999,0.4878763349118424
1.2822420597076416,-0.0347809715791273,2.3646668970129543,6.329461083109958,0.5411826353887447,1.4494191624664907,5.0,-5.0,0.4817320621239355
1.347029447555542,-0.0347809715791273,2.3534825522132543,6.154673515639004,0.5193341894548753,1.4232010273458477,5.0,-5.0,0.4817320621239355
1.4223637580871582,-0.0347809715791273,2.3415214484893414,5.97988594816805,0.5,1.3969828922252046,5.0,-5.0,0.4817320621239355
1.4746994972229004,-0.0347809715791273,2.33464107619945,5.805098380697095,0.5,1.3707647571045614,5.0,-5.0,0.4817320621239355
1.5482738018035889,-0.0347809715791273,2.3333453159560933,5.63031081322614,0.5,1.3445466219839184,4.933886705146197,-5.0,0.4822033242827987
1.6084213256835938,-0.0347809715791273,2.3328908830471207,5.455523245755186,0.5,1.3183284868632752,4.180207068146314,-5.0,0.4871599913040867
1.6697053909301758,-0.0347809715791273,2.3325696058847876,5.280735678284231,0.5,1.292110351742632,3.298167715187616,-5.0,0.4919676951182161
1.7321696281433105,-0.0347809715791273,2.332326636053944,5.105948110813277,0.5,1.2658922166219888,2.502805998170081,-5.0,0.49535872257335223
1.7946689128875732,-0.0347809715791273,2.332108533300553,5.0,0.5,1.2396740815013456,1.856439534180891,-5.0,0.4974410924497572
1.8593194484710693,-0.0347809715791273,2.3310891627079244,5.0,0.5,1.2134559463807026,1.3585818954146034,-0.3768192257675766,0.49862791268708007
1.9221782684326172,-0.0347809715791273,2.3296834515995273,5.0,0.5,1.1872378112600595,0.9868340669907099,9.4791163201043,0.4992755971533765
1.9862046241760254,-0.031849990828077254,2.3284237692828254,5.0,0.5,1.1610196761394163,5.0,9.994791163201043,0.4817320621239355
2.051661729812622,-0.006057360218836778,2.327453989589599,5.0,0.5,1.1348015410187733,5.0,9.999947911632011,0.4817320621239355
2.1166274547576904,0.020126067823877037,2.326772898158324,5.0,0.5,1.10858340589813,5.0,9.99999947911632,0.4817320621239355
2.1783859729766846,0.04494170484943416,2.3262419563879986,5.0,0.5,1.082365270777487,5.0,9.999999994791164,0.4817320621239355
2.243967056274414,0.0709297341754113,2.326164340853919,5.0,0.5,1.0561471356568437,5.0,9.999999999947912,0.4817320621239355
2.309166669845581,0.0971131622181251,2.3261316652339743,5.0,0.5,1.0299290005362005,4.989256143185781,9.99999999999948,0.4818090407722893
2.3709025382995605,0.1221241979604189,2.3261093335848226,5.0,0.5,1.0037108654155575,1.886106145866422,9.999999999999995,0.4973588724459493
2.434446096420288,0.14733063241944935,2.3260910783087465,5.0,0.5,0.9774927302949143,-1.6458334029553634,10.0,0.49798765240354104
2.4982638359069824,0.1733186617454265,2.32607573069206,5.0,0.5,0.9512745951742712,-4.3489863125706005,10.0,0.48611702572251025
2.566570281982422,0.20067448208856034,2.3260131223522955,5.0,0.5,0.9250564600536281,-5.0,5.05,0.4817320621239355
2.6262505054473877,0.22509932168064412,2.3259326214283713,5.0,0.5,0.898838324932985,-5.0,5.000500000000001,0.4817320621239355
2.6901772022247314,0.25030575613967454,2.3258574784688983,5.0,0.5,0.8726201898123418,-5.0,5.000005,0.4817320621239355
2.7541615962982178,0.2759029880321784,2.3257986277007654,5.0,0.5,0.8464020546916986,-5.0,5.000000050000001,0.4817320621239355
2.8215701580047607,0.30306340965857553,2.325754869701492,5.0,0.5,0.8201839195710555,-5.0,5.0000000005,0.4817320621239355
2.8848583698272705,0.3296376351347627,2.3257303206757096,5.0,0.5,0.7939657844504124,-5.0,5.0000000000050004,0.4817320621239355
2.948624610900879,0.3564072593276865,2.325718775166276,5.0,0.5,0.7677476493297692,-5.0,5.00000000000005,0.4817320621239355
3.014940023422241,0.3804413014862969,2.325716620299626,5.0,0.5,0.741529514209126,-5.0,5.000000000000001,0.4817320621239355
3.0741636753082275,0.404084546211434,2.3257153762848186,5.0,0.5,0.715311379088483,-5.0,5.0,0.4817320621239355
3.1438632011413574,0.4320265627047779,2.3257139486835565,5.0,0.5,0.6890932439678399,-5.0,5.0,0.4817320621239355
3.2020256519317627,0.4554744087131783,2.3257132240945473,5.0,0.5,0.6628751088471967,-5.0,5.0,0.4817320621239355
3.2661449909210205,0.4812670393224188,2.325709948717266,5.0,0.5,0.6366569737265535,-5.0,5.0,0.4817320621239355
3.3347084522247314,0.5092090558157627,2.325704188602097,5.0,0.5,0.6104388386059104,-5.0,5.0,0.4817320621239355
3.394031047821045,0.5328523005408997,2.3257005794105425,5.0,0.5,0.5842207034852673,-5.0,5.0,0.4817320621239355
3.4580821990966797,0.5588403298668769,2.3256970381367132,5.0,0.5,0.5580025683646241,-4.799094496322043,5.0,0.48314608558451394
3.523562431335449,0.5846329604761173,2.3256943355145068,5.0,0.5,0.531784433243981,-4.441095627477546,5.0,0.48553141063855204
3.5883066654205322,0.6112071859523045,2.3256924073465597,5.0,0.5,0.5055662981233379,-4.047239332600104,5.0,0.4879540879119006
3.6501412391662598,0.6358274242611249,2.3256921031298328,5.0,0.5,0.4793481630026947,-3.668102770575601,5.0,0.4900837588532795
3.7141284942626953,0.6616200548703655,2.3256919836302066,5.0,0.5,0.4531300278820516,-3.3217246760675208,5.0,0.49185348803676077
3.7783071994781494,0.6874126854796059,2.325691892431107,5.0,0.5,0.42691189276140845,-2.735807590264757,5.0,0.4944593550708349
3.843296527862549,0.7135961135223197,2.3256918287442554,5.0,0.5,0.4006937576407653,-2.1512535044844916,5.0,0.49656683584598976
3.906099796295166,0.7389979466980869,2.3256917792198815,5.0,0.5,0.3744756225201221,-1.9284268986344977,5.0,0.4972393500976061
3.970018148422241,0.7651813747408006,2.3256916114935304,5.0,0.5,0.3482574873994789,-1.841272473650034,5.0,0.4974826290516823
4.036550283432007,0.7915602015002512,2.3256912649785475,5.0,0.5,0.3220393522788358,-1.516230202288773,5.0,0.49829158275275315
4.10079026222229,0.817743629542965,2.3256910247506917,5.0,0.5,0.2958212171581926,-1.4341896732039934,5.0,0.498471184581863
4.16204309463501,0.8421684691350487,2.3256908348282437,5.0,0.5,0.2696030820375494,-1.704811489258646,5.0,0.4978411615734132
4.226128816604614,0.8679610997442891,2.325690672248317,5.0,0.5,0.24338494691690624,-2.0171146975266776,5.0,0.4969803740830684
4.2911248207092285,0.8937537303535298,2.3256905530034735,5.0,0.5,0.21716681179626307,-1.707219608788862,5.0,0.49783507159383006
4.3556084632873535,0.9213049494134001,2.3256905301147537,5.0,0.5,0.19094867667561988,-1.7874468193272053,6.965953424491009,0.4976273130258023
4.418105363845825,0.9445573967050639,2.3256905236464362,5.0,0.5,0.16473054155497668,-1.9566008783982463,6.870175994916637,0.4971583269516179
4.483718633651733,0.9717178183314611,2.325690518160078,5.0,0.5,0.13851240643433352,-1.822732541253896,6.734502253713461,0.49753294443188695
4.547898530960083,0.9973150502239649,2.325690514081521,5.0,0.5,0.11229427131369034,-1.318814826411897,6.606087212325478,0.49870695943171156
4.61476469039917,1.0246708705670988,2.3256905108396317,5.0,0.5,0.08607613619304716,-1.0516981595329147,6.469161559586909,0.4991773191800667
4.6740148067474365,1.048314115292236,2.325690502988848,5.0,0.5,0.05985800107240398,-0.8989632188906356,6.35060122114092,0.4993987857215586
4.737962484359741,1.073715948468003,2.325690482143827,5.0,0.5,0.0336398659517608,-0.8012912741920104,6.223571146677251,0.49952227282616346
4.804415225982666,1.1000947752274535,2.3256904662354674,5.0,0.5,0.0074217308311176206,-0.7302917883896065,6.0916590076820665,0.49960314934362327
4.866104602813721,1.1249104122530105,2.3256904562676333,5.0,0.5,0.0,-0.39656887551496767,5.967345182352836,0.49988294416012236
4.929965972900391,1.150703042862251,2.3256904464874517,5.0,0.5,0.0,-0.31293590574164043,5.838356214402553,0.4999271070026284
4.9939258098602295,1.1761048760380182,2.325690439023478,5.0,0.5,0.0,-0.3219669310350282,5.711291220740895,0.4999228393817697
5.059958457946777,1.2026791015142053,2.3256904374820273,5.0,0.5,0.0,-0.07921790508302401,5.578318055831754,0.4999953285537825
5.121964931488037,1.2276901372564992,2.3256904371282534,5.0,0.5,0.0,-0.3526441220572847,5.453246095709464,0.49990743649928515
5.186063766479492,1.2536781665824763,2.3256904367982156,5.0,0.5,0.0,-0.736096056563936,5.323528224237833,0.4995968185900506
5.250387191772461,1.2792753984749798,2.325690436546338,5.0,0.5,0.0,-0.7972488922023626,5.195611589623278,0.4995270785025377
5.317198276519775,1.3066312188181142,2.325690436354114,5.0,0.5,0.0,-0.7334353925274516,5.058964565871556,0.4995997268051392
5.377933979034424,1.3304698622599875,2.325690387160003,5.0,0.5,0.0,-0.9087444327883325,4.939759193091559,0.4993856395471603
5.44191837310791,1.3564578915859649,2.318544411557467,5.0,0.5,0.0,-1.1168372800654178,4.584026193593506,0.4990723518225555
5.507447004318237,1.3824459209119417,2.3003002354356634,5.0,0.5,0.0,-0.7304701055009235,4.371000948378201,0.49960295559697177
5.570445537567139,1.4082385515211824,2.297810278070223,5.0,0.5,0.0,-0.49336928548339987,4.206026689278856,0.4998188358739765
5.634030818939209,1.4330541885467396,2.2957299836171887,5.0,0.5,0.0,-0.34346095600752274,4.014487235696962,0.4999121941830748
5.697928428649902,1.45943301530619,2.2941896553545806,5.0,0.5,0.0,-0.2459896596143589,3.8732544095736854,0.4999549576733207
5.765094995498657,1.486202639499114,2.293147285617323,5.0,0.5,0.0,-0.18097075827316084,3.7614647516477135,0.49997562116770816
5.830687999725342,1.5127768649753008,2.2774154162636124,5.0,0.5,0.0,0.13945488938442094,3.6115380633682195,0.4999855233565146
5.890016794204712,1.5362247109837017,2.2484426710955914,5.0,0.5,0.0,0.20352881794966488,3.1523561429827778,0.4999691649182518
5.953937292098999,1.5622127403096786,2.2380438638222224,5.0,0.5,0.0,0.17044110072431373,2.994407058476039,0.49997837550648516
6.020965099334717,1.5883961683523924,2.2311781584502315,5.0,0.5,0.0,0.38634706629719234,2.879404047714451,0.49988890010246
6.082308769226074,1.6132118053779496,2.227914104130138,5.0,0.5,0.0,0.36073233979810126,2.8064786541574307,0.4999031421633747
6.146001815795898,1.63841823983698,2.226065513891989,5.0,0.5,0.0,-0.018152399269603714,2.731539695972194,0.4999997547129389
6.209962606430054,1.6642108704462204,2.2250944538781767,5.0,0.5,0.0,-0.16254579349166676,2.5152320707085156,0.4999803324798617
6.274256944656372,1.6896127036219875,2.2240540316431145,5.0,0.5,0.0,-0.4780860399279974,2.370446087742082,0.4998298840990708
6.337907075881958,1.7152099355144914,2.2225170309789837,5.0,0.5,0.0,-0.7830458934753635,2.2544898030241085,0.4995437709922799
6.401878118515015,1.740220971256785,2.2206744242397676,5.0,0.5,0.0,-0.7412215779380293,2.1383524832023095,0.49959118654891604
6.465869426727295,1.7660136018660257,2.2187613027669704,5.0,0.5,0.0,-0.5867847209722755,2.0138294578235283,0.49974375643947855
6.53247332572937,1.7921970299087393,2.217060635293144,5.0,0.5,0.0,-0.4183882118383865,1.8894435273861991,0.4998697106358303
6.593858480453491,1.8166218695008234,2.21593524160058,5.0,0.5,0.0,-0.272471372899713,1.7857774411555354,0.49994473827538316
6.6578850746154785,1.8418283039598535,2.2154353121627404,5.0,0.5,0.0,-0.15824753068747355,1.691410947633615,0.49998135886095474
6.7222912311553955,1.8670347384188843,2.2150694201854773,5.0,0.5,0.0,-0.07403239307323489,1.593166069847929,0.49999592013988625
6.786193370819092,1.8924365715946512,2.2148156001129635,5.0,0.5,0.0,-0.014592545769369136,1.4897887483594507,0.49999984242511913
6.849905014038086,1.9170568099034717,2.214623554207849,5.0,0.5,0.0,0.025751197616104393,1.3854127932105054,0.49999952674043796
6.913941144943237,1.9426540417959755,2.214457105154378,5.0,0.5,0.0,0.3280100296038956,1.2713047751307522,0.49992029887189166
6.978330135345459,1.9680558749717427,2.2142488234134645,5.0,0.5,0.0,0.3772018620099763,1.152425770366669,0.4998995344695468
7.042160749435425,1.9930669107140364,2.214057760212302,5.0,0.5,0.0,0.33103325004943784,1.0333609116196347,0.4999757226203286
7.10584020614624,2.0184687438898035,2.2138898937144362,5.0,0.5,0.0,-0.01708014740388278,0.9112600666570903,0.5004816292384532
7.169849634170532,2.043675178348834,2.2137528889777323,5.0,0.5,0.0,0.15600346085651118,0.7893030057297479,0.5030543167701593
7.235024690628052,2.0688816128078646,2.213647851017253,5.0,0.5,0.0,-0.3659605011791211,0.6673420101935044,0.5150246117001894
7.299686431884766,2.094674243417105,2.2135741823335353,5.0,0.5,0.0,-0.18005002301317152,0.542010572749142,0.5591400422625875
7.361854076385498,2.1190990830091887,2.2135492358092317,5.0,0.5,0.0,-0.627481444713621,0.4242139539330376,0.6676440071699178
7.425913333892822,2.144110118751483,2.2135272783874687,5.0,0.5,0.0,-0.6342304913540958,0.3022976614427372,0.8811609886623921
7.490374803543091,2.17009814807746,2.2135109615607904,5.0,0.5,0.0,-0.49018672846728273,0.17472071961203145,1.1857821852574828
7.558537006378174,2.1966723735536466,2.21349774802356,5.0,0.5,0.0,-0.5951121147982967,0.043713119789776635,1.4446907973027128
7.617853403091431,2.216798441377524,2.213489741735102,5.0,0.5,0.0,-4.3416270742198355,-0.053835258516136346,1.4839762116537953
7.6819071769714355,2.232039541282984,2.213477641927793,5.0,0.5,0.0,-5.0,-0.12389924811507644,1.4151438453764134
7.747176885604858,2.237901502785084,2.213464167965158,5.0,0.5,0.0,-5.0,-0.14337840379856673,1.36915227148438
7.810024976730347,2.234579724600561,2.2134556538574204,5.0,0.5,0.0,-5.0,-0.11521886656978006,1.3963532763394775
7.873895883560181,2.2263729784976207,2.2134474370856316,5.0,0.5,0.0,-5.0,-0.06442176216002127,1.448870217003076
7.937939643859863,2.2144536567766835,2.213441111909534,5.0,0.5,0.0,-5.0,0.0025724375638185395,1.4815270337235331
8.002167224884033,2.2015573414720637,2.2134365039274013,5.0,0.5,0.0,-5.0,0.0717832826022296,1.4539037075882022
8.065871477127075,2.1917874056352304,2.2134350071739584,5.0,0.5,0.0,-1.6129007944618667,0.12092005659797532,1.4086015056394365
8.129873037338257,2.1867070390000767,2.2134336859235635,5.0,0.5,0.0,5.0,0.1433864521786953,1.3486051175161375
8.19404673576355,2.1857300454163933,2.2134326775885476,5.0,0.5,0.0,5.0,0.14406252429073346,1.3394438342509751
8.260111331939697,2.1857300454163933,2.2134319080597353,5.0,0.5,0.0,5.0,0.14120143505869837,1.3394511480513513
8.321890592575073,2.1857300454163933,2.2134314258908323,5.0,0.5,0.0,5.0,0.13976964157385002,1.3394557306372574
8.385836362838745,2.1857300454163933,2.2134307401269715,5.0,0.5,0.0,5.0,0.13906307443399862,1.3394622481166525
8.449837446212769,2.1857300454163933,2.2134299291323085,5.0,0.5,0.0,5.0,0.13871495136027973,1.3394699556415568
8.514521360397339,2.1857300454163933,2.2134293505314844,5.0,0.5,0.0,5.0,0.1385540154024535,1.3394754544480691
8.57781195640564,2.1857300454163933,2.2134289223861328,5.0,0.5,0.0,5.0,0.13848376046345734,1.3394795233306152
8.641868114471436,2.1857300454163933,2.2134285418726605,5.0,0.5,0.0,5.0,0.13845462999296582,1.3394831395066533
8.705816745758057,2.1857300454163933,2.2134282514743218,5.0,0.5,0.0,5.0,0.13844630123847582,1.3394858992583452
8.77130389213562,2.1857300454163933,2.2134281562994196,5.0,0.5,0.0,5.0,0.13845157732072652,1.3394868037326315
8.833691596984863,2.1857300454163933,2.213428084782361,5.0,0.5,0.0,5.0,0.13845838621710838,1.339487483378253
8.89771294593811,2.1861208428498666,2.213428024122356,5.0,0.5,0.0,4.850290665648968,0.1365301693829213,1.344242448769039
8.962218523025513,2.1857300454163933,2.2134279778282706,5.0,0.5,0.0,4.539943338043106,0.1384506374118464,1.3426465497982474
9.026392936706543,2.1857300454163933,2.213427946203816,5.0,0.5,0.0,4.182357248797794,0.13847428445012303,1.3449036883236036
9.089821100234985,2.1857300454163933,2.213427910086009,5.0,0.5,0.0,3.827313348275606,0.13847757329956986,1.3469709010735054
9.153749227523804,2.1857300454163933,2.2134278612988156,5.0,0.5,0.0,3.494618613442168,0.13847932291694934,1.3487488039512765
9.218844652175903,2.1857300454163933,2.213427824065731,5.0,0.5,0.0,3.1903968862175582,0.138480906370591,1.3502380413129154
9.281814098358154,2.1857300454163933,2.2134278007362846,5.0,0.5,0.0,2.914860832981063,0.13848246301846992,1.3514732198739732
9.345802068710327,2.1857300454163933,2.2134277778460274,5.0,0.5,0.0,2.665935086887893,0.1384835468145543,1.3524956194092783
9.409780740737915,2.1857300454163933,2.213427760376796,5.0,0.5,0.0,2.4408825304099264,0.13848446380304794,1.3533430464256937
9.47649335861206,2.1857300454163933,2.2134117494290377,5.0,0.5,0.0,2.236986536353946,0.13793090978671485,1.3541994090395675
9.542748212814331,2.1857300454163933,2.182821945064987,5.0,0.5,0.0,2.0517993558322343,-0.2856714025499561,1.495185983187273
9.601699352264404,2.18533924798292,2.0743908979736396,5.0,0.5,0.0,1.331123665940337,-1.7089452073940414,0.583954900606897
9.665780067443848,2.175764710862823,1.8678023588151687,5.0,0.5,0.0,-5.0,-4.189957686641944,0.48173206790798345
9.73155665397644,2.149385884103373,1.732644104849564,5.0,0.5,0.0,-5.0,-5.158081877452426,0.4817320621239363
9.793782711029053,2.1235932534941324,1.715629929372767,5.0,0.5,0.0,-5.0,-4.355549014310038,0.481732062123939
9.857691526412964,2.097605224168155,1.7823897534697857,5.0,0.5,0.0,-5.0,-2.604353994883284,0.48173206446617434
9.922082901000977,2.0712263974087044,1.8882514191660866,5.0,0.5,0.0,-5.0,-0.6852095504299404,0.4829679464241396
9.98887014389038,2.0444567732157806,1.9913721261921784,5.0,0.5,0.0,-4.052977048682536,0.8253579295781851,1.0570790386282822
10.049785614013672,2.020031933623697,2.058967284827595,5.0,0.5,0.0,2.1139641871627264,1.5727792994435026,1.2351414981279434
10.11370038986206,2.0165147567224366,2.1228370541785893,5.0,0.5,0.0,5.0,2.070098847464863,0.5859901137699679
10.177705764770508,2.040158001447574,2.1672849444950977,5.0,0.5,0.0,5.0,2.1096651989563355,0.5212005804315955
10.241980075836182,2.064973638473131,2.194538737808129,5.0,0.5,0.0,5.0,1.9219512685012288,0.5165569495062905
10.305651187896729,2.0895938767819517,2.21612922688064,5.0,0.5,0.0,5.0,1.7154170510740323,0.5224031030510715
10.369677543640137,2.114800311240982,2.23199917292381,5.0,0.5,0.0,5.0,1.483909453299162,0.5458446448494135
10.434152364730835,2.1394205495498024,2.2382554591537027,5.0,0.5,0.0,5.0,1.177041905955778,0.6234852465865026
10.499883651733398,2.165213180159043,2.230529273767,5.0,0.5,0.0,4.624728201504711,0.7340184668778743,0.9103625210322908
10.561875581741333,2.189051823600917,2.121648685456304,5.0,0.5,0.0,1.2875737907599039,-1.020431914997201,0.901840817400194
10.625759363174438,2.2128904670427905,1.9095911813390063,5.0,0.5,0.0,-4.869043605684928,-3.8897006287127187,0.48265988842248153
10.690762519836426,2.2058561132402703,1.700675269875298,5.0,0.5,0.0,-5.0,-6.062542881490712,0.4817320621239355
10.756401300430298,2.178109495463663,1.5227024645446614,5.0,0.5,0.0,-5.0,-7.350462261303176,0.4817320621239355
10.817589521408081,2.1536846558715794,1.4220823592243688,5.0,0.5,0.0,-5.0,-7.4183753055328525,0.4817320621239355
10.882593154907227,2.1265242342451827,1.4287685535431018,5.0,0.5,0.0,-5.0,-6.070711061682307,0.4817320621239355
10.947758436203003,2.1001454074857318,1.6010335407155285,5.0,0.5,0.0,-5.0,-2.7725160603159598,0.4817320621239355
11.01082468032837,2.0737665807262813,1.7816751182969304,5.0,0.5,0.0,-5.0,-0.029291763891416894,0.4817321009767823
11.073677062988281,2.049146342417461,1.9842942445345122,5.0,0.5,0.0,-4.358560816521337,2.498493588290327,0.9172671869334841
11.138184547424316,2.0272616861429538,2.163963129436921,5.0,0.5,0.0,5.0,4.278385576224756,0.5055466507233297
11.20236349105835,2.047778551400304,2.2597576741639838,5.0,0.5,0.0,5.0,4.443696422418611,0.4818570830160725
11.26653504371643,2.072007992275651,2.36950051898301,5.0,0.5,0.0,5.0,4.835343499971007,0.48173208267484396
11.32964038848877,2.096628230584472,2.384777393944334,5.0,0.5,0.0,5.0,3.9291642942504934,0.4817321235158271
11.394548654556274,2.1218346650435023,2.2435129571720305,5.0,0.5,0.0,5.0,1.0972886365534258,0.533492904458868
11.460525274276733,2.1470410995025326,2.029884656727938,5.0,0.5,0.0,5.0,-2.1568431730894697,0.5459722415223678
11.523385047912598,2.168534958343566,1.850665155016796,5.0,0.5,0.0,-0.0957867771154941,-4.305637884024212,0.4999931717660313
11.585691213607788,2.1478226943694794,1.6812588136228817,5.0,0.5,0.0,-5.0,-5.753793177265354,0.4817320621239355
11.64958643913269,2.121443867610029,1.4886057669590058,5.0,0.5,0.0,-5.0,-7.281693699559874,0.4817320621239355
11.716869831085205,2.094088047266895,1.337248502810119,5.0,0.5,0.0,-5.0,-8.027255622997162,0.4817320621239355
11.777670860290527,2.0690770115246013,1.2601403834417986,5.0,0.5,0.0,-5.0,-7.713178899427152,0.4817320621239355
11.841973543167114,2.0428935834818875,1.3339048371713758,5.0,0.5,0.0,-5.0,-5.465696723344591,0.4817320621239355
11.905619859695435,2.0167101554391738,1.5458032133222044,5.0,0.5,0.0,-5.0,-1.8093861694569504,0.4817320621239355
11.969856977462769,1.9905267273964597,1.7062253786280241,5.0,0.5,0.0,-3.884951492492359,0.41091483354185715,0.4888902590513533
12.033594846725464,1.964929495503956,1.7253488756957513,5.0,0.5,0.0,1.1876224537229318,0.2771945216556783,0.49896150109433784
12.097638130187988,1.9512515853323888,1.5610002532130258,5.0,0.5,0.0,5.0,-2.3711588693953414,0.4817320621239946
12.162710189819336,1.9461712186972357,1.3541362571747622,5.0,0.5,0.0,5.0,-5.107290083493124,0.4817320621239355
12.229530334472656,1.9194015945043117,1.2011678089256588,5.0,0.5,0.0,-5.0,-6.472318082372313,0.4817320621239355
12.289631843566895,1.8953675523457014,1.1542973306884643,5.0,0.5,0.0,-5.0,-6.15276342638922,0.4817320621239355
12.353635787963867,1.869379523019724,1.1523756516321313,5.0,0.5,0.0,-5.0,-5.317902658107108,0.4817320621239355
12.419213771820068,1.8428052975435372,1.1360577655694362,5.0,0.5,0.0,-3.1163164202565685,-4.888443982736182,0.4928228180552895
12.481658935546875,1.81740346436777,1.1586179733233337,5.0,0.5,0.0,-0.5703025925300187,-4.041176825912504,0.4997579460227053
12.54561996459961,1.7910246376083194,1.3177579257384338,5.0,0.5,0.0,1.7120825788893823,-1.4736094351470561,0.497822747475274
12.609598636627197,1.7650366082823423,1.5279538421002954,5.0,0.5,0.0,3.455381149461505,1.3246085973413668,0.49120375652637094
12.674903631210327,1.739048578956365,1.6799792171760881,5.0,0.5,0.0,5.0,2.8374653161714956,0.9793921944130399
12.737836122512817,1.7441289455915185,1.6901893698180026,5.0,0.5,0.0,5.0,2.0307178932245855,1.040570109134937
12.80194616317749,1.7699215762007592,1.5710344176217783,5.0,0.5,0.0,5.0,-0.4434046587585381,0.4820986690355231
12.86553692817688,1.7939556183593695,1.4213531094447729,5.0,0.5,0.0,5.0,-2.8224966505991484,0.4817320621248088
12.931341171264648,1.7982543901275763,1.3497233916755405,5.0,0.5,0.0,-4.412018330804781,-3.5678984766581876,0.48571752818103325
12.993895292282104,1.7734387531020193,1.3073662793045953,5.0,0.5,0.0,-5.0,-3.637806498018703,0.4817320621239355
13.057467222213745,1.7470599263425688,1.2396542274491593,5.0,0.5,0.0,-5.0,-4.052846994133418,0.4817320621239355
13.121547222137451,1.7212672957333282,1.061343173495849,5.0,0.5,0.0,-5.0,-5.945055062020698,0.4817320621239355
13.185596942901611,1.6950838676906144,0.891697170202003,5.0,0.5,0.0,-5.0,-7.390492812231807,0.4817320621239355
13.252029657363892,1.668509642214427,0.674403150802459,5.0,0.5,0.0,-5.0,-9.27522588671063,0.4817320621239355
13.31360650062561,1.6434986064721333,0.5628768591059429,5.0,0.5,0.0,-5.0,-9.428303257230052,0.4817320621239355
13.37871527671814,1.6169243809959462,0.5264414327061774,5.0,0.5,0.0,-4.211958731662378,-8.603884998262773,0.4869667665863386
13.442111730575562,1.590936351669969,0.4911197199099344,5.0,0.5,0.0,-2.3664229372265413,-8.019569370404707,0.4958487177679059
13.505526065826416,1.565534518494202,0.4370003414098559,5.0,0.5,0.0,-0.22659027140450827,-7.887795626684978,0.4999617815916861
13.569598913192749,1.5391556917347513,0.5150489705438407,5.0,0.5,0.0,1.6041568637545942,-6.004298122145575,0.4980880845498074
13.633927583694458,1.5129722636920375,0.7207036725186153,5.0,0.5,0.0,3.244324979673592,-2.745257688558818,0.4922257769950318
13.70023488998413,1.4860072407823772,0.9311903803091333,5.0,0.5,0.0,4.196524449937908,-0.02939750337052222,0.48706086494200246
13.761468887329102,1.4615824011902934,1.1073340403359293,5.0,0.5,0.0,5.0,1.7399720374893057,0.4817320621365222
13.825474262237549,1.439893143632523,1.2818758723393684,5.0,0.5,0.0,5.0,3.23827473278009,0.4885112931232887
13.890027523040771,1.4551342435379833,1.3897521013035323,5.0,0.5,0.0,5.0,3.4673501917333622,0.9070301789377073
13.957535028457642,1.4817084690141706,1.4003905805709553,5.0,0.5,0.0,5.0,2.352070081878973,0.7481950849372451
14.017540693283081,1.505547112456044,1.3402130031577009,5.0,0.5,0.0,5.0,0.5682616486119325,0.4859556363369791
14.081461668014526,1.5303627494816012,1.1569952100761012,5.0,0.5,0.0,5.0,-2.5247040985391163,0.4817320621247146
14.146873235702515,1.5540059942067386,0.9449377059587993,5.0,0.5,0.0,5.0,-5.410092883967964,0.4817320621239355
14.210113286972046,1.5338799263828615,0.7674377210309745,5.0,0.5,0.0,-5.0,-7.082794004502858,0.4817320621239355
14.273462295532227,1.5084780932070943,0.5632341985476362,5.0,0.5,0.0,-5.0,-8.82777975847542,0.4817320621239355
14.337475538253784,1.4820992664476438,0.35611216398842044,5.0,0.5,0.0,-5.0,-9.988277797584754,0.4817320621239355
14.402153491973877,1.4561112371216667,0.20156610607172437,5.0,0.5,0.0,-5.0,-9.999882777975849,0.4817320621239355
14.467957496643066,1.428755416778533,0.13792588474307224,5.0,0.5,0.0,-5.0,-9.99999882777976,0.4817320621239355
14.529634237289429,1.4041351784697123,0.28012989243200487,5.0,0.5,0.0,-5.0,-7.070908683886365,0.4817320621239355
14.593404054641724,1.3773655542767886,0.4921873965493177,5.0,0.5,0.0,-5.0,-3.544409381062809,0.4817320621239355
14.659300088882446,1.350986727517338,0.6902657973586936,5.0,0.5,0.0,-3.5313895359780223,-0.9021626310148864,0.4908024423188422
14.725947380065918,1.3234355084574676,0.8022192637476576,5.0,0.5,0.0,-1.1727333106789184,0.09455900498597226,0.49897727080631116
14.785491466522217,1.2997922637323305,0.8148292360600156,5.0,0.5,0.0,1.866560845708782,-0.40548270030884975,0.49741318655060646
14.8501296043396,1.28103398692561,0.7684676550412429,5.0,0.5,0.0,5.0,-1.5564824247648401,0.4817320621239355
14.91424560546875,1.2579769383506831,0.7030279444883131,5.0,0.5,0.0,5.0,-2.4750320537011445,0.4817320621239355
14.978938579559326,1.231207314157759,0.5821968864274346,5.0,0.5,0.0,0.8961752273730172,-4.233811266069404,0.4994025068543414
15.041439056396484,1.2058054809819923,0.5089987714157898,5.0,0.5,0.0,0.005800215213601634,-4.837674576166236,0.4999999749565083
15.10538125038147,1.1800128503727516,0.5277611900021636,5.0,0.5,0.0,0.5952960353311326,-4.048659131722326,0.49973627087468675
15.169483423233032,1.1546110171969846,0.5647271397302918,5.0,0.5,0.0,1.5421625051955736,-3.1677418927679,0.49823274867946427
15.233459234237671,1.1280367917207974,0.5382763546609572,5.0,0.5,0.0,2.405691744941916,-3.328370962092802,0.49571039812105905
15.297390460968018,1.1026349585450301,0.4528408869408041,5.0,0.5,0.0,3.04944754009912,-4.271742134448397,0.49312542000509646
15.361406803131104,1.0768423279357897,0.3090044098262641,5.0,0.5,0.0,3.73956767421619,-5.837112642247771,0.48969764950850714
15.428994178771973,1.0492911088759191,0.20188122024875846,5.0,0.5,0.0,3.9925811282269006,-6.599660093118286,0.4882734323944159
15.489476203918457,1.025061668000572,0.15931803829873836,5.0,0.5,0.0,4.008862701442538,-6.369913689483381,0.4881787384130633
15.553496837615967,0.9990736386745949,0.1315609052079721,5.0,0.5,0.0,3.897716757713967,-6.014763179865768,0.48881785769706476
15.619731426239014,0.9721086157649345,0.11613344668210848,5.0,0.5,0.0,3.7198842817451903,-5.59111551106626,0.4898047074854145
15.681365251541138,0.9465113838724306,0.10779843694472964,5.0,0.5,0.0,3.509728301448151,-5.184147290413332,0.4909139019270364
15.745410680770874,0.9209141519799268,0.10107370961836422,5.0,0.5,0.0,3.286977049396514,-4.850212287519748,0.4920216733101795
15.809381008148193,0.8949261226539497,0.09652932666889132,5.0,0.5,0.0,3.0630491331368512,-4.555787430472439,0.4930643854763227
15.876281023025513,0.8681564984610259,0.093334860093639,5.0,0.5,0.0,2.8445320454940712,-4.294660730133264,0.4940129192740551
15.937668085098267,0.8433408614354688,0.09139960012286476,5.0,0.5,0.0,2.359102747093243,-4.0684895478618515,0.49587425474801444
16.001358032226562,0.8175482308262284,0.08967588495424786,5.0,0.5,0.0,2.1276884102381866,-3.8679989345526278,0.4966413866880092
16.06536340713501,0.7915602015002512,0.06963156358711689,5.0,0.5,0.0,1.996503354080403,-3.9444521003755053,0.49704158727070025
16.13133978843689,0.7651813747408006,0.04889220238170205,5.0,0.5,0.0,1.898559246728201,-3.9990118130280954,0.4973239747866337
16.196125745773315,0.7384117505478769,0.035380575052413724,5.0,0.5,0.0,1.8071453943275735,-3.9267296577246995,0.49757485614916486
16.257431983947754,0.7137915122390565,0.025734890024368018,5.0,0.5,0.0,1.7135171712454842,-3.8123973169795966,0.4978191051816771
16.32134175300598,0.6879988816298159,0.017722283884683578,5.0,0.5,0.0,1.8924414368134448,-3.6810952694298873,0.49734114728195383
16.387216091156006,0.661229257436892,0.013255509773377562,5.0,0.5,0.0,2.1024226960268737,-3.508320748567043,0.4967204176894833
16.44938635826111,0.6360228229778616,0.013254792179330269,5.0,0.5,0.0,1.9812404359126736,-3.2992757232920424,0.4970865159247416
16.513304948806763,0.6104255910853578,0.013254088204513192,5.0,0.5,0.0,1.7526732667656302,-3.2417416904938214,0.4977185241344347
16.577650547027588,0.5840467643259073,0.013253561450080647,5.0,0.5,0.0,1.5119238398468449,-3.082690322492557,0.49830125690640553
16.643197536468506,0.5578633362831935,0.013253159743748895,5.0,0.5,0.0,1.2948510309619494,-2.8926933944560558,0.4987534653278341
16.70993137359619,0.5305075159400596,0.013252840468086849,5.0,0.5,0.0,1.1111077144005956,-2.7009771029856293,0.4990818366727147
16.76938009262085,0.5068642712149226,0.012455955942044069,5.0,0.5,0.0,0.9596744319412361,-2.565559181266669,0.49931489550518793
16.833285331726074,0.48068084317220877,0.011453221250681947,5.0,0.5,0.0,0.8359012109467323,-2.430568924505165,0.4994801348417454
16.89736795425415,0.4548882125629683,0.01077526229288063,5.0,0.5,0.0,0.45848226752287713,-2.2892730911451937,0.49984354703194067
16.9612934589386,0.4289001832369912,0.010213400092135434,5.0,0.5,0.0,0.34163557319555926,-2.1475873134557437,0.4999131249405444
17.025375843048096,0.4031075526277507,0.009746260245615397,5.0,0.5,0.0,0.32679438812126554,-2.0078667730712327,0.4999205083832374
17.08941102027893,0.37731492201851025,0.009453769527796786,5.0,0.5,0.0,0.3436972695331234,-1.8660027512563144,0.4999120733267607
17.15719485282898,0.3501545003921131,0.00945375115786493,5.0,0.5,0.0,0.3634858256508253,-1.7114704685817825,0.49990165810854764
17.2173330783844,0.325925059516766,0.00945373843698243,5.0,0.5,0.0,0.3760819134535789,-1.5768416508165914,0.49989472685401265
17.281366109848022,0.3001324289075255,0.009766472546320666,5.0,0.5,0.0,0.37945578681507625,-1.4277524549943064,0.49989287521846293
17.345916032791138,0.27433979829828503,0.04357415082878477,5.0,0.5,0.0,0.6507039614245833,-0.8466815292618781,0.49970859614070806
17.409367561340332,0.24893796512251787,0.12999945948722666,5.0,0.5,0.0,0.6728237006444318,0.39310496867923556,0.5587188642955473
17.47328519821167,0.22412232809696078,0.31513716036522815,5.0,0.5,0.0,1.982639247202738,2.8003920149655377,0.6878422688556544
17.537349224090576,0.21435239226012726,0.5271946644825409,5.0,0.5,0.0,5.0,5.107929114527269,0.4817320652796293
17.602132320404053,0.2389726305689477,0.739235195543641,5.0,0.5,0.0,5.0,6.882378339276157,0.4817320621239355
17.670440196990967,0.2661330521953449,0.9362396419988195,5.0,0.5,0.0,5.0,8.184311901898155,0.4817320621239355
17.72942352294922,0.28977629692048196,1.0692932733987621,5.0,0.5,0.0,5.0,8.480500037798306,0.4817320621239355
17.79326319694519,0.31498273137951244,1.1878544166760951,5.0,0.5,0.0,5.0,8.636063891350318,0.4817320621239355
17.857797861099243,0.3411661594222262,1.193721209497856,5.0,0.5,0.0,5.0,7.316506668954559,0.4817320621239355
17.921271562576294,0.36676339131473,1.092799604096859,5.0,0.5,0.0,1.2347278403730044,4.871313167876288,0.4988664090277145
17.985228300094604,0.39216522449049723,0.9665254339306791,5.0,0.5,0.0,-4.012589970639975,2.606231288051338,0.48815700891714064
18.049227237701416,0.4179578550997376,0.991544602573564,5.0,0.5,0.0,-5.0,2.929362864277464,0.4817320621239355
18.113271951675415,0.4439458844257148,1.0896817689425629,5.0,0.5,0.0,-5.0,4.110416045720828,0.4817320621239355
18.17732524871826,0.46915231888474523,1.2352051366812802,5.0,0.5,0.0,-5.0,5.745642001590249,0.4817320621239355
18.241321325302124,0.49494494949398576,1.3799232637136032,5.0,0.5,0.0,-5.0,7.062989132009497,0.4817320621239355
18.305211305618286,0.5207375801032261,1.461064387598692,5.0,0.5,0.0,-5.0,7.2823266787853935,0.4817320621239355
18.37202739715576,0.54809340044636,1.439627532404228,5.0,0.5,0.0,-5.0,6.081549234244829,0.4817320621239355
18.433679342269897,0.5727136387551806,1.4921460290610253,5.0,0.5,0.0,-5.0,6.1935622672847055,0.4817320621239355
18.49719262123108,0.5985062693644211,1.690204450520198,5.0,0.5,0.0,-5.0,8.334303490843448,0.4817320621239355
18.561683177947998,0.6242988999736614,1.902261954637496,5.0,0.5,0.0,-5.0,9.983343034908435,0.4817320621239355
18.628703832626343,0.6516547203167954,2.1054886881188817,5.0,0.5,0.0,-5.0,9.999833430349085,0.4817320621239355
18.68941903114319,0.6758841611921423,2.2048046631901923,5.0,0.5,0.0,-5.0,9.999998334303491,0.4817320621239355
18.7533860206604,0.7014813930846462,2.3459590185880557,5.0,0.5,0.0,-5.0,9.999999983343034,0.4817320621239355
18.818107843399048,0.7274694224106234,2.3751985636994983,5.0,0.5,0.0,-5.0,9.999999999833431,0.4817320621239355
18.88425588607788,0.7548252427537571,2.376784801777772,5.0,0.5,0.0,-5.0,9.999999999998334,0.4817320621239355
18.945436000823975,0.7786638861956309,2.377883851998374,5.0,0.5,0.0,-5.0,9.559842312144742,0.4817320621239355
19.009414434432983,0.8044565168048715,2.3788549329327666,5.0,0.5,0.0,-5.0,8.974688043651257,0.4817320621239355
19.073961973190308,0.8306399448475852,2.3795454742675712,5.0,0.5,0.0,-5.0,8.51963682575236,0.4817320621239355
19.137871742248535,0.8564325754568256,2.3819842470337043,5.0,0.5,0.0,-5.0,5.035196368257524,0.4817320621239355
19.20114016532898,0.8816390099158562,2.385351271188684,5.0,0.5,0.0,-5.0,5.000351963682576,0.4817320621239355
19.2652587890625,0.9080178366753067,2.378245296678985,5.0,0.5,0.0,-5.0,5.0000035196368255,0.4817320621239355
19.33019232749939,0.933810467284547,2.3779399187319306,5.0,0.5,0.0,-5.0,5.0000000351963685,0.4817320621239355
19.394002676010132,0.9596030978937875,2.377737120257527,5.0,0.5,0.0,-5.0,5.000000000351964,0.4817320621239355
19.457242488861084,0.9850049310695548,2.377572494984284,5.0,0.5,0.0,-4.788018566124439,5.00000000000352,0.4832224722451834
19.521188497543335,1.0107975616787952,2.377441306645336,5.0,0.5,0.0,-4.492182399298304,6.943516543449584,0.4852016295241146
19.586966037750244,1.0373717871549823,2.3761949743627393,5.0,0.5,0.0,-3.8956093316887115,6.743177166473731,0.4888298103478589
19.64918065071106,1.0621874241805394,2.3726649627331855,5.0,0.5,0.0,-4.096915631928459,6.47181491364401,0.48766026875462926
19.71321201324463,1.08798005478978,2.367933401598927,5.0,0.5,0.0,-3.639612824950985,6.202725135994819,0.4902356902562143
19.777475118637085,1.1135772866822837,2.363436127307679,5.0,0.5,0.0,-3.0134500648758733,5.993232639121593,0.4932856769635529
19.84108853340149,1.1395653160082608,2.359500521456617,5.0,0.5,0.0,-2.691762283217714,5.821551569111752,0.49463537004717
19.905163764953613,1.164967149184028,2.355692881082992,5.0,0.5,0.0,-2.496934975726281,5.665027828140414,0.49538037104399874
19.969271421432495,1.1907597797932685,2.354394369127008,5.0,0.5,0.0,-2.3500107096312517,5.556317730496537,0.49590586459868263
20.03315305709839,1.216552410402509,2.354291590314767,5.0,0.5,0.0,-1.9421883452295263,5.478008006696666,0.49719991989279105
20.097667455673218,1.2427358384452227,2.354218697443828,5.0,0.5,0.0,-2.0566135016240885,5.391940949570924,0.49686133217286904
20.16181707382202,1.2679422729042533,2.3541630102934947,5.0,0.5,0.0,-2.292782217980509,5.300901669666816,0.4961020711163226
20.22508144378662,1.293539504796757,2.354115487088289,5.0,0.5,0.0,-1.9436901985639266,5.198623808507034,0.497195599904401
20.28944444656372,1.3195275341227342,2.3539507576257708,5.0,0.5,0.0,-2.2772625025708186,5.083347265407477,0.4961544594812392
20.357186555862427,1.346883354465868,2.353331795961621,5.0,0.5,0.0,-2.1878701115705117,4.941200854995182,0.49644938851812415
20.41716194152832,1.3715035927746884,2.352942064101143,5.0,0.5,0.0,-1.9530132017291009,4.820839500694394,0.4971687090014702
20.48311734199524,1.3978824195341388,2.352570052150558,5.0,0.5,0.0,-1.692503371270012,4.6911348113413744,0.49787215491767167
20.546006441116333,1.423284252709906,2.352270348881744,5.0,0.5,0.0,-1.1768817680253065,4.567326841412061,0.4989700298215608
20.613263607025146,1.4506400730530398,2.352041492699515,5.0,0.5,0.0,-0.9389980570224403,4.434953723474053,0.49934407974201417
20.67319655418396,1.474869513928387,2.3519847069010607,5.0,0.5,0.0,-0.8244758757278572,4.322286517197479,0.4994942419080246
20.737168073654175,1.5004667458208907,2.351977969314705,5.0,0.5,0.0,-0.7615416109365215,4.202138896330167,0.49956847448904496
20.801889181137085,1.526454775146868,2.3519728267413487,5.0,0.5,0.0,-0.4419993065596673,4.077595660007911,0.49985459253804215
20.86716055870056,1.5528336019063185,2.3519693134587456,5.0,0.5,0.0,-0.37127661926780575,3.9495684772679893,0.49989739764865265
20.929206609725952,1.5776492389318757,2.351966442251021,5.0,0.5,0.0,-0.3896558398316081,3.8281405412930476,0.49988698919469393
20.993162393569946,1.6030510721076425,2.351959385570446,5.0,0.5,0.0,-0.42855795273976915,3.7029293285809812,0.49986330065984924
21.06115698814392,1.630602291167513,2.351921470125424,5.0,0.5,0.0,-0.46153434009744276,3.5654432164867607,0.49984145744533176
21.121607542037964,1.6548317320428605,2.3518963396058643,5.0,0.5,0.0,-0.7568370778273749,3.4447644475225117,0.4995737873767113
21.185160636901855,1.6802335652186273,2.3518743924059913,5.0,0.5,0.0,-0.5193426159172596,3.3181639814693598,0.49979926301168376
21.249151706695557,1.706026195827868,2.351856594551851,5.0,0.5,0.0,-0.9772943711309197,3.189876748841278,0.49928952511241936
21.314788579940796,1.7324050225873184,2.3518430982917944,5.0,0.5,0.0,-1.0083647229569026,3.058548306140679,0.49924366659175917
21.380486965179443,1.7587838493467687,2.3518390202390145,5.0,0.5,0.0,-0.8839755193697372,2.927312012076011,0.4994186541808452
21.4411301612854,1.783013290222116,2.3518386772162905,5.0,0.5,0.0,-0.722554581388543,2.806631426618697,0.4996115105584334
21.5051007270813,1.8084151233978831,2.351838366452357,5.0,0.5,0.0,-0.5712087481723589,2.6800772411921607,0.4997571763978692
21.571239709854126,1.835184747590807,2.3518381292841406,5.0,0.5,0.0,-0.44500830202344466,2.546575248380263,0.49985260631336664
21.6331307888031,1.8596095871828908,2.3518379806789786,5.0,0.5,0.0,-0.34554265565418385,2.4245296778743546,0.4999111266790903
21.69708275794983,1.8850114203586577,2.351837742652788,5.0,0.5,0.0,-0.2694375757562941,2.297700741164189,0.49994596196721236
21.76111364364624,1.9106086522511616,2.351835460488049,5.0,0.5,0.0,-0.212081312533776,2.1697460027270754,0.49996651911421247
21.82766890525818,1.9369874790106119,2.351438931865905,5.0,0.5,0.0,-0.16911488254253737,2.024254396673398,0.49997871071450795
21.89108443260193,1.9623893121863794,2.350775088127171,5.0,0.5,0.0,0.13912213771916077,1.877596621800986,0.4999855923582741
21.9529287815094,1.9866187530617263,2.350730067373739,5.0,0.5,0.0,-0.07953493081193519,1.7630876158377795,0.4999952910924493
22.02078127861023,2.0133883772546506,2.3506998566531148,5.0,0.5,0.0,0.1267240856138035,1.634558145900734,0.49998804595030905
22.08460807800293,2.038790210430417,2.350675845436972,5.0,0.5,0.0,-0.12298054011002263,1.5114602389687113,0.4999887452107071
22.14518928527832,2.062824252589028,2.350661444940674,5.0,0.5,0.0,-0.47058581323710147,1.3944333143256684,0.4998352425622099
22.209084033966064,2.0880306870480583,2.350647788588156,5.0,0.5,0.0,-0.5019847034963842,1.2706803827108581,0.49981347690734335
22.273808240890503,2.1138233176572987,2.35049738277003,5.0,0.5,0.0,-0.6956138925596762,1.1386724613371975,0.49965356444966447
22.340901851654053,2.1400067457000125,2.3503242937941593,5.0,0.5,0.0,-0.8963443252051941,1.0046742008483531,0.49954613799880654
22.401111125946045,2.1638453891418865,2.346757886112417,5.0,0.5,0.0,-0.7744280845003284,0.7690150011913144,0.5007953013058528
22.465089797973633,2.18885642488418,2.330581357534825,5.0,0.5,0.0,-0.5624905636966029,0.47103349017755936,0.5177679905713161
22.52917194366455,2.2140628593432106,2.329328430800352,5.0,0.5,0.0,-0.3550844328893532,0.2739928016458876,0.5700483704784784
22.5930655002594,2.2390738950855043,2.3284226438257463,5.0,0.5,0.0,-0.4603219209983937,0.15613916871794217,0.7024183649271125
22.65705132484436,2.262130943660431,2.327654010635011,5.0,0.5,0.0,-3.1250569057138327,0.07418226405132747,0.9165146401611537
22.720991134643555,2.280107625600205,2.3214706261830487,5.0,0.5,0.0,-5.0,-0.08805411273229811,1.1919527257147626
22.786429405212402,2.290854555020722,2.270425556057737,5.0,0.5,0.0,-5.0,-0.639332407547875,1.401651850096933
22.851579666137695,2.290072960153775,2.244816718719225,5.0,0.5,0.0,-5.0,-0.83320780759713,1.1456309105907625
22.913052558898926,2.272291676930738,2.2329566034467705,5.0,0.5,0.0,-5.0,-0.7260359408630075,1.215582817789558
22.977890253067017,2.245717451454551,2.224538169190957,5.0,0.5,0.0,-5.0,-0.5480710010364179,1.3959261323167826
23.042295217514038,2.2195340234118373,2.2205840877044065,5.0,0.5,0.0,-5.0,-0.3363656324013695,1.481511559434522
23.10502052307129,2.1933505953691235,2.218903059797335,5.0,0.5,0.0,-5.0,-0.1232891360544344,1.3593133539538016
23.168964624404907,2.167557964759883,2.2176447923873095,5.0,0.5,0.0,-4.333557027736021,0.06660237441854343,1.091691378810796
23.2347993850708,2.1405929418502225,2.2154029166755573,5.0,0.5,0.0,1.2507081332178216,0.1338328864625877,0.8253430698561117
23.299405097961426,2.1210530701765555,2.2127941320578906,5.0,0.5,0.0,5.0,0.1985674933769037,0.6674948994456213
23.36100697517395,2.1103061407560384,2.210275105448088,5.0,0.5,0.0,5.0,0.23951394793384964,0.6172354304711878
23.425036668777466,2.105811970271095,2.2074327630321133,5.0,0.5,0.0,5.0,0.2492121798992071,0.6085050734233406
23.4896981716156,2.1069843625715152,2.205136997733386,5.0,0.5,0.0,5.0,0.23967587992668826,0.627347232304877
23.55650043487549,2.1105015394727755,2.2006129581291827,5.0,0.5,0.0,5.0,0.18041762182445328,0.6788380758094849
23.616941928863525,2.1146049125242454,2.1977804089164135,5.0,0.5,0.0,5.0,0.14969860783138267,0.7323983787808928
23.680941581726074,2.117926690708769,2.1960439845269994,5.0,0.5,0.0,5.0,0.14503434405959573,0.7768257701681132
23.745012998580933,2.1190990830091887,2.1951042888367445,5.0,0.5,0.0,5.0,0.1709502603539459,0.7966767459187449
23.812628746032715,2.118903684292452,2.194675934481924,5.0,0.5,0.0,3.4146321875971073,0.2138215922741358,0.8085751059391857
23.873013496398926,2.118903684292452,2.1923620703535804,5.0,0.5,0.0,2.4483125445558027,0.18933672638053142,0.8354159097539513
23.936908960342407,2.1190990830091887,2.1543338854964227,5.0,0.5,0.0,1.8355473936921072,-0.20224140339166055,1.2776254469423618
24.001678943634033,2.118903684292452,2.06123477012051,5.0,0.5,0.0,1.1549872395707181,-1.38191675744077,1.0132091163463772
24.06855797767639,2.1105015394727755,1.9305715677688045,5.0,0.5,0.0,-5.0,-2.8330327010757683,0.4832736243511681
24.12891387939453,2.0860766998806914,1.8670806535328348,5.0,0.5,0.0,-5.0,-3.02323963687752,0.4818003448549743
24.192962169647217,2.0598932718379777,1.8607268248364175,5.0,0.5,0.0,-5.0,-2.4058631008500884,0.48209060771931583
24.256993055343628,2.033514445078527,1.9044279196456784,5.0,0.5,0.0,-5.0,-1.2425079952747535,0.5174298623766822
24.325911283493042,2.0055724285851833,1.970695949924618,5.0,0.5,0.0,-5.0,0.021024357407919695,1.2657889087943412
24.384979486465454,1.9817337851433097,2.0043568936720573,5.0,0.5,0.0,-3.769239939425537,0.5475666457335858,1.3922388486228376
24.448914527893066,1.9629755083365892,1.9347553067035301,5.0,0.5,0.0,5.0,-0.44762250502653844,1.3344930640695085
24.514119148254395,1.958872135285119,1.8218989585096226,5.0,0.5,0.0,5.0,-1.9082147627064834,0.5051950699957797
24.577261209487915,1.946562016130709,1.7829539312566394,5.0,0.5,0.0,5.0,-2.032542387138449,0.48646352386888986
24.640934228897095,1.9205739868047318,1.8038994458370954,5.0,0.5,0.0,-5.0,-1.2493298917903486,0.5474364412727547
24.707735538482666,1.8938043626118082,1.8075946169534247,5.0,0.5,0.0,-5.0,-0.8582822577048764,0.707912081856405
24.77080988883972,1.8678163332858309,1.6701284319965581,5.0,0.5,0.0,-5.0,-2.5015977414327377,0.4821352526802859
24.8366277217865,1.8414375065263802,1.4993006259852073,5.0,0.5,0.0,-3.2273334516469054,-4.297237734035548,0.49230636770185465
24.896875858306885,1.8166218695008234,1.3711629880094671,5.0,0.5,0.0,-0.6669001804823371,-5.191270706838782,0.49966903309517047
24.96319818496704,1.7894614478744262,1.2626312589003608,5.0,0.5,0.0,1.6687144560720324,-5.683589724347701,0.4979314272006909
25.027286767959595,1.763473418548449,1.276952819524387,5.0,0.5,0.0,3.4681461378637106,-4.4507893817778585,0.4911260143193659
25.088916301727295,1.7378761866559451,1.3720138517570497,5.0,0.5,0.0,4.987455494705743,-2.39513235884409,0.48182192723916845
25.152839422225952,1.7120835560467045,1.5340898283154136,5.0,0.5,0.0,5.0,0.16477307688666099,0.48350280977060034
25.218201398849487,1.685704729287254,1.6769253245839582,5.0,0.5,0.0,5.0,1.9829524831607195,1.466434684717863
25.28371262550354,1.6700728319483205,1.7219243375132118,5.0,0.5,0.0,5.0,2.095951433305401,1.065812992777373
25.344844579696655,1.6890265074717774,1.6529088949925583,5.0,0.5,0.0,5.0,0.49539714713524374,1.252092797576438
25.408807277679443,1.7146237393642816,1.5230941725913276,5.0,0.5,0.0,5.0,-1.648101260181043,0.4823832482884456
25.473125457763672,1.7376807879392087,1.4108907865436162,5.0,0.5,0.0,5.0,-3.131221149096369,0.4817320626538312
25.536828756332397,1.7232212829006948,1.2775545943619593,5.0,0.5,0.0,-5.0,-4.468949303390631,0.4817320621239355
25.60113000869751,1.696842456141244,1.066054021067303,5.0,0.5,0.0,-5.0,-6.607927364693116,0.4817320621239355
25.66496753692627,1.6712452242487406,0.8539965169499949,5.0,0.5,0.0,-5.0,-8.404840882874158,0.4817320621239355
25.729138374328613,1.64486639748929,0.643509809159477,5.0,0.5,0.0,-5.0,-9.917501807969328,0.4817320621239355
25.797698497772217,1.6171197797126828,0.43163986619748207,5.0,0.5,0.0,-5.0,-9.999175018079693,0.4817320621239355
25.85686731338501,1.5928903388373359,0.28618183935992375,5.0,0.5,0.0,-5.0,-9.999991750180797,0.4817320621239355
25.92458462715149,1.565534518494202,0.192878132426348,5.0,0.5,0.0,-5.0,-9.999999917501809,0.4817320621239355
25.988245964050293,1.5393510904514882,0.14612409849256347,5.0,0.5,0.0,-3.5838486375183365,-9.999999999175019,0.4905297750478027
26.050118446350098,1.5141446559924576,0.04050829327912751,5.0,0.5,0.0,-1.1563849657122027,-9.99999999999175,0.4990055583397776
26.113166093826294,1.4883520253832172,0.058821727620665336,5.0,0.5,0.0,0.8733414319631683,-9.353001961047102,0.4994325491567005
26.1768696308136,1.4625593947739768,0.25215726376334807,5.0,0.5,0.0,2.6549066743052117,-5.8828144327319984,0.4947805051392204
26.24132466316223,1.4359851692977899,0.45478998991989145,5.0,0.5,0.0,3.7101693888145597,-2.9653687902815653,0.48985734712791484
26.30479383468628,1.4103879374052857,0.6264154947162143,5.0,0.5,0.0,4.286540740939278,-1.0124934760526343,0.48650745496943476
26.368790864944458,1.3840091106458352,0.737059089273163,5.0,0.5,0.0,4.54776002858118,-0.19483668783837407,0.4848388337767539
26.432748794555664,1.358216480036595,0.6557440726472128,5.0,0.5,0.0,4.603295566464642,-2.087939195713365,0.48447213289242314
26.4969379901886,1.332033051993881,0.4740043072543919,5.0,0.5,0.0,4.526809637930487,-4.910168374681979,0.4849760842015488
26.56075382232666,1.306045022667904,0.29449752928152084,5.0,0.5,0.0,4.368023407976214,-7.101718296672783,0.48599693980734676
26.62781000137329,1.2786892023247702,0.13733825907410266,5.0,0.5,0.0,4.160489583760208,-8.549431327362992,0.48727928439335344
26.68930983543396,1.2536781665824763,0.032909176616405585,5.0,0.5,0.0,3.6507262261091276,-9.035448370503316,0.4901765599508692
26.75352692604065,1.2274947385397625,-0.027670145665885864,5.0,0.5,0.0,3.3727296416110706,-8.874769769247285,0.491603517003754
26.816938400268555,1.201702107930522,-0.05508997956828711,5.0,0.5,0.0,3.1817085534235368,-8.350711938287207,0.4925207364885963
26.880826234817505,1.1757140786045446,-0.060428217057311454,5.0,0.5,0.0,2.7407687194839694,-7.675113302752424,0.49443935423396196
26.944876194000244,1.1499214479953044,-0.03980876050071211,5.0,0.5,0.0,2.8223211125842687,-6.809687622741967,0.4941055008200848
27.012406826019287,1.1221748302186971,-0.03980876050071211,5.0,0.5,0.0,2.7467148350726163,-6.407152324111825,0.4944153357422253
27.072722673416138,1.0981407880600869,-0.03980876050071211,5.0,0.5,0.0,2.601908080330303,-6.104581894642228,0.4949857755467902
27.136703491210938,1.0721527587341098,-0.03980876050071211,5.0,0.5,0.0,2.707147518035506,-5.8472536128524375,0.4945742047363428
27.201359510421753,1.0461647294081324,-0.03980876050071211,5.0,0.5,0.0,2.5643822066496202,-5.62806729502387,0.49512866549684975
27.265594244003296,1.020372098798892,-0.03980876050071211,5.0,0.5,0.0,2.338112188739967,-5.551709328540768,0.4959470502477491
27.32864785194397,0.9943840694729149,-0.03980876050071211,5.0,0.5,0.0,2.099887612467701,-5.408439889984611,0.4967282959896651
27.39273953437805,0.9685914388636743,-0.03980876050071211,5.0,0.5,0.0,1.8778776865446414,-5.2220348116356865,0.49738180660549813
27.457661151885986,0.941626415954014,-0.03980876050071211,5.0,0.5,0.0,1.680736231721013,-5.030518933069581,0.4979015778149457
27.524370670318604,0.9148567917610901,-0.01896365890249881,5.0,0.5,0.0,1.5088904662271316,-4.394481374190985,0.4983080549125208
27.584669589996338,0.890041154735533,0.06962750027356257,5.0,0.5,0.0,1.359733922546611,-3.198517044067434,0.49862558794452994
27.648703575134277,0.8646393215597659,0.20727533522368993,5.0,0.5,0.0,1.2299062445186384,-1.421580197330609,0.4988752351111786
27.713478803634644,0.8380650960835787,0.2526681841892905,5.0,0.5,0.0,0.8401724854432113,-1.1990060582816402,0.4994748112692823
27.777299642562866,0.8124678641910749,0.270955334511856,5.0,0.5,0.0,0.7067546723482896,-1.3270754957142097,0.4996283085438386
27.840731143951416,0.7862844361483611,0.25913631812489707,5.0,0.5,0.0,0.6727389222788955,-1.7687685684980363,0.4996632144260314
27.907195806503296,0.7601010081056472,0.23262003442367107,5.0,0.5,0.0,0.6691207619495869,-2.2638492683656035,0.49966682611656243
27.97247552871704,0.7333313839127235,0.20419346673084895,5.0,0.5,0.0,0.667948626835679,-2.6234303129688246,0.49966799198438694
28.032734632492065,0.7091019430373763,0.18734068915367297,5.0,0.5,0.0,0.6597714339908576,-2.8442803072092975,0.4996760686567949
28.0967059135437,0.6831139137113991,0.17427318394713817,5.0,0.5,0.0,0.9190133816679281,-2.7602833205084245,0.49937168514310665
28.16082739830017,0.6573212831021586,0.16591490559504296,5.0,0.5,0.0,1.2040801619543058,-2.6803611870596122,0.49892192529913343
28.228163719177246,0.6295746653255516,0.15892096939204553,5.0,0.5,0.0,0.8767741687858606,-2.5696769764429654,0.4994280821272414
28.28867483139038,0.6053452244502044,0.14454504389185607,5.0,0.5,0.0,0.9560277105986732,-2.580602174981155,0.4993200888124134
28.35267734527588,0.5789663976907539,0.1263129201479026,5.0,0.5,0.0,0.863624557525269,-2.6173013768182796,0.49944509895876005
28.416740894317627,0.5535645645149868,0.1128360531836409,5.0,0.5,0.0,0.7231410530921534,-2.5701080111278367,0.499610879902095
28.48067593574524,0.527381136472273,0.10469039364236461,5.0,0.5,0.0,0.5851898487263465,-2.440873958826848,0.4997451471243845
28.544807195663452,0.5011977084295592,0.09689004016140547,5.0,0.5,0.0,0.4672424956270671,-2.3178751750574182,0.4998375121964661
28.60872745513916,0.4754050778203187,0.09163242044230503,5.0,0.5,0.0,0.37253946977689445,-2.170843502591889,0.49989669855613345
28.676959991455078,0.44824465619392156,0.09145045501564408,5.0,0.5,0.0,0.02280585889659112,-1.9596554487502587,0.4999996128408366
28.73672842979431,0.4236244178851011,0.09127863044971052,5.0,0.5,0.0,-0.06683352492435256,-1.9182894359562488,0.49999667523701596
28.800625324249268,0.3980271859925973,0.09114579177304367,5.0,0.5,0.0,-0.054889082407127525,-1.7588419390627557,0.49999776387296935
28.864571571350098,0.3718437579498835,0.09104472970401224,5.0,0.5,0.0,-0.2878837825770428,-1.5710990385843353,0.4999384517599652
28.93271517753601,0.3446833363234863,0.09097330596571206,5.0,0.5,0.0,-0.2759869285903921,-1.382877646373733,0.4999458676080702
28.995365858078003,0.3188907057142458,0.09019604426545653,5.0,0.5,0.0,-0.1841835532796129,-1.2361405262865102,0.5000034009851545
29.05694031715393,0.2944658661221621,0.08953041583638767,5.0,0.5,0.0,0.1941556429065196,-1.0989193224232348,0.5001968726067286
29.120623350143433,0.26886863422965823,0.08862830669162694,5.0,0.5,0.0,0.31450669874553916,-0.9690282402947751,0.5014338545910925
29.184938192367554,0.24288060490368113,0.08805863812708241,5.0,0.5,0.0,0.6011831520770248,-0.8281200493735652,0.5080105668418368
29.250771284103394,0.2166971768609673,0.08766649687375823,5.0,0.5,0.0,0.6036952997646247,-0.6840953526013442,0.5355296414390881
29.312662839889526,0.19149074240193684,0.08735700079486074,5.0,0.5,0.0,0.5069848893770406,-0.5464090444317083,0.6141271592480246
29.376588821411133,0.16589351050943302,0.0873454762694642,5.0,0.5,0.0,0.3906159745903903,-0.4004159450391578,0.7910241873254529
29.440959453582764,0.1393192850332459,0.08733719882409088,5.0,0.5,0.0,0.28533972350160974,-0.2547032254762777,1.0824386010999965
29.509559631347656,0.11215886340684872,0.0873299750492358,5.0,0.5,0.0,0.20021372114840877,-0.10985653744870329,1.3839732348084677
29.56858468055725,0.08792942253150161,0.08732577220458554,5.0,0.5,0.0,0.13534747468131847,0.017890198464795417,1.499913487470229
29.632646799087524,0.06467697523983784,0.08732164899421942,5.0,0.5,0.0,2.848088883529068,0.13729608982504343,1.396525408817177
29.697551250457764,0.04787268560048421,0.08728095642599701,5.0,0.5,0.0,5.0,0.2176787906022566,1.2147373508876154
29.760669469833374,0.04083833179796408,0.08723209028911483,5.0,0.5,0.0,5.0,0.2440725748872933,1.1319314806667775
29.824673414230347,0.042401521531857445,0.0872099479785465,5.0,0.5,0.0,5.0,0.22747541643813676,1.1510078825921974
29.888578176498413,0.050803666351534264,0.10930475437972043,5.0,0.5,0.0,5.0,0.4871378788229136,0.9860867764995814
29.954933643341064,0.06487237395657452,0.2531725367931555,5.0,0.5,0.0,5.0,2.3526358771484364,0.4825643016515105
