t_s,q_rad,q_des_rad,jerk
0.00507044792175293,-0.04552790099964417,0.005634271831855559,0.0
0.01750802993774414,-0.04552790099964417,0.02719768559805625,0.0
0.02557063102722168,-0.04552790099964417,0.06749325369753309,0.0
0.03399205207824707,-0.04533250228290749,0.12299859341515379,0.0
0.042710065841674805,-0.044746306132697485,0.19055313687532743,0.276038359678681
0.05427908897399902,-0.04318311639880412,0.2673120180799804,1.413316401554846
0.06333661079406738,-0.04122912923143742,0.3507341358203902,3.1469477156808354
0.0759284496307373,-0.03732115489670401,0.43856783255625414,5.0
0.08820271492004395,-0.0328269844117606,0.5288353774714607,5.0
0.09781789779663086,-0.02872361136029053,0.6198481311478783,5.0
0.10671257972717285,-0.025401833175767132,0.7101839021620684,5.0
0.11519360542297363,-0.02188465627450707,0.7986645640910534,5.0
0.12554430961608887,-0.017781283223036994,0.8843174615499385,5.0
0.13460469245910645,-0.0144595050385136,0.9663402703039811,5.0
0.14420676231384277,-0.010746929420516863,1.0441174650387814,5.0
0.15520572662353516,-0.0062527589355734475,1.1171831985287501,5.0
0.16571903228759766,-0.0017585884506300322,1.1851717264705766,3.875073859268894
0.17418837547302246,0.0015631897338933619,1.2478391994251432,1.6661455950376092
0.18628263473510742,0.006643556369046789,1.3050642838705773,-1.0442054492546349
0.19660735130310059,0.010551530703780192,1.3567816986109056,-3.112479105241241
0.20422935485839844,0.013677910171566917,1.4030073288342682,-4.8197204579717
0.21355056762695312,0.01739048578956365,1.4438747716302034,-5.0
0.22120976448059082,0.020321466540613703,1.4795826905259974,-5.0
0.23121261596679688,0.02462023830882045,1.5103492694241287,-5.0
0.24027109146118164,0.028528212643553853,1.5364063719414967,-5.0
0.2502131462097168,0.032045389544813924,1.5580274828222405,-5.0
0.26019954681396484,0.035953363879547326,1.5755011959876157,-5.0
0.26877665519714355,0.039470540780807396,1.5891087064241411,-5.0
0.2780478000640869,0.04318311639880412,1.5991379704416215,-5.0
0.28638792037963867,0.046309495866590854,1.6058790340373548,-5.0
0.2950477600097656,0.0498266727678509,1.6096365050101298,-4.881584114952323
0.30390357971191406,0.053343849669110974,1.6107234121575909,-4.70540853456591
0.31366896629333496,0.05725182400384438,1.6094229856360103,-4.487642790139094
0.32338953018188477,0.061355197055314455,1.6059897422526228,-4.244008790850646
0.331174373626709,0.0642861778063645,1.6006834105938639,-3.987407567871429
0.3403477668762207,0.06819415214109792,1.5937488179548183,-3.72753624041524
0.34920620918273926,0.07132053160888463,1.5853987428291356,-3.471257056649251
0.3576385974884033,0.07503310722688138,1.5758482593290186,-3.2231725033872474
0.36515188217163086,0.07757329054445808,1.565311639542118,-2.9861846162266654
0.37735557556152344,0.08284905589634818,1.5539684683798236,-2.7619633387165963
0.38778066635131836,0.08714782766455492,1.5419516446127313,-2.551311392176185
0.3951685428619385,0.08988340969886832,1.5293989098899692,-2.354436903344644
0.4040043354034424,0.09359598531686505,1.5164657628035376,-2.1711516659331407
0.4140799045562744,0.09750395965159846,1.5032752915910181,-2.001012542595906
0.42331361770629883,0.10141193398633185,1.489921881492246,-1.8434207509135367
0.4311637878417969,0.10414751602064523,1.476503447720717,-1.6976905914327052
0.44019389152526855,0.10786009163864198,1.463119292071286,-1.5630963207249913
0.4482307434082031,0.11137726853990204,1.4498403347339595,-1.4389035617878938
0.4578413963317871,0.1156760403081088,1.4367127431782991,-1.3243898710976143
0.4652223587036133,0.11841162234242215,1.4237885280144085,-1.2188577631607258
0.4752378463745117,0.1221241979604189,1.4111106976491774,-1.1216425322205736
0.48424339294433594,0.12583677357841566,1.3987004287589133,-1.308154878843891
0.49271535873413086,0.12896315304620237,1.3865864158019874,-1.2588539413595397
0.5022437572479248,0.13306652609767244,1.3747906869477495,-1.1278820572181676
0.5128731727600098,0.13716989914914252,1.3633162799406209,-0.9819622015535505
0.5224013328552246,0.14088247476713922,1.3521632048417336,-0.8471703252159937
0.5301806926727295,0.1438134555181893,1.341340876361562,-0.731406070823374
0.5401594638824463,0.14791682856965938,1.3308663838883126,-0.6349870461817047
0.5489909648895264,0.15182480290439276,1.3207391108327788,-0.5554969556475748
0.5577383041381836,0.15534197980565284,1.3109437894906308,-0.4898951356298431
0.5672235488891602,0.15905455542364957,1.301465215359016,-0.43535094289412235
0.5802261829376221,0.164134922058803,1.2922779162160332,-0.3895064914482932
0.5893723964691162,0.1680428963935364,1.2833587642352926,-0.3504997245751773
0.5994160175323486,0.17234166816174315,1.2747082121283901,-0.3168999811454082
0.6093337535858154,0.17644504121321322,1.2663254718836912,-0.28762245074232157
0.618189811706543,0.1799622181144733,1.2581981651532994,-0.26184793430156184
0.6272702217102051,0.18347939501573338,1.2503241352323324,-0.23895637126869357
0.6376831531524658,0.18777816678394008,1.242700708740002,-0.21847503975426374
0.646106481552124,0.19070914753499016,1.2353150891100824,-0.20003955529940157
0.6542401313781738,0.19403092571951355,1.2281726999160665,-0.4594034606593242
0.663867712020874,0.19793890005424694,1.2212856052185985,-0.4773884263145673
0.6711716651916504,0.20086988080529702,1.214653172511326,-0.4085035687946459
0.6826865673065186,0.2055594500069771,1.2082653224450703,-0.3198327083155942
0.6911466121673584,0.2088812281915005,1.2021042855043371,-0.23780022587488528
0.7027161121368408,0.21357079739318058,1.1961546587200154,-0.17063787011579212
0.7125577926635742,0.21767417044465065,1.19039650335783,-0.11897688830105739
0.7223737239837646,0.22177754349612072,1.1848130082317243,-0.08069521278149305
0.7301697731018066,0.22490392296390746,1.1794036677391209,-0.05302684968440284
0.7387785911560059,0.22822570114843083,1.1741740671275216,-0.03339663997950698
0.748131275177002,0.23213367548316424,1.169122297959842,-0.01968369583114711
0.7581019401550293,0.2360416498178977,1.164240408227324,-0.010245366230153149
0.7673118114471436,0.23994962415263102,1.1595218192048806,-0.0038538007428080456
0.7765018939971924,0.2434668010538911,1.1549611454241036,0.0003885548661403391
0.7882535457611084,0.24815637025557122,1.1505540146220437,0.003128154670224381
0.797382116317749,0.2516735471568313,1.1462969251344586,0.004825805286376744
0.8078393936157227,0.255972318925038,1.1421871603515477,0.005807484983466324
0.8161427974700928,0.2592940971095614,1.138226417512711,0.006302413082315793
0.8280401229858398,0.26437446374471485,1.134416315902911,0.006470941870809384
0.8376095294952393,0.26828243807944824,1.13075088885669,0.006424698309124866
0.8481597900390625,0.272581209847655,1.1272252908792564,0.28227934762635
0.8561604022979736,0.2759029880321784,1.123842108113364,0.315135989230102
0.8661420345306396,0.27961556365017515,1.1206061614288596,0.2597228785746682
0.8773643970489502,0.28410973413511853,1.1175162015533522,-0.09273963550527686
0.8870463371276855,0.2884085059033253,1.1145663339893421,-0.19673294450801843
0.8961336612701416,0.29192568280458536,1.1117561363971493,0.07743871424751625
0.9077694416046143,0.2964198532895288,1.1090878048926702,0.14431925320787112
0.9161603450775146,0.29954623275731546,1.106561030273279,0.13001291815329286
0.9262518882751465,0.30345420709204884,1.1041765826998002,0.09072245830842311
0.9372739791870117,0.30814377629372897,1.101934170783337,0.049763628151923645
0.9459669589996338,0.31185635191172567,1.0998312417500435,0.015452596946934703
0.9541807174682617,0.3151781300962491,1.097867199185714,-0.01038417823002001
0.9631655216217041,0.3190861044309825,1.0960426424146064,-0.02845864554361927
0.9741694927215576,0.32338487619918926,1.0943569114031118,-0.04025799718911079
0.9821717739105225,0.32670665438371266,1.0928084225063284,-0.047311788810505614
0.9937734603881836,0.3313962235853927,1.0913956311008346,-0.05092954823042685
1.003284215927124,0.3351087992033895,1.0901171293487297,-0.05214237641289676
1.012838363647461,0.33921217225485956,1.0889713105282848,-0.05172467086524005
1.0201466083526611,0.34233855172264627,1.0879555584491665,-0.05024060146017772
1.0281767845153809,0.345464931190433,1.0870663055093708,-0.04809224886250048
1.0387465953826904,0.34956830424190305,1.0863003025193994,0.23047728259466985
1.048231601715088,0.3532808798598998,1.0856546838405177,0.26632213559791545
1.0587234497070312,0.35757965162810657,1.0851263997856424,-0.062035105237330856
1.0681531429290771,0.36129222724610327,1.084712225079935,0.10754359609013617
1.078242301940918,0.36520020158083666,1.084408765201527,0.1279088347100667
1.0891473293304443,0.3696943720657801,1.084212470885308,0.09482303698391284
1.1004822254180908,0.3743839412674602,1.0841210573065783,0.04967443067851215
1.1092252731323242,0.3780965168854569,1.0841333431402917,0.008623742040391225
1.1204907894134521,0.38278608608713705,1.0842462652444451,-0.023411271172070577
1.1286275386810303,0.3857170668381871,1.0844534656957598,-0.046175649133044276
1.1374082565307617,0.3892342437394471,1.0847471173738636,-0.06107554294082394
1.1451492309570312,0.3923606232072338,1.0851196995161405,-0.06987918651254704
1.1538825035095215,0.3958778001084939,1.085564020445964,-0.07420859499145871
1.1623635292053223,0.3995903757264907,1.0860749381932493,-0.07538420901956103
1.1734626293182373,0.4038891474946974,1.08664909605333,-0.0744163240609852
1.1825976371765137,0.4074063243959575,1.0872830269253382,-0.0720491346821032
1.191126823425293,0.4111189000139542,1.0879714184901033,-0.06881654564565168
1.20011305809021,0.41463607691521426,1.088707411637776,-0.0650936912886375
1.2091419696807861,0.41834865253321096,1.0894846329692534,-0.061139189530834394
1.2180986404418945,0.4220612281512078,1.0902971761352578,-0.057127782369486596
1.229128122329712,0.4267507973528878,1.091141351687314,-0.05317468564050289
1.238861083984375,0.4310495691210946,1.0920153780128694,-0.049353357021521355
1.2491466999053955,0.43476214473909125,1.0929173367056804,0.230330089791361
1.2582483291625977,0.4382793216403513,1.093845212355219,-0.009139396666587404
1.2675163745880127,0.44218729597508477,1.0947969270649636,-0.09412889277210426
1.2791540622711182,0.44648606774329147,1.0957703820342468,-0.1120982810107881
1.28812837600708,0.45000324464455155,1.096763509593626,-0.10372783137893227
1.2989444732666016,0.45430201641275836,1.0977743272290006,0.18881675427247827
1.3089499473571777,0.4584053894642284,1.098800995290151,-0.0370605799602418
1.319838047027588,0.4628995599491718,1.0998436618756975,-0.1104699922532291
1.3282079696655273,0.4664167368504319,1.1009024055788679,0.15652705423976032
1.3380565643310547,0.4703247111851653,1.1019736991316313,0.20448885729857275
1.347238302230835,0.47384188808642536,1.103054643839704,0.1703547031029195
1.3550987243652344,0.4771636662709487,1.1041428178391064,0.11422688353120404
1.364121437072754,0.4808762418889455,1.1052344123839648,0.06031066682460827
1.3731284141540527,0.4845888175069422,1.1063282818468514,0.016626939413025295
1.3894188404083252,0.491232373875989,1.1074295734482045,-0.01566154151035224
1.3987975120544434,0.494749550777249,1.1085468249082606,-0.03795800319101174
1.4078021049499512,0.49846212639524584,1.1096833091003877,-0.05234521091784185
1.4162282943725586,0.5017839045797692,1.1108356612235746,-0.060823926872443757
1.4258008003234863,0.5056918789145026,1.112000982401743,-0.06505926532256122
1.4354207515716553,0.5095998532492361,1.1131788437765497,-0.06634281072679155
1.4441719055175781,0.5133124288672327,1.1143667655553557,-0.06563589141476768
1.4536819458007812,0.5172204032019662,1.1155627172827236,-0.06363472643640733
1.4614405632019043,0.5205421813864896,1.1167671672937403,-0.060833418982138135
1.4721245765686035,0.5244501557212229,1.1179806003703878,-0.057576713039168455
1.4820547103881836,0.5287489274894297,1.1192035544792573,-0.05410122235549149
1.4918813705444336,0.532656901824163,1.1204366430421522,-0.05056641154696612
1.502615213394165,0.5369556735923698,1.121680541519857,-0.04707731677328913
1.5119996070861816,0.5408636479271033,1.1229359976552296,-0.043700942768529184
1.520117998123169,0.5441854261116267,1.124201425866257,-0.040477964599129126
1.5281193256378174,0.5471164068626767,1.125473252427132,-0.03743101016558823
1.5383381843566895,0.5514151786308834,1.126751072143757,-0.03457048459545628
1.5478203296661377,0.5551277542488802,1.1280372313157805,-0.03189864316248495
1.5580151081085205,0.5592311273003503,1.1293340272519987,-0.029412424176004086
1.5681462287902832,0.5633345003518203,1.1306437115527568,-0.02710540813463577
1.5812273025512695,0.5686102657037104,1.1319712307243623,-0.024969163591854717
1.590135097503662,0.5723228413217071,1.1333210115849155,-0.02299416397162489
1.6001126766204834,0.5766216130899139,1.1346914988306769,-0.021170405176597448
1.60813307762146,0.5799433912744373,1.1360816070193593,-0.2955261749149943
1.6166725158691406,0.5834605681756972,1.1374934248333766,-0.32709948281314527
1.6250791549682617,0.5867823463602206,1.1389259189780776,-0.27057271570428076
1.6347019672393799,0.5902995232614808,1.140378455486895,-0.1931709376054367
1.6429407596588135,0.5938167001627408,1.1418536491670777,-0.12143569255535772
1.6537795066833496,0.5979200732142109,1.14335069474627,-0.0636975393958052
1.6631181240081787,0.6020234462656809,1.144869118481908,-0.020672328452534167
1.6734979152679443,0.6063222180338877,1.1464118062538284,0.009688592959266457
1.6827921867370605,0.6096439962184113,1.1479813339401121,0.03008677495818035
1.6900954246520996,0.6125749769694612,1.1495765543560184,-0.23299810069182356
1.7014296054840088,0.616873748737668,1.1511965622095064,-0.2585440576442232
1.709099292755127,0.620390925638928,1.152840493601149,-0.19964622226346113
1.718073844909668,0.6241035012569247,1.1545006143563785,0.15368603987212567
1.7269887924194336,0.6278160768749216,1.1561739123259736,0.25681046545991915
1.7383055686950684,0.6325056460766015,1.15786487484808,-0.019345758446563027
1.7470428943634033,0.6362182216945983,1.1595773283840658,-0.08889016016795173
1.7582619190216064,0.6407123921795417,1.1613144380665463,0.19841292278199857
1.7669668197631836,0.6442295690808018,1.163078751016799,0.2676139952835891
1.7783918380737305,0.6487237395657451,1.1648758615599089,-0.025811710976583885
1.786085844039917,0.6520455177502685,1.166710177174667,-0.10390425559817644
1.7950959205627441,0.6557580933682653,1.1685777598103744,0.17946327205169776
1.8035533428192139,0.6590798715527887,1.1704749672279242,0.24718919377631796
1.81270170211792,0.6625970484540489,1.1724020955627692,0.2296443229399694
1.8200790882110596,0.6657234279218355,1.1743554106050846,0.18522005048265877
1.829206943511963,0.6694360035398322,1.1763278082386304,0.13835858186444555
1.8396153450012207,0.673734775308039,1.178316853487219,0.09795571213747886
1.8479819297790527,0.6772519522092991,1.1803241114309682,0.0661335879560441
1.856170654296875,0.6803783316770857,1.1823470255096709,0.04232706437922405
1.8651556968688965,0.6842863060118193,1.184379587221641,0.025116878904185035
1.8781239986419678,0.6895620713637093,1.186424401523008,0.012999246991270069
1.889087438583374,0.6942516405653893,1.1884913154479124,0.004667776424947645
1.8985369205474854,0.6979642161833861,1.1905846685412285,-0.0009175840972467891
1.908350944519043,0.7014813930846462,1.192704219171012,-0.004546467676851436
1.9200994968414307,0.7065617597197996,1.194853742609984,-0.006801320188721715
1.9280948638916016,0.7098835379043231,1.1970363446420378,0.26793466280140493
1.9360871315002441,0.7132053160888464,1.1992425371489772,0.3004082824228038
1.945519208908081,0.7169178917068433,1.2014643283728845,0.24509853392230638
1.9559404850006104,0.7212166634750498,1.2037071907068237,-0.10694814898411135
1.9655284881591797,0.7249292390930466,1.205975880791558,0.06570484212813621
1.9731221199035645,0.7280556185608333,1.2082662106178959,0.09768024217887952
1.9821279048919678,0.7315727954620934,1.2105662040700234,0.07710996899202067
1.992781639099121,0.7358715672303001,1.2128658585881635,0.042603021300252876
2.0011208057403564,0.7393887441315602,1.2151611624682213,0.009653548223810492
2.011124849319458,0.7432967184662935,1.2174490297652276,-0.016649860720761966
2.0220940113067627,0.7479862876679737,1.2197316545695924,-0.035615790986731066
2.0337975025177,0.7524804581529171,1.2220157432563368,-0.048188136875768395
2.043280839920044,0.7563884324876504,1.2243074295081617,-0.055734745234047374
2.0536677837371826,0.7608826029725938,1.226612310665973,-0.059560393576510606
2.063163995742798,0.7645951785905907,1.2289354873468845,-0.060746294885944976
2.0723886489868164,0.7683077542085874,1.2312815253953318,-0.06012792086334015
2.080657482147217,0.7716295323931107,1.2336544634509414,-0.05832452619770029
2.0923914909362793,0.7765145003115275,1.2360578593800366,-0.05578230555705232
2.10311222076416,0.7810086707964708,1.238494789053715,-0.05281581720757349
2.1127657890319824,0.7847212464144676,1.2409678600520706,-0.049642557635707935
2.1200547218322754,0.787456828448781,1.243474194175767,-0.04640992635735306
2.1318094730377197,0.7919509989337246,1.246011312656055,-0.043215458216041225
2.141016960144043,0.7962497707019311,1.2485871622286477,-0.040121642053047385
2.1500892639160156,0.7997669476031912,1.2512031570028046,-0.037166601193477464
2.1590726375579834,0.8034795232211881,1.253850080061546,-0.03437170453062327
2.170750141143799,0.8085598898563414,1.25653046890367,-0.03174694421067969
2.180752754211426,0.8122724654743383,1.2592567817365814,-0.029294708923387813
2.1891977787017822,0.8157896423755981,1.2620339990083917,-0.027012414894134563
2.200706720352173,0.8204792115772783,1.264866152476113,-0.024894328836781603
2.209073066711426,0.8239963884785384,1.2677562742485808,-0.022932822151239526
2.218740701675415,0.8279043628132718,1.270695664744262,-0.021119226427848713
2.2285728454589844,0.8320077358647419,1.273676526237217,-0.019444410504613964
2.2409064769744873,0.8365019063496852,1.276702659382987,0.25813919590232104
2.2532927989959717,0.8415822729848388,1.2797875843407935,0.2926885175982389
2.2637665271759033,0.8458810447530456,1.282941906353987,0.23890416628371927
2.2720770835876465,0.8493982216543056,1.2861626974552114,0.16402854901418298
2.2833166122436523,0.853892392139249,1.2894409893165046,0.09461956880019969
2.293607473373413,0.8581911639074556,1.2927681696476285,0.03902311713320874
2.3034017086029053,0.8620991382421892,1.2961359631371359,-0.0020306519305774706
2.313746929168701,0.8663979100103958,1.2995364179191942,-0.03057709325083876
2.3240482807159424,0.8705012830618659,1.3029669536523327,-0.04930542606779871
2.333876132965088,0.8742138586798627,1.3064244530827338,-0.3367606392774493
2.3440005779266357,0.8783172317313327,1.3098952339387395,-0.3760499301135569
2.3536734580993652,0.8824206047828028,1.3133669488429902,-0.047413869846524126
2.3629229068756104,0.8859377816840628,1.3168335809253306,0.061783908784422165
2.3740782737731934,0.8908227496024795,1.3202895036901945,-0.19720478379539735
2.382089138031006,0.894144527787003,1.323724878550376,-0.24713685143070985
2.3919448852539062,0.8978571034049997,1.3271312100698474,-0.2172999507660232
2.402891159057617,0.9021558751732064,1.3305106255988028,-0.16483885402579174
2.411043405532837,0.9052822546409932,1.3338603337899375,-0.11308230828157262
2.4210586547851562,0.9097764251259366,1.3371689264966349,-0.07002938395015884
2.431889057159424,0.9142705956108801,1.340436301550476,-0.037118728729151854
2.4429328441619873,0.91896016481256,1.3436719421195742,-0.013281483908954003
2.4533677101135254,0.9230635378640303,1.3468797527875624,0.0032644240532398432
2.4640748500823975,0.9271669109155003,1.3500589576902915,0.014279625945657383
2.4731247425079346,0.9310748852502336,1.3532094430943422,0.021249696612743008
2.482750415802002,0.9349828595849671,1.3563317234578254,0.025337925239152622
2.4900426864624023,0.9377184416192806,1.3594221922039578,0.027417382186630174
2.500079393386841,0.9418218146707505,1.3624738111059427,0.028125909247141395
2.508052349090576,0.9449481941385374,1.365486131607509,0.02792086583170319
2.5178439617156982,0.9494423646234808,1.3684643738286022,0.027125560581912116
2.527074098587036,0.9531549402414774,1.3714138843005153,0.02596579229186353
2.5357649326324463,0.9566721171427376,1.374335108952731,0.3006357930492086
2.545027494430542,0.9601892940439976,1.3772243426082749,0.3322896901006619
2.5550343990325928,0.9642926670954678,1.3800844212215586,0.27569068503784394
2.5672686100006104,0.9697638311640945,1.3829291580872753,0.198119768235672
2.5773937702178955,0.9738672042155644,1.385776770846938,-0.14988142685168374
2.5871832370758057,0.9779705772670346,1.3886385591032542,-0.2410040076793445
2.5966997146606445,0.9818785516017681,1.391519799618558,-0.5052446959447321
2.60404109954834,0.9846141336360814,1.3944199694343609,-0.49292238800451105
2.6126720905303955,0.9881313105373414,1.3973335370569206,-0.38797296513872503
2.6220452785491943,0.9918438861553381,1.4002624827774195,-0.26848232602978184
2.6317050457000732,0.9955564617733349,1.403215347113302,-0.1637908488087573
2.642669439315796,1.000246030975015,1.4062003388904596,-0.35782895188066843
2.6500227451324463,1.0029816130093283,1.4092185531920185,-0.3308584331220439
2.6620733737945557,1.0078665809277452,1.4122717608858553,-0.23387723550058137
2.6745221614837646,1.0129469475628985,1.4153825644090372,-0.12997250000742866
2.6831769943237305,1.0164641244641586,1.4185705381484734,-0.04202061506318522
2.6942384243011475,1.0213490923825752,1.4218317515328245,0.024587841245704636
2.7041494846343994,1.0254524654340456,1.4251630580865875,0.34741141241893625
2.714500904083252,1.0297512372022521,1.4285689903148207,0.41119247542793835
2.724087715148926,1.0336592115369856,1.4320534552268578,0.37450913913121614
2.7324864864349365,1.0371763884382457,1.4356197277657268,0.3079519904848933
2.7410895824432373,1.0403027679060324,1.4392704480348124,0.24072590861891172
2.750575542449951,1.0444061409575025,1.4430076302651393,0.1831686749073796
2.7590408325195312,1.0475325204252892,1.4468246837388572,0.13746266060784937
2.7690412998199463,1.0514404947600227,1.450707682762758,0.10260732974858369
2.7780420780181885,1.0551530703780192,1.4546525533539718,0.0766371438633873
2.786024332046509,1.0586702472792793,1.4586554326130197,0.057542664251624576
2.7960612773895264,1.062969019047486,1.462704639682666,0.04359960121516957
2.8070387840270996,1.0674631895324294,1.4668067385157768,0.0334412810782581
2.8161771297454834,1.0711757651504263,1.470983762918608,0.02603043360807705
2.8240413665771484,1.074302144618213,1.4752371820675885,0.020599968152687283
2.8350303173065186,1.0787963151031563,1.4795508831478168,0.016591774524732143
2.8450562953948975,1.0827042894378898,1.4839193051833155,0.01360400792020899
2.8535208702087402,1.0860260676224132,1.4883459062879767,0.011349246377004529
2.8620188236236572,1.0899340419571466,1.492833244354243,0.00962272620027611
2.8720712661743164,1.09384201629188,1.4973830245736386,0.0082788658627214
2.880039930343628,1.0969683957596668,1.5019874428271047,0.00721420906717668
2.8907573223114014,1.1010717688111367,1.5066394601133468,0.006355170094509889
2.8990509510040283,1.1041981482789236,1.511341417072633,-0.27038906425418074
2.9100182056427,1.1088877174806036,1.5160860463763757,-0.028065538859323433
2.9190597534179688,1.1126002930986003,1.5208668179736082,0.05965476213554222
2.9284005165100098,1.1168990648668071,1.5256866995703198,0.08021011053901618
2.936647415161133,1.1202208430513305,1.5305478674926831,0.07427030668486051
2.9460463523864746,1.1239334186693273,1.5354516523957003,0.06003638285585598
2.955042600631714,1.1276459942873238,1.5403898003264314,0.045115761328234014
2.964442253112793,1.1315539686220573,1.5453460938236057,0.03226755209589665
2.9722044467926025,1.1346803480898442,1.5503154601549003,0.022140608751704212
2.9827141761779785,1.1391745185747875,1.5553022905384006,0.014548344953820593
2.990022897720337,1.1421054993258377,1.5603012164443408,0.009040197952050414
2.998991012573242,1.1458180749438343,1.5652986898497674,0.28117956179215364
3.009042978286743,1.149530650561831,1.5702921191884343,0.3116024305735682
3.017014265060425,1.1528524287463542,1.5752793691634137,0.25467301371074674
3.0260181427001953,1.1565650043643512,1.5802498499202757,0.1773766739098785
3.0380542278289795,1.1612545735660311,1.585212488903452,0.10607996939818869
3.048011302947998,1.1653579466175013,1.590192630805278,0.04898856167404067
3.057159662246704,1.169070522235498,1.5952026458778008,0.006730764243017363
3.0674757957458496,1.1733692940037048,1.6002437715755902,-0.022802398332598246
3.0755462646484375,1.1766910721882282,1.6053167015159933,-0.04235329881549103
3.0830938816070557,1.1800128503727516,1.610412819015358,-0.05446700022694496
3.093139410018921,1.1841162234242217,1.6155157326742131,-0.06123071626656254
3.103989362716675,1.1882195964756916,1.620620411004687,-0.06425186237370281
3.1143078804016113,1.1925183682438982,1.6257314806435985,-0.06472286085371756
3.123366594314575,1.1960355451451585,1.63085277128958,-0.06350654775630064
3.132908582687378,1.199943519479892,1.6359873172933654,-0.06121594124645753
3.1418519020080566,1.2036560950978887,1.6411373901537318,-0.05828003619969592
3.1510019302368164,1.2071732719991486,1.6462957913616307,-0.05499480654853492
3.1600706577301025,1.2108858476171456,1.6514473487088062,-0.051561350329892175
3.1687698364257812,1.214598423235142,1.6565880117853053,-0.04811378563416366
3.1782162189483643,1.2185063975698756,1.661723320558243,-0.04473934987336531
3.1899943351745605,1.2233913654882922,1.6668579056944222,-0.04149273222561586
3.2000226974487305,1.2276901372564992,1.6719954978903084,-0.03840621657666311
3.210062265396118,1.2319889090247058,1.6771391157476088,0.2405415425329258
3.2203574180603027,1.2362876807929126,1.6822999370827258,0.27639168961696614
3.228034734725952,1.2390232628272257,1.6874871942065663,0.22383617740746192
3.238879442214966,1.2433220345954328,1.692690883345969,0.1501135560962526
3.2471282482147217,1.2466438127799562,1.6978935994389233,0.08178106103032556
3.257190227508545,1.250747185831426,1.703080653952863,0.027185987945548398
3.26646089553833,1.2540689640159497,1.70824866179858,-0.012938803230494168
3.2761688232421875,1.2581723370674196,1.7134038844559754,-0.040625187669793485
3.2860095500946045,1.2622757101188897,1.7185518952742744,-0.058558489844313694
3.296658992767334,1.2667698806038332,1.7237064788472765,-0.06924127023830445
3.3050105571746826,1.2700916587883566,1.7288793601778492,-0.07472875910128016
3.315004587173462,1.27399963312309,1.7340626820593945,-0.07660399609801827
3.325021266937256,1.27810300617456,1.739249839334253,-0.0760405450112781
3.333082437515259,1.2814247843590834,1.7444352947579804,-0.07388640552805983
3.3441615104675293,1.2861143535607635,1.749614546506995,-0.07074271401657045
3.3539960384368896,1.2902177266122334,1.7547929020715145,-0.06702877557103185
3.362774610519409,1.2939303022302302,1.7599660384251772,-0.3390708802892357
3.3730413913726807,1.297642877848227,1.7651305021712482,-0.3681112207675288
3.383322238922119,1.3019416496164338,1.7703014557765886,-0.3089699938204012
3.393444538116455,1.3056542252344305,1.7755006686089017,-0.22896349535651084
3.4030370712280273,1.3099529970026373,1.7807372983185017,-0.15469205222797397
3.412466049194336,1.313665572620634,1.786009619276249,-0.0945225664851806
3.4200212955474854,1.3169873508051573,1.7913066711481207,-0.04919184251393177
3.43013858795166,1.3210907238566276,1.7966098587288208,-0.016661735277390503
3.4409797191619873,1.3251940969080978,1.801912325175417,0.005765793818884157
3.4502928256988525,1.3291020712428308,1.807217211590505,0.02060987269991752
3.4588677883148193,1.3326192481440908,1.8125270668277842,0.029944387151831137
3.4683187007904053,1.3365272224788243,1.8178438769341354,0.03537193146586933
3.476008176803589,1.3396536019466112,1.8231602130619409,0.03808573479822396
3.4849889278411865,1.343170778847871,1.8284607979246104,0.03895306208380706
3.495093822479248,1.3472741518993414,1.833741757825121,0.03859359515302325
3.5037128925323486,1.350986727517338,1.8390089076222944,0.3134826357383217
3.5143628120422363,1.355090100568808,1.8442672578187302,0.3449726267249723
3.523117780685425,1.3586072774700682,1.8495211170487762,0.28796535393281164
3.5320069789886475,1.362319853088065,1.8547652954557312,0.2098377597870506
3.5433871746063232,1.367009422289745,1.8599955142275055,0.13723561193574696
3.552093267440796,1.3705265991910052,1.8652172201211201,0.07856023853980386
3.561100959777832,1.3744345735257386,1.8704262691013758,0.03457488460121182
3.5736935138702393,1.3799057375943653,1.8756281602384766,-0.2727763241177017
3.5827131271362305,1.3832275157788887,1.8808454162698018,-0.32722293285116966
3.59098219871521,1.386549293963412,1.886079260626668,-0.28596272953577445
3.60317063331604,1.3912388631650918,1.8913217356719507,-0.21829281861610783
3.613696336746216,1.3953422362165622,1.896583920538997,-0.42839511077794223
3.6231515407562256,1.3994456092680323,1.901875128516074,-0.4068415158131897
3.6349706649780273,1.404330577186449,1.907194166967004,-0.30990781004722096
3.6438357830047607,1.408043152804446,1.9125398849475153,-0.20340021897827787
3.6530539989471436,1.4113649309889693,1.9179111874707775,-0.11160547651715697
3.6634650230407715,1.4152729053237025,1.923307015960378,-0.040650006657101986
3.6729915142059326,1.4195716770919091,1.928735388870942,0.010601478231857961
3.6820197105407715,1.4234796514266428,1.9342027703896456,0.04564328009251055
3.691937208175659,1.427583024478113,1.9396959546154906,0.0682599023033176
3.703012466430664,1.4322725936797929,1.9452033413317293,0.08175933961924102
3.7117998600006104,1.4359851692977899,1.950714817201164,0.0887770382335456
3.721977472305298,1.4400885423492595,1.9562125220492688,0.36734728946905837
3.730990171432495,1.4436057192505198,1.961690219048412,0.39998258776156415
3.739978075027466,1.4473182948685164,1.9671513397147453,0.34242633347775353
3.7500011920928955,1.4514216679199867,1.9726071753075298,0.26265497157651996
3.7580010890960693,1.45474344610451,1.9780668616484565,0.18773504412476244
3.76898455619812,1.4590422178727167,1.9835198727948595,0.1263592442520696
3.779991865158081,1.4637317870743967,1.9889648938285687,0.07948974450463908
3.7880475521087646,1.466662767825447,1.9944004445229269,-0.23079575826316068
3.7979695796966553,1.4709615395936537,1.99979951898907,-0.2881390596997929
3.808737277984619,1.4752603113618603,2.0051554909371223,-0.24968207631846162
3.8212296962738037,1.4803406779970136,2.0104950078478265,-0.18468804315235748
3.8294687271118164,1.483662456181537,2.0158314325819067,-0.12128168973927128
3.84067702293396,1.4881566266664805,2.0211510756548288,-0.06897839607829866
3.8489744663238525,1.4918692022844773,2.0264339740249406,-0.02936017270016184
3.8580217361450195,1.4953863791857371,2.031663128265437,-0.0010016823225454923
3.8689839839935303,1.4996851509539442,2.0368316084132174,0.018355081045023303
3.8804385662078857,1.504570118872361,2.0419480742792095,0.03091524230297852
3.8889496326446533,1.5078918970568842,2.0470194248199274,0.03852948413507748
3.8979620933532715,1.5116044726748812,2.0520363276059275,0.0426420801542144
3.9135775566101074,1.517661832893718,2.0570036422505944,0.044334048016160935
3.9209654331207275,1.5207882123615046,2.06193915210428,0.04439309114151506
3.9299755096435547,1.5243053892627647,2.066836847420763,0.04338239721419429
3.9417662620544434,1.5291903571811813,2.0716900102412312,0.041698691035452845
3.9521265029907227,1.5332937302326515,2.0765051556528684,0.0396177947933394
3.9599783420562744,1.5364201097004382,2.0812748657589624,0.03732896009931828
3.9735021591186523,1.5420866724858016,2.085986066829159,0.3109984599731482
3.9821648597717285,1.5456038493870616,2.090639257175011,0.3417589974034342
3.99396014213562,1.5502934185887418,2.0952345726980948,0.2843572388462202
4.004218816757202,1.5543967916402117,2.0997659102396025,0.2060612682408173
4.011986255645752,1.557718569824735,2.104227898183775,0.13344086055206417
4.022263288497925,1.5622127403096786,2.1086158878734147,0.07484457125664076
4.029960870742798,1.5651437210607286,2.112920889486895,0.03099920819494017
4.041054010391235,1.5694424928289352,2.117130496788157,-0.00013772813611780815
4.050365686416626,1.5733504671636689,2.121239701063189,-0.02126488041929782
4.062043905258179,1.5780400363653488,2.125249720734277,-0.034899544740321954
4.070535898208618,1.5817526119833456,2.1291620000552993,-0.043112247179626764
4.080929756164551,1.5856605863180788,2.1329780667477034,-0.04750131746340123
4.092688322067261,1.5899593580862856,2.1366992090004495,-0.3252935987082967
4.101166248321533,1.5934765349875457,2.1403264115916465,-0.08236093790422061
4.112671613693237,1.5981661041892261,2.1438609335527827,0.00703792026294079
4.121535778045654,1.6022694772406958,2.1473046178386106,0.029928655886133027
4.130963087081909,1.6059820528586928,2.1506594051486574,0.026695392411127027
4.141988039016724,1.6104762233436363,2.1539269639942464,0.015344176577762245
4.152076959609985,1.6143841976783697,2.157108750476702,0.0033515809744553496
4.160888910293579,1.6180967732963663,2.160206164285167,-0.006609164721828041
4.170324087142944,1.6220047476310997,2.163220645055511,-0.013943803089100752
4.179444313049316,1.625912721965833,2.1661537062376013,-0.01887192796953434
4.187963247299194,1.629429898867093,2.1690036757665103,-0.021862348644365585
4.200396537780762,1.6343148667855099,2.1717695049277648,0.25264005922573385
4.208971261978149,1.6376366449700333,2.174454131799533,0.2852696600024902
4.2195885181427,1.6417400180215034,2.177060428066732,0.23039335682765305
4.227970361709595,1.6452571949227635,2.1795911867388678,0.15500192990164344
4.239429712295532,1.6499467641244434,2.182049127453591,0.08546898108489517
4.248950481414795,1.6538547384591769,2.1844369065449665,0.030008094721465636
4.2579638957977295,1.657371915360437,2.186754388359046,-0.28678247593828093
4.266963243484497,1.6610844909784337,2.1890017997709927,-0.34805124712609725
4.2769434452056885,1.6653832627466405,2.1911825737731374,-0.03518595771410729
4.2870776653289795,1.669291237081374,2.193299959372191,0.06308996603662499
4.2966530323028564,1.6730038126993705,2.19535702951931,0.07283860893942029
4.3053693771362305,1.6765209896006308,2.197356691641102,-0.2246831977284739
4.312959909439087,1.6794519703516808,2.199299277249293,-0.28588238783963227
4.322044610977173,1.6831645459696776,2.2011830101483065,-0.25592726064438925
4.334722280502319,1.6884403113215678,2.2030115303029505,-0.19924079031587513
4.34493088722229,1.6927390830897744,2.2047929157021087,-0.14232636737703494
4.352994918823242,1.695865462557561,2.206531791285703,-0.0944443676475616
4.362917184829712,1.699968835609031,2.2082298460373955,-0.057435055728313644
4.37122917175293,1.7030952150768177,2.209886532988813,-0.030269297879845603
4.380947589874268,1.7070031894115512,2.2114994808896364,-0.011071426858869401
4.390661954879761,1.7113019611797582,2.2130690085136075,0.0020460462319853035
4.400062799453735,1.7150145367977547,2.2145976327300456,0.0106887587473047
4.408926010131836,1.7191179098492249,2.2160856776094495,0.01612021787443008
4.419130086898804,1.7228304854672214,2.2175334587482523,0.019292233561929946
4.426949739456177,1.7261522636517448,2.2189432023521145,0.02090251867840901
4.43795371055603,1.7304510354199514,2.2203148908846004,0.021453142154864012
4.446958303451538,1.7341636110379486,2.221648302935568,0.021300498416769863
4.456839561462402,1.7380715853726818,2.22294507520547,0.020694798964850828
4.469950437545776,1.7433473507245718,2.2242081736621295,0.01980996088136327
4.478001117706299,1.7464737301923585,2.2254400832619563,0.018765639863843553
4.488926887512207,1.7513586981107754,2.226639888065006,0.01764319865642485
4.497912645339966,1.755071273728772,2.227806828667333,0.01649714819346773
4.507950782775879,1.7589792480635058,2.2289417479987756,0.015363279359884147
4.516869783401489,1.7626918236815023,2.2300453652321135,0.014264408736961148
4.527930021286011,1.7671859941664456,2.231118269354077,0.013214420051432654
4.537928342819214,1.7714847659346524,2.2321609254530452,0.012221096159388413
4.546940565109253,1.7751973415526492,2.233173741868378,0.011288096716335242
4.5565855503082275,1.7791053158873826,2.2341571207608104,0.010416334479551185
4.565932273864746,1.783013290222116,2.2351114916913972,-0.26643343024436955
4.578534364700317,1.7878982581405327,2.2360383164231954,-0.30031109562993785
4.587932109832764,1.7914154350417928,2.2369389385319893,-0.24591125545775944
4.598218202590942,1.7955188080932627,2.2378135619266226,-0.17047109306316408
4.6059346199035645,1.7986451875610496,2.238662491221762,-0.37658228432980195
4.6181230545043945,1.8039209529129396,2.239486136183819,-0.3536345380440918
4.626564025878906,1.807242731097463,2.2402858727513357,-0.25704627120435114
4.634957313537598,1.8105645092819864,2.2410621526545005,-0.15201297219124474
4.644799470901489,1.8144724836167199,2.2418137460775744,-0.06239254396451314
4.656221866607666,1.8191620528184,2.242540663278414,0.005985769033424227
4.66497015953064,1.8230700271531333,2.243243944513123,0.33049877190838717
4.677292108535767,1.8279549950715501,2.243925412677345,0.3958253294359756
4.6870317459106445,1.832253766839757,2.2445867343527053,0.3605319016782159
4.6959192752838135,1.8357709437410168,2.2452278564392354,0.2952182071123399
4.708228349685669,1.8406559116594339,2.2458495825355014,0.22910497011651215
4.7159271240234375,1.8439776898439573,2.2464534866595502,0.17254653584605234
4.726948499679565,1.8482764616121639,2.2470395439920035,0.12774029213436244
4.736291170120239,1.851793638513424,2.247607828841938,0.09369855658221518
4.744725942611694,1.8553108154146838,2.2481592326912136,0.06846653973334207
4.755823135375977,1.8598049858996273,2.2486946238614647,0.05004373703141901
4.767009019851685,1.8644945551013075,2.249214830574679,-0.2393250507248176
4.777026891708374,1.8687933268695143,2.24972063409721,-0.2820481157075239
4.786987781524658,1.8728966999209842,2.250212794436035,-0.23384929822198228
4.797950506210327,1.8773908704059277,2.2506926414133934,-0.16272521832524067
4.807000160217285,1.880908047307188,2.251161347911107,-0.09578007649254067
4.816540241241455,1.8848160216419212,2.251618737446728,-0.04175076874677785
4.82973575592041,1.8902871857105479,2.252065291516819,-0.001644918823715865
4.839459180831909,1.894390558762018,2.2525026587395445,0.30241556489949917
4.847935199737549,1.8975169382298047,2.252931132285714,0.3540306023415588
4.856938600540161,1.9008387164143281,2.2533498815532913,0.31030298173903303
4.86530327796936,1.903965095882115,2.2537588405061886,0.2404596373797289
4.875985383987427,1.9086546650837948,2.254158564262611,0.17259174975043653
4.88798451423645,1.913930430435685,2.254549581665087,0.11618375684079828
4.896888732910156,1.9176430060536815,2.254932406383967,0.07278916360165363
4.906965732574463,1.921746379105152,2.255307531060739,0.04095638780859227
4.915277719497681,1.9250681572896753,2.255675414906336,0.01840326798009498
4.924618244171143,1.9289761316244087,2.2560364751910593,0.002902450923950554
4.932901620864868,1.9322979098089321,2.256390609584229,-0.007417198810042745
4.9442079067230225,1.9369874790106119,2.2567377957904835,-0.014018772830980953
4.952974796295166,1.9407000546286088,2.2570785690233754,-0.01800060213447529
4.9651124477386475,1.9455850225470255,2.2574134062772107,-0.020166318845625107
4.975729465484619,1.949492996881759,2.257743204774295,-0.021093765300787333
4.985013246536255,1.9534009712164924,2.2580687429642445,-0.021193148723431296
4.994474411010742,1.9571135468344893,2.2583902316641518,-0.020752695214630856
5.005205869674683,1.9616077173194326,2.2587078614578413,-0.019973068037998483
5.015775203704834,1.9661018878043761,2.259021336975763,0.257045680391258
5.026029348373413,1.9698144634223727,2.259329992021174,0.29125695581891925
5.034203290939331,1.973331640323633,2.259633746492089,-0.03874936053965569
5.041921854019165,1.9766534185081563,2.2599325606161,-0.1468291893401671
5.051316976547241,1.9803659941261529,2.26022600996696,-0.1611515714027795
5.060025691986084,1.983883171027413,2.2605142336673203,0.13540937551165766
5.070285081863403,1.9879865440788829,2.2607978463722675,0.19806490225807877
5.079039812088013,1.991503720980143,2.2610774260504924,0.17112155480147173
5.087895631790161,1.9952162965981397,2.2613530511904574,0.11839314721068397
5.0995941162109375,1.9999058657998199,2.261624811597129,0.06595962993241476
5.10836386680603,2.0032276439843435,2.2618936965347456,0.0227919200584021
5.117034673690796,2.00694021960234,2.2621605720986553,-0.00946383799603172
5.125941276550293,2.0106527952203366,2.2624257527465095,-0.03196378747830298
5.135150909423828,2.0145607695550702,2.26268951940533,-0.04666381074894002
5.143821716308594,2.017882547739594,2.262952124096443,-0.0554992876289993
5.152989149093628,2.0219859207910633,2.2632133703145465,-0.060101648512613154
5.1629252433776855,2.025893895125797,2.2634726824890268,-0.06174527769527038
5.173503398895264,2.030583464327477,2.263730444442082,-0.061382962393131485
5.1835291385650635,2.034296039945474,2.263987841697002,-0.0597069773256836
5.191850662231445,2.037422419413261,2.2642454336677047,-0.057209944028603216
5.2008819580078125,2.0411349950312574,2.2645032469154205,-0.05423645019978978
5.21070408821106,2.045042969365991,2.2647612763264484,-0.05102366250473876
5.220826864242554,2.049146342417461,2.265019063844696,-0.04773196789686199
5.228965997695923,2.0522727218852475,2.265275378982096,-0.04446750362373296
5.236964225769043,2.055399101353034,2.265529179408012,-0.04129844568676913
5.244957685470581,2.058525480820821,2.2657804061590854,-0.038266648249905666
5.254497528076172,2.062824252589028,2.266029419519384,-0.03539589042799644
5.262482166290283,2.066146030773551,2.2662761111689176,-0.032697680663239186
5.270981550216675,2.069663207674811,2.266519985639467,-0.030175319060093304
5.280895709991455,2.073375783292808,2.2667610287476445,-0.02782672544093618
5.290791988372803,2.077479156344278,2.2669996026043986,-0.025646397194995348
5.300220489501953,2.0813871306790115,2.2672359828713113,-0.02362675599963896
5.308929443359375,2.0849043075802713,2.2674700388284097,-0.021759066789609555
5.317440748214722,2.0886168831982683,2.267701307832273,-0.0200340582673723
5.325761079788208,2.0917432626660553,2.2679297559653833,-0.018442335846574107
5.33595085144043,2.0958466357175247,2.268155700717554,-0.016974650780202088
5.344782114028931,2.0991684139020483,2.268379392813124,-0.015622070095203546
5.352883577346802,2.1024901920865715,2.2686006850699423,-0.014376078510087813
5.3628990650177,2.106398166421305,2.2688191266104294,-0.013228634074095358
5.373826503753662,2.1108923369062484,2.2690350116435343,-0.01217219265415995
5.383704900741577,2.1151911086744555,2.26924922667163,-0.011199711763252782
5.39286470413208,2.118903684292452,2.269461851927433,-0.01030464099084933
5.404449224472046,2.1237886522108687,2.2696726021367732,-0.009480904031437245
5.412283182144165,2.1265242342451827,2.269881831734708,-0.008722875733766048
5.419904470443726,2.1296506137129687,2.2700895010997986,-0.0080253564929544
5.432628154754639,2.1351217777815954,2.270295217816092,-0.007383545546236994
5.44089412689209,2.1382481572493823,2.2704991965306935,-0.006793014203489444
5.449429750442505,2.1417653341506426,2.2707013069358566,-0.0062496796779769465
5.461939573287964,2.1466503020690593,2.270900846870249,-0.005749779931315799
5.470899343490601,2.150362877687056,2.2710974627875773,-0.005289849776127948
5.481902599334717,2.1546616494552624,2.271291088944096,-0.004866698361603297
5.491385221481323,2.15837422507326,2.2714816281716286,-0.004477388089939351
5.500765085220337,2.1620868006912564,2.271668954126116,-0.00411921496082675
5.512523412704468,2.1671671673264097,2.2718529236048997,-0.003789690306557204
5.521687746047974,2.1710751416611433,2.2720333786876026,-0.0034865238619295608
5.532454490661621,2.1755693121460866,2.2722193797054397,-0.0032076080989093996
5.541880369186401,2.17947728648082,2.2724263909548967,-0.27898936343182684
5.5512800216674805,2.183189862098817,2.2726571951577137,-0.3118778893045102
5.5609424114227295,2.1869024377168134,2.272908040037363,-0.256563440703511
5.570793390274048,2.190810412051547,2.2731788100091164,-0.18027861826778357
5.58089017868042,2.1947183863862803,2.273468817962207,-0.10957210830079522
5.591614723205566,2.19940795558796,2.273776347207864,-0.052781186542919065
5.6001877784729,2.203120531205957,2.2740993908973857,-0.010627985083795172
5.60900616645813,2.206637708107217,2.274435231724314,0.01893029798287922
5.619375944137573,2.210350283725214,2.2747811118450993,0.03858977996867881
5.629381418228149,2.2144536567766835,2.275135250851029,0.0508634690695406
5.639992713928223,2.218361631111417,2.27549576127579,0.05781657030348422
5.649278879165649,2.2228558015963604,2.275860254082715,0.061041554166165767
5.65790057182312,2.2263729784976207,2.2762261369801737,0.06172083865138418
5.670807600021362,2.2316487438495107,2.2765871352406513,0.06071069382110124
5.680912733078003,2.235752116900981,2.2769349258691456,0.05861995194309745
5.69110894203186,2.2400508886691877,2.2772668011938215,0.055875059349197786
5.700897693634033,2.2439588630039213,2.277583143882109,0.05277055910543688
5.709910869598389,2.247476039905181,2.2778826951010065,0.04950687353553328
5.7199225425720215,2.2515794129566515,2.2781643036233956,0.04621794806641371
5.73113489151001,2.2562689821583315,2.2784277271606506,0.04299117581210901
5.741024732589722,2.2601769564930647,2.278673129206798,0.039881609511517285
5.750088453292847,2.263694133394325,2.278900778010415,0.0369220218109554
5.7588677406311035,2.267211310295585,2.2791109790574233,0.03412998462104505
5.769665002822876,2.2715100820637915,2.2793042182502403,-0.24452553373245492
5.779264688491821,2.2754180563985247,2.2794812644343767,-0.2800918784500098
5.78792405128479,2.2785444358663116,2.279642898792787,-0.22726480121908815
5.798622131347656,2.282452410201045,2.2797898765689055,-0.7053617285374059
5.8088767528533936,2.285969587102305,2.2799230618168065,-1.2551134283876193
5.82079553604126,2.290072960153775,2.2800464547818815,-2.2605005002382743
5.832873344421387,2.2933947383382987,2.2801657842452223,-3.194452612218508
5.84204363822937,2.295934921655875,2.280282065030157,-4.165656694176369
5.850814580917358,2.2980843075399786,2.28039373476397,-4.914339254564906
5.860727071762085,2.300038294707345,2.280499181413892,-5.0
5.870354652404785,2.3019922818747123,2.2805955757859544,-5.0
5.879317760467529,2.303750870325342,2.280679360894933,-5.0
5.887876987457275,2.3051186613424988,2.280747257421648,-5.0
5.8968634605407715,2.3064864523596555,2.2807963621698653,-5.0
5.906885147094727,2.307854243376812,2.280822591054841,-5.0
5.916951417922974,2.309026635677232,2.280820782249335,-5.0
5.926854610443115,2.309808230544179,2.280785640550112,-5.0
5.936287879943848,2.3105898254111255,2.280711909952793,-4.8915414742332946
5.945184946060181,2.3109806228445993,2.2805945468783357,-4.948882722560909
5.955755949020386,2.311176021561336,2.2804289056050817,-5.0
5.966851711273193,2.311371420278072,2.2802108767980864,-5.0
5.977543115615845,2.311176021561336,2.279935010983586,-4.896863589850884
5.985903024673462,2.3109806228445993,2.2795968421789197,-4.427045524075368
5.996286869049072,2.3105898254111255,2.2791968067669264,-3.875296851396609
6.007368564605713,2.310003629260916,2.278735772538018,-3.631533568565906
6.017856121063232,2.309222034393969,2.2782131455508066,-3.213639842502654
6.026830673217773,2.308635838243759,2.277629100212762,-2.504473883881823
6.039897441864014,2.307463445943339,2.276982538875488,-1.8062061119088275
6.049466371536255,2.306291053642919,2.276271405868897,-1.2224439593683698
6.060596704483032,2.304923262625762,2.2754969281106816,-0.49575973807678464
6.070659399032593,2.3035554716086053,2.274663098707017,-0.4072522151931992
6.083975076675415,2.3017968831579756,2.2737722464230785,-0.2601286322838404
6.09384298324585,2.3002336934240817,2.272827215935425,0.15707574446709444
6.106265544891357,2.2982797062567153,2.271833296754127,0.5800923963187488
6.117838144302368,2.2965211178060856,2.2707939961453274,0.9176463281451913
6.126857757568359,2.2949579280721917,2.2697131829364126,1.1525342611387477
6.136858940124512,2.293199339621562,2.2685969613633765,1.8479813434630448
6.1458563804626465,2.291245352454195,2.2674514401341486,2.537417750108661
6.1556689739227295,2.2890959665700916,2.266282772285781,2.511400069564412
6.165854454040527,2.2869465806859886,2.265107586763516,2.7818894507710272
6.175830841064453,2.284797194801885,2.2639533403904935,2.7870400903442185
6.185851573944092,2.282452410201045,2.26283581207467,2.948366912187101
6.196851015090942,2.2799122268834684,2.261758828495566,2.8179116059457585
6.2082908153533936,2.2773720435658915,2.2607268508820653,2.86051238305446
6.215887069702148,2.275613455115262,2.2597438131720575,3.192455282433249
6.225867748260498,2.273268670514421,2.258812573333211,3.2401493712331755
6.2355546951293945,2.2709238859135814,2.257935199937774,3.424410033378597
6.244433403015137,2.268774500029478,2.2571126572043676,3.300504326254421
6.25288724899292,2.2666251141453744,2.256345458684873,3.337343440342646
6.26285195350647,2.2642803295445346,2.255633661453432,3.1028564742217277
6.271878242492676,2.262130943660431,2.2549764872114944,3.34039747550311
6.2818381786346436,2.259981557776328,2.25437247675667,3.368675562659873
6.291848182678223,2.2578321718922245,2.2538198170600374,3.5598124078354774
6.301358938217163,2.2558781847248577,2.2533163853933176,4.00039438329445
6.308809280395508,2.254314994990964,2.2528599597560803,4.389582382767927
6.3178160190582275,2.2527518052570716,2.2524482336421263,4.911639173159571
6.329438209533691,2.2507978180897044,2.2520731481939618,5.0
6.340312242507935,2.2492346283558113,2.251722094525144,5.0
6.351033687591553,2.2478668373386546,2.251387821944099,5.0
6.359883069992065,2.2466944450382345,2.2510655281498293,5.0
6.367812395095825,2.245717451454551,2.250749986957491,5.0
6.378298044204712,2.2447404578708676,2.250435521595356,5.0
6.386922359466553,2.2439588630039213,2.250113073121197,5.0
6.39770245552063,2.243177268136974,2.2497734952284105,5.0
6.405923366546631,2.2425910719867646,2.2494111608590948,5.0
6.414164781570435,2.2420048758365545,2.249022485012779,5.0
6.422834634780884,2.2414186796863445,2.2486040653727213,5.0
6.431862115859985,2.241027882252871,2.248152795472845,4.625905625295108
6.4419145584106445,2.2406370848193973,2.24766357836417,4.14273317733028
6.450857877731323,2.240441686102661,2.2471297948564914,3.6665275567611335
6.460598707199097,2.2400508886691877,2.24654594992535,3.5150843515190537
6.4705893993377686,2.239855489952451,2.2459077842602744,2.9027311214326885
6.482927322387695,2.239855489952451,2.245209938096284,2.4995175632843836
6.491886854171753,2.2396600912357143,2.244448790311767,2.2102633447888884
6.500872373580933,2.2396600912357143,2.24362725203846,1.7101008153595947
6.512732028961182,2.2394646925189776,2.242746948973132,1.2165354806168873
6.523930549621582,2.2394646925189776,2.2418062869196156,0.8042734303969624
6.531912565231323,2.2394646925189776,2.240809872253385,0.21083118649170568
6.540722608566284,2.2394646925189776,2.2397816207440684,-0.33072702767613926
6.550001621246338,2.2396600912357143,2.238753616870698,-0.7487137992445061
6.563874244689941,2.2396600912357143,2.2377386871154172,-1.0385085141069346
6.576885938644409,2.2394646925189776,2.236740516240685,-1.2195022887169091
6.58785080909729,2.2394646925189776,2.235766096277083,-1.5924776756037637
6.597824335098267,2.2394646925189776,2.234821040817847,-1.937296086028039
6.60782790184021,2.2394646925189776,2.2339094432340487,-2.184284899018404
6.616837024688721,2.2394646925189776,2.2330342474756533,-2.3266332883786642
6.626831769943237,2.2394646925189776,2.2321979463842516,-2.3803216678910353
6.636843919754028,2.2394646925189776,2.231402548765412,-2.366696872110345
6.646856069564819,2.2394646925189776,2.23064953233325,-2.305585582618299
6.655951976776123,2.2394646925189776,2.229939968315346,-2.213127760163262
6.664978504180908,2.2394646925189776,2.229274629001543,-2.1015858072386395
6.674698829650879,2.2394646925189776,2.228654008438938,-1.979872705671627
6.684817314147949,2.239269293802241,2.2280783597519784,-1.8542515110714368
6.695082902908325,2.2388784963687676,2.227547768430187,-2.0050272790344206
6.704621315002441,2.238487698935294,2.227062174007342,-2.192095145681374
6.7148826122283936,2.2382923002185575,2.2266213810194317,-2.329001031693463
6.722816467285156,2.237901502785084,2.2262249024650087,-2.6718329888971857
6.732823848724365,2.237510705351611,2.2258719315834257,-2.7077347136104635
6.7434492111206055,2.236924509201401,2.2255619645544034,-3.1575674785603294
6.751329183578491,2.2363383130511907,2.2252945332544827,-3.0652502840258187
6.76056170463562,2.235752116900981,2.225068520920579,-3.331194785447946
6.771823406219482,2.2349705220340343,2.2248827817189283,-3.345957400593849
6.78252387046814,2.2341889271670876,2.2247368279794775,-3.236883062673964
6.791829586029053,2.233407332300141,2.224630046943466,-3.0698147533195868
6.802361249923706,2.2324303387164575,2.2245613450264954,-2.6029392272221124
6.811377763748169,2.2318441425662474,2.2245295520093467,-2.373035216243899
6.82059383392334,2.230867148982564,2.2245328704635328,-1.9586030129463432
6.831463813781738,2.2300855541156173,2.2245695170449915,-1.5399916141931378
6.840395450592041,2.229694756682144,2.224638220606562,-1.1810907808960052
6.849683523178101,2.2291085605319343,2.224737689369987,-0.6193964589527439
6.861226797103882,2.228326965664987,2.224867175205378,0.18434656235145264
6.870505094528198,2.227936168231514,2.225025746175296,0.9111059320538762
6.880978584289551,2.227545370798041,2.2252110984996505,1.7400973741910823
6.890589237213135,2.227349972081304,2.2254210173636233,2.6996563608346213
6.901818037033081,2.2271545733645675,2.2256540389328223,3.2105076533382197
6.909818410873413,2.2271545733645675,2.225908049249787,3.4412872309130185
6.920224189758301,2.2269591746478308,2.2261810235056942,3.77277850944925
6.931794166564941,2.226763775931094,2.226472313317967,3.75240391098112
6.940817832946777,2.226763775931094,2.2267811524212293,3.577570826894752
6.950344800949097,2.2265683772143574,2.227106009936684,3.0672511868143033
6.95928692817688,2.2263729784976207,2.227445288028919,2.5090585930772757
6.966831922531128,2.2263729784976207,2.227796736769953,2.011398797955933
6.97789192199707,2.226177579780884,2.2281581476035037,1.3276107798077479
6.9888598918914795,2.226177579780884,2.2285285206575156,0.6978778679353789
7.000781059265137,2.2259821810641474,2.2289071630002284,0.47286377880303027
7.012123346328735,2.2259821810641474,2.22930359235088,0.13920910250379773
7.02181339263916,2.225591383630674,2.2297334641553355,-0.1677039635963582
7.03173041343689,2.225591383630674,2.2301980398342205,-0.4056803010902348
7.044517993927002,2.225591383630674,2.230691952426583,-0.2953369845572867
7.052810430526733,2.225591383630674,2.2312111628148616,-0.3662942854329482
7.061788082122803,2.225591383630674,2.231748661455391,-0.20171460684393683
7.07072901725769,2.225591383630674,2.232296966570407,-0.26617994419576185
7.0835487842559814,2.225591383630674,2.2328487464372757,-0.38895520325334537
7.092813014984131,2.225591383630674,2.2333965097663353,-0.226473135761518
7.102872610092163,2.225591383630674,2.2339326185038746,-0.2763304839937718
7.111407518386841,2.225591383630674,2.2344497059351682,-0.38177226211712595
7.121166229248047,2.225591383630674,2.2349414691742333,-0.48049702167656994
7.130847930908203,2.225591383630674,2.2354020059557005,-0.5525352326820236
7.140134572982788,2.2253959849139373,2.2358255165396717,-0.5956626921698724
7.149952411651611,2.225591383630674,2.2362067861529438,-0.6141387200603199
7.159220457077026,2.225591383630674,2.2365412340603106,-0.6137968770364974
7.170525550842285,2.225591383630674,2.236824923683611,-0.6000950672283671
7.179783582687378,2.225591383630674,2.2370545342448938,-0.5774935511724952
7.188875913619995,2.225591383630674,2.2372273481128375,-0.5493906951413949
7.1998207569122314,2.225591383630674,2.2373411890488972,-0.5182632619424838
7.210607290267944,2.225591383630674,2.237392919064821,-0.48585696806002227
7.218844413757324,2.2253959849139373,2.2373799262682343,-0.4533657932584031
7.228856801986694,2.225591383630674,2.2373026780701,-0.4215802204940228
7.238782167434692,2.225591383630674,2.2371613172642912,-0.39100214776493736
7.250545024871826,2.225591383630674,2.2369521785023445,-0.36193069809256395
7.260785818099976,2.225591383630674,2.236669373315832,-0.3345247881050918
7.273128509521484,2.2253959849139373,2.23630616777605,-0.3088480073365167
7.281806230545044,2.225591383630674,2.235857813160274,-0.28490041843441694
7.292043685913086,2.2253959849139373,2.2353245826502985,-0.2626408661835086
7.302844285964966,2.225591383630674,2.234705694195081,-0.24200248626775434
7.313260078430176,2.225591383630674,2.2339927573850678,-0.22290338619270017
7.322120666503906,2.225591383630674,2.233172915077879,-0.2052539226062991
7.329813718795776,2.225591383630674,2.2322414661011045,-0.18896159297938506
7.339775323867798,2.2253959849139373,2.2312014324355127,-0.17393426400078676
7.348881244659424,2.225591383630674,2.2300551740591796,-0.1600822465688703
7.358802080154419,2.225591383630674,2.228804433533513,-0.14731957580822352
7.369533538818359,2.2253959849139373,2.227438893763601,-0.13556474721054929
7.380768775939941,2.2253959849139373,2.225937380122477,-0.12474108425638405
7.3897480964660645,2.2253959849139373,2.224285838807715,-0.11477685958964315
7.400871276855469,2.2253959849139373,2.222469603290844,-0.10560525442305824
7.409754753112793,2.2253959849139373,2.220475362934252,-0.09716421466409779
7.418449401855469,2.2253959849139373,2.2183055613459444,-0.089396243944626
7.427735090255737,2.2253959849139373,2.2159616653278453,-0.08224816096523344
7.438718795776367,2.2253959849139373,2.21343711649202,-0.07567083967264818
7.449761152267456,2.2252005861972006,2.2107258628993547,-0.06961894461273442
7.460574626922607,2.225005187480464,2.207813136039355,-0.06405066952577172
7.470101356506348,2.2248097887637273,2.204686321253378,-0.3349658439809938
7.479576349258423,2.224223592613517,2.2013534467539198,-0.9154535755932163
7.487762928009033,2.2238327951800443,2.1978313395033156,-1.1983071990178709
7.498777389526367,2.223246599029834,2.1941350629041616,-1.8692774841245912
7.5107903480529785,2.2218788080126775,2.190256921323811,-2.515305650313166
7.5197649002075195,2.2210972131457307,2.1861695114001227,-3.000373434830511
7.531879663467407,2.219729422128574,2.18184868897555,-3.8575213355308193
7.539748907089233,2.218361631111417,2.177285281379877,-4.349292316803933
7.549961805343628,2.216993840094261,2.172495450382495,-4.57778393577795
7.558783054351807,2.2154306503603673,2.16749383041505,-4.899191144935941
7.568405866622925,2.213867460626474,2.16228219412859,-4.854621150975239
7.5758056640625,2.2123042708925804,2.156862883342942,-4.918457702329836
7.5837836265563965,2.2105456824419503,2.1512514574665293,-4.670012364411943
7.592581272125244,2.208591695274584,2.1454747096338678,-4.8642534433371285
7.604747295379639,2.2056607145235336,2.1395434601097523,-5.0
7.6147754192352295,2.202534335055747,2.1334546854803924,-5.0
7.625525236129761,2.19882175943775,2.127206162446315,-5.0
7.635780572891235,2.195499981253227,2.1208101172659943,-5.0
7.644790887832642,2.1921782030687034,2.114291181392228,-5.0
7.655136346817017,2.188465627450707,2.1076433382539497,-5.0
7.662757158279419,2.185143849266183,2.1008484775478027,-5.0
7.67179799079895,2.1816266723649234,2.0939197313159847,-5.0
7.682561159133911,2.1771325018799796,2.08685448882448,-5.0
7.690997362136841,2.173419926261983,2.0796373541385194,-4.246783648311078
7.700660228729248,2.169316553210513,2.072284899613757,-3.332373018806066
7.708801031112671,2.165799376309253,2.064826543289421,-2.2237690155459173
7.719658851623535,2.161109807107573,2.0572732674816683,-0.9605459186907304
7.7297399044036865,2.1572018327728397,2.049620264241707,0.6760554082811483
7.738754510879517,2.1534892571548427,2.0418787763693422,2.113817608326639
7.751487970352173,2.1484088905196894,2.0340435865418063,3.1890129801932336
7.761751413345337,2.1445009161849558,2.026080938280405,3.904906556969242
7.771763563156128,2.140202144416749,2.017978085468279,4.598264657133709
7.782263994216919,2.1359033726485426,2.0097249854491035,5.0
7.791485548019409,2.1319953983138094,2.001314425314765,5.0
7.801796197891235,2.1275012278288656,1.992772301360595,5.0
7.81281852722168,2.1232024560606586,1.9841060023870314,4.907819379127984
7.821775674819946,2.1196852791593987,1.9753074745368604,4.8393523205746956
7.8316850662231445,2.1155819061079284,1.9664021552120625,4.733457542366314
7.841774225234985,2.111087735622985,1.9574123971972879,4.578829555780283
7.849740743637085,2.1075705587217253,1.9483578988286498,4.3829428388785505
7.857786655426025,2.1040533818204654,1.9392714697246336,4.15839397295992
7.866759777069092,2.100536204919205,1.9301651213945614,3.9173794519069087
7.875770807266235,2.097019028017945,1.9210330670978026,3.669847195477737
7.88450288772583,2.093501851116685,1.911886235881617,3.4232091906333215
7.893742561340332,2.0897892754986884,1.9027656465480163,3.1826418454319976
7.903501749038696,2.0854905037304814,1.8936892836451025,2.95154534607887
7.913649797439575,2.0813871306790115,1.8846233300580635,2.73198824981298
7.923786401748657,2.076892960194068,1.8755386065812898,2.525078830633924
7.934661865234375,2.072789587142598,1.8664100290312595,2.3312538071532614
7.947446584701538,2.067513821790708,1.8571839629955889,2.150493667863041
7.95495080947876,2.0641920436061842,1.8478321218355525,1.9824789237328668
7.964094877243042,2.0600886705547143,1.8383806984370203,1.826701251144121
7.972029685974121,2.056962291086928,1.828869189048271,1.682541258369861
7.981719732284546,2.053249715468931,1.819331566479302,1.5493220620225516
7.991914749145508,2.0489509437007243,1.8097802231504398,1.4263455846864852
8.003094911575317,2.0444567732157806,1.8001925571167727,1.3129166465495952
8.011680126190186,2.0409395963145207,1.7905496102658085,1.2083585145223164
8.021625757217407,2.037031621979787,1.7808688617255692,1.1120225249731845
8.032040119171143,2.032928248928317,1.7711652815895123,1.0232936330167066
8.040529727935791,2.0292156733103206,1.761435005815997,0.9415931923605463
8.051146984100342,2.0245261041086406,1.7516748960359971,0.8663798784395357
8.06066107749939,2.020618129773907,1.7418824554575645,0.7971493904308375
8.070199012756348,2.0167101554391738,1.7320557529142198,0.7334333724024964
8.080376386642456,2.01221598495423,1.7221934018848333,0.6747978566643352
8.088756322860718,2.008894206769707,1.7123113050955703,0.6208414363738705
8.097710371017456,2.0049862324349736,1.7024398084043184,0.5711933074362825
8.106038570404053,2.0014690555337133,1.692587539526087,0.5255112731232342
8.113733053207397,1.9985380747826633,1.6827614727822149,0.4834797725212179
8.125971555709839,1.993262309430773,1.6729670429996182,0.44480797161836555
8.136826515197754,1.9889635376625665,1.6631746762592747,0.40922794053079203
8.144802808761597,1.9856417594780431,1.6533592394964354,0.3764929299439548
8.15370225906372,1.982124582576783,1.6435333838833357,0.3463757528105327
8.162723302841187,1.978412006958786,1.633724740764436,0.318667272670681
8.173155784606934,1.973722437757106,1.6239226726167506,0.2931749969173624
8.180827856063843,1.9704006595725827,1.6141012389528373,0.2697217714065964
8.189980030059814,1.966688083954586,1.604272442395158,0.24814457166412537
8.197819948196411,1.9635617044867992,1.594463309269775,0.2282933853101121
8.208874225616455,1.958872135285119,1.5846794952478855,0.21003018005071328
8.218290567398071,1.9551595596671225,1.574891618954456,0.19322795154255068
8.225776195526123,1.9518377814825991,1.5650917727813165,0.1777698455462067
8.237388134002686,1.9473436109976556,1.555290289131336,0.16354834899144244
8.245792627334595,1.9440218328131322,1.5454789932866446,0.4265029045131078
8.257818698883057,1.9389414661779787,1.5356679900713421,0.44759038872143675
8.266685485839844,1.9350334918432452,1.525865772919977,0.1053806096238985
8.277885437011719,1.9303439226415653,1.5160455280462717,0.26202112181235604
8.286797761917114,1.9266313470235685,1.5061848128748507,0.27034711733854266
8.296700239181519,1.9225279739720984,1.4962989984768176,0.22608973394151333
8.30773138999939,1.9180338034871551,1.4864012895637118,0.1705963285693359
8.32026982307434,1.9125626394185284,1.4764690166098033,0.11998151519908243
8.327777624130249,1.909240861234005,1.4664834299661094,0.0791146448113843
8.337758302688599,1.9049420894657982,1.4564632834178652,0.04820194169995842
8.346809387207031,1.9012295138478013,1.4464248624868898,0.02578947074226029
8.356291055679321,1.8977123369465414,1.4363651985782968,0.010062970371137979
8.365236520767212,1.8941951600452813,1.426282021371107,-0.0006433680450140073
8.375440120697021,1.8898963882770747,1.4161736364349937,-0.007691289596076501
8.38374662399292,1.8863792113758147,1.4060388745042678,-0.012129800346692072
8.391962051391602,1.8828620344745544,1.3958940594216374,-0.014739206172896372
8.403911590576172,1.877781667839401,1.3857531090015305,-0.01608698263224347
8.41372275352478,1.8740690922214043,1.3756107443759886,0.2594589665618969
8.422730445861816,1.8703565166034077,1.3654795428628608,0.29265909779225097
8.43217658996582,1.8664485422686738,1.355369963371902,0.2380039415310648
8.440563201904297,1.8627359666506773,1.3452735357014525,-0.11345054458989443
8.451702356338501,1.8580463974489976,1.3351829282344851,0.059740063329679974
8.460819005966187,1.8539430243975272,1.325091794588183,0.09220493558701451
8.47077465057373,1.849839651346057,1.314994730391092,0.07208133600516002
8.479758024215698,1.8463224744447972,1.3048872793508628,-0.23805560329909606
8.488785028457642,1.8428052975435372,1.2947658593132447,-0.027717432929234717
8.496701955795288,1.8394835193590138,1.2846446832752385,0.03454371990192978
8.506718873977661,1.835184747590807,1.2745357683900445,0.036879929408812906
8.516857385635376,1.8308859758226002,1.2644320757205316,-0.2570044914725259
8.525737524032593,1.8273687989213399,1.254344570770273,-0.31131150179509115
8.534809827804565,1.8234608245866066,1.244282308271281,0.0016178437437503468
8.544484853744507,1.8189666541016634,1.2342356361906153,0.09728294641394689
8.55373764038086,1.8152540784836664,1.2242132334900555,0.10364519801616162
8.56433916091919,1.8109553067154598,1.2142221779902405,-0.19723899828471164
8.574262619018555,1.8070473323807266,1.2042340920195098,-0.26148332585519696
8.584231853485107,1.8027485606125195,1.1942079320559,0.041852966132757075
8.59177279472351,1.799622181144733,1.18414346776997,0.12937572686862434
8.602705955505371,1.7949326119430529,1.1740750053812201,-0.1468136623995151
8.612775564193726,1.7910246376083194,1.1640146165759473,-0.2098422563805742
8.621756792068481,1.7871166632735858,1.153972406290133,0.08629882533232791
8.63174033164978,1.7832086889388525,1.143956683066465,0.16475179151062969
8.64168381690979,1.7791053158873826,1.1339401575051093,-0.11981226026381125
8.649940967559814,1.7755881389861226,1.1238997875523902,-0.18972451518010267
8.660144090652466,1.771289367217916,1.1138504028290273,-0.17495886889178
8.66935133934021,1.766990595449709,1.103804670561743,-0.13363290478370157
8.678707122802734,1.7632780198317124,1.0937562632549618,-0.09000285666076223
8.689020156860352,1.7589792480635058,1.083699893506888,-0.05284056834847036
8.696665525436401,1.7560482673124556,1.0736481923108603,-0.024187646654387447
8.705701112747192,1.7521402929777221,1.0636287601453958,-0.0034285443733242833
8.71641230583191,1.747450723776042,1.0536475565746302,0.010885661155747801
8.72425127029419,1.7441289455915185,1.0436922026061344,0.020274282946296053
8.734670877456665,1.739830173823312,1.0337689027406511,0.026049737237559874
8.74312162399292,1.7365083956387886,1.0238994451877974,0.02925181843180994
8.755542516708374,1.7312326302868983,1.014067660479235,0.030665856240675752
8.76457953453064,1.7275200546689018,1.0042255184451812,-0.24517087305780116
8.77641773223877,1.7228304854672214,0.9943325842522128,-0.2788929606426753
8.785796642303467,1.7193133085659613,0.9843723008078055,-0.22490022142692767
8.795904397964478,1.714819138081018,0.9743654566867054,-0.15022312577532546
8.808640003204346,1.7093479740123914,0.96431333608482,-0.08127163801581194
8.820822477340698,1.7040722086605014,0.954183757480727,-0.02628931901570887
8.830284595489502,1.7003596330425044,0.9439674683288815,0.014063758862013054
8.837700605392456,1.6970378548579812,0.9336916565055934,0.04187037119527035
8.846821308135986,1.693520677956721,0.9233970122765611,0.05985132082552114
8.85570240020752,1.6898081023387241,0.9131012367442848,0.07053381078573988
8.865782976150513,1.6855093305705175,0.9028023764661859,0.07599011791038122
8.8747079372406,1.6817967549525208,0.8924987590633645,0.07781501439329022
8.885170459747314,1.677302584467577,0.8821719996080978,0.07719008614510259
8.89505648612976,1.6733946101328439,0.8718068530784272,0.07496876966693955
8.904206275939941,1.669877433231584,0.8614247980094932,0.07175584107362207
8.912364959716797,1.6665556550470606,0.8510610928143383,0.06797299971905182
8.9209725856781,1.6628430794290636,0.8407452686030616,0.06390971031603124
8.93034553527832,1.6589351050943304,0.830484643323622,0.059761225104197825
8.937707424163818,1.6558087256265437,0.8202846532328713,0.05565638433095798
8.947779417037964,1.6517053525750736,0.8101660450074505,0.051677640201922656
8.957695960998535,1.6476019795236037,0.8001282090422474,0.047875328894348194
8.967691421508789,1.6433032077553966,0.790152474135525,0.04427776415707436
8.97573208808899,1.64017682828761,0.7802221442796148,0.040898331945561195
8.985685348510742,1.6362688539528767,0.7703224036973875,0.03774045054424704
8.995020151138306,1.6323608796181432,0.7604401957714706,0.03480102056350237
9.004783153533936,1.6286483040001465,0.7505640872554559,0.03207281138973389
9.01368761062622,1.624740329665413,0.7407013066100714,0.029546101322124284
9.023650646209717,1.6202461591804695,0.7308576774948311,0.027209795663784765
9.031930446624756,1.6171197797126828,0.7210206434929646,0.025052180752266055
9.04088282585144,1.6134072040946863,0.7111965050229943,0.023061424925381654
9.050670385360718,1.6093038310432162,0.7013902656269099,0.021225904231829563
9.061114072799683,1.6050050592750094,0.6915713853525546,0.019534407332140145
9.07265591621399,1.6001200913565925,0.6816967380425003,0.01797625761698984
9.084912300109863,1.5950397247214392,0.671730287713575,0.016541379049865707
9.094586372375488,1.5905455542364957,0.6616598118036793,0.015220324171464617
9.102672815322876,1.587419174768709,0.6515107656988889,0.014004277057704274
9.111345529556274,1.5842927953009225,0.6413229292338326,0.012885040071060288
9.12187910079956,1.5799940235327155,0.6311304848942024,0.01185501049193075
9.131666898727417,1.5758906504812455,0.6209452294586271,0.010907151192208937
9.141680240631104,1.5715918787130385,0.6107600043043862,0.010034958175033765
9.15006136894226,1.5680747018117789,0.6005691657766109,0.009232426876081421
9.157731533050537,1.564948322343992,0.5903856075310648,0.008494018474641502
9.169397354125977,1.560258753142312,0.5802207257386114,0.007814627020765146
9.17966365814209,1.5557645826573687,0.5700504395147092,0.007189547876004906
9.190885782241821,1.5512704121724252,0.5598552406361684,0.006614447757755787
9.199318885803223,1.547753235271165,0.5496371155927622,0.006085336535430831
9.209696769714355,1.5434544635029583,0.5393833562458523,0.28163690051015977
9.220933437347412,1.5389602930180148,0.5290696931645934,0.3143136422582665
9.229193687438965,1.535247717400018,0.5187109430444987,-0.017234013068538223
9.238460302352905,1.5315351417820213,0.5083544610807198,-0.12682270190578943
9.246652603149414,1.528213363597498,0.4980418698449009,0.1334414794471793
9.255475044250488,1.5245007879795012,0.4878095881369814,0.18570843311225554
9.264005422592163,1.5209836110782413,0.4776750580791193,0.15884105706815216
9.272970199584961,1.517466434176981,0.4676400963213193,0.10969113562121474
9.280693531036377,1.5143400547091945,0.4577219421915665,0.06138842600210493
9.290911436080933,1.5102366816577244,0.44796327313385337,0.021799372307104586
9.299065589904785,1.5067195047564643,0.4384005094441048,-0.0077235564459610054
9.306684732437134,1.5035931252886776,0.42905060738284384,-0.028303153827262947
9.3163583278656,1.4996851509539442,0.41992747818591164,-0.041753237158469195
9.325663566589355,1.4959725753359474,0.41103081772139544,-0.0498510622867471
9.337673425674438,1.4910876074175305,0.402348741862468,-0.05408866075191162
9.348639488220215,1.486202639499114,0.39387235915690444,-0.05562905859409614
9.359194993972778,1.4817084690141706,0.3855855217310915,-0.055340733542516896
9.368633508682251,1.477800494679437,0.37746634969714155,-0.053854252676475534
9.378249168395996,1.4738925203447035,0.36950809923106587,0.22442021370799556
9.386474370956421,1.4705707421601801,0.36171621308764274,0.2602168605732459
9.397547006607056,1.4658811729585002,0.35408776657207935,0.20801168432203387
9.406671524047852,1.4621685973405036,0.3466208180021634,0.13489276430327682
9.415661811828613,1.4586514204392433,0.33933051508208634,0.0673135004231514
9.426160335540771,1.4541572499542998,0.33222978766196226,0.013550303951881455
9.438082218170166,1.4490768833191465,0.3253142020055713,-0.02571171513156154
9.445665121078491,1.4461459025680965,0.3185798296739215,-0.05253603088881153
9.456660032272339,1.441651732083153,0.31203724789249804,-0.0696283538103707
9.46589994430542,1.4379391564651562,0.30569505419512666,-0.07950389343810682
9.474438428878784,1.4344219795638962,0.29955298407768965,-0.08422522959464805
9.483701467514038,1.4305140052291627,0.2936102930886101,-0.08537915560862919
9.492693662643433,1.4266060308944293,0.2878658058084385,-0.0841405797466828
9.501664876937866,1.4228934552764325,0.2823233120167836,-0.08135726073759056
9.510646343231201,1.4187900822249626,0.2769904902607222,-0.07762907791790052
9.519659042358398,1.4150775066069659,0.2718672047607415,-0.07337345475195435
9.529166221618652,1.4111695322722326,0.26694690879542843,-0.06887608273901336
9.53671383857727,1.4082385515211824,0.26222785672560917,-0.06432885528698058
9.545651197433472,1.4047213746199223,0.2577120804460935,-0.059857601335962754
9.554150819778442,1.4012041977186624,0.25339538392199157,-0.05554205788692689
9.563008308410645,1.3974916221006655,0.24926856854037066,-0.05143010178021293
9.57160234451294,1.393779046482669,0.24532689040382352,-0.047547811236683016
9.58162808418274,1.3896756734311988,0.24156917473910883,-0.04390653447290885
9.590672731399536,1.386158496529939,0.2379893388601647,-0.04050782831757163
9.601631164550781,1.381859724761732,0.23457733701059016,-0.037346890127984214
9.611546039581299,1.3775609529935253,0.23132386958519563,-0.03441492879778078
9.621463775634766,1.3732621812253185,0.2282203169575521,-0.03170079152342763
9.631491899490356,1.3689634094571117,0.22525865333413247,-0.02919207017897418
9.640682935714722,1.365250833839115,0.2224314033238243,-0.026875844977253555
9.64863133430481,1.3619290556545915,0.21973429208753587,-0.024739176182002824
9.659671783447266,1.357434885169648,0.21716306423784934,-0.022769421506635634
9.669749021530151,1.3533315121181781,0.21470810610902527,-0.020954433508134387
9.679792642593384,1.3494235377834447,0.21236072153764385,-0.01928267489711167
9.690311670303345,1.345124766015238,0.2101157430934002,-0.01774327818622931
9.699327945709229,1.3414121903972414,0.20796833799357567,-0.016326068044038373
9.70805835723877,1.337895013495981,0.2059139919329713,-0.015021559087413913
9.716159582138062,1.334377836594721,0.20395041174821676,-0.013820937905301504
9.725651741027832,1.3304698622599875,0.20207708695249388,-0.2887543950349262
9.736202478408813,1.325975691775044,0.20028927166358446,-0.3208622561071927
9.746674299240112,1.3218723187235741,0.1985805463680892,-0.26482943457206615
9.756181478500366,1.3179643443888407,0.19694867126054524,-0.1878835961140817
9.765621900558472,1.3138609713373708,0.1953914029463627,-0.39260723203935816
9.775713920593262,1.3097575982859004,0.19390476202760104,-0.3683813014270634
9.784477472305298,1.3058496239511672,0.1924850584704524,-0.27061596158891515
9.795544147491455,1.3015508521829606,0.191128833550443,0.11153940466858642
9.805619716644287,1.2974474791314903,0.18983288111575697,0.2352820073094417
9.816073894500732,1.2933441060800202,0.18859422721229752,0.24948122147623106
9.825414896011353,1.2896315304620236,0.1874100979740319,0.22271583920488974
9.836231708526611,1.2849419612603434,0.18627793239370427,0.18517268944167653
9.845706939697266,1.2808385882088735,0.18519537053045046,0.14907022472774764
9.85577392578125,1.2767352151574034,0.1841601996232809,0.11850228619865177
9.865711450576782,1.2728272408226697,0.1831689803636378,0.09410234598715987
9.874654769897461,1.2691146652046732,0.18218007661205865,0.07519526172224406
9.882896184921265,1.2657928870201498,0.18112389135399076,0.0607468799419094
9.892666816711426,1.261494115251943,0.17998267371080084,0.04975043034048393
9.901670455932617,1.2577815396339465,0.17877946083203725,0.04135782316081563
9.911657571792603,1.2534827678657396,0.17752909333720818,0.03490195472728688
9.921666622161865,1.2497701922477427,0.17623576876072788,0.029877507715571478
9.93179965019226,1.245666819196273,0.1749006061289023,0.025910093241325722
9.94069218635559,1.2421496422950127,0.17352925012535186,0.02272593087535265
9.95089077949524,1.2380462692435428,0.17213041630639406,0.02012625536724072
9.959522008895874,1.2347244910590192,0.17071040040994964,0.017967207909544414
9.968823909759521,1.2310119154410226,0.1692734511899983,0.016144655206169672
9.978655815124512,1.2265177449560791,0.16782451006127405,0.014583002964763711
9.987709999084473,1.2228051693380821,0.16637076016734684,0.013227078562461619
9.997689485549927,1.2185063975698756,0.16492101251229685,0.01203629921807213
10.00814962387085,1.214207625801669,0.1634802116890358,0.010980509067077697
10.017974138259888,1.2101042527501988,0.16205017517151665,0.010037019456220498
10.025644779205322,1.2067824745656754,0.1606362005467878,0.009188509411932336
10.035837650299072,1.2026791015142053,0.15924618271024196,0.008421537583540974
10.044520378112793,1.199357323329682,0.1578858162197812,0.007725487257073565
10.054487466812134,1.1944723554112653,0.15655890888643578,0.007091817369089664
10.065139055252075,1.1905643810765318,0.15526898684445203,0.006513529452678574
10.072940587997437,1.1876334003254816,0.1540192401825077,0.005984786881736608
10.081717491149902,1.183920824707485,0.15281326620351507,0.005500641557963817
10.091570615768433,1.1800128503727516,0.15165486407781534,0.0050568364606207415
10.10073471069336,1.1761048760380182,0.15054621545745367,0.0046496618471357914
10.111588954925537,1.171610705553075,0.14948811177311067,0.004275849483856329
10.12164306640625,1.167311933784868,0.14848102066615193,0.003932493920359855
10.13139820098877,1.1634039594501346,0.14752510645513361,0.0036169930764334973
10.141597032546997,1.1593005863986645,0.14662020938730705,0.003327002695550926
10.150803089141846,1.155392612063931,0.14576586013630347,0.003060400823846154
10.161119937896729,1.151289239012461,0.14496130871621735,0.0028152595978876765
10.169431924819946,1.1481628595446745,0.144205533843982,0.002589822417573666
10.179875135421753,1.1438640877764674,0.1434973048982138,0.2784208448137958
10.188630819320679,1.1399561134417342,0.14283559636227586,0.31135474312200495
10.199152708053589,1.1356573416735274,0.14221913748469545,0.25608206987791676
10.210611820220947,1.1307723737551107,0.1416457199802027,0.17983570367172397
10.22061538696289,1.1270597981371138,0.14111313702558329,0.1091645894669328
10.228717803955078,1.123542621235854,0.14061984791609042,0.05240624303183003
10.238046884536743,1.1196346469011205,0.14016425678853678,0.010283018724894531
10.245684385299683,1.1165082674333338,0.13974441166937154,-0.019247679863148785
10.255350589752197,1.1122094956651272,0.13935858676626084,-0.03888178027963612
10.265381097793579,1.1079107238969204,0.139005082233619,-0.051132115642304285
10.275835275650024,1.1032211546952402,0.1386818481056758,-0.05806372955117461
10.2840895652771,1.1000947752274535,0.13838694382434508,-0.06126894375456593
10.292603492736816,1.09677299704293,0.13811895143111488,-0.06193003922903398
10.301624298095703,1.0934512188584067,0.13787658892195234,-0.06090315986196798
10.311918497085571,1.0891524470901999,0.13765829755089987,-0.058797021757280306
10.320608854293823,1.08563527018894,0.13746248315235507,-0.05603796431794171
10.330130815505981,1.0815318971374697,0.1372877218794662,-0.05292043219440461
10.34047818183899,1.0774285240859998,0.13713272398349519,0.22639360253892168
10.350765228271484,1.073129752317793,0.13699620444639007,0.26281816160414456
10.360166311264038,1.0692217779830595,0.1368768685906216,0.2109578253425895
10.369200229644775,1.0651184049315896,0.1367734538440479,0.13799172277136632
10.377851247787476,1.0617966267470662,0.136684718072407,-0.20560113741501052
10.390984296798706,1.0561300639617026,0.13660944320177693,-0.016509237111622152
10.399606704711914,1.0526128870604428,0.1365464640300275,0.03233944617840973
10.411558389663696,1.0479233178587624,0.13649471589085838,0.02636049041098063
10.421589136123657,1.0438199448072925,0.1364532716796765,0.0035467105778788244
10.430262088775635,1.0403027679060324,0.13642134459862285,-0.020395824963011462
10.43959641456604,1.0365901922880356,0.13639828798467604,-0.03990798818949108
10.448715448379517,1.0326822179533022,0.13638350054700168,-0.053807364659428654
10.457635164260864,1.0289696423353054,0.13637641479862822,-0.06261285388858508
10.467603206634521,1.0248662692838355,0.13637669101937253,-0.06735371422591732
10.47718596458435,1.0205674975156287,0.13638438682268797,-0.06907675602538799
10.486607074737549,1.016854921897632,0.13639983827828953,-0.06867176124139648
10.49465036392212,1.0131423462796352,0.13642307328402267,-0.06683442655155179
10.505000352859497,1.009038973228165,0.1364540564407813,-0.06408295888458426
10.513123512268066,1.0059125937603783,0.13649303921716271,-0.06079092374900201
10.520585775375366,1.0029816130093283,0.13653976188961076,-0.05722082147935838
10.531275510787964,0.9980966450909117,0.1365937746452764,-0.05355285116601029
10.541624546051025,0.9939932720394414,0.13665523596521523,-0.04990764748810679
10.551292419433594,0.9900852977047081,0.1367245827191157,-0.04636347159576076
10.560017347335815,0.9867635195201847,0.1368022174624835,-0.04296885841078421
10.569220066070557,0.9830509439021881,0.1368884906142612,-0.03975175462179012
10.578264951705933,0.9793383682841913,0.13698369460264298,-0.036726037522716456
10.585602521896362,0.9762119888164045,0.13708805792842388,-0.03389612073638519
10.597326040267944,0.9713270208979877,0.1372017222966338,-0.031260182391383264
10.60556697845459,0.9678098439967278,0.1373243713883196,-0.028812411201239903
10.615687370300293,0.9633156735117843,0.1374552930607874,-0.02654455742669
10.626654386520386,0.9590169017435776,0.13759420028960084,-0.024446994588078662
10.638428926467896,0.9543273325418974,0.13774158492203198,-0.02250943843508546
10.647627830505371,0.9506147569239006,0.13789781010878566,-0.020721426842649014
10.659920692443848,0.9451435928552739,0.13806275145778987,-0.295110993357926
10.669189214706421,0.9412356185205405,0.13823668045158616,-0.32671603078696265
10.678678750991821,0.9373276441858072,0.13841976153776847,-0.270218900369266
10.686581373214722,0.9345920621514938,0.13861120495330986,-0.19284469987988903
10.698326349258423,0.9295116955163404,0.13881028079000937,-0.12113504452181068
10.708609819412231,0.9254083224648704,0.13901722705815497,-0.3394589463584767
10.71658205986023,0.9220865442803469,0.13923174899085056,-0.32958024522784246
10.725266933441162,0.9187647660958235,0.13945262656358878,-0.24414229621394037
10.734577655792236,0.9146613930443533,0.13967920438755055,-0.14767777213958716
10.742883205413818,0.9109488174263566,0.13991132921241786,-0.06421881720429387
10.750582218170166,0.90782243795857,0.14014836231047853,-3.423116302209844e-05
10.76176404953003,0.9031328687568898,0.1403892333934526,0.04574934752046607
10.774192810058594,0.8980525021217365,0.14063387996575763,0.07635992971470279
10.781648874282837,0.8951215213706863,0.14088265993537408,0.09535247726589594
10.790863513946533,0.8914089457526896,0.14113489985385783,0.10585120390003479
10.7994384765625,0.8878917688514296,0.14138992729727293,0.11034994769170885
10.809183120727539,0.8837883957999594,0.14164754506932858,0.11073773631531063
10.817857503890991,0.8800758201819627,0.14190751502070847,0.10839926470053171
10.827647924423218,0.8761678458472293,0.14216912965042358,0.10432645571942585
10.841668605804443,0.8705012830618659,0.1424316947493602,0.09921710634412967
10.850605964660645,0.8667887074438692,0.14269536847042485,0.09355416206710088
10.85959792137146,0.8632715305426091,0.14296019645370983,0.08766626969956115
10.869036674499512,0.8591681574911391,0.14322570247576438,0.08177264836026474
10.878606081008911,0.8554555818731422,0.14349138257270552,0.0760156985662391
10.88663387298584,0.8521338036886189,0.14375635680419144,0.07048438908780079
10.899236679077148,0.8466626396199921,0.14401979778091695,0.0652308719229178
10.906594276428223,0.8437316588689421,0.1442813234449123,0.06028220168115247
10.915577173233032,0.840214481967682,0.14454023381500916,0.05564855307445254
10.925567626953125,0.8361111089162119,0.14479586963594354,0.05132895203268989
10.935439586639404,0.8322031345814787,0.14504795172101725,0.04731525108028303
10.9455726146698,0.8282951602467451,0.14529620946966612,0.04359487012463931
10.956544399261475,0.8238009897618018,0.14554038661878194,0.04015267214804663
10.969095468521118,0.8185252244099116,0.14578047708083533,0.03697223464050109
10.976768255233765,0.8152034462253882,0.14601656325019982,0.03403670031474637
10.985579252243042,0.8114908706073914,0.14624602885089624,0.03132933593162139
10.996571779251099,0.8071920988391849,0.14646329572795638,0.02883388947166414
11.008693933486938,0.8021117322040313,0.14666551636689543,0.02653480873669547
11.017565250396729,0.7983991565860346,0.14685385760594624,0.024417365399933524
11.026561498641968,0.7944911822513011,0.14702953018110915,0.022467715154669644
11.036623239517212,0.7901924104830944,0.14719276373494006,0.020672915249535642
11.046588897705078,0.7862844361483611,0.14734367650764735,0.019020914152881173
11.057998180389404,0.7819856643801543,0.1474847062637759,0.01750052351111686
11.065631628036499,0.7788592849123676,0.14762037211973628,0.016101379375685627
11.07557201385498,0.7747559118608975,0.14775233339754615,0.014813897448440737
11.085631608963013,0.7704571400926907,0.1478795976466867,0.013629225549077056
11.097815036773682,0.7655721721742741,0.14800177271762494,0.01253919543294466
11.105642795562744,0.7624457927064873,0.14811911836142946,0.011536275347915861
11.115591287612915,0.7583424196550171,0.14823192596696885,0.010613524204832936
11.124633312225342,0.7544344453202838,0.1483405965274824,0.009764547887880937
11.132581233978271,0.7511126671357603,0.1484456729158284,0.008983457990446132
11.140534162521362,0.7479862876679737,0.14854749162277597,0.008264833104686474
11.150915145874023,0.743687515899767,0.14864621464554909,0.007603682683767613
11.159535646438599,0.7401703389985068,0.14874218533113018,0.0069954134283168445
11.170371294021606,0.7356761685135634,0.14883586649829028,0.0064357981055126745
11.179588079452515,0.7319635928955668,0.14892765443012917,0.005920946683054035
11.190486431121826,0.7272740236938866,0.14901790389322714,0.005447279646607129
11.200519561767578,0.7233660493591532,0.14910692975708298,0.28104986304223817
11.211357355117798,0.7188718788742098,0.14919514656315633,0.31377355019674164
11.221590518951416,0.7147685058227398,0.1492830379250831,0.25830744959984214
11.231606721878052,0.7108605314880063,0.1493706971642658,0.1818831070652237
11.241081237792969,0.7065617597197996,0.14945804738439378,0.11104823842342461
11.249573469161987,0.7032399815352761,0.1495451793359492,0.054139226556040684
11.259380578994751,0.6991366084838061,0.14963201492727618,0.011877382106108971
11.269059896469116,0.6954240328658093,0.14971847781982797,-0.01778085257519279
11.278546333312988,0.6917114572478126,0.14980464283225225,-0.03753229009068265
11.287545919418335,0.6876080841963426,0.1498904120479143,-0.049890578309713184
11.29647946357727,0.6838955085783458,0.1499755583817241,-0.05692151075390817
11.3085298538208,0.6790105406599292,0.15006003111218746,-0.06021809934518885
11.322308540344238,0.673148579157829,0.15014418219274053,-0.06096326019136207
11.332587480545044,0.6690452061063589,0.1502284235931181,-0.06001372162057152
11.342146158218384,0.6651372317716254,0.15031280828890167,-0.057978737506461986
11.350838661193848,0.6614246561536288,0.15039722600023767,-0.05528514205911027
11.359247922897339,0.6582982766858421,0.15048144955757406,-0.05222783519265544
11.367013454437256,0.6549764985013187,0.15056527735469535,-0.049007567531567334
11.376386404037476,0.6510685241665852,0.15064853809521908,-0.04575858653979523
11.386180639266968,0.6469651511151151,0.15073096812018172,-0.042568563205602
11.396572828292847,0.6428617780636451,0.15081244619709985,-0.039492805912098694
11.406562805175781,0.6387584050121751,0.1508929616689197,0.23947403718015509
11.414963960647583,0.6352412281109149,0.15097249960687908,0.2753620615871667
11.423586130142212,0.6317240512096549,0.15105105474142877,-0.05318272267744428
11.432528257369995,0.6280114755916582,0.15112851706539632,-0.1599748099733292
11.443731546401978,0.6233219063899781,0.15120477556798628,0.10288602513941011
11.4525306224823,0.6194139320552446,0.1512798352148761,0.1575585506159366
11.464255094528198,0.6141381667033546,0.15135370555309965,0.1329159579416246
11.473822116851807,0.6106209898020944,0.15142647159298858,0.08582099833552928
11.481539249420166,0.6076900090510444,0.151498081315095,0.03941456692260122
11.489574193954468,0.6045636295832577,0.15156831571341384,0.0015740887532382265
11.499916791915894,0.6000694590983143,0.15163711912244895,-0.026337350684589964
11.507635116577148,0.5967476809137909,0.15170451565704055,-0.04543241794943491
11.51561188697815,0.5936213014460042,0.1517704142632722,-0.057515361578852106
11.524375438690186,0.5901041245447443,0.15183468249699023,-0.0643544577691395
11.535013437271118,0.5858053527765374,0.15189730707827323,-0.06743335331468606
11.54346227645874,0.582483574592014,0.15195834434987515,-0.06790727385910936
11.554877519607544,0.577794005390334,0.15201785079352506,-0.34267581994219093
11.56260633468628,0.5744722272058105,0.15207580694459794,-0.37341074217491566
11.570572137832642,0.5711504490212871,0.1521321125245679,-0.03920791371881899
11.58226728439331,0.5660700823861337,0.15218683040915115,0.07343846833841577
11.590949058532715,0.562357506768137,0.1522400908477708,0.09245960044419488
11.599085807800293,0.5592311273003503,0.1522918723942597,-0.19942848791853626
11.60755729675293,0.5557139503990901,0.15234209504419255,-0.25753910694938
11.616556882858276,0.55219677349783,0.15239069251579243,-0.22624189395616967
11.624987602233887,0.5488749953133067,0.15243768294448376,-0.16938692679243658
11.636585712432861,0.5441854261116267,0.1524831497784466,-0.11307216342544515
11.64568018913269,0.5404728504936299,0.1525271569731442,-0.06627428475952107
11.655673265457153,0.5363694774421598,0.1525697616437958,-0.03063714849684517
11.665563821792603,0.5322661043906898,0.1526110240813507,-0.004997181395904852
11.674163341522217,0.528553528772693,0.15265100604693588,0.012612069662505505
11.684528112411499,0.5244501557212229,0.15268925810366743,-0.2519000320604833
11.693595886230469,0.5207375801032261,0.1527248843653949,-0.27793674998835577
11.702547550201416,0.5172204032019662,0.15275761130850155,-0.21890217692802144
11.710612297058105,0.5135078275839694,0.15278770490252117,-0.141064390927772
11.721219062805176,0.5092090558157627,0.15281540207426098,-0.07026837700986374
11.731077194213867,0.5049102840475559,0.15284088249044953,-0.014347835822640445
11.739716053009033,0.5017839045797692,0.1528642526764721,0.026330074349455064
11.748752117156982,0.4980713289617725,0.15288559356806422,0.05405509350987123
11.756542205810547,0.494749550777249,0.15290498426057475,0.07169286700195894
11.766496419906616,0.49084157644251564,0.15292250483956538,0.08187105602126807
11.777599334716797,0.4863474059575722,0.1529382557005512,0.0867309502544319
11.785529375076294,0.4828302290563122,0.15295235301698412,0.08791420225912269
11.793534517288208,0.4795084508717888,0.1529649063649863,0.08663378715826099
11.802544355392456,0.475795875253792,0.15297602227941676,0.08376374467263273
11.811408519744873,0.47227869835253194,0.15298582090945892,0.07992198530532407
11.82376766204834,0.4673937304341152,0.15299442753483267,0.07553820355821902
11.832611799240112,0.46368115481611855,0.1530019528742509,0.3469447103726975
11.841871500015259,0.45938238304791174,0.15300849959323598,0.09934839792754278
11.85097861289978,0.45566980742991503,0.15301417119335664,0.006522655948871643
11.858498811721802,0.45273882667886495,0.15301906142144087,-0.01890834323506406
11.870615243911743,0.44824465619392156,0.15302325871109823,-0.017579445275319752
11.879531621932983,0.4443366818591881,0.1530268456159397,-0.007675397704304764
11.887648582458496,0.4412103023914014,0.15302988629346304,0.003200183775414934
11.896508932113647,0.43769312549014133,0.153032444873232,0.012283836487332441
11.906521081924438,0.4335897524386713,0.15303459920462475,0.018917188082938657
11.915311574935913,0.43046337297088455,0.1530364180409813,0.023274199658918842
11.926156997680664,0.42557840505246775,0.15303795267331663,0.025791107153189573
11.93537449836731,0.4216704307177344,0.1530392556588557,0.02692779542344343
11.945170402526855,0.4175670576662643,0.1530403755049189,0.027080948787130972
11.956496715545654,0.4128774884645843,0.15304134532481084,0.3026016930649578
11.964493751525879,0.4095557102800608,0.15304219139646763,0.3347722802089577
11.974575757980347,0.4052569385118541,0.1530429389925587,0.002416078157398055
11.984515905380249,0.4013489641771207,0.15304361626201193,-0.1081607048846377
11.993517398834229,0.3976363885591239,0.15304424743729006,-0.12501699776901765
12.002356767654419,0.3939238129411272,0.1530448421219615,0.1690459664772545
12.011508464813232,0.3900158386063938,0.15304540451839158,0.22928605703646462
12.01954197883606,0.38688945913860706,0.15304598999432725,-0.07600022730085983
12.030186176300049,0.38278608608713705,0.1530467863261586,0.11200711175409647
12.040491819381714,0.3786827130356669,0.1530479915116276,0.14575115810124648
12.049924612045288,0.3743839412674602,0.15304963526765644,0.12166204149334282
12.059576988220215,0.37047596693272683,0.15305166132454037,0.08206763407144337
12.07216763496399,0.36520020158083666,0.15305403495312522,0.044018648808714325
12.080597400665283,0.36187842339631326,0.1530567535058031,0.01316837289551533
12.09159255027771,0.35757965162810657,0.15305982904807316,-0.009660386658403368
12.099576711654663,0.3540624747268465,0.15306327164656114,-0.025452828989505072
12.107564210891724,0.3509360952590598,0.1530670664311198,-0.03567357918405959
12.11895489692688,0.3464419247741163,0.15307118405500578,-0.0417302190234686
12.127580881118774,0.3429247478728562,0.15307562215801712,-0.044794491130714736
12.136826515197754,0.33921217225485956,0.15308040658831346,-0.045775475234262425
12.145575523376465,0.3353041979201261,0.15308557749602295,-0.045349947918230576
12.155086755752563,0.3313962235853927,0.1530911618004564,-0.04400817474004483
12.165467262268066,0.32729285053392265,0.15309719935089863,-0.042098209201250215
12.180624723434448,0.32104009159834923,0.1531038080253456,-0.03986300066427559
12.190757989883423,0.31693671854687916,0.15311116050758983,-0.03746939749588753
12.199577569961548,0.3132241429288824,0.1531193764454515,-0.03502994308828407
12.208841562271118,0.3091207698774123,0.15312853014885336,0.24341949807664123
12.216593980789185,0.30560359297615225,0.15313865850738984,0.278879367500469
12.224531650543213,0.30228181479162886,0.15314975113513898,0.22601266722317026
12.232514381408691,0.29915543532384214,0.15316180244190905,-0.1240010271306187
12.241966009140015,0.29544285970584544,0.15317487346072828,-0.2256670796455505
12.250606060028076,0.2923164802380587,0.1531890761890006,0.05069772312393642
12.261807918548584,0.2876269110363786,0.15320452262360407,0.11963241641264337
12.269970178604126,0.28410973413511853,0.15322132881163675,0.10724143372668976
12.279245615005493,0.28020175980038514,0.15323953111607388,-0.20630738679616348
12.290230751037598,0.276098386748915,0.15325916208391677,-0.0027023472042526503
12.299286842346191,0.2723858111309183,0.1532803224711263,0.05273534630992361
12.307501316070557,0.26886863422965823,0.1533030317262953,0.04929716846366021
12.317472219467163,0.2645698624614515,0.1533272226260994,0.02696264780861791
12.329411268234253,0.2594894958262981,0.15335297905970854,0.00246351191985353
12.338524341583252,0.25558152149156466,0.15338050529522743,-0.01810735639836239
12.346636295318604,0.25225974330704126,0.15340978812564052,-0.033287569301596986
12.359370231628418,0.2473747753886245,0.15344073605394454,-0.043448299878040504
12.369490385055542,0.24307600362041779,0.1534734196211239,-0.04954083873710327
12.380208730697632,0.2389726305689477,0.15350786470307531,-0.05257134741513224
12.3904287815094,0.2344784600840043,0.1535439880325159,-0.05340922955707125
12.400470733642578,0.2305704857492709,0.15358169248347642,-0.05274097759273934
12.410629510879517,0.22627171398106416,0.15362086342285858,-0.05108182658824509
12.421227216720581,0.2219729422128574,0.1536609063786633,-0.048805862864716804
12.430522441864014,0.21786956916138733,0.15370044181799047,0.22986031148000974
12.438867807388306,0.2145477909768639,0.15373840488634408,0.26578087710285075
12.447499513626099,0.2108352153588672,0.15377469436266708,-0.06251528095513889
12.456467866897583,0.20712263974087047,0.15380942585345142,-0.16892441095705346
12.465580940246582,0.2036054628396104,0.1538425774491976,-0.18164109029311665
12.474509000778198,0.19989288722161366,0.15387403295098073,0.11644542132122343
12.4855797290802,0.19520331801993357,0.15390358581675162,-0.09549994119831204
12.495000123977661,0.19149074240193684,0.15393101682938864,-0.1542215893371976
12.503578662872314,0.18816896421741344,0.1539560980725794,0.12544093045171048
12.511564016342163,0.18484718603289005,0.15397863255163866,0.18338362270927533
12.52401852607727,0.1799622181144733,0.15399841553707067,0.15672281550029235
12.53144097328186,0.1766404399299499,0.15401520655972786,-0.17003379863188217
12.54046106338501,0.17292786431195314,0.15402881139609947,-0.2532587406459389
12.550183296203613,0.16882449126048307,0.15403900447863353,-0.2392146403675563
12.559507369995117,0.16491651692574968,0.15404549693882744,-0.19364771183954355
12.570443153381348,0.16061774515754293,0.15404786388143105,-0.14426437649325788
12.578982830047607,0.15710056825628288,0.15404570335582837,-0.10130381934944012
12.58646535873413,0.15416958750523282,0.15403903002875313,0.2086801028667573
12.595499753952026,0.15084780932070943,0.15402794704895764,0.26720608250204925
12.603468894958496,0.14772142985292272,0.15401241166827914,0.7825129148628825
12.614471673965454,0.1438134555181893,0.1539922328345583,1.3376047286745172
12.624471664428711,0.14068707605040257,0.15396689295357968,1.7839886051450384
12.634918212890625,0.13756069658261585,0.15393591332376644,2.6412244453578344
12.644151449203491,0.13502051326503914,0.1538990082319485,3.4361851149109612
12.652949810028076,0.13248032994746242,0.15385589637814454,4.294854790596375
12.662590026855469,0.1299401466298857,0.15380655676349567,4.683314910710273
12.674360036849976,0.12739996331230902,0.15375095448651577,5.0
12.682536840438843,0.1254459761449423,0.15368883602078842,5.0
12.690572738647461,0.12388278641104894,0.15362051811914745,5.0
12.700485229492188,0.12192879924368223,0.1535465141907773,5.0
12.712053298950195,0.12017021079305219,0.15346644800156709,5.0
12.721200466156006,0.11919321720936885,0.1533794112481224,5.0
12.731388092041016,0.11782542619221216,0.1532845706853534,5.0
12.739746809005737,0.11704383132526547,0.15318154814629928,5.0
12.748498439788818,0.1162622364583188,0.15307069904254508,4.959417332031016
12.759439945220947,0.11548064159137211,0.15295232744567233,5.0
12.770980596542358,0.11469904672442544,0.15282602091442585,5.0
12.779503107070923,0.11450364800768877,0.15269182108534934,4.918157514561203
12.789298295974731,0.1143082492909521,0.15255051488988278,4.291644496318197
12.79938006401062,0.11411285057421541,0.1524020711560648,4.10936202538
12.808460474014282,0.1143082492909521,0.15224652210828388,3.5033663964902524
12.816480159759521,0.11450364800768877,0.15208467569702105,2.557995543792626
12.827468395233154,0.11508984415789876,0.15191687751518912,2.480385463551955
12.83919644355774,0.11548064159137211,0.15174267385745754,2.1150989223681393
12.846546173095703,0.11587143902484545,0.15156169506712697,1.1491270971597733
12.856581926345825,0.11645763517505547,0.1513744752334747,0.43551809179784795
12.865444898605347,0.11723923004200215,0.15118152871031712,-0.34250895133499687
12.876054525375366,0.11802082490894884,0.15098249960314802,-0.7133049973401308
12.88464903831482,0.11880241977589551,0.15077711618576067,-1.1500001132397715
12.89430856704712,0.11977941335957885,0.1505660380245541,-1.23510429658696
12.907020092010498,0.12075640694326222,0.1503494337994671,-1.4520435129359335
12.916416883468628,0.12173340052694555,0.150127078294983,-1.6527906366499385
12.927511930465698,0.12310119154410225,0.14989926581221907,-1.7903484653900246
12.938281297683716,0.12427358384452228,0.1496658538382317,-1.8599391721032092
12.94644808769226,0.1252505774282056,0.1494272394395535,-2.1481413208616686
12.95642876625061,0.12642296972862566,0.14918467562777857,-2.4262002498442654
12.968013763427734,0.127986159462519,0.14893833414646507,-2.8950858222328835
12.976508140563965,0.12915855176293903,0.14868753172336502,-3.0255499254989404
12.986496448516846,0.13033094406335904,0.1484326606281117,-2.9859475369809827
12.994996309280396,0.1315033363637791,0.14817498123681158,-3.139315181161895
13.004457712173462,0.1326757286641991,0.14791513464648198,-3.2880075413035286
13.014674425125122,0.13423891839809246,0.1476532532676441,-3.367486821061966
13.025524854660034,0.13560670941524913,0.14738946964105806,-3.645206943608839
13.036555767059326,0.13677910171566918,0.14712391040558787,-3.890251310926386
13.046441555023193,0.13775609529935254,0.14685672471704883,-4.031532639538632
13.055643558502197,0.13892848759977253,0.14658806957467302,-4.064180425576982
13.06514310836792,0.14010087990019257,0.14631810035120774,-4.282913326131011
13.074109315872192,0.14088247476713922,0.1460469829297811,-4.468611422540256
13.08235216140747,0.1416640696340859,0.14577488032913166,-4.554766336626633
13.090678691864014,0.1424456645010326,0.14550239096233916,-4.537841716289115
13.098440170288086,0.14303186065124263,0.1452304791328871,-4.712525422814446
13.106539726257324,0.14361805680145262,0.14495994369701035,-4.5831284415973474
13.117345094680786,0.14420425295166264,0.14469101402719617,-4.877482083416618
13.125473260879517,0.1443996516683993,0.14442345226817876,-4.917788089228278
13.135267496109009,0.14479044910187266,0.1441574926613651,-5.0
13.1474289894104,0.14498584781860932,0.14389333024802303,-5.0
13.159772157669067,0.14518124653534598,0.14363024144796552,-5.0
13.17081069946289,0.14518124653534598,0.14336676389233458,-5.0
13.17841386795044,0.14518124653534598,0.14310213335943925,-5.0
13.187475681304932,0.14518124653534598,0.14283742351285716,-4.817684135620999
13.195443153381348,0.14498584781860932,0.1425739692038018,-4.508603303883374
13.204421043395996,0.14518124653534598,0.14231248619342007,-3.6112495516824605
13.215618133544922,0.14498584781860932,0.14205315594388884,-3.2037108567477213
13.22645616531372,0.14498584781860932,0.14179528106058306,-2.44080371265194
13.23542046546936,0.14498584781860932,0.14153827200379987,-1.4030922810740059
13.24545431137085,0.14498584781860932,0.14128207289095931,-0.45722193355372664
13.25378942489624,0.14498584781860932,0.1410266414639859,0.2848468820737631
13.263128519058228,0.14498584781860932,0.14077193402123167,0.8168803668776727
13.272439241409302,0.14498584781860932,0.1405179507011611,1.1703935486411172
13.282975196838379,0.14498584781860932,0.14026472441859067,1.385210965706781
13.291476011276245,0.14479044910187266,0.1400126825330601,1.4979305057088037
13.300692081451416,0.14498584781860932,0.13976222707640493,1.538382650627442
13.308836460113525,0.14498584781860932,0.1395133372000408,1.529418194987164
13.317423105239868,0.14479044910187266,0.13926674549437632,1.4878918221987152
13.32766580581665,0.14479044910187266,0.13902309333675192,1.425915821051981
13.337127685546875,0.14479044910187266,0.13878218334002562,1.352019489939132
13.346423625946045,0.14498584781860932,0.1385445606406856,1.2721008816093682
13.355417966842651,0.14498584781860932,0.13831104704231634,1.1901624250190985
13.364520788192749,0.14479044910187266,0.13808161974291386,1.1088599349408703
13.373459100723267,0.14479044910187266,0.13785589409616777,1.0299033799750918
13.385072708129883,0.14479044910187266,0.13763321272638462,0.9543451209993185
13.39548945426941,0.14479044910187266,0.13741271283901949,0.8827850410857305
13.406424283981323,0.14479044910187266,0.13719401567815934,0.8155153695207202
13.41623044013977,0.14479044910187266,0.13697715310008357,0.7526222626070551
13.430021047592163,0.14479044910187266,0.13676186883796476,0.6940566326734348
13.438940286636353,0.14479044910187266,0.13654765480914852,0.6396832404226964
13.446404218673706,0.14479044910187266,0.1363347115553114,0.5893144943484134
13.456783294677734,0.14479044910187266,0.136123546132463,0.5427335321648821
13.464416027069092,0.14479044910187266,0.13591430712760824,0.4997098168230648
13.474562168121338,0.14479044910187266,0.13570712583322495,0.4600095230773481
13.4836745262146,0.14479044910187266,0.1355021212214282,0.42340231262033423
13.491449117660522,0.14459505038513598,0.13529996083193918,0.3896656172176701
13.501457214355469,0.14459505038513598,0.13510147553231164,0.3585872123824017
13.510629892349243,0.1443996516683993,0.13490679131887964,0.0539282678012655
13.518568515777588,0.14420425295166264,0.134715751567206,-0.005547190642558528
13.52809476852417,0.1438134555181893,0.13452822082188803,-0.25074502283681155
13.537532329559326,0.14342265808471594,0.13434405601746902,-0.7821872906664333
13.54642939567566,0.14322725936797928,0.13416339100075475,-1.0194016287163379
13.554412841796875,0.14283646193450597,0.13398682543442017,-1.380609389281777
13.566285133361816,0.14205486706755927,0.13381460319512523,-1.6965462447184034
13.574404001235962,0.1416640696340859,0.13364622275525878,-1.6414809515552897
13.582481861114502,0.1412732722006126,0.13348127050745898,-1.7337559605040695
13.590876340866089,0.14088247476713922,0.13332004734973069,-1.5590988638278835
13.600081205368042,0.1404916773336659,0.13316321151660104,-1.3129652911429959
13.610519647598267,0.14029627861692923,0.13301087938868925,-0.7987877288210394
13.618989944458008,0.14010087990019257,0.13286273329644643,-0.28640828593126894
13.627424716949463,0.1399054811834559,0.13271869056115573,0.40751532746214236
13.636423110961914,0.13971008246671923,0.1325788487974677,1.0231604932834308
13.645452976226807,0.13971008246671923,0.13244310057232872,1.7603878512397297
13.654895067214966,0.13951468374998255,0.13231116340645183,2.099528463158246
13.665414810180664,0.13951468374998255,0.13218277269938022,2.4968924447088607
13.674542665481567,0.13951468374998255,0.1320575533531702,2.5315041257712068
13.686420679092407,0.13951468374998255,0.13193507788155368,2.688393656843913
13.695413589477539,0.13951468374998255,0.131815167753891,2.5465485611553333
13.707409143447876,0.13951468374998255,0.13169783575700597,2.304902901096586
13.716484546661377,0.13951468374998255,0.13157144169222515,2.049375299908647
13.725802898406982,0.13951468374998255,0.13141319843429947,1.8133354543039115
13.735509395599365,0.13951468374998255,0.1312153337705846,1.3306198515315413
13.744407892227173,0.13951468374998255,0.1309860165208521,0.8442231812595613
13.754047870635986,0.13951468374998255,0.1307334368011577,0.43892589642927304
13.76314401626587,0.13951468374998255,0.13046298424536867,0.1314819870718094
13.772477149963379,0.13951468374998255,0.13017779832490814,-0.08761657645034636
13.782449722290039,0.1393192850332459,0.12988025097525277,-0.23558781262692047
13.791923761367798,0.1391238863165092,0.12957279239287953,-0.32971446077314415
13.800420999526978,0.13892848759977253,0.1292583017312341,-0.6607008745752159
13.810269355773926,0.13873308888303587,0.12894044156878132,-0.997140303801175
13.819326877593994,0.1385376901662992,0.128622983156274,-1.259446428795079
13.829163312911987,0.1379514940160892,0.12830949022799965,-1.4329301089318796
13.839203357696533,0.13756069658261585,0.12800350620308687,-1.8036942609701971
13.847397089004517,0.13716989914914252,0.12770829835516767,-1.8698548452632002
13.855461835861206,0.13677910171566918,0.1274267782425732,-2.078962671262065
13.864495992660522,0.13619290556545915,0.1271617791575163,-1.993383110416607
13.874024868011475,0.13580210813198582,0.12691606345061365,-2.081292089921595
13.881414651870728,0.13560670941524913,0.1266921685555309,-1.9073478085557392
13.891399145126343,0.13482511454830248,0.12649197986135935,-1.9352863766249988
13.899801015853882,0.13423891839809246,0.12631672397747942,-1.7236610980810243
13.90744924545288,0.13365272224788244,0.12616731242495066,-1.4544211306739645
13.915392398834229,0.1332619248144091,0.126043873337395,-1.4763701333709318
13.925481796264648,0.1326757286641991,0.12594637087609406,-1.0181185129711592
13.934296131134033,0.13228493123072574,0.12587563228042978,-0.48009267765453983
13.943261623382568,0.13208953251398908,0.12583285516414194,-0.012843341713001027
13.952801704406738,0.1318941337972524,0.12581911377280508,0.6190310673801102
13.962945222854614,0.13169873508051574,0.12583540595054676,1.452468599170456
13.973026752471924,0.1315033363637791,0.12588271204059015,2.1750267022391023
13.981120347976685,0.1313079376470424,0.12596203652388832,2.6984952692494435
13.988497734069824,0.1313079376470424,0.1260744367890704,3.0260160346860583
13.996392011642456,0.1313079376470424,0.12621995597962132,2.915862110488063
14.004709243774414,0.13111253893030572,0.12639773386626385,2.9267541961781633
14.0123770236969,0.13111253893030572,0.12660706300927133,2.6633941907382885
14.023996591567993,0.13111253893030572,0.12684873099421837,2.605841042377965
14.031367301940918,0.13111253893030572,0.1271248279172438,2.318184347998503
14.040402173995972,0.13111253893030572,0.12743598534239867,1.7072325118783107
14.050113201141357,0.1313079376470424,0.12778317739886438,1.3638120585165794
14.059086561203003,0.1313079376470424,0.12816901473926207,1.1554208518396065
14.067999601364136,0.13111253893030572,0.12859611062945225,1.016238341641672
14.07836389541626,0.13111253893030572,0.1290670540754736,0.6375524888692163
14.086371183395386,0.13111253893030572,0.12958231203742684,0.24604624194809716
14.096391201019287,0.13111253893030572,0.13014041401720114,-0.0781545398772511
14.105152130126953,0.13111253893030572,0.13074225432423398,-0.3181469589164217
14.114368200302124,0.13111253893030572,0.1313907521964386,-0.4816079620140006
14.124409914016724,0.1313079376470424,0.13208849375819942,-0.5835889630456821
14.134005546569824,0.13111253893030572,0.13283770244947193,-0.6393939456595747
14.141363143920898,0.13111253893030572,0.1336376742655376,-0.6620545762983847
14.151503801345825,0.13111253893030572,0.13448512079662714,-0.6617925508642645
14.160391092300415,0.13111253893030572,0.13537953744802744,-0.6462577043967719
14.169085025787354,0.13111253893030572,0.136322778448372,-0.621001537932596
14.179061651229858,0.13111253893030572,0.13731616481941702,-0.58996175960249
14.18736481666565,0.13111253893030572,0.1383577869351732,-0.555877675019045
14.19639778137207,0.13111253893030572,0.1394429210317158,-0.5206187677926513
14.206377029418945,0.13111253893030572,0.14056987871808901,-0.4854333348347307
14.215631484985352,0.13111253893030572,0.14173957007300392,-0.45113159283524606
14.223686456680298,0.13111253893030572,0.14295238431228025,-0.41821815119025835
14.231367349624634,0.1313079376470424,0.14420545174522667,-0.38698667835768175
14.240244388580322,0.1313079376470424,0.14549314845834893,-0.3575869391805995
14.250520467758179,0.1313079376470424,0.14681317544202876,-0.3300719254140647
14.26144552230835,0.1315033363637791,0.14816610372798744,-0.3044307827403989
14.26966142654419,0.1315033363637791,0.1495521405092964,-0.004573314595068517
14.277830362319946,0.1318941337972524,0.1509711796244213,0.050625411500985845
14.285486936569214,0.13208953251398908,0.15241994770512773,0.29198711943959127
14.294729709625244,0.13228493123072574,0.15389253226879088,0.5439307375898889
14.30276870727539,0.13248032994746242,0.1553866947219324,0.7448852745287158
14.313717603683472,0.13306652609767244,0.1569033854113501,1.1583397016834078
14.322587728500366,0.13345732353114578,0.15844337597958083,1.271724316229336
14.331340074539185,0.1338481209646191,0.1600042290632752,1.5277210422354448
14.340375423431396,0.1346297158315658,0.1615808236482579,1.7626668376837458
14.349331378936768,0.13521591198177582,0.1631719935308146,1.649004170626368
14.357396364212036,0.13580210813198582,0.16477679544114476,1.7009357950142308
14.36536431312561,0.13619290556545915,0.16639139750829857,1.775910543073592
14.373616456985474,0.13697450043240583,0.1680159451887267,1.8227490483070197
14.38405156135559,0.13775609529935254,0.1696540522120431,1.8297553787764564
14.393845796585083,0.13892848759977253,0.1713090574152523,1.8006474816373808
14.404019594192505,0.14010087990019257,0.1729839554416027,2.0198718935638187
14.411649227142334,0.14107787348387593,0.17467793546646312,1.9771298483418855
14.4231436252594,0.14264106321776926,0.17639057307979286,2.110468394008919
14.432725429534912,0.144008854234926,0.1781288260933831,2.2498449455373577
14.440551042556763,0.14518124653534598,0.17989505761471233,2.0616476911376345
14.450413465499878,0.14674443626923936,0.18168412312180382,2.331066096628697
14.461445808410645,0.14889382215334274,0.18349929812412838,2.392636094723077
14.472342014312744,0.1510432080374461,0.1853510252424274,2.622907332539789
14.481998205184937,0.15280179648807612,0.1872444078617191,2.5562355866927664
14.489338397979736,0.15416958750523282,0.1891759210650099,2.099902645097947
14.500414609909058,0.15651437210607286,0.19113846977478718,2.1316799449915584
14.510411262512207,0.15846835927343958,0.1931299304200979,2.012972536646062
14.52303171157837,0.1613993400244896,0.19515659579625957,1.8442077893934812
14.531352996826172,0.16335332719185633,0.19722371985303078,1.6692593875180792
14.539337158203125,0.165307314359223,0.19932728917857218,1.2294905728815446
14.549492120742798,0.16784749767679974,0.20146373345337637,1.0492901329209894
14.558818101882935,0.1705830797111131,0.20363402597222896,0.6982789519248418
14.567747116088867,0.1727324655952165,0.20583879468323296,0.6266178489601069
14.578371524810791,0.17585884506300323,0.20807834342252446,0.6510036664972673
14.586470365524292,0.17820362966384326,0.21034834283097884,0.41783288342732366
14.596378564834595,0.18093921169815663,0.21264053861548676,0.1410173291440425
14.604376316070557,0.18308859758226,0.2149520669951712,-0.09894909410579995
14.615371704101562,0.1864103757667834,0.21728462934661041,-0.004230727937468572
14.624432563781738,0.18895055908436015,0.2196394420894967,-0.09572794009193746
14.634464502334595,0.1918815398354102,0.2220173013819904,-0.22865336287586854
14.643322229385376,0.19461712186972355,0.22441861200250246,-0.3469189987990365
14.654473304748535,0.19793890005424694,0.22684344208295484,-0.1577923248633857
14.664787292480469,0.2016514756722437,0.2292915709557502,-0.4558026066599128
14.67543363571167,0.20497325385676707,0.2317668009903114,-0.5725410437022997
14.684359312057495,0.20770883589108044,0.23427189541271104,-0.6018591511713458
14.694313526153564,0.21122601279234052,0.23680005046607824,-0.8662735219633062
14.70444130897522,0.21435239226012726,0.23934513026326737,-1.1457548768312313
14.71376895904541,0.21767417044465065,0.24190595290042402,-1.0871989249460436
14.721391916275024,0.22040975247896405,0.24447693460018752,-1.1939125637238652
14.731449842453003,0.2239269293802241,0.2470488380209022,-1.3192404685626382
14.742956638336182,0.2280303024316942,0.2496222041373995,-1.4109189795310146
14.751986503601074,0.23096128318274423,0.25220588049633375,-1.4574124408347338
14.760421752929688,0.23389226393379428,0.2547986965625005,-1.7390719688873686
14.770960092544556,0.23760483955179101,0.25739502202384157,-1.746032436797829
14.780277252197266,0.24073121901957772,0.2599939603021843,-1.642264929197951
14.791357040405273,0.24444379463757446,0.26259036505602196,-1.7788900204560394
14.800326347351074,0.2475701741053612,0.26517959446631617,-1.945616080961858
14.810106754302979,0.2505011548564112,0.2677615313178776,-1.790970949419137
14.820359468460083,0.254213730474408,0.27033566250290736,-1.8167735773155373
14.829411745071411,0.2573401099421947,0.27290106685905247,-1.8739766015232768
14.838725566864014,0.2604664894099814,0.2754563772582273,-1.9079342595254882
14.848491668701172,0.2639836663112415,0.2779997776817437,-1.905059743474765
14.857316493988037,0.2671100457790282,0.28052553288420234,-2.144049068185642
14.86971926689148,0.27101802011376164,0.28302798669698825,-2.1137436294297602
14.880378246307373,0.27473059573175834,0.2855084153461556,-1.9771183866480846
14.889581441879272,0.27785697519954505,0.2879669552961181,-2.084529902137488
14.897373914718628,0.28020175980038514,0.29039053981314505,-2.225098707021602
14.907342672348022,0.2833281392681718,0.29275399393939894,-2.046896541999819
14.918325901031494,0.2870407148861686,0.2950423243085319,-2.0513841371971795
14.926367998123169,0.28958089820374533,0.2972557471119484,-2.0892285824512498
14.935009241104126,0.2923164802380587,0.29939267965880173,-2.105552745835925
14.944203615188599,0.2944658661221621,0.3014498909687171,-2.0865791544654693
14.954232454299927,0.2972014481564754,0.30342579849900775,-2.310844078249379
14.962967157363892,0.29915543532384214,0.3053185775691101,-2.543091339455027
14.97225284576416,0.30130482120794555,0.3071266580549541,-2.979303197286685
14.981338739395142,0.30306340965857553,0.3088478303095859,-3.63859812355508
14.991481304168701,0.3052127955426789,0.31047955858755627,-4.200796584386509
15.000102043151855,0.3069713839933089,0.3120212440846877,-4.850541076455279
15.010021924972534,0.308729972443939,0.3134739377732272,-5.0
15.01962161064148,0.310488560894569,0.31483909228725576,-5.0
15.028084993362427,0.31146555447825236,0.3161185949008891,-5.0
15.037457704544067,0.3130287442121457,0.3173141222681114,-5.0
15.045348167419434,0.31381033907909234,0.31842728093290196,-5.0
15.055334091186523,0.3147873326627758,0.3194610642176608,-4.761011406418556
15.065450668334961,0.31595972496319574,0.32041989782411834,-4.865535712082485
15.076632976531982,0.3167413198301425,0.32131177242285136,-4.726386765003556
15.084311246871948,0.3173275159803524,0.32214655867278963,-4.478496689306489
15.094079732894897,0.31771831341382584,0.32292993244906787,-3.6368724049476944
15.103362083435059,0.31810911084729915,0.3236660673665518,-3.272408569926008
15.111307621002197,0.31830450956403583,0.3243597504794899,-2.8155312657272322
15.120338439941406,0.3184999082807725,0.3250153343349547,-2.1058787773837846
15.129761695861816,0.3186953069975092,0.32563894420982425,-1.700434466881051
15.138954401016235,0.3188907057142458,0.3262381145155216,-1.1735360353573197
15.14631724357605,0.3188907057142458,0.3268188096018089,-0.6935576464299957
