t_s,q_rad,q_des_rad,K,B,Kff,jerk,tau_Nm,reward
0.00567936897277832,-0.03927514206407072,[0.00748485],9.825212432529046,0.9790254919034855,1.9737818648793566,0.0,9.998999999999999,1.145778050465856
0.015599489212036133,-0.039470540780807396,[0.03617199],9.650424865058092,0.9580509838069711,1.9475637297587132,0.0,10.098989999999999,0.8184281537848421
0.02419114112854004,-0.039470540780807396,[0.08990203],9.475637297587138,0.9370764757104565,1.92134559463807,0.0,10.099989899999999,0.5351738493623335
0.03422999382019043,-0.039470540780807396,[0.16411359],9.300849730116184,0.9161019676139419,1.8951274595174268,0.0,10.099999898999998,0.5002511904020442
0.04427623748779297,-0.039470540780807396,[0.25468403],9.12606216264523,0.8951274595174274,1.8689093243967834,0.0,10.099999998989999,0.5000000305048
0.05465984344482422,-0.039470540780807396,[0.35791515],8.951274595174274,0.8741529514209129,1.84269118927614,0.0,10.0999999999899,0.5000000000000192
0.06451797485351562,-0.03927514206407072,[0.47051559],8.77648702770332,0.8531784433243983,1.8164730541554968,0.0,-9.8980000000001,0.5
0.07588338851928711,-0.039470540780807396,[0.58958067],8.601699460232366,0.8322039352278838,1.7902549190348536,0.0,-10.09798,0.5
0.0847322940826416,-0.039470540780807396,[0.71257026],8.426911892761412,0.8112294271313693,1.7640367839142101,0.0,-10.099979799999998,0.5
0.09319519996643066,-0.03927514206407072,[0.83728548],8.252124325290458,0.7902549190348547,1.7378186487935667,0.0,-10.099999797999999,0.5
0.10259628295898438,-0.039470540780807396,[0.96184451],8.077336757819502,0.7692804109383402,1.7116005136729235,0.0,-5.100499997979999,0.5
0.1131594181060791,-0.039470540780807396,[1.08465806],7.902549190348549,0.7483059028418256,1.6853823785522803,0.0,-5.0505049999797995,0.5
0.1207425594329834,-0.03927514206407072,[1.20440479],7.727761622877595,0.727331394745311,1.659164243431637,0.0,-5.050005049999798,0.5
0.12870049476623535,-0.039470540780807396,[1.320007],7.55297405540664,0.7063568866487966,1.6329461083109935,0.0,-5.050000050499998,0.5
0.13876628875732422,-0.03927514206407072,[1.43060702],7.378186487935686,0.685382378552282,1.6067279731903503,0.0,-5.050000000504999,0.5
0.14673256874084473,-0.039470540780807396,[1.53554442],7.203398920464732,0.6644078704557674,1.5805098380697071,0.0,-5.050000000005049,0.5
0.15633082389831543,-0.03927514206407072,[1.63433405],7.028611352993777,0.643433362359253,1.5542917029490637,0.0,-5.05000000000005,0.5
0.16401076316833496,-0.039470540780807396,[1.72664529],6.853823785522822,0.6224588542627384,1.5280735678284203,0.0,-5.05,0.5
0.17272019386291504,-0.039470540780807396,[1.81228244],6.679036218051868,0.6014843461662238,1.501855432707777,0.0,-5.05,0.5
0.18428587913513184,-0.039470540780807396,[1.8911665],6.504248650580913,0.6,1.475637297587134,0.0,-5.05,0.5
0.19254422187805176,-0.039470540780807396,[1.96331815],6.329461083109958,0.6,1.4494191624664907,0.0,-5.05,0.5
0.2027273178100586,-0.039470540780807396,[2.02884209],6.154673515639004,0.6,1.4232010273458477,0.0,-5.05,0.5
0.21274948120117188,-0.039470540780807396,[2.08791271],5.97988594816805,0.6,1.3969828922252046,0.0,-5.05,0.5
0.22526240348815918,-0.03927514206407072,[2.14076117],5.805098380697095,0.6,1.3707647571045614,0.0,-5.05,0.5
0.2356400489807129,-0.039470540780807396,[2.18766355],5.63031081322614,0.6,1.3445466219839184,0.0,-5.05,0.5
0.24623465538024902,-0.03927514206407072,[2.22893033],5.455523245755186,0.6,1.3183284868632752,0.0,-5.05,0.5
0.2548091411590576,-0.03927514206407072,[2.26489708],5.280735678284231,0.6,1.292110351742632,0.0,-5.05,0.5
0.26575374603271484,-0.03927514206407072,[2.29591622],5.105948110813277,0.6,1.2658922166219888,0.0,-3.1182454024994324,0.5
0.2767491340637207,-0.03927514206407072,[2.32234987],5.0,0.6,1.2396740815013456,0.0,1.0058596518975644,0.5
0.2869231700897217,-0.03927514206407072,[2.34456368],5.0,0.6,1.2134559463807026,0.0,4.197714064516419,0.5
0.2971336841583252,-0.03868894591386071,[2.36292151],5.0,0.6,1.1872378112600595,0.0,6.50360361628977,0.5
0.30672788619995117,-0.036148762596283995,[2.37778102],5.0,0.6,1.1610196761394163,1.104153438714724,8.153244938735085,0.4990932836349796
0.3164510726928711,-0.03224078826155059,[2.38948998],5.0,0.6,1.1348015410187733,3.7209970884686188,9.33021700803441,0.48979866937472066
0.32477879524230957,-0.0289190100770272,[2.39838328],5.0,0.6,1.10858340589813,5.0,10.092302170080343,0.4817320621239355
0.3345825672149658,-0.024815637025557124,[2.40478062],5.0,0.6,1.082365270777487,5.0,10.099923021700802,0.4817320621239355
0.34280824661254883,-0.0216892575577704,[2.40898472],5.0,0.6,1.0561471356568437,5.0,10.099999230217007,0.4817320621239355
0.35265374183654785,-0.017781283223036994,[2.41127993],5.0,0.6,1.0299290005362005,5.0,10.09999999230217,0.4817320621239355
0.3627641201019287,-0.013677910171566917,[2.41193148],5.0,0.6,1.0037108654155575,5.0,10.099999999923021,0.4817320621239355
0.3728177547454834,-0.009574537120096843,[2.41118499],5.0,0.6,0.9774927302949143,5.0,10.099999999999229,0.4817320621239355
0.3824920654296875,-0.005471164068626767,[2.40926629],5.0,0.6,0.9512745951742712,5.0,10.09999999999999,0.4817320621239355
0.3919031620025635,-0.0015631897338933619,[2.40638154],5.0,0.6,0.9250564600536281,5.0,10.099999999999998,0.4817320621239355
0.40139007568359375,0.0019539871673667024,[2.40271759],5.0,0.6,0.898838324932985,4.575907901178098,5.100499999999999,0.48465349508470834
0.40972447395324707,0.004884967918416756,[2.3984425],5.0,0.6,0.8726201898123418,2.451866427846038,5.050504999999999,0.49554489197673357
0.41873836517333984,0.00820674610294015,[2.39370628],5.0,0.6,0.8464020546916986,-0.3974899806366843,5.050005049999999,0.49988239982464006
0.4272172451019287,0.012114720437673556,[2.38864182],5.0,0.6,0.8201839195710555,-2.6582118411798557,5.0500000505,0.4947675695424741
0.43576645851135254,0.01563189733893362,[2.3833658],5.0,0.6,0.7939657844504124,-4.267957681689176,5.050000000504999,0.48662261170008875
0.44511914253234863,0.019735270390403698,[2.37797962],5.0,0.6,0.7677476493297692,-5.0,5.050000000005049,0.4817320621239355
0.4527256488800049,0.022666251141453746,[2.37257042],5.0,0.6,0.741529514209126,-5.0,5.05000000000005,0.4817320621239355
0.46145153045654297,0.026378826759450486,[2.36721213],5.0,0.6,0.715311379088483,-5.0,5.05,0.4817320621239355
0.47081732749938965,0.030091402377447216,[2.3619667],5.0,0.6,0.6890932439678399,-5.0,5.05,0.4817320621239355
0.4787590503692627,0.03341318056197061,[2.35688505],5.0,0.6,0.6628751088471967,-5.0,5.05,0.4817320621239355
0.4890153408050537,0.03751655361344069,[2.35200814],5.0,0.6,0.6366569737265535,-5.0,5.05,0.4817320621239355
0.497739315032959,0.04103373051470075,[2.34736802],5.0,0.6,0.6104388386059104,-5.0,5.05,0.4817320621239355
0.5077221393585205,0.04513710356617083,[2.34298867],5.0,0.6,0.5842207034852673,-5.0,5.05,0.4817320621239355
0.5170679092407227,0.049045077900904226,[2.33888706],5.0,0.6,0.5580025683646241,-5.0,5.05,0.4817320621239355
0.5247247219085693,0.05217145736869095,[2.33507398],5.0,0.6,0.531784433243981,-5.0,5.05,0.4817320621239355
0.5327951908111572,0.05529783683647768,[2.33155479],5.0,0.6,0.5055662981233379,-4.968323149056206,5.05,0.48195858309770223
0.5418543815612793,0.058815013737737745,[2.32833015],5.0,0.6,0.4793481630026947,-4.769835731152632,5.05,0.4833475159930284
0.5508029460906982,0.06233219063899781,[2.3253969],5.0,0.6,0.4531300278820516,-4.498109891315844,5.05,0.4851631361054435
0.560168981552124,0.06604476625699454,[2.32274872],5.0,0.6,0.42691189276140845,-3.924413510811081,5.05,0.4886659080434343
0.5687191486358643,0.06936654444151794,[2.32037651],5.0,0.6,0.4006937576407653,-3.591430326056055,5.05,0.4904900477351974
0.577714204788208,0.07307912005951467,[2.31826891],5.0,0.6,0.3744756225201221,-3.3561264315233315,5.05,0.4916852921017267
0.5859329700469971,0.07659629696077475,[2.31641303],5.0,0.6,0.3482574873994789,-3.1567094912250404,5.05,0.49263693940161074
0.593775749206543,0.07972267642856146,[2.3147947],5.0,0.6,0.3220393522788358,-2.9688568549522367,5.05,0.4934816330912871
0.6026897430419922,0.08363065076329486,[2.3133988],5.0,0.6,0.2958212171581926,-2.7847936432080287,5.05,0.494260315846832
0.6127462387084961,0.08753862509802827,[2.3122098],5.0,0.6,0.2696030820375494,-2.6035051126749593,5.05,0.49497964928399424
0.6224331855773926,0.09144659943276168,[2.31121201],5.0,0.6,0.24338494691690624,-2.4263127889410407,5.05,0.49563686712154176
0.6318449974060059,0.09496377633402173,[2.31038974],5.0,0.6,0.21716681179626307,-2.254990231838626,5.05,0.49622902959768656
0.6398611068725586,0.0984809532352818,[2.30972734],5.0,0.6,0.19094867667561988,-2.0910491426588913,5.05,0.4967556900076215
0.6499004364013672,0.10258432628675188,[2.30920941],5.0,0.6,0.16473054155497668,-1.6595027437038796,5.05,0.4979541555633242
0.6597175598144531,0.10629690190474862,[2.3088212],5.0,0.6,0.13851240643433352,-1.479905577556882,5.05,0.4983723281981541
0.6687555313110352,0.11000947752274534,[2.3085487],5.0,0.6,0.11229427131369034,-1.6738390186899799,5.05,0.4979187291855857
0.6805567741394043,0.11489444544116212,[2.30837868],5.0,0.6,0.08607613619304716,-1.6550775336490577,5.05,0.49796502966041484
0.6897263526916504,0.11860702105915884,[2.30829867],5.0,0.6,0.05985800107240398,-1.2754936744553746,5.05,0.49879041206584523
0.6997556686401367,0.12271039411062891,[2.30829686],5.0,0.6,0.0336398659517608,-1.1125783796165343,5.05,0.49907940673758744
0.7091660499572754,0.126813767162099,[2.30836239],5.0,0.6,0.0074217308311176206,-1.0370333279639397,5.05,0.4992000838370671
0.7190980911254883,0.13072174149683238,[2.30848521],5.0,0.6,0.0,-0.9915306544957532,5.05,0.49926869057754897
0.7277190685272217,0.13443431711482912,[2.30865581],5.0,0.6,0.0,-0.9524487669079732,5.05,0.49932516642539065
0.7377150058746338,0.13834229144956253,[2.3088654],5.0,0.6,0.0,-0.9114305458124166,5.05,0.4993820045124478
0.747704029083252,0.1424456645010326,[2.30910618],5.0,0.6,0.0,-0.8666451207857819,5.05,0.4994412127648218
0.756721019744873,0.14596284140229268,[2.30937128],5.0,0.6,0.0,-0.818756145398948,5.05,0.49950123138435226
0.7655637264251709,0.14967541702028941,[2.30965461],5.0,0.6,0.0,-0.7691416583748945,5.05,0.4995598222288216
0.775242805480957,0.1531925939215495,[2.30995076],5.0,0.6,0.0,-0.7191686092376872,5.05,0.49961514163954873
0.7830700874328613,0.15670977082280954,[2.31025483],5.0,0.6,0.0,-0.6699449591252258,5.05,0.49966600510391845
0.7924215793609619,0.16003154900733293,[2.31056248],5.0,0.6,0.0,-0.6222757695106471,5.05,0.49971183098890937
0.800980806350708,0.163548725908593,[2.31087007],5.0,0.6,0.0,-0.5766969529690287,5.05,0.49975248901751584
0.8087043762207031,0.1668705040931164,[2.31117455],5.0,0.6,0.0,-0.5335308482641528,5.05,0.49978814743689526
0.817699670791626,0.1705830797111131,[2.31147324],5.0,0.6,0.0,-0.4929408264855477,5.05,0.4998191503388782
0.8263800144195557,0.1741002566123732,[2.31176404],5.0,0.6,0.0,-0.4549771176292372,5.05,0.49984592972243874
0.835693359375,0.17781283223036992,[2.3120454],5.0,0.6,0.0,-0.41961246080503667,5.05,0.49986894713893654
0.8436615467071533,0.18093921169815663,[2.31231599],5.0,0.6,0.0,-0.38676863400214356,5.05,0.49988865754095113
0.8526945114135742,0.18465178731615337,[2.3125747],5.0,0.6,0.0,-0.35633561795061525,5.05,0.49990548862180506
0.8616647720336914,0.18836436293415013,[2.31282086],5.0,0.6,0.0,-0.3281851285954191,5.05,0.4999198304121625
0.8696739673614502,0.1918815398354102,[2.31305405],5.0,0.6,0.0,-0.3021799842708147,5.05,0.49993203136568476
0.8796954154968262,0.19578951417014356,[2.31327396],5.0,0.6,0.0,-0.278180458656459,5.05,0.49994239835374243
0.8901121616363525,0.19989288722161366,[2.31348061],5.0,0.6,0.0,-0.2560484866297067,5.05,0.49995119886677436
0.8976869583129883,0.20301926668940037,[2.31367417],5.0,0.6,0.0,-0.23565035970365913,5.05,0.4999586643342339
0.9076957702636719,0.2069272410241338,[2.31385484],5.0,0.6,0.0,-0.2168583706995038,5.05,0.4999649938900144
0.9172263145446777,0.21044441792539384,[2.31402314],5.0,0.6,0.0,-0.19955173556861638,5.05,0.49997035818308877
0.9263594150543213,0.21435239226012726,[2.31417988],5.0,0.6,0.0,-0.18361702423294327,5.05,0.4999749030084076
0.9336678981781006,0.21728337301117734,[2.31432564],5.0,0.6,0.0,-0.16894826322235157,5.05,0.49997875264320585
0.9426841735839844,0.22119134734591073,[2.31446085],5.0,0.6,0.0,-0.15544682364974377,5.05,0.499982012841236
0.9551455974578857,0.22627171398106416,[2.31458621],5.0,0.6,0.0,-0.14302117321522864,5.05,0.4999847734772742
0.9638168811798096,0.22939809344885087,[2.31470256],5.0,0.6,0.0,-0.4076249060657709,5.05,0.49987632714607944
0.9744393825531006,0.23389226393379428,[2.31481059],5.0,0.6,0.0,-0.4302275325410596,5.05,0.4998622336231967
0.9846796989440918,0.238191035702001,[2.3149111],5.0,0.6,0.0,-0.36544857334268577,5.05,0.4999005932119276
0.9936909675598145,0.24190361131999777,[2.31500476],5.0,0.6,0.0,-0.280455362924988,5.05,0.49994145244740384
1.0032880306243896,0.2456161869379945,[2.31509201],5.0,0.6,0.0,-0.201736409238994,5.05,0.49996970561843146
1.0126979351043701,0.24952416127272792,[2.31517342],5.0,0.6,0.0,-0.1375735305100029,5.05,0.4999859113194536
1.0226917266845703,0.2534321356074613,[2.31524973],5.0,0.6,0.0,-0.08863777250956836,5.05,0.49999415153624793
1.0307021141052246,0.256558515075248,[2.31532154],5.0,0.6,0.0,0.22319907154502966,5.05,0.499962916959342
1.0412006378173828,0.2606618881267181,[2.31538913],5.0,0.6,0.0,0.28172431640137796,5.05,0.49994092146952124
1.0503008365631104,0.26437446374471485,[2.31545287],5.0,0.6,0.0,0.24418273799645035,5.05,0.49995561693222185
1.061692714691162,0.26886863422965823,[2.31551334],5.0,0.6,0.0,-0.09612801013642883,5.05,0.49999312134397084
1.0710911750793457,0.2727766085643917,[2.31557105],5.0,0.6,0.0,-0.19207949297605792,5.05,0.4999725364452746
1.080716848373413,0.27687998161586175,[2.31562648],5.0,0.6,0.0,-0.18881155673603156,5.05,0.499973462971176
1.0913922786712646,0.28137415210080513,[2.3156801],5.0,0.6,0.0,-0.15195013675713212,5.05,0.49998281294757924
1.1012580394744873,0.2854775251522752,[2.31573231],5.0,0.6,0.0,-0.10945188316921088,5.05,0.49999108237349676
1.1097443103790283,0.2889947020535353,[2.3157835],5.0,0.6,0.0,-0.07189981474278581,5.05,0.4999961517742009
1.1186497211456299,0.29251187895479536,[2.31583402],5.0,0.6,0.0,-0.04221251316256311,5.05,0.4999986735572284
1.1286988258361816,0.29622445457279206,[2.31588416],5.0,0.6,0.0,-0.020191703649115794,5.05,0.49999969650435006
1.1378798484802246,0.29974163147405214,[2.3159342],5.0,0.6,0.0,-0.004581157944862489,5.05,0.49999998437726023
1.1472647190093994,0.3038450045255222,[2.31598436],5.0,0.6,0.0,-0.2699841066543625,5.05,0.49994574253379853
1.1560795307159424,0.3075575801435189,[2.31603485],5.0,0.6,0.0,-0.2961686713517673,5.05,0.4999347085141279
1.164198875427246,0.3106839596113057,[2.31608582],5.0,0.6,0.0,-0.236795825048546,5.05,0.4999582615199189
1.172663927078247,0.3140057377958291,[2.31613741],5.0,0.6,0.0,0.11772557637847399,5.05,0.4999896832276951
1.1826987266540527,0.31791371213056246,[2.31618962],5.0,0.6,0.0,-0.053563679989544706,5.05,0.4999978642689517
1.194284200668335,0.3226032813322426,[2.31624247],5.0,0.6,0.0,-0.08493788561913133,5.05,0.4999946295925757
1.206190824508667,0.32768364796739596,[2.31629615],5.0,0.6,0.0,0.21175926846465146,5.05,0.49996662071462683
1.2159371376037598,0.33178702101886604,[2.31635082],5.0,0.6,0.0,0.2791434702001314,5.05,0.4999419988731825
1.2247028350830078,0.3353041979201261,[2.31640653],5.0,0.6,0.0,-0.019502178371414686,5.05,0.49999971687853234
1.2327675819396973,0.3384305773879129,[2.31646318],5.0,0.6,0.0,-0.10299437969404934,5.05,0.49999210357893153
1.2408359050750732,0.34214315300590964,[2.31652056],5.0,0.6,0.0,-0.10010772019498194,5.05,0.4999925400042914
1.250040054321289,0.3458557286239063,[2.31657861],5.0,0.6,0.0,0.20728411950480702,5.05,0.49996801658399187
1.257669448852539,0.3487867093749564,[2.31663727],5.0,0.6,0.0,0.2757964085736342,5.05,0.49994338137763117
1.2666914463043213,0.35230388627621645,[2.31669639],5.0,0.6,0.0,-0.024975769165275635,5.05,0.49999953565131783
1.2765114307403564,0.3564072593276865,[2.31675592],5.0,0.6,0.0,-0.11117276253737066,5.05,0.4999907997532574
1.2868902683258057,0.3605106323791566,[2.31681593],5.0,0.6,0.0,0.1654733150264816,5.05,0.4999796176733108
1.2966711521148682,0.3646140054306266,[2.31687649],5.0,0.6,0.0,0.2283680672356893,5.05,0.49996117954976993
1.3076674938201904,0.3689127771988334,[2.31693774],5.0,0.6,0.0,0.20774447295407045,5.05,0.49996787436806006
1.3167188167572021,0.3726253528168302,[2.31699979],5.0,0.6,0.0,0.16165352034039088,5.05,0.49998054780741313
1.3252511024475098,0.37614252971809026,[2.31706252],5.0,0.6,0.0,0.11417951709644211,5.05,0.49999029537262846
1.3343079090118408,0.3798551053360869,[2.31712579],5.0,0.6,0.0,0.07391007796066298,5.05,0.49999593358002464
1.342663288116455,0.3831768835206103,[2.31718948],5.0,0.6,0.0,0.042724780967944596,5.05,0.4999986411679708
1.3512120246887207,0.38649866170513375,[2.31725337],5.0,0.6,0.0,0.01987708680232625,5.05,0.4999997058884932
1.3605015277862549,0.3906020347566038,[2.31731738],5.0,0.6,0.0,0.0038166375969203234,5.05,0.4999999891565241
1.3706750869750977,0.3949008065248106,[2.31738155],5.0,0.6,0.0,-0.0070526330334664405,5.05,0.4999999629737923
1.3786828517913818,0.39822258470933397,[2.31744583],5.0,0.6,0.0,-0.014100551146518613,5.05,0.499999851994182
1.3914082050323486,0.4031075526277507,[2.31751013],5.0,0.6,0.0,-0.0184096826937576,5.05,0.4999997477105023
1.4017109870910645,0.4072109256792208,[2.31757462],5.0,0.6,0.0,-0.020797273780504236,5.05,0.4999996780270746
1.409688949584961,0.41053270386374413,[2.31763932],5.0,0.6,0.0,-0.02186291924710109,5.05,0.49999964418617193
1.4204583168029785,0.4150268743486876,[2.3177041],5.0,0.6,0.0,-0.02203807055439776,5.05,0.49999963846224527
1.4287521839141846,0.41815325381647434,[2.31776909],5.0,0.6,0.0,-0.021628747147430575,5.05,0.49999965176753974
1.4376771450042725,0.42186582943447104,[2.31783425],5.0,0.6,0.0,-0.020849449363958415,5.05,0.4999996764095364
1.4461071491241455,0.4251876076189945,[2.31789934],5.0,0.6,0.0,-0.01984889301771056,5.05,0.4999997067222404
1.4544811248779297,0.4283139870867812,[2.31796428],5.0,0.6,0.0,-0.0187290104039101,5.05,0.4999997388823529
1.4641382694244385,0.43241736013825127,[2.31802908],5.0,0.6,0.0,-0.017558734303676243,5.05,0.49999977049455685
1.4740607738494873,0.43632533447298466,[2.31809377],5.0,0.6,0.0,-0.016383879148221137,5.05,0.4999998001794913
1.4826247692108154,0.43984251137424474,[2.31815827],5.0,0.6,0.0,-0.015234165466765927,5.05,0.49999982723970493
1.4916253089904785,0.4433596882755048,[2.31822239],5.0,0.6,0.0,-0.014128182953777345,5.05,0.49999985141354164
1.4996817111968994,0.4468768651767649,[2.31828598],5.0,0.6,0.0,-0.013076880359084154,5.05,0.499999872703952
1.5077240467071533,0.45000324464455155,[2.3183489],5.0,0.6,0.0,-0.012086009626724818,5.05,0.49999989126421357
1.5160682201385498,0.4535204215458116,[2.31841114],5.0,0.6,0.0,-0.011157831277671212,5.05,0.49999990732422744
1.5262811183929443,0.4576237945972817,[2.31847282],5.0,0.6,0.0,-0.010292299787090137,5.05,0.49999992114458963
1.5366706848144531,0.46192256636548845,[2.31853404],5.0,0.6,0.0,-0.009487883970665904,5.05,0.4999999329891115
1.5460476875305176,0.4656351419834852,[2.31859486],5.0,0.6,0.0,-0.008742131798792786,5.05,0.49999994310929047
1.5536696910858154,0.46876152145127187,[2.31865522],5.0,0.6,0.0,0.26798630302714094,5.05,0.49994654249896886
1.5626471042633057,0.47227869835253194,[2.31871495],5.0,0.6,0.0,0.3017485637357993,5.05,0.49993222529081477
1.5716586112976074,0.475795875253792,[2.31877405],5.0,0.6,0.0,-0.028798455599509498,5.05,0.49999938263102134
1.5807385444641113,0.4795084508717888,[2.31883263],5.0,0.6,0.0,-0.13746518828945972,5.05,0.4999859335007036
1.588900089263916,0.4828302290563122,[2.31889078],5.0,0.6,0.0,-0.1523902072089605,5.05,0.49998271325256505
1.596891164779663,0.48615200724083557,[2.31894849],5.0,0.6,0.0,-0.13246595821315388,5.05,0.4999869380031926
1.6056773662567139,0.4894737854253589,[2.31900564],5.0,0.6,0.0,-0.10351626075932364,5.05,0.49999202335318715
1.615480899810791,0.4931863610433557,[2.31906224],5.0,0.6,0.0,-0.07591861628903575,5.05,0.4999957095644754
1.6251425743103027,0.4970943353780891,[2.31911839],5.0,0.6,0.0,-0.053088861933364734,5.05,0.4999979019656465
1.6329820156097412,0.5004161135626125,[2.31917407],5.0,0.6,0.0,-0.035494955179060726,5.05,0.4999990621367202
1.6417467594146729,0.5041286891806092,[2.3192292],5.0,0.6,0.0,0.25353446550525705,5.05,0.4999521524278445
1.6523663997650146,0.508427460948816,[2.31928379],5.0,0.6,0.0,0.29596975848019613,5.05,0.49993479618112546
1.6611361503601074,0.5121400365668127,[2.31933798],5.0,0.6,0.0,0.2473873995657178,5.05,0.49995444437167336
1.6698791980743408,0.5156572134680728,[2.31939186],5.0,0.6,0.0,0.17575935614180588,5.05,0.4999770049904388
1.677659511566162,0.5187835929358594,[2.31944536],5.0,0.6,0.0,0.10821081828264481,5.05,0.4999912834574988
1.686549425125122,0.5224961685538563,[2.31949823],5.0,0.6,0.0,0.0535115735892589,5.05,0.49999786842217236
1.6988344192504883,0.527381136472273,[2.31955048],5.0,0.6,0.0,0.0127005189038915,5.05,0.49999987992584094
1.7093451023101807,0.5316799082404797,[2.31960243],5.0,0.6,0.0,-0.016036844435487467,5.05,0.4999998085548251
1.7181847095489502,0.5355878825752132,[2.31965424],5.0,0.6,0.0,-0.035233937993800285,5.05,0.4999990758794127
1.7256572246551514,0.5383234646095265,[2.3197059],5.0,0.6,0.0,-0.04728880965052146,5.05,0.4999983353508373
1.7362730503082275,0.5424268376609965,[2.3197574],5.0,0.6,0.0,-0.05418599452443016,5.05,0.4999978143539937
1.743631362915039,0.54516241969531,[2.31980882],5.0,0.6,0.0,-0.0574617071939008,5.05,0.49999754210878417
1.7536637783050537,0.5494611914635167,[2.31986013],5.0,0.6,0.0,-0.05825937992006281,5.05,0.4999974733953335
1.7646629810333252,0.5539553619484602,[2.31991137],5.0,0.6,0.0,-0.0574084534074179,5.05,0.4999975466624616
1.773819923400879,0.5574725388497203,[2.31996268],5.0,0.6,0.0,-0.055499452536397334,5.05,0.4999977071107518
1.7826409339904785,0.5611851144677169,[2.320014],5.0,0.6,0.0,-0.05294646845707693,5.05,0.49999791320510906
1.7962987422943115,0.5668516772530804,[2.32006537],5.0,0.6,0.0,-0.05003583113821997,5.05,0.4999981363339135
1.8050298690795898,0.5701734554376038,[2.32011697],5.0,0.6,0.0,-0.04696262059317308,5.05,0.4999983582364517
1.8127868175506592,0.5734952336221272,[2.32016879],5.0,0.6,0.0,0.23218093965298922,5.05,0.49995987247476115
1.8216667175292969,0.5770124105233871,[2.32022063],5.0,0.6,0.0,0.2683573451016208,5.05,0.49994639437461225
1.8311545848846436,0.5807249861413839,[2.3202724],5.0,0.6,0.0,-0.05983383814981488,5.05,0.4999973349875476
1.838623046875,0.583655966892434,[2.32032403],5.0,0.6,0.0,-0.16623869440830197,5.05,0.49997942868852485
1.8486297130584717,0.5877593399439041,[2.32037539],5.0,0.6,0.0,0.09702179332564895,5.05,0.4999929928368785
1.85933256149292,0.5922535104288476,[2.32042652],5.0,0.6,0.0,0.15209240795701678,5.05,0.49998278074852726
1.8710236549377441,0.5971384783472642,[2.32047764],5.0,0.6,0.0,-0.14820100190472446,5.05,0.4999836505986876
1.8786349296569824,0.600264857815051,[2.32052873],5.0,0.6,0.0,-0.2280491080779428,5.05,0.4999612879100345
1.8886680603027344,0.6041728321497843,[2.32057971],5.0,0.6,0.0,-0.2190060969936799,5.05,0.4999642970928639
1.896641731262207,0.607299211617571,[2.3206306],5.0,0.6,0.0,-0.1804302450945206,5.05,0.499975766573332
1.9046225547790527,0.6106209898020944,[2.32068123],5.0,0.6,0.0,-0.1375090673726873,5.05,0.4999859245193037
1.9136974811553955,0.6143335654200912,[2.32073139],5.0,0.6,0.0,-0.09969360969468904,5.05,0.4999926015949488
1.9228589534759521,0.6182415397548247,[2.32078111],5.0,0.6,0.0,-0.06951080751322243,5.05,0.49999640325390426
1.930952787399292,0.621563317939348,[2.32083048],5.0,0.6,0.0,-0.04668632312594901,5.05,0.4999983774977273
1.9413158893585205,0.6256666909908181,[2.32087956],5.0,0.6,0.0,-0.03000763322456962,5.05,0.49999932969899574
1.9511713981628418,0.6297700640422882,[2.32092841],5.0,0.6,0.0,-0.018116748630135418,5.05,0.49999975567546195
1.9586424827575684,0.6325056460766015,[2.320977],5.0,0.6,0.0,-0.2858477641126082,5.05,0.49993917951779143
1.9696943759918213,0.636999816561545,[2.32102523],5.0,0.6,0.0,-0.3132796056301808,5.05,0.49992694680853483
1.9776747226715088,0.6403215947460684,[2.32107309],5.0,0.6,0.0,0.02167465170358518,5.05,0.4999996502878041
1.9876153469085693,0.6440341703640652,[2.32112068],5.0,0.6,0.0,-0.14266089120379258,5.05,0.49998485009319704
1.995692253112793,0.6473559485485886,[2.32116805],5.0,0.6,0.0,-0.15879370626323155,5.05,0.499981229964495
2.006621837615967,0.651850119033532,[2.32121526],5.0,0.6,0.0,-0.12223448361926206,5.05,0.49998887783510954
2.0152530670166016,0.6555626946515287,[2.32126225],5.0,0.6,0.0,-0.074187863333688,5.05,0.49999590295605223
2.0246200561523438,0.6594706689862622,[2.32130892],5.0,0.6,0.0,0.24535745517699747,5.05,0.4999551888870405
2.0346317291259766,0.6633786433209955,[2.32135524],5.0,0.6,0.0,0.31262909485821166,5.05,0.4999272498547262
2.042975664138794,0.6667004215055189,[2.32140123],5.0,0.6,0.0,0.2821354492786635,5.05,0.4999407489220509
2.052647352218628,0.6708037945569889,[2.32144689],5.0,0.6,0.0,0.22256954911395666,5.05,0.499963125838572
2.0629384517669678,0.6751025663251957,[2.32149231],5.0,0.6,0.0,0.16228906941472224,5.05,0.49998039455516546
2.071333169937134,0.6786197432264557,[2.32153795],5.0,0.6,0.0,0.11128431741523118,5.05,0.4999907812804257
2.0786895751953125,0.6815507239775059,[2.3215903],5.0,0.6,0.0,-0.20441651887276513,5.05,0.4999688953626143
2.0867018699645996,0.6848725021620292,[2.3216613],5.0,0.6,0.0,-0.2668749775016812,5.05,0.49994698492725137
2.096757173538208,0.6887804764967627,[2.32175304],5.0,0.6,0.0,-0.23271978365487922,5.05,0.49995968601075386
2.1070897579193115,0.6930792482649695,[2.32185837],5.0,0.6,0.0,-0.17115184313797313,5.05,0.49997819478535344
2.1176366806030273,0.6969872225997028,[2.32197444],5.0,0.6,0.0,-0.38643944445243317,5.05,0.4998888469725648
2.1256072521209717,0.7003090007842262,[2.32210085],5.0,0.6,0.0,-0.36929425297479,5.05,0.49989849026716054
2.1346042156219482,0.704021576402223,[2.32223568],5.0,0.6,0.0,-0.2761317575631943,5.05,0.4999432436132346
2.143622875213623,0.7077341520202196,[2.32237715],5.0,0.6,0.0,-0.17287898332231078,5.05,0.49997775248988424
2.153674840927124,0.7118375250716897,[2.32252394],5.0,0.6,0.0,-0.08392061860422018,5.05,0.4999947574600146
2.162191152572632,0.7151593032562131,[2.32267207],5.0,0.6,0.0,-0.015460095625731973,5.05,0.49999982207746824
2.1707229614257812,0.7184810814407364,[2.322816],5.0,0.6,0.0,0.03357814409424693,5.05,0.49999916069523687
2.1786246299743652,0.7218028596252599,[2.32295496],5.0,0.6,0.0,0.06664220532903212,5.05,0.49999669399154256
2.1880247592926025,0.7257108339599934,[2.32309013],5.0,0.6,0.0,0.08748070299303089,5.05,0.49999430322941923
2.1981356143951416,0.7300096057282001,[2.32322051],5.0,0.6,0.0,0.09937348619518353,5.05,0.4999926490319587
2.2055962085723877,0.7331359851959867,[2.32334487],5.0,0.6,0.0,0.10493363869791374,5.05,0.499991803421903
2.2149407863616943,0.7366531620972468,[2.32346256],5.0,0.6,0.0,0.10613905147539968,5.05,0.49999161402742626
2.222626209259033,0.7399749402817702,[2.32357328],5.0,0.6,0.0,0.10443954101607976,5.05,0.4999918804294792
2.2306227684020996,0.7432967184662935,[2.32367683],5.0,0.6,0.0,0.10087427776950628,5.05,0.4999924253204888
2.2403171062469482,0.747204692801027,[2.3237731],5.0,0.6,0.0,0.09617515080905864,5.05,0.49999311459584933
2.2485547065734863,0.7503310722688137,[2.32386217],5.0,0.6,0.0,0.0908496520455365,5.05,0.49999385600938506
2.2577054500579834,0.7540436478868106,[2.3239442],5.0,0.6,0.0,0.08524411050192052,5.05,0.4999945907993329
2.266651153564453,0.7573654260713338,[2.32401942],5.0,0.6,0.0,0.07959051875041495,5.05,0.499995284504898
2.276124954223633,0.7614687991228039,[2.32408816],5.0,0.6,0.0,0.07404055103967672,5.05,0.49999591921055087
2.285733699798584,0.7653767734575373,[2.32415073],5.0,0.6,0.0,0.06868995752272306,5.05,0.49999648769966115
2.294593095779419,0.7690893490755342,[2.32420747],5.0,0.6,0.0,0.06359589577405654,5.05,0.4999969893272921
2.3054792881011963,0.7737789182772141,[2.32425884],5.0,0.6,0.0,0.05878915823777637,5.05,0.49999742723545737
2.3139572143554688,0.7771006964617375,[2.32430534],5.0,0.6,0.0,0.05428274933082465,5.05,0.4999978065416394
2.3226702213287354,0.7808132720797343,[2.32434737],5.0,0.6,0.0,0.32611623062160067,5.05,0.499920837933772
2.332170248031616,0.784525847697731,[2.32438533],5.0,0.6,0.0,0.35533104066468857,5.05,0.4999060207114182
2.3413896560668945,0.7882384233157278,[2.3244196],5.0,0.6,0.0,0.2966078521698113,5.05,0.4999345147451561
2.354156732559204,0.7937095873843545,[2.32445066],5.0,0.6,0.0,0.21716673973380807,5.05,0.4999648942665037
2.363698720932007,0.7976175617190879,[2.32447907],5.0,0.6,0.0,0.14354226627470734,5.05,0.4999846623221544
2.3733599185943604,0.8011347386203479,[2.32450531],5.0,0.6,0.0,0.08405689332811513,5.05,0.49999474042005465
2.3856489658355713,0.8058243078220281,[2.32452984],5.0,0.6,0.0,0.03941784888645582,5.05,0.4999988433764958
2.394951581954956,0.8093414847232882,[2.32455312],5.0,0.6,0.0,0.007567726480722691,5.05,0.49999995736782293
2.402622699737549,0.8128586616245482,[2.3245755],5.0,0.6,0.0,-0.01420365249022488,5.05,0.49999984982187196
2.4116451740264893,0.8167666359592817,[2.32459714],5.0,0.6,0.0,-0.028422670240752068,5.05,0.4999993986377433
2.42065691947937,0.8204792115772783,[2.3246183],5.0,0.6,0.0,-0.03716714226278482,5.05,0.49999897168879354
2.4296088218688965,0.8241917871952751,[2.32463918],5.0,0.6,0.0,-0.042041355168932634,5.05,0.49999868429199396
2.4419021606445312,0.8292721538304285,[2.32466],5.0,0.6,0.0,-0.044238747925586894,5.05,0.49999854316054015
2.4525816440582275,0.8335709255986353,[2.32468106],5.0,0.6,0.0,-0.04462583499516627,5.05,0.4999985175544795
2.4637997150421143,0.8380650960835787,[2.32470258],5.0,0.6,0.0,-0.04382094707044204,5.05,0.49999857054801067
2.4752326011657715,0.8429500640019953,[2.32472458],5.0,0.6,0.0,-0.04225932053832776,5.05,0.4999986706139473
2.482600212097168,0.8460764434697822,[2.32474709],5.0,0.6,0.0,-0.04024362136927898,5.05,0.4999987944082695
2.495053768157959,0.8511568101049355,[2.32477017],5.0,0.6,0.0,-0.03798177019689848,5.05,0.4999989261178773
2.5049397945404053,0.8548693857229324,[2.32479395],5.0,0.6,0.0,-0.03561462855973144,5.05,0.49999905580193993
2.517625331878662,0.8599497523580858,[2.32481857],5.0,0.6,0.0,-0.033235964761304713,5.05,0.4999991777139967
2.5279107093811035,0.8640531254095558,[2.32484418],5.0,0.6,0.0,-0.03090670537150446,5.05,0.49999928893092577
2.539036989212036,0.8683518971777625,[2.32487096],5.0,0.6,0.0,-0.028665033020895916,5.05,0.4999993883382788
2.5507161617279053,0.8732368650961793,[2.32489915],5.0,0.6,0.0,-0.026533501047335276,5.05,0.49999947592244054
2.5616307258605957,0.8779264342978594,[2.32492892],5.0,0.6,0.0,-0.024524023337529264,5.05,0.4999995522970847
2.5695860385894775,0.881052813765646,[2.32496035],5.0,0.6,0.0,-0.022641359585448363,5.05,0.49999961839723406
2.5788679122924805,0.8849607881003796,[2.32499332],5.0,0.6,0.0,-0.02088553972560498,5.05,0.4999996752882981
2.590259313583374,0.889454958585323,[2.3250278],5.0,0.6,0.0,0.2567848167829214,5.05,0.4999509177977611
2.6009156703948975,0.8937537303535298,[2.32506393],5.0,0.6,0.0,0.2914225088756589,5.05,0.49993678423394483
2.6106009483337402,0.8974663059715264,[2.32510171],5.0,0.6,0.0,0.2377254514223576,5.05,0.49995793317189724
2.6185758113861084,0.9007880841560499,[2.32514105],5.0,0.6,0.0,0.16293434011424096,5.05,0.4999802383435507
2.628885507583618,0.9050868559242566,[2.32518192],5.0,0.6,0.0,0.09360604253210153,7.041548117804633,0.49999347753718554
2.6378395557403564,0.9086040328255167,[2.32522428],5.0,0.6,0.0,0.03808587499992472,7.0430248289788455,0.49999892022297676
2.646505355834961,0.9121212097267768,[2.32526792],5.0,0.6,0.0,-0.002896273324999629,7.0259830588929955,0.49999999375567117
2.654587507247925,0.9154429879113001,[2.32531258],5.0,0.6,0.0,-0.03137581600365631,7.008624912941839,0.4999992671815143
2.665652275085449,0.9201325571129801,[2.32535809],5.0,0.6,0.0,-0.05004189676313292,6.9867937522202865,0.4999981358820388
2.674600124359131,0.9234543352975034,[2.32540438],5.0,0.6,0.0,-0.0614009846791721,6.9692783315050315,0.4999971935576306
2.682565212249756,0.9269715121987636,[2.3254513],5.0,0.6,0.0,-0.06751218237945014,6.952136275300251,0.4999966071122164
2.6925904750823975,0.9310748852502336,[2.3254987],5.0,0.6,0.0,-0.06996228567871352,6.932001395410797,0.49999635638004464
2.7016851902008057,0.9351782583017039,[2.32554652],5.0,0.6,0.0,-0.06992844952573558,6.911847121370974,0.49999635990353786
2.710293769836426,0.9385000364862272,[2.32559471],5.0,0.6,0.0,-0.06826207234400294,6.8954927958989485,0.4999965313210371
2.7175889015197754,0.9414310172372772,[2.32564315],5.0,0.6,0.0,-0.06556748374734583,6.880153013032376,0.49999679976168854
2.7325680255889893,0.9470975800226407,[2.32569179],5.0,0.6,0.0,-0.062266973103443084,6.854242154636425,0.49999711383649453
2.7416088581085205,0.9508101556406374,[2.32574084],5.0,0.6,0.0,-0.058651248905500726,6.835550010468194,0.4999974392918019
2.749586343765259,0.9537411363916874,[2.32579029],5.0,0.6,0.0,-0.05491719855387731,6.819887299535501,0.499997754968443
2.7601773738861084,0.9580399081598941,[2.32583998],5.0,0.6,0.0,-0.05119551036493722,6.799634562187187,0.4999980489446884
2.7685678005218506,0.9613616863444175,[2.32588983],5.0,0.6,0.0,-0.04757057742391048,6.782327430708417,0.49999831545432954
2.777341604232788,0.9650742619624143,[2.32593972],5.0,0.6,0.0,-0.04409469000241001,6.764000249381072,0.4999985526331074
2.78659987449646,0.9689822362971477,[2.32598946],5.0,0.6,0.0,-0.0407980775682332,6.7439198698227,0.4999987609594039
2.7945640087127686,0.9723040144816711,[2.32603885],5.0,0.6,0.0,0.2383423885670437,6.727649440654154,0.4999577145569746
2.8026113510131836,0.9756257926661944,[2.32608784],5.0,0.6,0.0,0.2743694186868846,6.711368149426692,0.49994396572656313
2.8118832111358643,0.9791429695674545,[2.32613643],5.0,0.6,0.0,-0.054062006015983766,6.694195905380979,0.49999782434492795
2.822120189666748,0.9832463426189246,[2.32618464],5.0,0.6,0.0,-0.16075997872729786,6.674190556149295,0.4999807622533747
2.8310248851776123,0.9873497156703948,[2.32623247],5.0,0.6,0.0,0.10218031434120545,6.653670037560229,0.4999922279109363
2.839578151702881,0.9904760951381815,[2.32627984],5.0,0.6,0.0,0.1569209498570435,6.637323023479362,0.49998167007992755
2.8486106395721436,0.9943840694729149,[2.32632662],5.0,0.6,0.0,0.13233752349459957,6.618365150321805,0.4999869633195647
2.8607425689697266,0.9992690373913317,[2.32637286],5.0,0.6,0.0,-0.19074380974447835,6.595194137590662,0.49997291705933267
2.8707964420318604,1.0033724104428017,[2.32641872],5.0,0.6,0.0,-0.27022873028664757,6.574871638634224,0.4999456441728262
2.8798675537109375,1.0068895873440618,[2.32646429],5.0,0.6,0.0,0.023107633404676198,6.557319080678658,0.4999996025180235
2.887631893157959,1.009625169378375,[2.32650952],5.0,0.6,0.0,0.10444289023826404,6.542861729049547,0.49999187990870975
2.896893262863159,1.0137285424298452,[2.32655422],5.0,0.6,0.0,0.10080677718238334,6.5219902527573215,0.4999924354542988
2.9050071239471436,1.016854921897632,[2.32659821],5.0,0.6,0.0,-0.20674729650207732,6.507114234208394,0.49996818202508037
2.9141688346862793,1.020958294949102,[2.32664154],5.0,0.6,0.0,-0.2752083522722517,6.487208252369525,0.499943622552393
2.924586057662964,1.0252570667173089,[2.3266843],5.0,0.6,0.0,-0.2503713554503925,6.466139023240936,0.4999533388228417
2.936211347579956,1.0297512372022521,[2.32672665],5.0,0.6,0.0,-0.19720695882463368,6.444753196803168,0.49997105066618935
2.944603204727173,1.0330730153867755,[2.32676871],5.0,0.6,0.0,-0.14265589131504441,6.427390576941178,0.49998485115509106
2.95261287689209,1.0361993948545623,[2.32681046],5.0,0.6,0.0,-0.09631114791191984,6.41208832341713,0.49999309510951434
2.9608075618743896,1.039911970472559,[2.32685182],5.0,0.6,0.0,-0.06025860834269421,6.39317993468759,0.499997297014621
2.9695281982421875,1.0432337486570824,[2.32689274],5.0,0.6,0.0,-0.03364703762604787,6.377013716406692,0.49999915724764077
2.981597900390625,1.048118716575499,[2.32693325],5.0,0.6,0.0,-0.014727892864539002,6.353183479403132,0.49999983853148994
2.990041732788086,1.0512450960432858,[2.32697347],5.0,0.6,0.0,-0.2777419717296064,6.337895844404287,0.49994257979145673
2.998548746109009,1.054762272944546,[2.32701341],5.0,0.6,0.0,-0.026156250599947042,6.319864044168354,0.4999994907190476
3.007577419281006,1.0584748485625428,[2.32705301],5.0,0.6,0.0,0.06760483444191198,6.3016650221019255,0.499996597793226
3.0165505409240723,1.0619920254638027,[2.3270923],5.0,0.6,0.0,0.09192052249223645,6.284491794845535,0.49999371031475826
3.02968430519104,1.067267790815693,[2.32713152],5.0,0.6,0.0,0.0881517657117517,6.2601417972244375,0.49999421549508055
3.037571907043457,1.0703941702834796,[2.32717095],5.0,0.6,0.0,0.0749980602955641,6.243493376638793,0.4999958129811185
3.047431707382202,1.0746929420516864,[2.32721063],5.0,0.6,0.0,0.060421628724235676,6.222163936837204,0.49999728236985685
3.0566000938415527,1.078405517669683,[2.3272505],5.0,0.6,0.0,0.04743154178477352,6.203884993847078,0.49999832528684524
3.06732439994812,1.0832904855880998,[2.32729059],5.0,0.6,0.0,-0.23918716384488697,6.179809561388872,0.49995741428744467
3.076704978942871,1.0870030612060964,[2.32733093],5.0,0.6,0.0,-0.28054812497824066,6.161555868116951,0.4999414137134602
3.086453914642334,1.0907156368240933,[2.32737145],5.0,0.6,0.0,-0.23171093226879086,6.1423512452488485,0.49996003476534934
3.0973894596099854,1.0950144085923001,[2.32741202],5.0,0.6,0.0,-0.16032846944947834,6.1213734718432375,0.4999808653880793
3.106677532196045,1.09853158549356,[2.32745262],5.0,0.6,0.0,-0.09332515595703561,6.1041294943054485,0.49999351662251706
3.1151342391967773,1.1018533636780836,[2.32749327],5.0,0.6,0.0,-0.3153810159186111,6.087972571846305,0.4999259635450703
3.1237781047821045,1.105761338012817,[2.32753401],5.0,0.6,0.0,-0.3085003844699682,6.06879591894425,0.4999291585687815
3.132805109024048,1.109278514914077,[2.32757485],5.0,0.6,0.0,-0.2255075181488372,6.051544619549318,0.4999621459557339
3.141637086868286,1.112795691815337,[2.32761583],5.0,0.6,0.0,-0.1310690665820973,6.034285451544785,0.49998721203218066
3.149949312210083,1.1161174699998604,[2.32765698],5.0,0.6,0.0,-0.04931561356482018,6.017919698183318,0.4999981895990422
3.1585946083068848,1.119243849467647,[2.32769824],5.0,0.6,0.0,0.013411901208901966,6.001681551656008,0.49999986609792446
3.1685667037963867,1.1231518238023808,[2.3277395],5.0,0.6,0.0,0.057933893246711804,5.982665710917175,0.49999750154794526
3.1771790981292725,1.1272551968538507,[2.32778071],5.0,0.6,0.0,0.08743932175745021,5.962551089746151,0.4999943086176317
3.186058282852173,1.1307723737551107,[2.32782193],5.0,0.6,0.0,0.1054541135343153,5.945186925421468,0.49999172191024793
3.195945978164673,1.1352665442400542,[2.32786319],5.0,0.6,0.0,0.11508066048287714,5.923103307431283,0.49999014158524663
3.205321788787842,1.1389791198580508,[2.32790444],5.0,0.6,0.0,0.11879618075070053,5.903960074435407,0.4999894947336035
3.218625068664551,1.144254885209941,[2.32794565],5.0,0.6,0.0,0.11847684740743138,5.878973786325301,0.4999895511350465
3.2279727458953857,1.1479674608279375,[2.32798694],5.0,0.6,0.0,0.11549724236771902,5.860507770268019,0.499990070083583
3.2385778427124023,1.1522662325961444,[2.3280285],5.0,0.6,0.0,0.1108411878908914,5.840052757617256,0.49999085455069964
3.2471940517425537,1.155588010780668,[2.3280704],5.0,0.6,0.0,0.10519987279120915,5.822576435172095,0.4999917617773193
3.2545416355133057,1.1587143902484545,[2.32811248],5.0,0.6,0.0,0.09905075516643952,5.80639198858578,0.49999269670092805
3.2647013664245605,1.1628177632999248,[2.32815461],5.0,0.6,0.0,0.36875620809389387,5.787085797369371,0.4998987858118664
3.2725582122802734,1.1659441427677113,[2.32819683],5.0,0.6,0.0,0.39557936250716813,5.770716199677044,0.4998835275155079
3.2813894748687744,1.1694613196689714,[2.3282391],5.0,0.6,0.0,0.33435106511029156,5.753445937808,0.49991678991661426
3.291534423828125,1.1735646927204413,[2.32828138],5.0,0.6,0.0,0.25239136395463624,5.733423820998905,0.49995258289197314
3.301165819168091,1.1774726670551747,[2.32832372],5.0,0.6,0.0,0.17629979764079626,5.714244585295799,0.499976863361836
3.3085803985595703,1.1805990465229617,[2.3283661],5.0,0.6,0.0,0.11443957077390095,5.698048136279494,0.49999025111646994
3.317776918411255,1.1843116221409582,[2.32840852],5.0,0.6,0.0,0.06754200346444501,5.680877525896212,0.4999966041141916
3.3260016441345215,1.1876334003254816,[2.32845103],5.0,0.6,0.0,0.033562446279611274,5.663652709825099,0.49999916147980433
3.3345437049865723,1.1913459759434786,[2.32849353],5.0,0.6,0.0,0.009795854864698939,5.644739423093803,0.4999999285682437
3.3445932865142822,1.1956447477116852,[2.32853589],5.0,0.6,0.0,-0.006284059461815092,5.6238272971371694,0.499999970604068
3.354572296142578,1.1995527220464186,[2.32857809],5.0,0.6,0.0,-0.016758271330308726,5.604844126620051,0.49999979094285263
3.3677635192871094,1.2048284873983088,[2.32862034],5.0,0.6,0.0,-0.023236247496322367,5.5798346396602545,0.49999959808104544
3.3760268688201904,1.2079548668660955,[2.32866285],5.0,0.6,0.0,-0.026917785324652256,5.5641956200100005,0.4999994606321059
3.385576009750366,1.2120582399175657,[2.32870575],5.0,0.6,0.0,-0.02867636439698281,5.543980792849158,0.49999938785459996
3.3935067653656006,1.2151846193853522,[2.32874892],5.0,0.6,0.0,-0.029137504353355038,5.52851672562132,0.4999993680086943
3.4070072174072266,1.2206557834539788,[2.32879224],5.0,0.6,0.0,-0.028743602270431004,5.50324041456274,0.4999993849806245
3.41457462310791,1.223586764205029,[2.32883585],5.0,0.6,0.0,-0.02780429481944056,5.48723063628193,0.49999942452005275
3.4225728511810303,1.2269085423895523,[2.32887978],5.0,0.6,0.0,-0.026534183717667754,5.470721328702111,0.4999994758954726
3.4315996170043945,1.2304257192908123,[2.32892398],5.0,0.6,0.0,-0.025080464745184397,5.453337817152962,0.4999995317501666
3.442507028579712,1.234919889775756,[2.32896849],5.0,0.6,0.0,-0.02354286506611524,5.4310681238818095,0.4999995874038956
3.454570770263672,1.239609458977436,[2.32901334],5.0,0.6,0.0,-0.021987885357715252,5.407770996671917,0.4999996401069608
3.4630215167999268,1.243126635878696,[2.32905852],5.0,0.6,0.0,-0.02045890080018747,5.39024247960515,0.49999968841888065
3.4721200466156006,1.246839211496693,[2.32910402],5.0,0.6,0.0,-0.01898328693758524,5.372000336863271,0.4999997317440377
3.4797215461730957,1.2499655909644793,[2.32914987],5.0,0.6,0.0,0.2584609340492974,5.356424092808254,0.49995027498782574
3.490586519241333,1.2542643627326862,[2.32919607],5.0,0.6,0.0,0.2929127536553725,5.335048601281738,0.49993613609042065
3.4985485076904297,1.2575861409172095,[2.32924253],5.0,0.6,0.0,0.23906022124784898,5.317687260187093,0.49995745947612796
3.512359619140625,1.2632527037025731,[2.32928917],5.0,0.6,0.0,0.16413694599444514,5.290902650603546,0.4999799455543023
3.5215888023376465,1.26696527932057,[2.32933609],5.0,0.6,0.0,0.09469467049081468,5.272276652848697,0.4999933249449653
3.5310215950012207,1.2708732536553033,[2.32938334],5.0,0.6,0.0,0.03907497320643791,5.252875271551378,0.49999886341070965
3.538886308670044,1.27399963312309,[2.32943082],5.0,0.6,0.0,-0.0019950110857615867,5.236594894367539,0.49999999703723436
3.551429510116577,1.2790799997582434,[2.32947842],5.0,0.6,0.0,-0.3065911103246626,5.212723075973651,0.49993003265350877
3.5635156631469727,1.2839649676766602,[2.32952624],5.0,0.6,0.0,-0.08241354703973489,5.1883617799201955,0.4999949440625509
3.572383403778076,1.2874821445779203,[2.32957432],5.0,0.6,0.0,-0.0056139985604668,5.170872310342234,0.49999997653874395
3.58254337310791,1.2913901189126538,[2.32962265],5.0,0.6,0.0,0.009205282923053427,5.151464051854245,0.4999999369215621
3.5915513038635254,1.2949072958139138,[2.32967118],5.0,0.6,0.0,0.0011407915569175212,5.1339892837580265,0.49999999903123316
3.602520227432251,1.299401466298857,[2.32971987],5.0,0.6,0.0,-0.012773710805844978,5.111818964352504,0.49999987853790107
3.6115572452545166,1.3031140419168539,[2.32976865],5.0,0.6,0.0,-0.025774876730946167,5.092908092714535,0.4999995054620156
3.6218085289001465,1.3076082124017971,[2.3298174],5.0,0.6,0.0,-0.03570242827651658,5.070896986438202,0.4999990511407974
3.629549980163574,1.3105391931528474,[2.32986609],5.0,0.6,0.0,-0.04232561205901473,5.056495275066872,0.49999866643990826
3.6385087966918945,1.3142517687708442,[2.32991465],5.0,0.6,0.0,-0.04611847715831426,5.037347824592832,0.49999841672663986
3.6475818157196045,1.3179643443888407,[2.32996292],5.0,0.6,0.0,-0.047725913546947,5.01932968863592,0.4999983044350151
3.6555511951446533,1.3210907238566276,[2.33001085],5.0,0.6,0.0,-0.04775151801433483,5.004078402986666,0.4999983026152234
3.6649584770202637,1.3249986981913608,[2.3300585],5.0,0.6,0.0,-0.04668988953802614,4.984942813018144,0.49999837724982926
3.6725409030914307,1.3281250776591476,[2.33010581],5.0,0.6,0.0,-0.04491960278998944,4.968722306288293,0.49999849797266077
3.6811463832855225,1.3318376532771445,[2.33015267],5.0,0.6,0.0,-0.04271844732699019,4.950781566951203,0.49999864157081453
3.68854022026062,1.3347686340281941,[2.33019902],5.0,0.6,0.0,-0.0402841503079555,4.935670279609675,0.4999987919787715
3.6970367431640625,1.3380904122127177,[2.33024477],5.0,0.6,0.0,-0.03775388833770528,4.919729931429822,0.49999893896529685
3.7070839405059814,1.3419983865474514,[2.33028998],5.0,0.6,0.0,-0.03522042876748539,4.900799793678975,0.4999990765879199
3.7149462699890137,1.345124766015238,[2.33033475],5.0,0.6,0.0,-0.03274465174316059,4.885465488962066,0.4999992018452908
3.7238831520080566,1.348641942916498,[2.33037918],5.0,0.6,0.0,-0.030364910312374403,4.868300333745798,0.4999993136425016
3.7325572967529297,1.3521591198177578,[2.3304232],5.0,0.6,0.0,-0.028103864290791897,4.850936553924951,0.499999412052566
3.7436630725860596,1.3566532903027015,[2.33046661],5.0,0.6,0.0,-0.02597339056360746,4.8288734911128,0.499999497814985
3.7535665035247803,1.3607566633541714,[2.33050941],5.0,0.6,0.0,-0.023978070436610946,4.808516266124615,0.49999957200868844
3.7656073570251465,1.3656416312725883,[2.33055174],5.0,0.6,0.0,-0.022117643747705,4.78448594642564,0.49999963584671314
3.7776360511779785,1.3705265991910052,[2.33059374],5.0,0.6,0.0,-0.02038872209184384,4.7602464289436615,0.49999969055280274
3.7865264415740967,1.374239174809002,[2.3306354],5.0,0.6,0.0,-0.018785975506124628,4.740496713101082,0.4999997372915363
3.795370578765869,1.377756351710262,[2.33067659],5.0,0.6,0.0,-0.017302947438207587,4.723577417666384,0.4999997771324927
3.8050999641418457,1.3816643260449955,[2.33071736],5.0,0.6,0.0,-0.015932608696658607,4.704596081678534,0.49999981103543445
3.8135054111480713,1.3849861042295188,[2.33075778],5.0,0.6,0.0,-0.014667728974711226,4.687476790670651,0.4999998398480028
3.825955390930176,1.3900664708646722,[2.33079792],5.0,0.6,0.0,0.26253723822209407,4.663362692249101,0.499948694229131
3.833622455596924,1.3931928503324589,[2.33083789],5.0,0.6,0.0,0.2967371632810891,4.647001085464924,0.49993445763768757
3.8435251712799072,1.3974916221006655,[2.33087774],5.0,0.6,0.0,-0.033407726627579376,4.626101895109281,0.4999991691929734
3.851510763168335,1.4006180015684524,[2.3309175],5.0,0.6,0.0,-0.1417048654749411,4.610873290975513,0.49998505246056435
3.862197160720825,1.4047213746199223,[2.33095727],5.0,0.6,0.0,0.11974824596483571,4.590552962217028,0.49998932567649024
3.8715102672576904,1.408433950237919,[2.33099713],5.0,0.6,0.0,0.17310950819314583,4.572143297661941,0.49997769311992296
3.885861396789551,1.414491310456756,[2.3310372],5.0,0.6,0.0,-0.12878911862496611,4.543198460352634,0.4999876530509714
3.894501209259033,1.4182038860747526,[2.33107761],5.0,0.6,0.0,-0.21013686151836872,4.523789568300835,0.4999671302135161
3.903501033782959,1.422111860409486,[2.3311183],5.0,0.6,0.0,-0.202489506300068,4.504552936988089,0.4999694790207985
3.913198232650757,1.4258244360274828,[2.33115929],5.0,0.6,0.0,-0.16520885290565845,4.487108489017678,0.49997968277065213
3.9219841957092285,1.4295370116454795,[2.33120076],5.0,0.6,0.0,-0.12348709540866507,4.468613527314151,0.4999886487184295
3.935041666030884,1.4344219795638962,[2.33124283],5.0,0.6,0.0,-0.08678059117007786,4.4450647637161245,0.4999943940470386
3.9437355995178223,1.4379391564651562,[2.33128555],5.0,0.6,0.0,-0.057621867192071324,4.426823044610131,0.4999975283882212
3.9520719051361084,1.4412609346496796,[2.33132886],5.0,0.6,0.0,-0.035742223607411576,4.410288477141084,0.49999904902434894
3.9637293815612793,1.4457551051346231,[2.3313727],5.0,0.6,0.0,-0.2959730291859789,4.38900271211038,0.4999347947401014
3.971525192260742,1.4490768833191465,[2.3314171],5.0,0.6,0.0,-0.3180095103061994,4.371587247573629,0.4999247244048821
3.98016357421875,1.4525940602204066,[2.3314619],5.0,0.6,0.0,-0.25534437341432603,4.354287210658735,0.49995146688329034
3.9905498027801514,1.45708823070535,[2.331507],5.0,0.6,0.0,-0.1742475590510824,4.3322198862108054,0.4999773988641571
4.001148462295532,1.4613870024735567,[2.33155236],5.0,0.6,0.0,-0.1005331685623974,4.310979549215837,0.4999924764614732
4.009791374206543,1.46470878065808,[2.33159796],5.0,0.6,0.0,-0.041995254731475105,4.294657285375217,0.4999986871758867
4.0190346240997314,1.4686167549928135,[2.33164379],5.0,0.6,0.0,0.001037573044586744,4.275237857674156,0.49999999919860977
4.028043985366821,1.4721339318940736,[2.3316898],5.0,0.6,0.0,0.030889074957016663,4.257925374393855,0.49999928974193797
4.036990404129028,1.4760419062288068,[2.33173595],5.0,0.6,0.0,0.326492095357161,4.238390939192731,0.4999206553668798
4.046292304992676,1.4799498805635405,[2.33178222],5.0,0.6,0.0,0.3715462660113463,4.219027457822948,0.49989724857601453
4.056671380996704,1.484248652331747,[2.33182857],5.0,0.6,0.0,0.04686649975222837,4.197986296235172,0.49999836495012895
4.064497470855713,1.4875704305162705,[2.33187493],5.0,0.6,0.0,-0.059702476922081166,4.180760096220226,0.49999734667638795
4.0755980014801025,1.4918692022844773,[2.3319212],5.0,0.6,0.0,-0.0750752440588886,4.1605787274054045,0.4999958043586339
4.08548903465271,1.4955817779024738,[2.33196746],5.0,0.6,0.0,-0.05726110303994028,4.142143096900558,0.49999755924023903
4.09661865234375,1.4998805496706806,[2.33201375],5.0,0.6,0.0,-0.03145833115195615,4.120862900642033,0.49999926332197514
4.1045122146606445,1.503202327855204,[2.33205996],5.0,0.6,0.0,-0.007608246809015996,4.103237457167945,0.4999999569100647
4.114928245544434,1.5076964983401473,[2.33210593],5.0,0.6,0.0,0.01117285508088624,4.082183669910412,0.4999999070744872
4.126070499420166,1.512190668825091,[2.33215175],5.0,0.6,0.0,0.02461926100097816,4.060029507870587,0.4999995488130763
4.133522987365723,1.515121649576141,[2.33219745],5.0,0.6,0.0,0.03349764656186199,4.0447199706687895,0.4999991647145729
4.146062850952148,1.5200066174945577,[2.33224299],5.0,0.6,0.0,-0.23722209512674927,4.021867614745039,0.49995811111918204
4.154479265213013,1.5235237943958178,[2.33228841],5.0,0.6,0.0,-0.2676506580488076,4.003547445344143,0.4999466763158766
4.162535905838013,1.5270409712970778,[2.33233356],5.0,0.6,0.0,-0.211712226556246,3.985670713051796,0.4999666355427711
4.170509338378906,1.5303627494816012,[2.33237829],5.0,0.6,0.0,-0.13605137812708507,3.9695531251753615,0.49998622135274723
4.180070638656616,1.5342707238163347,[2.33242264],5.0,0.6,0.0,-0.06678285610832463,3.951404272041974,0.49999668002196246
4.190088510513306,1.5381786981510683,[2.33246687],5.0,0.6,0.0,-0.011932288103931162,3.932168510331575,0.499999894012636
4.198523283004761,1.5418912737690649,[2.33251103],5.0,0.6,0.0,0.027997278244171937,3.912990657009854,0.49999941650377744
4.207883596420288,1.5456038493870616,[2.33255502],5.0,0.6,0.0,0.05519969711384987,3.894816743178456,0.49999773181183665
4.2165117263793945,1.549121026288322,[2.33259877],5.0,0.6,0.0,0.0724731185449099,3.8768002720993366,0.4999960901609806
4.228529214859009,1.5538105954900017,[2.33264227],5.0,0.6,0.0,0.08239777530630127,3.8548138282799718,0.4999949459974965
4.238492965698242,1.5575231711079984,[2.3326857],5.0,0.6,0.0,0.08708167175571932,3.8365092026063254,0.49999435508067586
4.246942043304443,1.5610403480092587,[2.33272919],5.0,0.6,0.0,0.08814312299826065,3.8191516817797897,0.4999942166292854
4.25449013710022,1.564362126193782,[2.33277274],5.0,0.6,0.0,0.08677875367212562,3.801897836911508,0.4999943942844364
4.264122247695923,1.5682701005285153,[2.33281628],5.0,0.6,0.0,0.08385115525070698,3.7834359950927543,0.4999947661351601
4.27351188659668,1.5721780748632488,[2.33285983],5.0,0.6,0.0,0.07997022689767812,3.7633754680446336,0.4999952394046912
4.282475471496582,1.5758906504812455,[2.33290336],5.0,0.6,0.0,0.07556005997102072,3.7452383131944598,0.49999574999523005
4.291470527648926,1.5796032260992423,[2.33294686],5.0,0.6,0.0,0.0709106892200509,3.7271377210861822,0.49999625692557165
4.301285982131958,1.5833158017172388,[2.33299042],5.0,0.6,0.0,0.06621674700971288,3.7089139408208047,0.49999673606921086
4.311695575714111,1.5876145734854459,[2.33303409],5.0,0.6,0.0,0.06160570084521931,3.6877606712385584,0.4999971748126461
4.322575807571411,1.5923041426871256,[2.33307793],5.0,0.6,0.0,0.05715817756868208,3.6646169601439897,0.4999975680067471
4.331488847732544,1.5960167183051226,[2.33312197],5.0,0.6,0.0,0.05292243995380466,3.646271214860717,0.4999979150987604
4.339537620544434,1.5991430977729093,[2.33316616],5.0,0.6,0.0,0.32496297786788597,3.629798937625425,0.49992139678534864
4.347485780715942,1.6022694772406958,[2.33321038],5.0,0.6,0.0,0.3543388588856887,3.614513921610169,0.4999065447616268
4.356984853744507,1.605786654141956,[2.33325458],5.0,0.6,0.0,0.2957432366827856,3.597316413914722,0.4999348959445127
4.366828918457031,1.6094992297599529,[2.33329881],5.0,0.6,0.0,0.21640503982124007,3.5790462466165933,0.4999651400887604
4.3763227462768555,1.6136026028114228,[2.3333431],5.0,0.6,0.0,0.14286513084540714,3.558876952859862,0.499984806684252
4.385935544967651,1.617705975862893,[2.33338748],5.0,0.6,0.0,0.08345047170411037,3.5386254973926317,0.49999481603553686
4.393511056900024,1.6212231527641532,[2.33343183],5.0,0.6,0.0,0.03887152258583465,3.5212298138407623,0.49999887521558234
4.404803514480591,1.6255219245323598,[2.33347594],5.0,0.6,0.0,0.007073214156474092,3.5007074294066074,0.49999996275737585
4.413734674453735,1.6292345001503563,[2.33351987],5.0,0.6,0.0,-0.01465292793936172,3.4821779874818186,0.4999998401710547
4.425027132034302,1.6339240693520367,[2.3335638],5.0,0.6,0.0,-0.0288320303423813,3.4595365381242864,0.4999993811906612
4.434244871139526,1.6376366449700333,[2.33360788],5.0,0.6,0.0,-0.03754097214350859,3.4405086660872186,0.4999989508991252
4.442491769790649,1.6409584231545566,[2.33365203],5.0,0.6,0.0,-0.04238333162296015,3.4230408922935864,0.49999866280027333
4.452512502670288,1.6452571949227635,[2.33369607],5.0,0.6,0.0,-0.0445520033143441,3.4019352139819024,0.4999985224557095
4.460828065872192,1.6485789731072868,[2.33373994],5.0,0.6,0.0,-0.04491307587672864,3.3855214586346105,0.49999849840912386
4.47044825553894,1.6526823461587568,[2.33378367],5.0,0.6,0.0,-0.04408454082218485,3.365329143550504,0.4999985532993044
4.479270696640015,1.6558087256265437,[2.33382727],5.0,0.6,0.0,-0.04250135928552057,3.34987192651445,0.49999865534233673
4.490512371063232,1.6604982948282236,[2.33387076],5.0,0.6,0.0,-0.04046596976220011,3.326552308927213,0.49999878104955203
4.501381874084473,1.664992465313167,[2.3339141],5.0,0.6,0.0,-0.038186101639430856,3.304332210216931,0.49999891453243117
4.513147592544556,1.6694866357981104,[2.33395731],5.0,0.6,0.0,-0.03580245313125211,3.282083505776476,0.4999990458166574
4.523813724517822,1.6737854075663172,[2.33400031],5.0,0.6,0.0,-0.033408651118000426,3.260033915181274,0.49999916914699105
4.533714294433594,1.678084179334524,[2.33404294],5.0,0.6,0.0,-0.03106549824524702,3.2382382648189907,0.4999992816054809
4.545656204223633,1.682969147252941,[2.33408494],5.0,0.6,0.0,-0.02881106746253765,3.2135566192778175,0.4999993820901678
4.5579047203063965,1.688049513888094,[2.33412621],5.0,0.6,0.0,-0.026667814232053395,3.1888980653802697,0.4999994706032293
4.57166862487793,1.6933252792399842,[2.33416677],5.0,0.6,0.0,-0.02464756451630307,3.162947959336622,0.499999547775067
4.585390090942383,1.6987964433086111,[2.3342067],5.0,0.6,0.0,-0.02275499860414394,3.135976914887302,0.4999996145570253
4.5951502323150635,1.7030952150768177,[2.3342461],5.0,0.6,0.0,0.2550482852618714,3.1147011598670464,0.4999515793670998
4.6056458950042725,1.7070031894115512,[2.33428505],5.0,0.6,0.0,0.2898132572726799,3.09526388083552,0.4999374804248521
4.615608215332031,1.7111065624630215,[2.33432356],5.0,0.6,0.0,0.23623678909677281,3.074285460357795,0.4999584583544678
4.624491214752197,1.714819138081018,[2.33436158],5.0,0.6,0.0,0.16155906466504438,3.0561451450732235,0.49998057053252914
4.633566617965698,1.7185317136990148,[2.33439909],5.0,0.6,0.0,0.09233679458489259,3.0373113151483464,0.49999365321908124
4.642575740814209,1.7222442893170116,[2.33443606],5.0,0.6,0.0,0.03691537058620869,3.0191438280165053,0.4999989855732334
4.651468992233276,1.7259568649350083,[2.33447252],5.0,0.6,0.0,-0.003975094861493878,3.000866023157119,0.49999998823744507
4.661139965057373,1.7298648392697418,[2.33450856],5.0,0.6,0.0,-0.032369702082415644,2.9817496439438584,0.499999220019507
4.671090364456177,1.7341636110379486,[2.33454426],5.0,0.6,0.0,-0.05095723115734657,2.960517281790489,0.4999980670639778
4.679983377456665,1.7378761866559451,[2.33457971],5.0,0.6,0.0,-0.06224376377111005,2.9422395403479573,0.49999711598765906
4.687514305114746,1.7408071674069951,[2.33461492],5.0,0.6,0.0,-0.06828800916253254,2.927070168075363,0.4999965286846309
4.696134567260742,1.7441289455915185,[2.33464986],5.0,0.6,0.0,-0.07067637533404064,2.9109399328467633,0.49999628162148196
4.703501224517822,1.7468645276258319,[2.33468449],5.0,0.6,0.0,-0.07058564232016451,2.89678825538518,0.4999962911624885
4.713179588317871,1.7507725019605653,[2.33471883],5.0,0.6,0.0,-0.06886685093336585,2.878669971992024,0.4999964695863702
4.722094774246216,1.7542896788618254,[2.33475308],5.0,0.6,0.0,-0.06612399290278756,2.8612791038351615,0.49999674520677734
4.732508659362793,1.7583930519132955,[2.33478737],5.0,0.6,0.0,-0.06277904052384196,2.840916848850512,0.4999970661713248
4.744245529174805,1.7632780198317124,[2.33482184],5.0,0.6,0.0,-0.05912240623046896,2.8174443692364766,0.4999973979852889
4.753485202789307,1.766990595449709,[2.33485657],5.0,0.6,0.0,-0.05535070200168223,2.798111855175872,0.49999771938513077
4.764186382293701,1.7716801646513891,[2.33489159],5.0,0.6,0.0,0.22444399904566148,2.7755877768143873,0.4999625021483932
4.774491786956787,1.7757835377028592,[2.33492694],5.0,0.6,0.0,0.26122542420221423,2.7542346813743728,0.499949205639036
4.782454967498779,1.778909917170646,[2.33496255],5.0,0.6,0.0,0.20963339865184727,2.7387252612767856,0.49996728752386815
4.791474103927612,1.782427094071906,[2.33499838],5.0,0.6,0.0,-0.13916635363410323,2.721680724363072,0.4999855831987741
4.800907611846924,1.7861396696899028,[2.33503445],5.0,0.6,0.0,-0.2396866850722654,2.7034029571813893,0.4999572362363383
4.810814380645752,1.7902430427413727,[2.33507079],5.0,0.6,0.0,-0.23828593980335172,2.6831373695698,0.49995773458343695
4.818757772445679,1.7937602196426328,[2.33510739],5.0,0.6,0.0,-0.20147331815819305,2.6657157069412,0.49996978458031904
4.826454162597656,1.7968865991104195,[2.3351442],5.0,0.6,0.0,-0.15783479061455866,2.6497072064029337,0.4999814559709665
4.836211681365967,1.8005991747284162,[2.33518112],5.0,0.6,0.0,-0.11839562411760084,2.6314396288178123,0.4999895654566872
4.846440076828003,1.8048979464966233,[2.33521809],5.0,0.6,0.0,-0.0863813460226237,2.6104420810248916,0.49999444550989774
4.856505870819092,1.8086105221146198,[2.33525522],5.0,0.6,0.0,0.21423434099986122,2.592582723756508,0.49996583589771
4.867555856704712,1.813104692599563,[2.33529265],5.0,0.6,0.0,0.2656135293919868,2.5700438747253136,0.4999474848932505
4.877121925354004,1.8172080656510334,[2.33533041],5.0,0.6,0.0,-0.05224920260077415,2.5498929328067605,0.4999979678061791
4.885449647903442,1.8209206412690302,[2.33536848],5.0,0.6,0.0,-0.15194856376885832,2.5313954154392406,0.49998281330341215
4.896677255630493,1.8254148117539735,[2.33540685],5.0,0.6,0.0,0.11540530153440888,2.5089465282112364,0.4999900858864254
4.905726671218872,1.8289319886552335,[2.33544548],5.0,0.6,0.0,-0.10330851162200194,2.49164137999708,0.4999920553378329
4.914665460586548,1.8324491655564934,[2.33548434],5.0,0.6,0.0,-0.1597024309245273,2.4741825700618225,0.499981014524286
4.927086591720581,1.837529532191647,[2.33552346],5.0,0.6,0.0,-0.15119807056748075,2.449684608395563,0.49998298265580354
4.93574595451355,1.8412421078096437,[2.33556289],5.0,0.6,0.0,-0.1215979157811877,2.430971436687046,0.4999889933753241
4.945577621459961,1.8451500821443771,[2.33560262],5.0,0.6,0.0,-0.08936976960863874,2.411442164291449,0.4999940545412548
4.955483675003052,1.8490580564791106,[2.33564257],5.0,0.6,0.0,-0.06134632074717271,2.391996824373439,0.49999719855241875
4.965798616409302,1.8531614295305805,[2.33568269],5.0,0.6,0.0,-0.039265083854621165,2.3720244372582084,0.49999885232417013
4.974931240081787,1.8568740051485775,[2.33572301],5.0,0.6,0.0,-0.02282149321935613,2.353354210190353,0.4999996123010533
4.983882188796997,1.8603911820498373,[2.33576344],5.0,0.6,0.0,-0.011043648981025387,2.335616478459849,0.49999990921129434
4.995011329650879,1.8648853525347808,[2.3358039],5.0,0.6,0.0,-0.002873441699991413,2.3135793834499268,0.49999999385373256
5.004148244857788,1.8685979281527776,[2.33584431],5.0,0.6,0.0,0.0026172483977664864,2.294853052812031,0.4999999949008644
5.015120029449463,1.8730920986377209,[2.33589324],5.0,0.6,0.0,0.006170495863122332,2.3667638104889437,0.4999999716569362
5.0244505405426025,1.8768046742557176,[2.33596473],5.0,0.6,0.0,0.008350723832139573,2.30333909920623,0.49999994808953785
5.036710262298584,1.8820804396076078,[2.33605951],5.0,0.6,0.0,0.0095743875231902,2.2560461058648245,0.49999993176162927
5.04453444480896,1.8857930152256044,[2.33616406],5.0,0.6,0.0,0.01014264876518099,2.160472749058917,0.49999992342104865
5.052459478378296,1.888528597259918,[2.33626263],5.0,0.6,0.0,-0.265768170681259,2.1466341442226464,0.4999474237296437
5.065348148345947,1.8936089638950713,[2.33635327],5.0,0.6,0.0,-0.2990546206877752,2.185906412035897,0.49993342996322
5.076389789581299,1.8979077356632779,[2.33644487],5.0,0.6,0.0,-0.24430294278501796,2.1566016154174146,0.4999555732261566
5.085198879241943,1.9014249125645382,[2.33653982],5.0,0.6,0.0,-0.16867417118363834,2.134384094866353,0.49997882152682677
5.09637713432312,1.9061144817662183,[2.33663572],5.0,0.6,0.0,-0.3747067116399938,2.1111276319679066,0.4998954932772174
5.106436014175415,1.9102178548176882,[2.33673118],5.0,0.6,0.0,-0.35175317167393283,2.0907701644085486,0.49990790358616577
5.1169068813323975,1.9141258291524215,[2.33682533],5.0,0.6,0.0,0.02083211133330176,2.0716561840968772,0.49999967694749686
5.126006364822388,1.9178384047704187,[2.33691745],5.0,0.6,0.0,-0.11711909286480637,2.053249830182114,0.4999897892500555
5.136853218078613,1.9219417778218884,[2.33700696],5.0,0.6,0.0,-0.11580852835238326,2.0331567122575205,0.49999001648614216
5.144540786743164,1.9254589547231487,[2.3370933],5.0,0.6,0.0,-0.06851497923231441,2.015364608799955,0.49999650557102043
5.15486741065979,1.9297577264913552,[2.33717607],5.0,0.6,0.0,0.26145985602807426,1.9945397112247145,0.49994911443389156
5.163078784942627,1.9332749033926153,[2.33725494],5.0,0.6,0.0,0.3405869687751054,1.9772332126178873,0.4999136573787311
5.172433853149414,1.9371828777273485,[2.33732966],5.0,0.6,0.0,0.31981991982568486,1.9579974282523467,0.499923864951577
5.185142755508423,1.942263244362502,[2.33740013],5.0,0.6,0.0,0.2669948510724619,1.9332242407789422,0.4999469372930187
5.192455768585205,1.9451942251135523,[2.33746636],5.0,0.6,0.0,0.21067992479261077,1.9182982086223719,0.4999669601068122
5.202778577804565,1.949492996881759,[2.33752841],5.0,0.6,0.0,0.16141294128485237,1.8974851221285298,0.49998060566230973
5.211419582366943,1.9528147750662823,[2.33758636],5.0,0.6,0.0,0.12183916692087363,1.880657606214217,0.4999889496581751
5.222716331481934,1.9575043442679625,[2.33764032],5.0,0.6,0.0,-0.18459480665141897,1.8580529390830793,0.49997463501490386
5.232127666473389,1.961412318602696,[2.33769048],5.0,0.6,0.0,0.03555654764703689,1.8385089301284028,0.4999990588795564
5.240525245666504,1.9647340967872193,[2.33773703],5.0,0.6,0.0,0.1069745819526863,1.8220140944959962,0.4999914814803453
5.249789476394653,1.9684466724052159,[2.33778016],5.0,0.6,0.0,0.11564736571930298,1.8034630551185318,0.4999900442546653
5.258488893508911,1.971963849306476,[2.33782001],5.0,0.6,0.0,0.10108058150794906,1.7857519620608742,0.49999239430858944
5.268232107162476,1.9758718236412094,[2.33785674],5.0,0.6,0.0,0.08058537842978045,1.7666628593367053,0.4999951658880692
5.277545928955078,1.979779797975943,[2.33789057],5.0,0.6,0.0,0.06110828852022547,1.7469530300970288,0.4999972202574509
5.285459518432617,1.9831015761604662,[2.33792163],5.0,0.6,0.0,0.04492637867147688,1.7304655163638136,0.4999984975310882
5.294510364532471,1.9866187530617263,[2.33795001],5.0,0.6,0.0,0.03234096312954242,1.713022444239987,0.49999922142287617
5.303488254547119,1.9901359299629864,[2.33797589],5.0,0.6,0.0,0.022916756149831807,1.6954156741971524,0.4999996090885376
5.313754081726074,1.9944347017311932,[2.33800411],5.0,0.6,0.0,0.016026056579527624,1.725154554227243,0.499999808868176
5.323108911514282,1.9989288722161365,[2.33804199],5.0,0.6,0.0,0.011068066634409145,1.672694127904043,0.4999999089120463
5.3334784507751465,2.00283684655087,[2.33808876],5.0,0.6,0.0,0.007541610478523426,1.6380337742045492,0.4999999578343803
5.343450307846069,2.00635402345213,[2.33814002],5.0,0.6,0.0,0.005055635546756574,1.623774508707535,0.4999999812479439
5.355179071426392,2.0112389913705466,[2.33819493],5.0,0.6,0.0,0.003316363179510716,1.6001654830720862,0.4999999923314088
5.364420652389526,2.0151469657052803,[2.33825328],5.0,0.6,0.0,0.0021081944297597914,1.5771102038734375,0.4999999975468502
5.372499704360962,2.018273345173067,[2.33831377],5.0,0.6,0.0,0.0012752947740911644,1.5571739906847313,0.5000000000581493
5.384212970733643,2.0229629143747467,[2.33837412],5.0,0.6,0.0,0.0007061791639750069,1.5261851454926136,0.5000000019138983
5.396270990371704,2.027652483576427,[2.33843136],5.0,0.6,0.0,0.00032165983252441244,1.4970060810060712,0.5000000040048863
5.405932426452637,2.0315604579111604,[2.33848228],5.0,0.6,0.0,6.577925778944967e-05,1.4712834630344163,0.5000000065703968
5.416866064071655,2.035859229679367,[2.33852363],5.0,0.6,0.0,-0.00010085167917357983,1.443145541228483,0.5000000110389774
5.427443027496338,2.040158001447574,[2.3385519],5.0,0.6,0.0,-0.00020587413460098833,1.4146078275931095,0.5000000184261512
5.43651556968689,2.043870577065571,[2.33856272],5.0,0.6,0.0,-0.0002686339028474909,1.3806447333732346,0.5000000285796942
5.444484233856201,2.047192355250094,[2.33855274],5.0,0.6,0.0,-0.0003026371229807687,1.3638129220640287,0.5000000422446723
5.452402591705322,2.0505141334346177,[2.33852133],5.0,0.6,0.0,-0.0003172884773471414,1.3425298813060837,0.5000000623295553
5.4621171951293945,2.054422107769351,[2.3384669],5.0,0.6,0.0,-0.00031911731188545545,1.3178732853736794,0.5000000981213236
5.469426870346069,2.057157689803664,[2.33838732],5.0,0.6,0.0,-0.00031264040875088285,1.3099974776243886,0.5000001349232557
5.480133056640625,2.0618472590053445,[2.33828167],5.0,0.6,0.0,-0.0003009679847528841,1.2792823102842017,0.500000230390659
5.491440773010254,2.0665368282070244,[2.33814718],5.0,0.6,0.0,0.275752130930927,1.237648161538084,0.49994379060246913
5.500870227813721,2.0700540051082847,[2.33797943],5.0,0.6,0.0,0.30889309513306495,1.2170415013843894,0.4999295601028198
5.508496522903442,2.0731803845760712,[2.33777697],5.0,0.6,0.0,0.25381285161739287,1.2107100409169322,0.4999528769430888
5.517889738082886,2.076892960194068,[2.33754089],5.0,0.6,0.0,0.17774487126523156,1.1848767293502929,0.49997773866690587
5.530731201171875,2.082364124262695,[2.3372697],5.0,0.6,0.0,0.10723881746345863,1.1366748691657291,0.4999937101621987
5.540708780288696,2.086467497314165,[2.33695951],5.0,0.6,0.0,0.05063298842366262,1.111854969762097,0.5000016391459722
5.5484466552734375,2.089398478065215,[2.33660949],5.0,0.6,0.0,0.008650543413673922,1.1071245733630855,0.5000048620592525
5.560505628585815,2.0938926485501583,[2.33621983],5.0,0.6,0.0,-0.020750313907799696,1.057417519683107,0.5000076123720334
5.5724403858184814,2.0985822177518383,[2.33578734],5.0,0.6,0.0,-0.040264733335541265,1.0269042122608856,0.5000117581812329
5.582414388656616,2.1028809895200453,[2.33530885],5.0,0.6,0.0,-0.05240480327024359,0.9967474347116859,0.5000182627343693
5.590443849563599,2.106007368987832,[2.33478473],5.0,0.6,0.0,-0.059234861741327735,0.9921679199646092,0.5000258251667784
5.600514888763428,2.1103061407560384,[2.33421687],5.0,0.6,0.0,-0.06234656707076481,0.9545939780071809,0.5000412880234625
5.609062194824219,2.1140187163740354,[2.33360445],5.0,0.6,0.0,-0.06292157987107608,0.9209898367506307,0.5000618933895962
5.619124174118042,2.1181220894255053,[2.33294431],5.0,0.6,0.0,-0.061815466286596676,0.8857638730470301,0.5000952365220209
5.629521369934082,2.1222254624769756,[2.33223054],5.0,0.6,0.0,-0.059636405991776616,0.8260816267302253,0.5001450378612073
5.638396501541138,2.1257426393782355,[2.33145774],5.0,0.6,0.0,-0.05681024144031806,0.8270977964466059,0.500208578880302
5.646587371826172,2.129455214996232,[2.33062629],5.0,0.6,0.0,-0.05363095768574856,0.7928946371767628,0.5003032368129366
5.656721591949463,2.1335585880477024,[2.32973618],5.0,0.6,0.0,-0.05029846196890987,0.7573022538796409,0.5004522454472482
5.667471408843994,2.1376619610991727,[2.32878129],5.0,0.6,0.0,0.2290921350359868,0.6948326482915447,0.5006328874818499
5.679914951324463,2.1427423277343256,[2.32775298],5.0,0.6,0.0,-0.010536597753253524,0.6628486036206828,0.5010638442261371
5.690099716186523,2.1464549033523226,[2.32664684],5.0,0.6,0.0,-0.09559529665438161,0.6358863528787678,0.5015059464984603
5.698462724685669,2.149776681536846,[2.32546573],5.0,0.6,0.0,-0.1135741482926105,0.6393787173694256,0.5020746848259414
5.707409143447876,2.1536846558715794,[2.32421579],5.0,0.6,0.0,-0.1051744175212945,0.60096369282388,0.5029707481112041
5.72017765045166,2.1587650225067327,[2.32289523],5.0,0.6,0.0,-0.08861463905041948,0.5295872111119315,0.5045664276093629
5.730434417724609,2.1628683955582026,[2.32149548],5.0,0.6,0.0,-0.07151030746118435,0.5015846000194781,0.5065186116025171
5.738464832305908,2.1661901737427263,[2.32001704],5.0,0.6,0.0,-0.05662232908028436,0.5065591241902183,0.5088016837827287
5.748412132263184,2.170293546794196,[2.31846844],5.0,0.6,0.0,-0.04459726437579262,0.46852099287455506,0.5123848758624137
5.7604968547821045,2.175178514712613,[2.31684986],5.0,0.6,0.0,-0.03524365299652818,0.40089542069894246,0.5180572956970112
5.771429538726807,2.179281887764083,[2.31515448],5.0,0.6,0.0,-0.028104511914058855,0.3743378934394228,0.5249147401643095
5.779404401779175,2.1826036659486063,[2.31338502],5.0,0.6,0.0,-0.02269761292985803,0.379716208906307,0.532687439831706
5.787383317947388,2.1857300454163933,[2.31155249],5.0,0.6,0.0,-0.018603435353142846,0.34784349117684366,0.5421608347437376
5.795935869216919,2.18944262103439,[2.30966314],5.0,0.6,0.0,-0.015486606584926253,0.31497366278658473,0.5555429955031425
5.804809093475342,2.193155196652387,[2.30771926],5.0,0.6,0.0,-0.013090842320101494,0.2839745839666848,0.5724407142629603
5.8139026165008545,2.19706317098712,[2.30572375],5.0,0.6,0.0,-0.011225365927751127,0.25302991028177674,0.5942857276195275
5.82179856300354,2.1999941517381703,[2.30368378],5.0,0.6,0.0,-0.0097503783537977,0.2571608335506638,0.6164482264313562
5.831257343292236,2.2037067273561672,[2.30161011],5.0,0.6,0.0,-0.008564371278147019,0.22020933111987773,0.6470452547774947
5.841933488845825,2.208005499124374,[2.29950914],5.0,0.6,0.0,-0.007593984811982358,0.18442935088628337,0.6873862409667371
5.850428342819214,2.2113272773088974,[2.29738716],5.0,0.6,0.0,-0.006786273792853067,0.1849046019162625,0.7273508940216489
5.860543727874756,2.2154306503603673,[2.29525382],5.0,0.6,0.0,-0.006102974075849439,0.143941390765948,0.7796132397879806
5.871431827545166,2.220315618278784,[2.29311426],5.0,0.6,0.0,-0.005516326055490742,0.10319470392412262,0.8464805915618158
5.883273363113403,2.2253959849139373,[2.29096664],5.0,0.6,0.0,-0.005006067092574042,0.039457307744010045,0.9232034977358667
5.891418933868408,2.228326965664987,[2.28881028],5.0,0.6,0.0,-0.004557281804060231,0.04723883153344586,0.9811162601802292
5.903123378753662,2.232821136149931,[2.28664901],5.0,0.6,0.0,-0.2801972325405095,-0.01043566691387585,1.060126690263119
5.911412954330444,2.2361429143344544,[2.28448697],5.0,0.6,0.0,-0.31296543916792563,-0.0043552160459732646,1.1265380292494036
5.92058801651001,2.2396600912357143,[2.28232854],5.0,0.6,0.0,-0.25754739966300555,-0.05530048336126797,1.1947589092648156
5.929217576980591,2.2425910719867646,[2.28017828],5.0,0.6,0.0,-0.4572106072920985,-0.04739521483259274,1.2536961168821916
5.937380313873291,2.2453266540210777,[2.27804601],5.0,0.6,0.0,-0.9716257994401006,-0.04526512555002887,1.3065563291655935
5.948033809661865,2.2488438309223375,[2.27594066],5.0,0.6,0.0,-1.7540310941803663,-0.10115584555354,1.3611405575008708
5.956721067428589,2.2513840142399144,[2.2738646],5.0,0.6,0.0,-2.453023822824452,-0.0951976282180973,1.3994056090314557
5.965438365936279,2.2539241975574913,[2.27182265],5.0,0.6,0.0,-3.2389511605481425,-0.11819718356334008,1.4301897678396451
5.97543740272522,2.2566597795918044,[2.26981929],5.0,0.6,0.0,-4.140716193979968,-0.13950545091494268,1.4533567646140069
5.985299348831177,2.2591999629093813,[2.26785607],5.0,0.6,0.0,-4.858757014750113,-0.15812707169710644,1.4678578651084584
5.99340295791626,2.260958551360011,[2.26593726],5.0,0.6,0.0,-5.0,-0.14463733587337566,1.476786818089551
6.002427101135254,2.2627171398106416,[2.26408988],5.0,0.6,0.0,-5.0,0.0572569393704065,1.4813552522731155
6.013164758682251,2.264671126978008,[2.2623502],5.0,0.6,0.0,-5.0,-0.07213837121722518,1.4806553017676582
6.023444414138794,2.2664297154286377,[2.26072417],5.0,0.6,0.0,-5.0,-0.08171961215504159,1.4752425569891947
6.033391237258911,2.2679929051625316,[2.25920492],5.0,0.6,0.0,-5.0,-0.10779811355498248,1.4664049994191268
6.043357849121094,2.2693606961796884,[2.25779132],5.0,0.6,0.0,-5.0,-0.11469337787848113,1.4553171101936624
6.051488161087036,2.270337689763372,[2.25648201],5.0,0.6,0.0,-5.0,-0.12061367933196196,1.4440638962548915
6.061414957046509,2.2713146833470548,[2.2552753],5.0,0.6,0.0,-5.0,-0.1322995476891538,1.4315809500205496
6.071420669555664,2.272291676930738,[2.25416747],5.0,0.6,0.0,-4.821934978069762,-0.14227746315729034,1.419402241432235
6.080755233764648,2.2728778730809482,[2.25315376],5.0,0.6,0.0,-4.296976275873437,-0.14920047342957526,1.411584493816844
6.089271306991577,2.273268670514421,[2.25222907],5.0,0.6,0.0,-3.708496246738177,-0.15407066578927733,1.405139376016305
6.0991504192352295,2.273659467947895,[2.25138809],5.0,0.6,0.0,-3.16687160090348,-0.1582240494726663,1.3981488069320176
6.10738205909729,2.273659467947895,[2.25062576],5.0,0.6,0.0,-2.9812789716679573,-0.15517170886405954,1.3927527147466912
6.1155686378479,2.2738548666646317,[2.2499373],5.0,0.6,0.0,-2.3577391843147675,-0.15857527400827373,1.3877712346339106
6.125374794006348,2.273659467947895,[2.24931743],5.0,0.6,0.0,-2.2354368207903823,-0.15917604206901692,1.3845395537668879
6.133855819702148,2.2734640692311583,[2.24876046],5.0,0.6,0.0,-1.9949067552802848,-0.15905673979389928,1.3821471810097687
6.145215272903442,2.2730732717976845,[2.24826089],5.0,0.6,0.0,-2.290145920471762,-0.15693923199892396,1.380258960850132
6.157155990600586,2.272487075647475,[2.24781313],5.0,0.6,0.0,-2.398287225838401,-0.15729745891888763,1.3810968245772015
6.1654722690582275,2.272096278214001,[2.24741118],5.0,0.6,0.0,-1.5687416465756936,-0.15791702708844335,1.3834341017920173
6.1743996143341064,2.2713146833470548,[2.24704055],5.0,0.6,0.0,-1.1281263701206825,-0.2467457813498639,1.3878857757446115
6.184160232543945,2.2705330884801085,[2.24668185],5.0,0.6,0.0,-0.882926037254776,-0.19925038326549263,1.3918776370196384
6.195168972015381,2.2693606961796884,[2.24632721],5.0,0.6,0.0,-0.4606039073433619,-0.19808847263507187,1.3991693768845312
6.204445838928223,2.268383702596005,[2.24597407],5.0,0.6,0.0,-0.055962516578296095,-0.18927845771243113,1.4044385379371458
6.214247465133667,2.267015911578848,[2.24561824],5.0,0.6,0.0,-0.009262997543472096,-0.17970510465375403,1.4124954641316394
6.223674535751343,2.2656481205616914,[2.24525692],5.0,0.6,0.0,0.46549420550547727,-0.17132699034411886,1.4200424553427484
6.232229471206665,2.2644757282612713,[2.24488782],5.0,0.6,0.0,0.7062578240829112,-0.16445962367192768,1.4257620123941077
6.2421534061431885,2.2629125385273783,[2.24450909],5.0,0.6,0.0,0.5414169673631504,-0.15602839386371561,1.4342876730085912
6.252376556396484,2.2611539500767477,[2.24411929],5.0,0.6,0.0,0.8228709481234384,-0.14722810430716118,1.443112222516726
6.2623677253723145,2.2595907603428547,[2.24371736],5.0,0.6,0.0,0.9086427991516959,-0.13934901296004917,1.4502414826860885
6.272101163864136,2.2578321718922245,[2.24330263],5.0,0.6,0.0,1.1802429987997256,-0.13089091380594206,1.4576215461010715
6.279453277587891,2.2562689821583315,[2.2428757],5.0,0.6,0.0,1.1698746131059234,-0.11283718325241922,1.463742155064944
6.293488502502441,2.2533380014072812,[2.24243637],5.0,0.6,0.0,1.0566438408565904,-0.12201743539348371,1.4756807130459015
6.302368640899658,2.2513840142399144,[2.24198186],5.0,0.6,0.0,1.1951638604521608,-0.10885136814325465,1.48141307968533
6.311370134353638,2.249430027072548,[2.24151197],5.0,0.6,0.0,1.6501252246518923,-0.08682716174693336,1.48551631445114
6.319370269775391,2.2478668373386546,[2.24103057],5.0,0.6,0.0,2.1007365399203857,-0.0708222563136899,1.487422293388808
6.327367305755615,2.246108248888025,[2.24054116],5.0,0.6,0.0,2.1630837913742744,-0.06645856395471067,1.4903497765279452
6.3362343311309814,2.2441542617206576,[2.24004504],5.0,0.6,0.0,2.3386453906858273,-0.06013285088849815,1.492573763081384
6.345381498336792,2.242200274553291,[2.2395426],5.0,0.6,0.0,2.765279921128785,-0.0531994978227401,1.4929283713531574
6.356389760971069,2.2402462873859244,[2.2390344],5.0,0.6,0.0,3.158516015558356,-0.04566723048584826,1.4923348818357804
6.36539363861084,2.238096901501821,[2.23852199],5.0,0.6,0.0,3.4283807634632963,-0.027457510304620947,1.491290440099208
6.37516975402832,2.2359475156177178,[2.23800707],5.0,0.6,0.0,3.566105066523809,-0.028207319313257415,1.489774441974678
6.384402513504028,2.2339935284503505,[2.23749579],5.0,0.6,0.0,3.868357627643311,0.046292301042623135,1.4865336517199832
6.392457723617554,2.232234939999721,[2.23700083],5.0,0.6,0.0,3.843701650034723,0.05355558141359137,1.4845898236138826
6.401352405548096,2.2306717502658273,[2.23652837],5.0,0.6,0.0,3.948379698579567,0.03372858046943258,1.481692134529589
6.410360813140869,2.2289131618151976,[2.23607674],5.0,0.6,0.0,4.303472277618011,0.04558004877515159,1.4761912463597386
6.418747186660767,2.227545370798041,[2.23564598],5.0,0.6,0.0,4.344050718447999,0.04994770389773011,1.4731098644964895
6.426947355270386,2.226177579780884,[2.23523728],5.0,0.6,0.0,4.77559381375317,0.05507027847069611,1.4670263275232358
6.436401844024658,2.225005187480464,[2.23485122],5.0,0.6,0.0,5.0,0.05964921572664248,1.4625299280304387
6.446333169937134,2.2236373964633076,[2.23448828],5.0,0.6,0.0,5.0,0.06562437223528268,1.458458826648267
6.454376220703125,2.2228558015963604,[2.23414889],5.0,0.6,0.0,5.0,0.06926303333450815,1.4565478335800375
6.463387727737427,2.2216834092959403,[2.2338334],5.0,0.6,0.0,5.0,0.07379089472095034,1.4526391774887961
6.472060441970825,2.220901814428994,[2.23354188],5.0,0.6,0.0,5.0,0.07646464239093197,1.4502829642517505
6.481143236160278,2.21992482084531,[2.23327414],5.0,0.6,0.0,5.0,0.07987986756140356,1.4467188574252243
6.4924256801605225,2.219143225978364,[2.23302987],5.0,0.6,0.0,5.0,0.08241086490934416,1.4438985442954324
6.503028392791748,2.218557029828154,[2.23280858],5.0,0.6,0.0,5.0,0.08363410495866394,1.441924704609845
6.511470794677734,2.218166232394681,[2.23260959],5.0,0.6,0.0,5.0,0.08385718601608069,1.4408683287418902
6.520348072052002,2.217775434961207,[2.23243208],5.0,0.6,0.0,5.0,0.08425496528992982,1.4396784541526852
6.529208660125732,2.2175800362444704,[2.23227511],5.0,0.6,0.0,5.0,0.08345066140047697,1.4394623905440531
6.539810419082642,2.2173846375277337,[2.23213759],5.0,0.6,0.0,5.0,0.08256979785915061,1.4391359736022549
6.548500299453735,2.2173846375277337,[2.23201822],5.0,0.6,0.0,4.8892590244392915,0.07947858365585969,1.4405939773175769
6.558790683746338,2.2173846375277337,[2.23191527],5.0,0.6,0.0,4.66104860600057,0.07503165269911392,1.4427376715397822
6.568425178527832,2.2173846375277337,[2.2318265],5.0,0.6,0.0,4.382440423186502,0.06987307521198216,1.4450502129851601
6.577377796173096,2.2175800362444704,[2.23174948],5.0,0.6,0.0,3.8119120702213323,0.0660149214725434,1.4499403955868448
6.586153507232666,2.2175800362444704,[2.23168152],5.0,0.6,0.0,3.2100428646882215,0.057717948339383505,1.4533980306486918
6.596176385879517,2.217775434961207,[2.23161895],5.0,0.6,0.0,2.3978781796245787,0.04737138595648722,1.4581347646314302
6.606389045715332,2.217970833677944,[2.23155711],5.0,0.6,0.0,1.6435351021587103,0.03592589024030149,1.4617490272447995
6.6144444942474365,2.217970833677944,[2.2314907],5.0,0.6,0.0,0.4793366264745744,0.024386022127800902,1.4639317725090746
6.624687194824219,2.218166232394681,[2.23141256],5.0,0.6,0.0,-0.049312897216200025,-0.003001122328936018,1.4655137550000146
6.632374048233032,2.218361631111417,[2.23131661],5.0,0.6,0.0,-0.5483188537759351,-0.0051547338734433505,1.4667670680021054
6.643732786178589,2.218361631111417,[2.23119891],5.0,0.6,0.0,-1.2124269834065027,-0.032857688399432206,1.4664850462034291
6.653337001800537,2.218361631111417,[2.2310539],5.0,0.6,0.0,-1.7889683443351883,-0.023480812810742675,1.4659180234328404
6.666932106018066,2.218361631111417,[2.23087227],5.0,0.6,0.0,-2.2063027270334037,-0.08022402967353248,1.4655711773342732
6.675830364227295,2.218166232394681,[2.23064271],5.0,0.6,0.0,-2.7426416569830354,-0.0632581921962372,1.4637789321664871
6.685161113739014,2.217970833677944,[2.23035875],5.0,0.6,0.0,-3.1824839545733807,-0.07576834486875839,1.4622912282851364
6.694409132003784,2.217775434961207,[2.23001576],5.0,0.6,0.0,-3.469494492546991,-0.09018097114748087,1.4615985767242339
6.704273700714111,2.2173846375277337,[2.22960657],5.0,0.6,0.0,-3.611127267798463,-0.10459445751531028,1.460953163958238
6.714064121246338,2.216993840094261,[2.22912401],5.0,0.6,0.0,-3.9117430086207294,-0.11911549133037998,1.4597387489380178
6.723457336425781,2.2162122452273136,[2.22856101],5.0,0.6,0.0,-4.435531717175797,-0.13157525841608267,1.4555290931213014
6.733360290527344,2.2156260490771036,[2.22791082],5.0,0.6,0.0,-4.602397526430568,-0.1450198270663715,1.4547459502841462
6.74255895614624,2.2148444542101573,[2.22716699],5.0,0.6,0.0,-4.84343924771375,-0.15747411502642256,1.4529261287199753
6.750859022140503,2.2142582580599472,[2.22632345],5.0,0.6,0.0,-4.7284080549750325,-0.17100444213779573,1.454936708801668
6.759675741195679,2.213281264476264,[2.22537447],5.0,0.6,0.0,-4.739874773560603,-0.18257164064163395,1.4547270924928681
6.768188714981079,2.2123042708925804,[2.22431922],5.0,0.6,0.0,-4.733016645778605,-0.1578107087092956,1.4551403726358805
6.776463508605957,2.2111318785921603,[2.22316592],5.0,0.6,0.0,-4.664764761995489,-0.1392626730498424,1.4555131784017823
6.786329746246338,2.209764087575004,[2.22192174],5.0,0.6,0.0,-4.80977312923353,-0.16757674743356654,1.4539432754858927
6.796434164047241,2.208396296557847,[2.22058352],5.0,0.6,0.0,-4.662144070295682,-0.18966185570130223,1.45481019543553
6.805127382278442,2.207223904257427,[2.21914354],5.0,0.6,0.0,-4.668427912162521,-0.2079997983858711,1.4560211503355132
6.815344333648682,2.205465315806797,[2.21759467],5.0,0.6,0.0,-4.667056643187816,-0.2202980513182958,1.4550504023370965
6.826481819152832,2.2033159299226934,[2.21592465],5.0,0.6,0.0,-4.883514649587764,-0.25340697123090145,1.45126270739358
6.83539605140686,2.2015573414720637,[2.21411675],5.0,0.6,0.0,-4.794346125968622,-0.2540310062232066,1.4521235330869573
6.84609842300415,2.1992125568712235,[2.21216222],5.0,0.6,0.0,-5.0,-0.2527196322634605,1.448749502475482
6.855621814727783,2.1968677722703833,[2.21005944],5.0,0.6,0.0,-4.841004691578579,-0.2526443812034067,1.4486502415492872
6.863372325897217,2.1949137851030165,[2.20782055],5.0,0.6,0.0,-4.46055482411772,-0.2529816105622448,1.4526381882438149
6.875913858413696,2.19120120948502,[2.20546285],5.0,0.6,0.0,-4.579632124931696,-0.2508125318993562,1.4447662951383953
6.884398937225342,2.1886610261674435,[2.20298162],5.0,0.6,0.0,-4.505938541597658,-0.25008721614415635,1.4449261128599438
6.893384218215942,2.18592544413313,[2.20037363],5.0,0.6,0.0,-4.606141611580918,-0.24059433736910948,1.4435627285039727
6.903374910354614,2.1826036659486063,[2.19765018],5.0,0.6,0.0,-4.688027121296541,-0.2409723522608474,1.4396349084861135
6.915700674057007,2.1783048941803997,[2.19480667],5.0,0.6,0.0,-4.69219980430449,-0.22819951354226334,1.430871171194815
6.925350904464722,2.1749831159958766,[2.1918245],5.0,0.6,0.0,-4.890288109368065,-0.22547418678026077,1.4273634322608904
6.936007499694824,2.1710751416611433,[2.18869551],5.0,0.6,0.0,-4.502420290101693,-0.22137989882800413,1.424928295570164
6.9458091259002686,2.166971768609673,[2.18542121],5.0,0.6,0.0,-4.221578800659191,-0.21493026468405182,1.4210970656213404
6.955236911773682,2.163259192991676,[2.18200345],5.0,0.6,0.0,-3.7018623671273865,-0.21087254798688768,1.4220448935997614
6.967742204666138,2.158178826356523,[2.17843595],5.0,0.6,0.0,-3.4355903352430617,-0.15303771332880847,1.4124976544122751
6.976222276687622,2.155052446888736,[2.1747143],5.0,0.6,0.0,-2.7082152833670134,-0.20657440819636586,1.4201657269811123
6.987546682357788,2.150167478970319,[2.17084369],5.0,0.6,0.0,-1.662029375830944,-0.14963016372797527,1.4160000447871965
6.996389865875244,2.1464549033523226,[2.16682941],5.0,0.6,0.0,-0.6920173426942408,-0.2009335125854719,1.419972589183858
7.005961179733276,2.1427423277343256,[2.16268558],5.0,0.6,0.0,0.35350698438095757,-0.19739837635654275,1.423441899690733
7.013855934143066,2.139615948266539,[2.1584248],5.0,0.6,0.0,1.2204545641474271,-0.19625163297168904,1.430582985312366
7.0223448276519775,2.136294170082016,[2.15404965],5.0,0.6,0.0,2.40261165571248,-0.19465019789433258,1.4346164998226745
7.031364440917969,2.1323861957472823,[2.14956277],5.0,0.6,0.0,3.156786663132081,-0.19041260371837496,1.4353367853713401
7.040991544723511,2.1282828226958124,[2.14496676],5.0,0.6,0.0,3.591976748089553,-0.18575092414957364,1.4363376668633419
7.049820423126221,2.1247656457945525,[2.14026422],5.0,0.6,0.0,4.0747022105738875,-0.1842261897085264,1.440886647919927
7.057324409484863,2.1216392663267656,[2.13546719],5.0,0.6,0.0,4.432119800222955,-0.23227051277446123,1.448068685564678
7.06735372543335,2.1175358932752952,[2.13059573],5.0,0.6,0.0,4.628093475183075,-0.2245218338893648,1.4507704436675426
7.07693886756897,2.113627918940562,[2.12565716],5.0,0.6,0.0,4.679310089668728,-0.21325284057369326,1.4554377012616206
7.086445093154907,2.1097199446058283,[2.12064812],5.0,0.6,0.0,4.341993693174638,-0.20601576031066765,1.4625590083556996
7.095289945602417,2.105811970271095,[2.11557618],5.0,0.6,0.0,4.167594217839443,-0.2510646798762562,1.4683490545834934
7.103421688079834,2.1026855908033086,[2.11045766],5.0,0.6,0.0,4.028778760817131,-0.2448330133923066,1.4760540717368442
7.111365556716919,2.0991684139020483,[2.10530618],5.0,0.6,0.0,3.879450949395971,-0.2740629963744954,1.4814151293358422
7.119330167770386,2.0958466357175247,[2.1001332],5.0,0.6,0.0,3.7085570326356914,-0.2687827341535493,1.4861978878263509
7.127319097518921,2.0927202562497382,[2.09493792],5.0,0.6,0.0,3.5186859897489464,-0.2571489204228916,1.4898847654048
7.136144161224365,2.089398478065215,[2.08971946],5.0,0.6,0.0,3.3165555785210787,-0.2991615205326562,1.4918580104023014
7.148086071014404,2.0843181114300617,[2.08447659],5.0,0.6,0.0,3.109083761878386,-0.2107909761979855,1.4928508322893657
7.158344984054565,2.0802147383785914,[2.07919764],5.0,0.6,0.0,2.902002652711648,-0.2804361360295615,1.4935632017666403
7.169333457946777,2.075720567893648,[2.07387236],5.0,0.6,0.0,2.6995687302613334,-0.2365756839138353,1.4939214378401364
7.180254697799683,2.071421796125441,[2.06848124],5.0,0.6,0.0,2.5046988224361586,-0.24081787359191761,1.4936238487630438
7.190357208251953,2.0671230243572345,[2.0630079],5.0,0.6,0.0,2.319233423937771,-0.246766298377562,1.4926308488782905
7.201078414916992,2.0626288538722912,[2.05744943],5.0,0.6,0.0,2.1442039020700765,-0.25269751098769516,1.491238310568974
7.21035099029541,2.0587208795375576,[2.0518038],5.0,0.6,0.0,1.9800598948074883,-0.26236696707476703,1.4875664258826353
7.221153259277344,2.054422107769351,[2.04605857],5.0,0.6,0.0,1.8268476658899335,-0.3077121162644903,1.4836294534803205
7.230380296707153,2.0505141334346177,[2.04019256],5.0,0.6,0.0,1.6843436211031269,-0.308568788820183,1.4768109792094841
7.2394702434539795,2.0469969565333574,[2.03421104],5.0,0.6,0.0,1.552151256662658,-0.27750043889025955,1.4660426136426015
7.249347448348999,2.0426981847651504,[2.02814174],5.0,0.6,0.0,1.4297699874575445,-0.2932537276477339,1.4569879343357948
7.259464263916016,2.038594811713681,[2.02199746],5.0,0.6,0.0,1.3166430922175834,-0.3090914125005021,1.445106973609687
7.269782543182373,2.034296039945474,[2.01576665],5.0,0.6,0.0,1.212190498383447,-0.3612943580360746,1.4325442553326537
7.27837061882019,2.0307788630442136,[2.00944007],5.0,0.6,0.0,1.1158307364498532,-0.3297734271535732,1.4120288941122014
7.2873899936676025,2.0272616861429538,[2.00303363],5.0,0.6,0.0,1.026995252318239,-0.35018476356222344,1.388445169264612
7.296395301818848,2.023549110524957,[1.99656125],5.0,0.6,0.0,0.9451373845960269,-0.3689678585336633,1.3637792922603538
7.30431866645813,2.0202273323404336,[1.9900352],5.0,0.6,0.0,0.8697376556097132,-0.3788309361986644,1.3327776645550695
7.313337564468384,2.0165147567224366,[1.98347785],5.0,0.6,0.0,0.8003065439364152,-0.37888927379239046,1.3034178087465844
7.321453094482422,2.0131929785379135,[1.97689631],5.0,0.6,0.0,1.0124239194072913,-0.4059258858704039,1.2676032025716724
7.329329013824463,2.0098712003533903,[1.97028458],5.0,0.6,0.0,0.9867101596875507,-0.43046341627385615,1.2302185562461634
7.338427543640137,2.0061586247353933,[1.96364945],5.0,0.6,0.0,0.6014215071883522,-0.4412529686991106,1.1964268944959675
7.346705198287964,2.003032245267607,[1.95700857],5.0,0.6,0.0,0.442375884781352,-0.4452045502917768,1.1545166821518404
7.354591608047485,1.9999058657998199,[1.95036462],5.0,0.6,0.0,0.3810906757040301,-0.47430790307209236,1.1119874140021822
7.362761735916138,1.9965840876152965,[1.9437197],5.0,0.6,0.0,0.6343937810136872,-0.5032349764437979,1.0715218310108092
7.371324062347412,1.9924807145638264,[1.93708742],5.0,0.6,0.0,0.6572156484963327,-0.4903909250745422,1.041031727785289
7.379291772842407,1.989158936379303,[1.93047895],5.0,0.6,0.0,0.5935998147950385,-0.5548342709583433,1.0019823600327353
7.3883185386657715,1.9854463607613064,[1.9239033],5.0,0.6,0.0,0.5071148519382078,-0.5151478136506682,0.9686411684340148
7.397730112075806,1.9819291838600464,[1.91735535],5.0,0.6,0.0,0.4236127942128138,-0.5446301117804797,0.9341940988896369
7.409198760986328,1.9770442159416295,[1.9108059],5.0,0.6,0.0,0.3518532693770967,-0.6040262586650265,0.9157278519461651
7.420705556869507,1.9721592480232129,[1.90421797],5.0,0.6,0.0,0.29328691061803336,-0.6083966216309766,0.8971803940603373
7.42829442024231,1.9690328685554261,[1.8975851],5.0,0.6,0.0,0.24657691657248798,-0.582194235727414,0.8602048996824707
7.439637660980225,1.9645386980704826,[1.89092687],5.0,0.6,0.0,0.20960064783445603,-0.6024447982459195,0.8382950663120237
7.448439121246338,1.9608261224524859,[1.88424793],5.0,0.6,0.0,0.18026892193170602,-0.6242293770141599,0.8094613424704048
7.457299709320068,1.9571135468344893,[1.87755246],5.0,0.6,0.0,0.1568085396801988,-0.6053164913603121,0.7819408033227941
7.468418598175049,1.9526193763495459,[1.8708443],5.0,0.6,0.0,0.137814500236059,-0.670029716480293,0.7625046874886344
7.478604555130005,1.9485160032980757,[1.86410254],5.0,0.6,0.0,0.12221371666741883,-0.6823745488991844,0.740466904622295
7.488741636276245,1.944217231529869,[1.85731005],5.0,0.6,0.0,0.10920314576873535,-0.6935198905910972,0.7207748786908863
7.4973156452178955,1.9407000546286088,[1.85047749],5.0,0.6,0.0,0.09818819407127632,-0.6693819176574444,0.6963102552974404
7.507349967956543,1.9364012828604023,[1.84362646],5.0,0.6,0.0,0.08873041425031683,-0.6931795192056353,0.6788037949606067
7.520309925079346,1.931125517508512,[1.83673917],5.0,0.6,0.0,0.08050625696857863,-0.7893636574882751,0.6683373587190428
7.5308732986450195,1.9264359483068318,[1.82977691],5.0,0.6,0.0,0.07327584094430717,-0.7428557197446647,0.6543365324479817
7.539850950241089,1.9225279739720984,[1.82275659],5.0,0.6,0.0,0.06685987855826973,-0.7167070734599276,0.6365737901987618
7.552342414855957,1.9176430060536815,[1.81571758],5.0,0.6,0.0,0.061122884554411575,-0.7382755380967633,0.6252077665806046
7.563633680343628,1.9133442342854752,[1.80866929],5.0,0.6,0.0,0.05596107261569522,-0.7597197212117107,0.6117613110189014
7.573620319366455,1.909240861234005,[1.80160785],5.0,0.6,0.0,0.051293680698885645,-0.7797934569836067,0.5985695400367429
7.582443475723267,1.905528285616008,[1.79453032],5.0,0.6,0.0,0.04705677232491064,-0.8002247640088018,0.5850829166452691
7.590331315994263,1.9020111087147482,[1.78744661],5.0,0.6,0.0,0.043198810974911295,-0.7806129583875093,0.5724380295595779
7.602359056472778,1.8971261407963316,[1.78037743],5.0,0.6,0.0,0.03967749749151299,-0.8046199221987838,0.56547608022711
7.61178994178772,1.8936089638950713,[1.77331628],5.0,0.6,0.0,0.03645750421299786,-0.8710336902856656,0.5553497221733412
7.620349407196045,1.8898963882770747,[1.76623387],5.0,0.6,0.0,0.03350884471287029,-0.882687643002048,0.5469579982950445
7.6283135414123535,1.8869654075260245,[1.75912978],5.0,0.6,0.0,0.030805693857803358,-0.86001752363697,0.5380669736604934
7.639768600463867,1.8820804396076078,[1.75201627],5.0,0.6,0.0,0.028325527122684963,-0.9184595946648537,0.5339334110403618
7.6485984325408936,1.8779770665561377,[1.74488053],5.0,0.6,0.0,0.02604848662835363,-0.9276627147962921,0.5289277232587142
7.657290458679199,1.8746552883716143,[1.73772415],5.0,0.6,0.0,0.023956908637921784,-0.9036471529960535,0.5235166730385157
7.667450428009033,1.870161117886671,[1.73056088],5.0,0.6,0.0,0.02203496648829921,-0.9632671457101271,0.5202892727407872
7.676128149032593,1.8664485422686738,[1.72339106],5.0,0.6,0.0,0.020268396490019235,-0.9362910878130315,0.5166873070843048
7.686312198638916,1.8623451692172042,[1.71622709],5.0,0.6,0.0,0.01864428386617128,-0.9579772315538023,0.5139801483660399
7.695653438568115,1.8584371948824707,[1.70907986],5.0,0.6,0.0,0.017150892509124084,-0.9786152986329953,0.51154455466298
7.705979585647583,1.8545292205477373,[1.70194719],5.0,0.6,0.0,0.015777527047649596,-0.9973933476417183,0.5095017960929856
7.716373682022095,1.8502304487795302,[1.69482756],5.0,0.6,0.0,0.014514419037667864,-1.0130000990817591,0.507986271402511
7.7276763916015625,1.8459316770113239,[1.68770875],5.0,0.6,0.0,0.013352631420527976,-1.0648258416346017,0.506691489027238
7.736085414886475,1.8424145001100636,[1.68058097],5.0,0.6,0.0,0.01228397704010006,-1.0348071907248924,0.5053106595224356
7.746315956115723,1.8381157283418568,[1.67345917],5.0,0.6,0.0,0.011300948169710154,-1.0512643028952067,0.5044166302308974
7.7561750411987305,1.834012355290387,[1.66635644],5.0,0.6,0.0,-0.2656417048577997,-1.0677890822858274,0.5035659532367611
7.7663187980651855,1.8297135835221803,[1.65927289],5.0,0.6,0.0,-0.29959819265170523,-1.082352284255485,0.5029306002779912
7.774667263031006,1.8263918053376569,[1.65220887],5.0,0.6,0.0,-0.24526622424771108,-1.1010983144598598,0.5022711637729517
7.7840728759765625,1.8224838310029234,[1.64516488],5.0,0.6,0.0,-0.1698852522538462,-1.1164775479175293,0.5018362424265974
7.794046401977539,1.81798966051798,[1.63814155],5.0,0.6,0.0,-0.3760486224344608,-1.1284914000048085,0.5014454126725739
7.804348945617676,1.8136908887497734,[1.63113956],5.0,0.6,0.0,-0.3531472873130712,-1.1412792678528134,0.5011819321902375
7.813783884048462,1.8099783131317762,[1.62415958],5.0,0.6,0.0,-0.25660060330973666,-1.1568180741092955,0.5009530254767901
7.825103521347046,1.8054841426468329,[1.61719143],5.0,0.6,0.0,-0.15160477968737257,-1.204018761253788,0.5008155973479186
7.837108612060547,1.8004037760116798,[1.61020511],5.0,0.6,0.0,-0.06201828223963837,-1.2379124492351288,0.5007179675248309
7.84839653968811,1.7959096055267365,[1.60317578],5.0,0.6,0.0,0.006329197051687885,-1.2321790838576925,0.5005935937504346
7.857115030288696,1.792392428625476,[1.59610456],5.0,0.6,0.0,0.054775741066681774,-1.2366261823403453,0.5004479812793092
7.866015434265137,1.7884844542907428,[1.58900366],5.0,0.6,0.0,0.36299039134573746,-1.2433984694642792,0.5002515970513063
7.876686334609985,1.7839902838057995,[1.5818838],5.0,0.6,0.0,0.41589534391391514,-1.2501909700321605,0.5001544445334327
7.8842713832855225,1.7808639043380126,[1.57476493],5.0,0.6,0.0,0.3715478887043193,-1.2567188069896131,0.5001016628661776
7.8934431076049805,1.7773467274367525,[1.56767456],5.0,0.6,0.0,0.023814240336892084,-1.255634447990827,0.5001514482194152
7.901914119720459,1.7738295505354924,[1.56062473],5.0,0.6,0.0,0.19625057943587115,-1.2786318291707843,0.5000839769143639
7.911961317062378,1.7697261774840223,[1.55361418],5.0,0.6,0.0,0.22502538343828013,-1.297311803965142,0.5000500698556036
7.922268867492676,1.7652320069990788,[1.54664114],5.0,0.6,0.0,0.19937365577789645,-1.3127683338943774,0.5000411585370178
7.93230414390564,1.761128633947609,[1.53970343],5.0,0.6,0.0,-0.11736043037057134,-1.3291590189791993,0.5000448767121415
7.940680980682373,1.7578068557630855,[1.53279856],5.0,0.6,0.0,-0.1901968747407335,-1.3487889918196783,0.5000131075350908
7.948257684707642,1.7546804762952988,[1.52593468],5.0,0.6,0.0,-0.1683769915310882,-1.3972871522642862,0.500007415425799
7.9563233852386475,1.7513586981107754,[1.51913982],5.0,0.6,0.0,0.1578353349264553,-1.4558449698580833,0.5000021611227815
7.967874526977539,1.7466691289090954,[1.51243663],5.0,0.6,0.0,0.24214930238513147,-1.4363755782386198,0.4999735122830878
7.977399587631226,1.7429565532910987,[1.50582098],5.0,0.6,0.0,-0.04639180687831411,-1.4159886959895476,0.5000114487721697
7.986274003982544,1.7394393763898388,[1.49928801],5.0,0.6,0.0,0.1524639809536911,-1.4871660307136514,0.49999248272947694
7.997106552124023,1.7349452059048949,[1.49284328],5.0,0.6,0.0,0.19261104251219974,-1.4632437804720333,0.4999804921654444
8.006991624832153,1.730646434136688,[1.48647892],5.0,0.6,0.0,0.17171462000440943,-1.4363970484316477,0.4999846834800286
8.015307664871216,1.727324655952165,[1.48017567],5.0,0.6,0.0,0.13307194046365814,-1.4484763566490386,0.499991766239069
8.024267196655273,1.7236120803341684,[1.47391592],5.0,0.6,0.0,0.09446021198553556,-1.4684489829158105,0.4999971995094265
8.033753156661987,1.719508707282698,[1.46768359],5.0,0.6,0.0,0.06206115561653631,-1.4849121092090851,0.5000002357720547
8.041300773620605,1.7163823278149113,[1.46147554],5.0,0.6,0.0,0.03707366650938288,-1.520734500276215,0.5000012473926626
8.052308797836304,1.711888157329968,[1.45529971],5.0,0.6,0.0,0.018775440992843624,-1.4903827337949442,0.5000016492691847
8.062562704086304,1.707589385561761,[1.44915038],5.0,0.6,0.0,0.00588251590863055,-1.5102213578755816,0.5000015541493601
8.070489883422852,1.7042676073772378,[1.44301028],5.0,0.6,0.0,-0.0028908368611966283,-1.5326160114329812,0.5000011725034379
8.079649925231934,1.7005550317592413,[1.436864],5.0,0.6,0.0,-0.008636060277203364,-1.5511685638811858,0.5000008574243867
8.090169429779053,1.6962562599910345,[1.43069792],5.0,0.6,0.0,-0.012211000868945502,-1.565537418803639,0.500000638213675
8.102558374404907,1.691175893355881,[1.42448822],5.0,0.6,0.0,-0.014261339668362783,-1.614729772007731,0.500000512945078
8.111253261566162,1.6878541151713575,[1.41820268],5.0,0.6,0.0,-0.01526005624283175,-1.6213950137659643,0.5000003100722635
8.124318361282349,1.6825783498194673,[1.41181427],5.0,0.6,0.0,-0.015547273636747676,-1.661468874539637,0.5000002487097429
8.132308006286621,1.6790611729182072,[1.4053129],5.0,0.6,0.0,-0.01536424970600055,-1.6209905446803463,0.5000001339884694
8.141355514526367,1.6751531985834738,[1.39871538],5.0,0.6,0.0,-0.01488021161912182,-1.6352853127545053,0.500000065545741
8.15330982208252,1.6702682306650571,[1.39203685],5.0,0.6,0.0,-0.014212651671072876,-1.6455241264281293,0.5000000384385366
8.162243366241455,1.6665556550470606,[1.38527871],5.0,0.6,0.0,0.2625960774248096,-1.6617522535275606,0.4999488055100081
8.172327995300293,1.6624522819955905,[1.378443],5.0,0.6,0.0,0.29653909185039934,-1.6763021564129195,0.4999346436956613
8.18349575996399,1.65776271279391,[1.37152003],5.0,0.6,0.0,-0.03376665536949869,-1.728583503956602,0.4999992276685105
8.192308187484741,1.6542455358926502,[1.36450267],5.0,0.6,0.0,-0.14215885232444925,-1.6942690528321178,0.4999850075962456
8.203327178955078,1.65014216284118,[1.35741056],5.0,0.6,0.0,0.11924389723386714,-1.7127366859466937,0.4999894514512319
8.213622093200684,1.6456479923562366,[1.3502491],5.0,0.6,0.0,0.17258481070792908,-1.769291321039508,0.4999778544789678
8.223745584487915,1.6411538218712933,[1.34299923],5.0,0.6,0.0,-0.12931433800429565,-1.7732737179378895,0.4999875711341472
8.233287811279297,1.6374412462532968,[1.33567056],5.0,0.6,0.0,-0.2106498167505206,-1.7434003081107847,0.49996698185602934
8.241257667541504,1.6341194680687734,[1.32829685],5.0,0.6,0.0,0.07305610467372183,-1.7701480086109984,0.4999960345269495
8.252784967422485,1.629429898867093,[1.32088287],5.0,0.6,0.0,0.1434861989474709,-1.8291084676779583,0.49998467968310717
8.260257244110107,1.6263035193993067,[1.31340875],5.0,0.6,0.0,0.1301379245794525,-1.8424380753959497,0.4999873962163067
8.269789457321167,1.622395545064573,[1.30587076],5.0,0.6,0.0,0.09078753254375169,-1.8543336305495814,0.499993866393628
8.278251647949219,1.6186829694465763,[1.29829105],5.0,0.6,0.0,0.04945158271529525,-1.8289751082478962,0.49999818081527314
8.286357641220093,1.6153611912620527,[1.29070111],5.0,0.6,0.0,0.014736694752411395,-1.8588417183738226,0.49999983903780965
8.29440951347351,1.6114532169273195,[1.28312774],5.0,0.6,0.0,-0.011427222913792523,-1.8621087299560921,0.4999999032284574
8.303937673568726,1.607545242592586,[1.27559339],5.0,0.6,0.0,-0.029729457113007864,-1.8777746533077764,0.4999993423374407
8.312906265258789,1.6038326669745895,[1.26810435],5.0,0.6,0.0,-0.04166605125261586,-1.9081735207587354,0.4999987078399271
8.324257612228394,1.5997292939231191,[1.26065309],5.0,0.6,0.0,-0.04878496379142342,-1.9333706729678637,0.49999822845337966
8.332473516464233,1.596407515738596,[1.25323265],5.0,0.6,0.0,-0.05241456990694602,-1.9595662602838946,0.49999795498115396
8.341280698776245,1.5924995414038623,[1.24584894],5.0,0.6,0.0,-0.05360201935336151,-1.9408448790171757,0.4999978612469865
8.350241422653198,1.5887869657858658,[1.23851857],5.0,0.6,0.0,-0.05313425472521864,-1.9737670893719788,0.49999789839839065
8.360701322555542,1.5846835927343956,[1.23123015],5.0,0.6,0.0,-0.051584775387789064,-2.041284882376392,0.4999980191763412
8.36937689781189,1.5811664158331356,[1.22394873],5.0,0.6,0.0,-0.04936236768336741,-2.0562673370051345,0.4999981861729361
8.377389907836914,1.5776492389318757,[1.21666906],5.0,0.6,0.0,-0.04675318609637066,-2.0313733411005193,0.4999983728517986
8.385839223861694,1.574327460747352,[1.20941111],5.0,0.6,0.0,-0.04395416958764431,-2.0609549517871066,0.4999985618460107
8.395219326019287,1.5702240876958822,[1.20219135],5.0,0.6,0.0,-0.041098389335687296,-2.056806180111057,0.49999874265302935
8.406264781951904,1.5657299172109387,[1.1950231],5.0,0.6,0.0,-0.03827374873429027,-2.073933587178804,0.4999989095450115
8.41430115699768,1.5624081390264153,[1.18790434],5.0,0.6,0.0,-0.03553653182973423,-2.1054580305530486,0.49999905993897975
8.423604726791382,1.5581093672582085,[1.18082011],5.0,0.6,0.0,-0.032921098185529796,-2.1285342818137307,0.4999991932207492
8.432303667068481,1.554787589073685,[1.17376952],5.0,0.6,0.0,-0.030446757965357677,-2.1124646055518568,0.4999993099376533
8.440475702285767,1.5514658108891617,[1.16676364],5.0,0.6,0.0,-0.028122613373969076,-2.1477458012103634,0.4999994112679634
8.449292182922363,1.5479486339879014,[1.15979843],5.0,0.6,0.0,-0.02595094788686167,-2.1774435484797765,0.49999949868253174
8.457275390625,1.544822254520115,[1.15286977],5.0,0.6,0.0,0.25210877393941894,-2.173278574414915,0.49995268900869394
8.467144250869751,1.5407188814686448,[1.14598611],5.0,0.6,0.0,0.28710943779394055,-2.1963403982328895,0.49993864146757144
8.479326486587524,1.5356385148334912,[1.13912838],5.0,0.6,0.0,-0.042288714083017126,-2.260763871491859,0.4999986687640151
8.488954544067383,1.5313397430652846,[1.13225446],5.0,0.6,0.0,-0.14989181152117986,-2.2713889633662276,0.499983275419698
8.497238159179688,1.5280179648807612,[1.12535404],5.0,0.6,0.0,0.11220474850006759,-2.2453408913567348,0.49999062815541373
8.505242109298706,1.5248915854129745,[1.11844392],5.0,0.6,0.0,0.16616143515865417,-2.2755003669368348,0.49997944780468184
8.514261484146118,1.5207882123615046,[1.11152536],5.0,0.6,0.0,0.14085137490728541,-2.298162234477161,0.4999852319741848
8.523283243179321,1.5170756367435079,[1.1045865],5.0,0.6,0.0,-0.18290224257885623,-2.3204594359668542,0.49997509801763895
8.53279995918274,1.5131676624087744,[1.09761721],5.0,0.6,0.0,0.013030048096187935,-2.340484013912745,0.49999987361409154
8.542242527008057,1.5094550867907774,[1.09062199],5.0,0.6,0.0,0.06287934571492496,-2.3175834680357434,0.4999970567888159
8.552334070205688,1.5053517137393075,[1.08361762],5.0,0.6,0.0,0.05546400087345194,-2.347241292397311,0.4999977100390905
8.56354832649231,1.5004667458208907,[1.07659205],5.0,0.6,0.0,0.030352788669146417,-2.412488233503699,0.4999993141903786
8.575197219848633,1.495777176619211,[1.06950888],5.0,0.6,0.0,-0.27208795564995264,-2.420336837848401,0.49994489368416317
8.58429741859436,1.4922599997179506,[1.06236385],5.0,0.6,0.0,-0.05102329306409745,-2.3919604299363577,0.4999980620489502
8.594468832015991,1.4881566266664805,[1.05518002],5.0,0.6,0.0,0.021181744491876577,-2.418117789322981,0.499999666012679
8.604572057723999,1.4840532536150106,[1.04796387],5.0,0.6,0.0,-0.2445575149600151,-2.441991850928214,0.49995548059354933
8.618103742599487,1.4781912921129103,[1.04069438],5.0,0.6,0.0,-0.2896513288943535,-2.4993486493346335,0.49993755026453585
8.628340721130371,1.4736971216279668,[1.03334067],5.0,0.6,0.0,-0.25165366877778994,-2.5055285937228082,0.4999528596574338
8.63927936553955,1.4692029511430236,[1.02589059],5.0,0.6,0.0,-0.1911002654135895,-2.514605697728688,0.4999728157441133
8.649316310882568,1.4650995780915532,[1.01834807],5.0,0.6,0.0,-0.13249585617797835,-2.527985516175674,0.4999869321063404
8.659241676330566,1.4609962050400835,[1.01071731],5.0,0.6,0.0,-0.08406391053232665,-2.543226763741395,0.4999947395418663
8.668289184570312,1.4574790281388232,[1.00300274],5.0,0.6,0.0,-0.04710080090894113,-2.562719700218532,0.49999834856097886
8.67829179763794,1.4531802563706164,[0.9952089],5.0,0.6,0.0,-0.020288437702251323,-2.579413003738124,0.4999996935894222
8.689340829849243,1.4484906871689365,[0.98734045],5.0,0.6,0.0,-0.0015955025986215034,-2.5949426098773998,0.49999999810503276
8.699998617172241,1.443996516683993,[0.97940203],5.0,0.6,0.0,0.010950465017296768,-2.612050415197637,0.49999991073694205
8.708688497543335,1.4406747384994696,[0.97139831],5.0,0.6,0.0,0.019001969674966552,-2.6354398224031734,0.49999973121576036
8.717525720596313,1.4369621628814728,[0.96333392],5.0,0.6,0.0,0.023848447739056786,-2.657335571869465,0.49999957662352285
8.729704141616821,1.4318817962463195,[0.95519973],5.0,0.6,0.0,-0.24958246464369788,-2.718147443578661,0.4999536323937779
8.738823175430298,1.4283646193450594,[0.94697502],5.0,0.6,0.0,-0.281633474143239,-2.7287915346466085,0.49994095956097956
8.74941873550415,1.4242612462935895,[0.93865694],5.0,0.6,0.0,-0.22649086141978375,-2.7406540817572496,0.4999618151175113
8.759307861328125,1.4197670758086463,[0.93027156],5.0,0.6,0.0,-0.15103110842090947,-2.7084033959080585,0.4999830202175971
8.77124810218811,1.414491310456756,[0.9218554],5.0,0.6,0.0,-0.35759257570083836,-2.732956836033088,0.49990482074017417
8.782238483428955,1.4098017412550756,[0.91342578],5.0,0.6,0.0,-0.33538872654017227,-2.758465328098806,0.49991627267203703
8.791223764419556,1.4064799630705522,[0.90499739],5.0,0.6,0.0,-0.2397165121076826,-2.743251153402506,0.4999572255929345
8.80123233795166,1.4021811913023456,[0.89659625],5.0,0.6,0.0,-0.1356886066545665,-2.780699269652005,0.4999862947333734
8.810357809066772,1.3982732169676122,[0.88822996],5.0,0.6,0.0,-0.0471072074490626,-2.8154824927852253,0.49999834811169935
8.81968379020691,1.3947560400663521,[0.87989042],5.0,0.6,0.0,0.0202352373850132,-2.8485583881644674,0.49999969519425375
8.828832149505615,1.3906526670148822,[0.8715701],5.0,0.6,0.0,0.06770085154449458,-2.876294861173914,0.49999658812229336
8.837591171264648,1.3871354901136221,[0.86326211],5.0,0.6,0.0,0.3749736089965708,-2.9050755365255845,0.49989534436298366
8.846633911132812,1.3832275157788887,[0.85496016],5.0,0.6,0.0,0.42698439968625634,-2.9306900296718443,0.4998643025295958
8.856096267700195,1.3795149401608922,[0.84667268],5.0,0.6,0.0,0.10575661437254684,-2.9098036055316445,0.49999167435022884
8.868731260299683,1.3744345735257386,[0.83840632],5.0,0.6,0.0,0.00014856710155164432,-2.9878813665348254,0.4999999999835695
8.877270221710205,1.3709173966244785,[0.83013803],5.0,0.6,0.0,-0.01596617834342586,-3.0096534956247525,0.4999998102383076
8.885235786437988,1.3675956184399551,[0.82186227],5.0,0.6,0.0,-1.068482576227145e-05,-2.9860609736963615,0.499999999999915
8.89507246017456,1.3632968466717486,[0.8136025],5.0,0.6,0.0,0.023240010087468295,-3.0184278781207277,0.49999959795087134
8.904120922088623,1.3595842710537516,[0.80536403],5.0,0.6,0.0,0.04414324769548797,-3.05044160429647,0.49999854944363525
8.914912223815918,1.355090100568808,[0.79713676],5.0,0.6,0.0,0.05978926993331024,-3.075789432470834,0.49999733895621495
8.924188613891602,1.3513775249508115,[0.78891187],5.0,0.6,0.0,0.07005225335758954,-3.1031288779451125,0.499996347003061
8.934124231338501,1.3472741518993414,[0.78068173],5.0,0.6,0.0,0.07579130439306384,-3.127258751614109,0.4999957239420597
8.94534420967102,1.342779981414398,[0.77243981],5.0,0.6,0.0,0.07807373384978943,-3.1484924912601757,0.49999546252124705
8.95580244064331,1.3386766083629278,[0.76418068],5.0,0.6,0.0,0.07787258475524916,-3.1710349030240828,0.4999954858717346
8.965270280838013,1.3349640327449313,[0.75589993],5.0,0.6,0.0,0.3520138303567508,-3.195228103827166,0.4999077670562848
8.97421669960022,1.3310560584101976,[0.74759397],5.0,0.6,0.0,0.38214396474313517,-3.218317452066013,0.4998913040218219
8.983966588973999,1.326757286641991,[0.73924574],5.0,0.6,0.0,0.047353708529181415,-3.286392013644501,0.49999833077860056
8.993914127349854,1.3226539135905209,[0.73082703],5.0,0.6,0.0,-0.06586064960106044,-3.294837725651214,0.49999677107994106
9.003976821899414,1.3189413379725243,[0.72232915],5.0,0.6,0.0,0.19061184697036132,-3.3091964821484376,0.4999729545190759
9.015289306640625,1.3142517687708442,[0.71375994],5.0,0.6,0.0,0.2390680345647979,-3.322025879746501,0.49995745669545716
9.023206949234009,1.3107345918695839,[0.70512692],5.0,0.6,0.0,-0.06757088106785834,-3.3428746169829635,0.4999966012097568
9.034304141998291,1.306045022667904,[0.69642287],5.0,0.6,0.0,-0.15343981571782978,-3.407126122488145,0.49998247430697684
9.042903423309326,1.3027232444833805,[0.68762819],5.0,0.6,0.0,0.12597391855937834,-3.4186693488225233,0.49998818692877406
9.052009105682373,1.2984244727151737,[0.67874166],5.0,0.6,0.0,0.19237001601709966,-3.4302771438269435,0.49997245330668055
9.061340093612671,1.2949072958139138,[0.66979201],5.0,0.6,0.0,0.1752507357097074,-3.4020216416339255,0.499977137882845
9.071229696273804,1.2908039227624437,[0.6608186],5.0,0.6,0.0,0.13238915819187985,-3.4347875268752333,0.4999869531445581
9.0832679271698,1.2863097522775002,[0.65184047],5.0,0.6,0.0,0.0877935908024069,-3.4638009811104773,0.49999426240607514
9.095371723175049,1.2812293856423467,[0.64284463],5.0,0.6,0.0,0.050059313388548396,-3.536131575287416,0.4999981345842369
9.104219913482666,1.2773214113076135,[0.63380549],5.0,0.6,0.0,0.02110317229491159,-3.551662935232502,0.4999996684858876
9.112206220626831,1.2741950318398267,[0.62471604],5.0,0.6,0.0,0.00022201983659493607,-3.5742075889701512,0.4999999999633064
9.12095832824707,1.2706778549385667,[0.61558508],5.0,0.6,0.0,-0.014094231552134236,-3.5976809708428434,0.49999985212681897
9.128897666931152,1.267356076754043,[0.60643484],5.0,0.6,0.0,-0.023407366253962128,-3.575360579042276,0.49999959213954503
9.136188983917236,1.2642296972862568,[0.59731343],5.0,0.6,0.0,-0.029059113394222968,-3.5689133640304727,0.4999993714047113
9.145213603973389,1.2605171216682596,[0.58826087],5.0,0.6,0.0,-0.03210935242227228,-3.619078440877526,0.49999923251581374
9.156881093978882,1.2558275524665796,[0.57926543],5.0,0.6,0.0,-0.03335704819376285,-3.7071930643595667,0.4999991717116739
9.16420030593872,1.252701172998793,[0.57028619],5.0,0.6,0.0,-0.033386978261759834,-3.735145756819037,0.4999991702246222
9.174818515777588,1.2484024012305863,[0.56130243],5.0,0.6,0.0,-0.03261845732110137,-3.757739666590562,0.49999920798543884
9.18218731880188,1.2452760217627994,[0.55232601],5.0,0.6,0.0,-0.03134743264663104,-3.736842531793846,0.4999992685067659
9.192201137542725,1.2409772499945926,[0.54338159],5.0,0.6,0.0,-0.029779927266203085,-3.774567394988452,0.499999339833239
9.20131540298462,1.2374600730933325,[0.53447422],5.0,0.6,0.0,-0.028057421993586955,-3.812196634649475,0.4999994139941532
9.209213972091675,1.2341382949088093,[0.52560767],5.0,0.6,0.0,-0.026275593693533616,-3.7974207881828015,0.4999994860610565
9.219253301620483,1.230034921857339,[0.51679974],5.0,0.6,0.0,-0.02449790363133987,-3.8405254799904553,0.4999995532502428
9.22922658920288,1.225931548805869,[0.50804986],5.0,0.6,0.0,-0.02276533234991771,-3.8774962618851228,0.4999996142068629
9.23860478401184,1.2220235744711359,[0.49934219],5.0,0.6,0.0,-0.021103293871228487,-3.910357096792754,0.4999996684820679
9.247416257858276,1.2185063975698756,[0.4906637],5.0,0.6,0.0,-0.019526514739578765,-3.941343339844666,0.49999971617148875
9.256232500076294,1.2149892206686155,[0.48201871],5.0,0.6,0.0,-0.018042458975681033,-3.9214043368037372,0.4999997576751107
9.266064167022705,1.2108858476171456,[0.47341198],5.0,0.6,0.0,-0.01665372122376174,-4.005928657035078,0.4999997935432119
9.274456262588501,1.2073686707158855,[0.46483385],5.0,0.6,0.0,-0.015359691389809083,-3.9794963288516234,0.4999998243809681
9.282705545425415,1.2038514938146252,[0.45629171],5.0,0.6,0.0,-0.014157706877165006,-4.012570508998062,0.49999985079188514
9.293625831604004,1.1997481207631555,[0.44779385],5.0,0.6,0.0,-0.013043845532955293,-4.038246358418416,0.4999998733462903
9.302711009979248,1.1958401464284218,[0.43933524],5.0,0.6,0.0,-0.01201346735791587,-4.060802393518854,0.4999998925655972
9.313023805618286,1.191541374660215,[0.43091438],5.0,0.6,0.0,-0.01106158100841504,-4.078457647099857,0.4999999089162203
9.323187828063965,1.186851805458535,[0.4225329],5.0,0.6,0.0,-0.010183088460955215,-4.091969942062368,0.4999999228091764
9.333256721496582,1.1829438311238019,[0.41419515],5.0,0.6,0.0,-0.009372945240275134,-4.107567897090644,0.49999993460285236
9.341246366500854,1.1796220529392785,[0.40590791],5.0,0.6,0.0,-0.008626262371830735,-4.124625375314586,0.499999944607371
9.350222826004028,1.1759094773212815,[0.39769075],5.0,0.6,0.0,-0.007938368333302071,-4.103140543953751,0.4999999530895988
9.361862659454346,1.1710245094028648,[0.38956303],5.0,0.6,0.0,-0.007304843745456983,-4.156197453181897,0.4999999602782367
9.370217561721802,1.1677027312183414,[0.381532],5.0,0.6,0.0,-0.006721537667413811,-4.143219574977481,0.4999999663686784
9.379345893859863,1.1639901556003445,[0.37361546],5.0,0.6,0.0,-0.006184571652339432,-4.164515444357217,0.49999997152747955
9.387557029724121,1.1604729786990846,[0.36583032],5.0,0.6,0.0,-0.005690335820500455,-4.194589192433211,0.4999999758963696
9.39628005027771,1.1567604030810879,[0.3581821],5.0,0.6,0.0,-0.005235479885953272,-4.2273387161454234,0.499999979595796
9.404187202453613,1.1536340236133011,[0.35068522],5.0,0.6,0.0,-0.004816901147263247,-4.311302404058955,0.49999998272801965
9.413347244262695,1.1499214479953044,[0.34336096],5.0,0.6,0.0,-0.0044317308121998595,-4.326289598182711,0.49999998537979656
9.421338558197021,1.146599669810781,[0.33621851],5.0,0.6,0.0,-0.004077319577056528,-4.344906216481599,0.4999999876246875
9.429266929626465,1.1432778916262578,[0.3292727],5.0,0.6,0.0,0.2722871366068065,-4.3631215012713565,0.4999448129783469
9.439119338989258,1.1391745185747875,[0.32255113],5.0,0.6,0.0,0.305711775271305,-4.378319915229849,0.4999304333972649
9.453331470489502,1.1331171583559507,[0.31604522],5.0,0.6,0.0,0.2508905700450379,-4.296313370098618,0.49995314510141026
9.46223521232605,1.129404582737954,[0.309717],5.0,0.6,0.0,0.17505954523841127,-4.351364600313639,0.49997718773752875
9.472862005233765,1.1249104122530105,[0.30355003],5.0,0.6,0.0,0.1047705386973834,-4.3911947585905455,0.4999918288820327
9.480193853378296,1.121588634068487,[0.29755196],5.0,0.6,0.0,0.04836372681624854,-4.426406608903391,0.49999825881291204
9.491177082061768,1.1172898623002805,[0.29173533],5.0,0.6,0.0,0.006563911151209821,-4.433420317935868,0.49999996792755647
9.50257158279419,1.112795691815337,[0.28609759],5.0,0.6,0.0,-0.022669253689716406,-4.43885031074686,0.4999996174563877
9.512997150421143,1.1084969200471304,[0.280624],5.0,0.6,0.0,-0.042029624601229075,-4.445965136630893,0.49999868502612005
9.521179437637329,1.105175141862607,[0.27531364],5.0,0.6,0.0,-0.05402812989906847,-4.437083753657991,0.49999782707066825
9.530200719833374,1.1012671675278736,[0.27018212],5.0,0.6,0.0,-0.06072806090384689,-4.413302021910785,0.49999725473476075
9.540185928344727,1.0971637944764034,[0.26524133],5.0,0.6,0.0,-0.06372012736461546,-4.422984405560041,0.499996977553424
9.551210641860962,1.0928650227081966,[0.26048917],5.0,0.6,0.0,-0.06418512728625152,-4.426939611880144,0.49999693327977707
9.563478946685791,1.08798005478978,[0.25591287],5.0,0.6,0.0,-0.06297784026966438,-4.447317068532965,0.4999970475610965
9.573591947555542,1.0836812830215732,[0.25149643],5.0,0.6,0.0,-0.06070572730900492,-4.438577475878099,0.4999972567536034
9.5831778049469,1.079577909970103,[0.2472309],5.0,0.6,0.0,-0.057793973129124765,-4.429630488359366,0.4999975136017074
9.595256805419922,1.0746929420516864,[0.24310906],5.0,0.6,0.0,-0.05453596009324328,-4.438036186313287,0.49999778603046663
9.605267524719238,1.070198771566743,[0.23912042],5.0,0.6,0.0,-0.05113104266148126,-4.420776299389092,0.49999805385529933
9.616181373596191,1.0657046010817994,[0.23526014],5.0,0.6,0.0,-0.04771218381431272,-4.4033854081155885,0.4999983054104292
9.624188899993896,1.0623828228972763,[0.23152794],5.0,0.6,0.0,-0.04436587280655023,-4.392269382219547,0.49999853477574735
9.632690906524658,1.0590610447127526,[0.22791974],5.0,0.6,0.0,-0.04114633082090606,-4.405468607118814,0.49999873971619613
9.641156911849976,1.0555438678114926,[0.22443499],5.0,0.6,0.0,-0.03808556546780885,-4.405440127547023,0.49999892024052783
9.65300726890564,1.0508542986098126,[0.22107949],5.0,0.6,0.0,-0.03520044482185987,-4.40292230996174,0.4999990776355031
9.663190841674805,1.0467509255583425,[0.21785087],5.0,0.6,0.0,-0.03249764935649393,-4.377319550943776,0.49999921384128937
9.673162460327148,1.0426475525068724,[0.21474306],5.0,0.6,0.0,-0.0299771219454373,-4.353661755267915,0.49999933106140443
9.683296918869019,1.0385441794554024,[0.21175367],5.0,0.6,0.0,-0.027634459592567166,-4.332256380104622,0.4999994315289133
