t_s,q_rad,q_des_rad,K,B,Kff,jerk,tau_Nm,reward
0.0050411224365234375,-0.05803341887079106,[0.00053639],9.825212432529046,0.9790254919034855,1.9737818648793566,0.0,9.998999999999999,1.0035437859659986
0.016013622283935547,-0.05803341887079106,[0.00261621],9.650424865058092,0.9580509838069711,1.9475637297587132,0.0,10.098989999999999,0.9791816198489283
0.025927066802978516,-0.05803341887079106,[0.00658344],9.475637297587138,0.9370764757104565,1.92134559463807,0.0,10.099989899999999,0.9338451606538329
0.03663444519042969,-0.05803341887079106,[0.01220749],9.300849730116184,0.9161019676139419,1.8951274595174268,0.0,10.099999898999998,0.8727836570331139
0.04487466812133789,-0.05803341887079106,[0.01927492],9.12606216264523,0.8951274595174274,1.8689093243967834,0.0,10.099999998989999,0.802608353985685
0.05383014678955078,-0.05803341887079106,[0.02756317],8.951274595174274,0.8741529514209129,1.84269118927614,0.0,10.0999999999899,0.7309959109055175
0.06289029121398926,-0.05803341887079106,[0.0368707],8.77648702770332,0.8531784433243983,1.8164730541554968,0.0,-9.8980000000001,0.665074497565733
0.07518625259399414,-0.05803341887079106,[0.04704314],8.601699460232366,0.8322039352278838,1.7902549190348536,0.0,-10.09798,0.6098964482642634
0.08680272102355957,-0.05803341887079106,[0.05795493],8.426911892761412,0.8112294271313693,1.7640367839142101,0.0,-10.099979799999998,0.5678362053173996
0.09588766098022461,-0.05803341887079106,[0.0694784],8.252124325290458,0.7902549190348547,1.7378186487935667,0.0,-10.099999797999999,0.5387024265368828
0.10877251625061035,-0.05803341887079106,[0.08149996],8.077336757819502,0.7692804109383402,1.7116005136729235,0.0,-5.100499997979999,0.5203655017120232
0.1177823543548584,-0.05803341887079106,[0.09393285],7.902549190348549,0.7483059028418256,1.6853823785522803,0.0,-5.0505049999797995,0.50986512373738
0.12990021705627441,-0.05803341887079106,[0.10669929],7.727761622877595,0.727331394745311,1.659164243431637,0.0,-5.050005049999798,0.5043946244732455
0.13816285133361816,-0.05803341887079106,[0.11972958],7.55297405540664,0.7063568866487966,1.6329461083109935,0.0,-5.050000050499998,0.5018000577720927
0.14792490005493164,-0.05803341887079106,[0.13294637],7.378186487935686,0.685382378552282,1.6067279731903503,0.0,-5.050000000504999,0.5006791584127668
0.1557936668395996,-0.05803341887079106,[0.14626653],7.203398920464732,0.6644078704557674,1.5805098380697071,0.0,-5.050000000005049,0.5002369423490044
0.16575360298156738,-0.05803341887079106,[0.15961745],7.028611352993777,0.643433362359253,1.5542917029490637,0.0,-5.05000000000005,0.5000767942789409
0.1748032569885254,-0.05803341887079106,[0.172936],6.853823785522822,0.6224588542627384,1.5280735678284203,0.0,-5.05,0.5000232460625503
0.18582749366760254,-0.05803341887079106,[0.18618122],6.679036218051868,0.6014843461662238,1.501855432707777,0.0,-5.05,0.5000066018683552
0.19379472732543945,-0.05803341887079106,[0.19931746],6.504248650580913,0.6,1.475637297587134,0.0,-5.05,0.5000017675878662
0.20363616943359375,-0.05803341887079106,[0.21228636],6.329461083109958,0.6,1.4494191624664907,0.0,-5.05,0.5000004497580122
0.21479249000549316,-0.05803341887079106,[0.22503821],6.154673515639004,0.6,1.4232010273458477,0.0,-5.05,0.5000001096568452
0.228316068649292,-0.05803341887079106,[0.23755713],5.97988594816805,0.6,1.3969828922252046,0.0,-5.05,0.5000000257519752
0.237318754196167,-0.05803341887079106,[0.2498418],5.805098380697095,0.6,1.3707647571045614,0.0,-5.05,0.5000000058464595
0.24953341484069824,-0.05803341887079106,[0.26188947],5.63031081322614,0.6,1.3445466219839184,0.0,-4.736133247335415,0.5000000012880569
0.2606945037841797,-0.05803341887079106,[0.27369608],5.455523245755186,0.6,1.3183284868632752,0.0,-2.1546712066308573,0.5000000002764772
0.27097058296203613,-0.05803341887079106,[0.28524604],5.280735678284231,0.6,1.292110351742632,0.0,-1.81089699299947,0.5000000000581405
0.27982020378112793,-0.05803341887079106,[0.29651465],5.105948110813277,0.6,1.2658922166219888,0.0,-5.992786255501986,0.5000000000120631
0.292356014251709,-0.05803341887079106,[0.30749124],5.0,0.6,1.2396740815013456,0.0,-5.709299588057026,0.5000000000024828
0.2999110221862793,-0.05803341887079106,[0.31816752],5.0,0.6,1.2134559463807026,0.0,-10.056092995880569,0.5000000000005095
0.3080263137817383,-0.05803341887079106,[0.32851823],5.0,0.6,1.1872378112600595,0.0,-10.099560929958804,0.500000000000105
0.3185248374938965,-0.05803341887079106,[0.33852344],5.0,0.6,1.1610196761394163,0.0,-10.099995609299587,0.5000000000000219
0.3276345729827881,-0.05803341887079106,[0.34817767],5.0,0.6,1.1348015410187733,0.0,-10.099999956092995,0.5000000000000047
0.33809804916381836,-0.05803341887079106,[0.35748602],5.0,0.6,1.10858340589813,0.0,-10.099999999560929,0.500000000000001
0.3472015857696533,-0.05803341887079106,[0.36646068],5.0,0.6,1.082365270777487,0.0,-10.099999999995608,0.5000000000000002
0.35480260848999023,-0.05803341887079106,[0.37509617],5.0,0.6,1.0561471356568437,0.0,-10.000906886565275,0.5
0.3643016815185547,-0.05803341887079106,[0.38337614],5.0,0.6,1.0299290005362005,0.0,-9.39921204966914,0.5
0.37305784225463867,-0.05803341887079106,[0.39129862],5.0,0.6,1.0037108654155575,0.0,-8.597939616255237,0.5
0.3851511478424072,-0.05803341887079106,[0.398878],5.0,0.6,0.9774927302949143,0.0,-8.106350293821482,0.5
0.393784761428833,-0.05803341887079106,[0.40612819],5.0,0.6,0.9512745951742712,0.0,-5.080563502938214,0.5
0.40326356887817383,-0.05803341887079106,[0.41304994],5.0,0.6,0.9250564600536281,0.0,-6.385199366931287,0.5
0.4141113758087158,-0.05803341887079106,[0.41964572],5.0,0.6,0.898838324932985,0.0,-5.201127601769662,0.5
0.4247407913208008,-0.05803341887079106,[0.42592592],5.0,0.6,0.8726201898123418,0.0,-4.3971425093495355,0.5
0.4338109493255615,-0.05803341887079106,[0.43190604],5.0,0.6,0.8464020546916986,0.0,-4.088476252051984,0.5
0.44289350509643555,-0.05803341887079106,[0.43760552],5.0,0.6,0.8201839195710555,0.0,-2.641966898697199,0.5
0.4526646137237549,-0.05803341887079106,[0.44303682],5.0,0.6,0.7939657844504124,0.0,-1.9306694382010563,0.5
0.46318840980529785,-0.05803341887079106,[0.44820661],5.0,0.6,0.7677476493297692,0.0,-1.6053559223626945,0.5
0.4721987247467041,-0.05803341887079106,[0.45312193],5.0,0.6,0.741529514209126,0.0,-1.4550664731906209,0.5
0.48210573196411133,-0.05803341887079106,[0.45779016],5.0,0.6,0.715311379088483,0.0,-2.137799678848593,0.5
0.4897758960723877,-0.05803341887079106,[0.46221547],5.0,0.6,0.6890932439678399,0.0,-2.838786711370988,0.5
0.500382661819458,-0.05803341887079106,[0.46639955],5.0,0.6,0.6628751088471967,0.0,-2.826426239051378,0.5
0.5101139545440674,-0.05803341887079106,[0.47034924],5.0,0.6,0.6366569737265535,0.0,-2.472816505512537,0.5
0.5188858509063721,-0.05803341887079106,[0.47407249],5.0,0.6,0.6104388386059104,0.0,-2.403467337672939,0.5
0.5287685394287109,-0.05803341887079106,[0.47757466],5.0,0.6,0.5842207034852673,0.0,-1.9740624059707126,0.5
0.5388174057006836,-0.05803341887079106,[0.48086513],5.0,0.6,0.5580025683646241,0.0,-0.9892665875046008,0.5
0.5472228527069092,-0.05803341887079106,[0.48395648],5.0,0.6,0.531784433243981,0.0,-0.2890319450555709,0.5
0.5567970275878906,-0.05803341887079106,[0.48685821],5.0,0.6,0.5055662981233379,0.0,-0.07573982987629889,0.5
0.5657672882080078,-0.05803341887079106,[0.48957735],5.0,0.6,0.4793481630026947,0.0,0.5637933436141412,0.5
0.5747764110565186,-0.05803341887079106,[0.49212384],5.0,0.6,0.4531300278820516,0.0,0.9926010898874984,0.5
0.5852756500244141,-0.0578380201540544,[0.49451204],5.0,0.6,0.42691189276140845,0.0,1.5118445886723346,0.5
0.5943214893341064,-0.05686102657037104,[0.49675722],5.0,0.6,0.4006937576407653,0.276038359678681,1.781819272164043,0.49994328199874594
0.6044137477874756,-0.05471164068626767,[0.49887092],5.0,0.6,0.3744756225201221,1.413316401554846,2.138026132535659,0.4985152960110252
0.6135673522949219,-0.05197605865195429,[0.50086157],5.0,0.6,0.3482574873994789,3.9750627947168775,2.286192796166788,0.4883749093893746
0.623100996017456,-0.04826348303395755,[0.50273719],5.0,0.6,0.3220393522788358,5.0,2.336275356194856,0.4817320621239355
0.6357269287109375,-0.04318311639880412,[0.50450697],5.0,0.6,0.2958212171581926,5.0,2.3234017716781583,0.4817320621239355
0.6502645015716553,-0.03751655361344069,[0.50618396],5.0,0.6,0.2696030820375494,5.0,2.5103896803821724,0.4817320621239355
0.6594681739807129,-0.03341318056197061,[0.50777941],5.0,0.6,0.24338494691690624,5.0,2.457860064566219,0.4817320621239355
0.669980525970459,-0.0289190100770272,[0.50929708],5.0,0.6,0.21716681179626307,5.0,2.435490886036588,0.4817320621239355
0.6800460815429688,-0.024815637025557124,[0.51073906],5.0,0.6,0.19094867667561988,5.0,2.430162014475643,0.4817320621239355
0.6897404193878174,-0.02129846012429706,[0.51210912],5.0,0.6,0.16473054155497668,5.0,2.384018885472478,0.4817320621239355
0.6998181343078613,-0.01739048578956365,[0.51341096],5.0,0.6,0.13851240643433352,5.0,2.3046781667485834,0.4817320621239355
0.7097771167755127,-0.013287112738093578,[0.51464813],5.0,0.6,0.11229427131369034,3.308647995357925,2.3679246350596177,0.4919169825087869
0.7194790840148926,-0.009379138403360172,[0.51582407],5.0,0.6,0.08607613619304716,0.6744032531701849,2.439839024965945,0.49966154653977224
0.7282381057739258,-0.006057360218836778,[0.51694201],5.0,0.6,0.05985800107240398,-1.7710392885296082,2.5080906095030353,0.49767057120732944
0.7371714115142822,-0.0027355820343133836,[0.51800499],5.0,0.6,0.0336398659517608,-3.9458393269656447,2.5653503825196413,0.4885432431581227
0.7455441951751709,0.0007815948669466809,[0.51901581],5.0,0.6,0.0074217308311176206,-5.0,2.6104420815242264,0.4817320621239355
0.7567596435546875,0.005275765351890096,[0.51997698],5.0,0.6,0.0,-5.0,2.604368318264609,0.4817320621239355
0.7664737701416016,0.009379138403360172,[0.52089073],5.0,0.6,0.0,-5.0,2.583569292183577,0.4817320621239355
0.7741754055023193,0.012505517871146895,[0.52175901],5.0,0.6,0.0,-5.0,2.5672581434932384,0.4817320621239355
0.7817859649658203,0.01563189733893362,[0.52258285],5.0,0.6,0.0,-5.0,2.543604876992177,0.4817320621239355
0.7897000312805176,0.018367479373247002,[0.52336256],5.0,0.6,0.0,-5.0,2.531620420082505,0.4817320621239355
0.8019404411315918,0.0236432447251371,[0.52409974],5.0,0.6,0.0,-5.0,2.511836403317362,0.4817320621239355
0.8107705116271973,0.026965022909660494,[0.52479698],5.0,0.6,0.0,-5.0,2.4929007562833054,0.4817320621239355
0.8191940784454346,0.030677598527657227,[0.52545541],5.0,0.6,0.0,-5.0,2.467777700291759,0.4817320621239355
0.8285884857177734,0.034390174145653964,[0.52607511],5.0,0.6,0.0,-5.0,2.4492518174980504,0.4817320621239355
0.8371608257293701,0.03771195233017736,[0.52665671],5.0,0.6,0.0,-5.0,2.432301011277165,0.4817320621239355
0.8483438491821289,0.04220612281512077,[0.52720158],5.0,0.6,0.0,-4.88691156874789,2.4122881404043683,0.4825346314749628
0.8567078113555908,0.04533250228290749,[0.52771098],5.0,0.6,0.0,-4.650273147591823,2.39208245045156,0.48415868536507023
0.8657429218292236,0.04884967918416756,[0.52818556],5.0,0.6,0.0,-4.363009651935224,2.3740046714354803,0.48602861455683066
0.8747780323028564,0.05275765351890097,[0.52862602],5.0,0.6,0.0,-4.061668830640997,2.353923637486492,0.48786909329700395
0.8836071491241455,0.05627483042016103,[0.52903338],5.0,0.6,0.0,-3.7643098405696493,2.335731319305479,0.48956230889889896
0.8934800624847412,0.06057360218836778,[0.52940869],5.0,0.6,0.0,-3.4795594901788336,2.3136504725267684,0.49106803693650203
0.9034006595611572,0.06448157652310119,[0.529753],5.0,0.6,0.0,-3.211216974457203,2.2935575844535796,0.49238242895952605
0.9120986461639404,0.06780335470762457,[0.53006735],5.0,0.6,0.0,-2.9606082557926734,2.275602229065242,0.4935175682191082
0.9213738441467285,0.07132053160888463,[0.53035279],5.0,0.6,0.0,-3.0038365369359,2.2582630759771054,0.49332816213431807
0.9309272766113281,0.07542390466035472,[0.53061055],5.0,0.6,0.0,-2.821382560478214,2.2377723649360846,0.494109397373765
0.9393942356109619,0.07874568284487811,[0.53084195],5.0,0.6,0.0,-2.5670685618742572,2.2210329865234284,0.4951185040887941
0.9481959342956543,0.08226285974613817,[0.53104837],5.0,0.6,0.0,-2.3071304731314015,2.2033457095887035,0.49605332555749093
0.9571073055267334,0.0859754353641349,[0.53123117],5.0,0.6,0.0,-2.0670840985474195,2.1846620992943038,0.4968293935517121
0.9668033123016357,0.08968801098213164,[0.53139174],5.0,0.6,0.0,-1.8542466579109405,2.1660541154579653,0.4974471187298917
0.9760520458221436,0.09359598531686505,[0.53153149],5.0,0.6,0.0,-1.3923202881529788,2.146229031449567,0.49855901846665196
0.9877469539642334,0.09789475708507178,[0.53165181],5.0,0.6,0.0,-1.1972838096926939,2.1246014726502445,0.49893404825175974
0.9964947700500488,0.10141193398633185,[0.53175409],5.0,0.6,0.0,-1.1108754014213733,2.106929381571529,0.49908222022346044
1.0064427852630615,0.10551530703780194,[0.53183971],5.0,0.6,0.0,-1.0625323245054394,2.0864421871234913,0.49916029634525183
1.0176451206207275,0.11000947752274534,[0.53191006],5.0,0.6,0.0,-1.02288108100586,2.0639670397392638,0.49922175066424446
1.0277466773986816,0.1143082492909521,[0.53196645],5.0,0.6,0.0,-0.9812877711591959,2.042324654404239,0.49928371116359993
1.037940263748169,0.11860702105915884,[0.53201017],5.0,0.6,0.0,-0.9351963915657227,2.020913561857498,0.49934937671092094
1.0473682880401611,0.12231959667715558,[0.53204246],5.0,0.6,0.0,-1.1612299986164416,2.0025778918874915,0.498997216219619
1.0549590587615967,0.1254459761449423,[0.53206458],5.0,0.6,0.0,-1.1419683463648236,1.9871975863925198,0.49903017521866183
1.0658059120178223,0.12974474791314905,[0.53207773],5.0,0.6,0.0,-1.033677714389362,1.9657933115640003,0.499205248060331
1.0767226219177246,0.1338481209646191,[0.53208302],5.0,0.6,0.0,-0.9048908384454454,1.9452532582127435,0.49939083580784405
1.0872323513031006,0.1379514940160892,[0.53208148],5.0,0.6,0.0,-0.7831149883117379,1.9247320837059838,0.49954369051153724
1.0972819328308105,0.14225026578429595,[0.5320741],5.0,0.6,0.0,-0.6773367201545882,1.9034093446002154,0.49965859678665236
1.1069180965423584,0.14615824011902934,[0.53206184],5.0,0.6,0.0,-0.5886795037017939,1.8839135458806013,0.4997420993264533
1.114755630493164,0.14948001830355273,[0.53204558],5.0,0.6,0.0,-0.5153159829794776,1.8673336699097123,0.49980236309074416
1.1238036155700684,0.15260639777133944,[0.53202612],5.0,0.6,0.0,-0.4546323094238818,1.851739339712667,0.4998461631252378
1.1341843605041504,0.15670977082280954,[0.53200422],5.0,0.6,0.0,-0.4041058569184298,1.8312719997907854,0.49987845302057365
1.146564245223999,0.16198553617469966,[0.53198055],5.0,0.6,0.0,-0.361600785284099,1.804993981782147,0.4999026752877162
1.1560254096984863,0.1660889092261697,[0.53195571],5.0,0.6,0.0,-0.3254153524774459,1.784382236637199,0.49992117780865125
1.1653101444244385,0.16980148484416643,[0.53193024],5.0,0.6,0.0,-0.2942350913767669,1.7657986124755811,0.4999355582103077
1.175621747970581,0.1741002566123732,[0.53190461],5.0,0.6,0.0,-0.26705992407811235,1.744380071731424,0.49994691143350656
1.1859238147735596,0.17820362966384326,[0.53187927],5.0,0.6,0.0,-0.24313295968142018,1.7238881204550844,0.4999559977277635
1.194303035736084,0.18172080656510334,[0.53185457],5.0,0.6,0.0,-0.22188044433842438,1.7061010188036108,0.49996335383377893
1.2047080993652344,0.18582417961657338,[0.5318308],5.0,0.6,0.0,-0.20286451417382018,1.6855969400308959,0.49996936591060803
1.2140493392944336,0.18953675523457011,[0.5318082],5.0,0.6,0.0,-0.185747416997807,1.6669919655812149,0.49997431734258263
1.2230629920959473,0.19324933085256688,[0.53178697],5.0,0.6,0.0,-0.1702650235036257,1.648388132737847,0.4999784202725749
1.2317495346069336,0.19676650775382695,[0.53176726],5.0,0.6,0.0,-0.15620747907684504,1.6307184729077617,0.4999818365576191
1.2407395839691162,0.20047908337182369,[0.53174919],5.0,0.6,0.0,-0.1434051797418739,1.612159844719124,0.4999846918973082
1.2487688064575195,0.2034100641228737,[0.53173283],5.0,0.6,0.0,-0.1317186440433305,1.5972849243563627,0.49998708539903386
1.2590065002441406,0.2075134371743438,[0.53171821],5.0,0.6,0.0,-0.12103120228983355,1.5768031927978456,0.4999890964709878
1.2686395645141602,0.21142141150907717,[0.53170534],5.0,0.6,0.0,-0.11124370829230468,1.5572663026580285,0.49999078923707024
1.2787086963653564,0.2155247845605473,[0.53169422],5.0,0.6,0.0,-0.10227069683224027,1.5367447161012882,0.49999221623194534
1.29020357131958,0.22021435376222737,[0.53168484],5.0,0.6,0.0,-0.09403757256473808,1.513454681939424,0.49999342100626354
1.2997348308563232,0.2239269293802241,[0.53167719],5.0,0.6,0.0,-0.08647853471322958,1.4947549300369043,0.49999443894119433
1.3087522983551025,0.22763950499822086,[0.53167121],5.0,0.6,0.0,-0.0795350274628456,1.47611212779751,0.49999530043575735
1.3185243606567383,0.23193827676642756,[0.53166682],5.0,0.6,0.0,-0.0731545671141191,1.4546417651894472,0.49999603202294524
1.3287544250488281,0.2360416498178977,[0.53166393],5.0,0.6,0.0,-0.06728984052861495,1.4340702807655608,0.49999665507887425
1.3414866924285889,0.2409266177363144,[0.53166246],5.0,0.6,0.0,-0.06189800017975079,1.4097698673030312,0.49999719344389576
1.3546652793884277,0.24600698437146784,[0.53166233],5.0,0.6,0.0,-0.05694010286319189,1.3844287616754225,0.4999976682628386
1.3647663593292236,0.25030575613967454,[0.53166346],5.0,0.6,0.0,-0.05238065445885653,1.3628310460324782,0.4999980906324357
1.3727097511291504,0.253627534324198,[0.53166574],5.0,0.6,0.0,-0.048187233947517935,1.3460722455846421,0.49999846440660384
1.3817248344421387,0.257144711225458,[0.53166905],5.0,0.6,0.0,-0.04433017750751839,1.3285796919766741,0.49999882157859576
1.389726161956787,0.2604664894099814,[0.53167327],5.0,0.6,0.0,-0.04078230889205305,1.3117972607966297,0.49999917047832115
1.398590326309204,0.2639836663112415,[0.53167829],5.0,0.6,0.0,-0.03751870608634812,1.2942056532942021,0.4999995487056342
1.407236099243164,0.2673054444957649,[0.53168396],5.0,0.6,0.0,-0.03451649693137718,1.2775285343680396,0.4999999621361068
1.4182186126708984,0.27160421626397163,[0.53169018],5.0,0.6,0.0,0.2442836813704492,1.2559651578815791,0.4999569120802758
1.427269697189331,0.2751213931652317,[0.53169686],5.0,0.6,0.0,0.003910648326461111,1.2384480677676617,0.5000019028477884
1.4369480609893799,0.2792247662167018,[0.5317039],5.0,0.6,0.0,-0.0819738505938159,1.217946848120395,0.49999790267809174
1.446251630783081,0.2831327405514352,[0.5317112],5.0,0.6,0.0,-0.10081130052420292,1.1984202873908814,0.49999672895362207
1.455700397491455,0.2868453161694319,[0.53171868],5.0,0.6,0.0,0.18276761009176845,1.179657973491339,0.49998132455488814
1.4647583961486816,0.29036249307069195,[0.53172626],5.0,0.6,0.0,0.23161302478695492,1.1620369297144801,0.4999687763144902
1.4733495712280273,0.29368427125521535,[0.53173386],5.0,0.6,0.0,0.19281426870606652,1.1453907264884025,0.4999842909690699
1.4820106029510498,0.2972014481564754,[0.53174145],5.0,0.6,0.0,0.1308520820661714,1.127827155630232,0.5000039259567794
1.4927854537963867,0.30169561864141886,[0.53174897],5.0,0.6,0.0,0.07163386126311205,1.1054187330809866,0.5000214750546965
1.5027177333831787,0.30560359297615225,[0.53175638],5.0,0.6,0.0,0.0236910530769276,1.085855161968006,0.500035689437586
1.5132455825805664,0.309902364744359,[0.53176365],5.0,0.6,0.0,-0.011796231328234357,1.0643826275671513,0.5000529352654158
1.5210866928100586,0.3130287442121457,[0.53177073],5.0,0.6,0.0,-0.31242705794152736,1.0489068049936632,0.49999716233944835
1.5297176837921143,0.3165459211134058,[0.53177761],5.0,0.6,0.0,-0.36152676371545467,1.0313487646022705,0.49999740192422737
1.5378837585449219,0.3198676992979292,[0.53178424],5.0,0.6,0.0,-0.31596618331741466,1.0148503811658407,0.5000513744978307
1.547290325164795,0.32358027491592595,[0.53179062],5.0,0.6,0.0,-0.24478990684785312,0.9963646452518538,0.5001270018580692
1.5557301044464111,0.32670665438371266,[0.53179675],5.0,0.6,0.0,-0.17595138989026413,0.9807200926355424,0.5001990533292323
1.5636720657348633,0.32983303385149937,[0.53180259],5.0,0.6,0.0,-0.11883353303886898,0.9650516995142875,0.5002758252703106
1.572347640991211,0.3331548120360227,[0.53180816],5.0,0.6,0.0,-0.07491611914690029,0.9485030712411187,0.500369308044365
1.5796642303466797,0.3360857927870728,[0.53181343],5.0,0.6,0.0,-0.04269456309761478,0.9338137660650524,0.5004690739712678
1.58868408203125,0.33999376712180623,[0.53181841],5.0,0.6,0.0,0.25618952551280366,0.9141745112452453,0.5005877644349337
1.5987167358398438,0.3439017414565396,[0.5318231],5.0,0.6,0.0,0.3050383387871073,0.894533979390283,0.5007870418297671
1.6072969436645508,0.3476143170745364,[0.5318275],5.0,0.6,0.0,0.26043405881568554,0.876006586317533,0.5010779755493192
1.6170427799224854,0.35171769012600645,[0.53183163],5.0,0.6,0.0,0.19108748730782227,0.85549835536032,0.5014940948711653
1.6246912479400635,0.35464867087705654,[0.5318355],5.0,0.6,0.0,0.12465669666407486,0.8407181729434055,0.501863642481637
1.6330277919769287,0.3581658477783165,[0.53183912],5.0,0.6,0.0,0.07029075732088264,0.8232073441527699,0.5023958545190174
1.6422514915466309,0.3616830246795766,[0.53184251],5.0,0.6,0.0,0.02929573948391507,0.8056731178019666,0.5030547455248892
1.652975082397461,0.3659817964477834,[0.53184568],5.0,0.6,0.0,4.3662887098679104e-05,0.7842356242622823,0.5040779317166447
1.6616871356964111,0.3698897707825168,[0.53184864],5.0,0.6,0.0,0.25616854364703406,0.7644069725073973,0.505218990607742
1.674044132232666,0.3747747387009336,[0.53185141],5.0,0.6,0.0,0.2764086951290249,0.7400256452886569,0.5071363506321788
1.6859667301177979,0.37926890918587697,[0.53185399],5.0,0.6,0.0,0.2135314306604542,0.7174842065838318,0.50946626775435
1.6965599060058594,0.383372282237347,[0.53185641],5.0,0.6,0.0,0.1332746613368426,0.6969630039959497,0.5121479485056853
1.7107558250427246,0.3892342437394471,[0.53185867],5.0,0.6,0.0,0.061071181685341876,0.6677317337634233,0.5171028880163887
1.7197508811950684,0.39275142064070717,[0.53186081],5.0,0.6,0.0,0.004446668261788609,0.6500361921814919,0.5208524280452548
1.7288239002227783,0.39646399625870393,[0.53186281],5.0,0.6,0.0,-0.31249448018363185,0.6316016769828369,0.5254913728583949
1.7391138076782227,0.40076276802691063,[0.53186469],5.0,0.6,0.0,-0.3732504734606069,0.610239803206122,0.5320398685150791
1.7496728897094727,0.40486614107838076,[0.53186646],5.0,0.6,0.0,-0.3354922023692066,0.5897517521097939,0.5396395642762827
1.7587032318115234,0.4087741154131142,[0.53186812],5.0,0.6,0.0,-0.2691605032301384,0.5702327902650659,0.5482410929990648
1.7674379348754883,0.41209589359763754,[0.53186968],5.0,0.6,0.0,-0.20300125705733246,0.553584090341858,0.5567163572604962
1.7747032642364502,0.4150268743486876,[0.53187114],5.0,0.6,0.0,-0.14703178242787807,0.5389205996586187,0.565169525772048
1.7836620807647705,0.4185440512499477,[0.53187251],5.0,0.6,0.0,-0.10321323302581133,0.5213959223679066,0.5766296419726189
1.794666051864624,0.42284282301815435,[0.5318738],5.0,0.6,0.0,-0.07039424713697642,0.49993339147318566,0.592773851504349
1.8051235675811768,0.42714159478636116,[0.53187502],5.0,0.6,0.0,0.22953036262599608,0.47830486093975444,0.611451052433493
1.8127074241638184,0.43026797425414787,[0.53187617],5.0,0.6,0.0,0.2796845833912477,0.46247330774374096,0.6267796932361736
1.8227877616882324,0.43437134730561794,[0.53187727],5.0,0.6,0.0,0.2365272219531837,0.4420004159292005,0.6493056398990928
1.8310768604278564,0.437888524206878,[0.53187831],5.0,0.6,0.0,0.1686851030554261,0.4243871438963847,0.6708550176075343
1.840277910232544,0.4414057011081381,[0.53187931],5.0,0.6,0.0,0.10376027360954926,0.4067417466801747,0.6945364239964847
1.8512852191925049,0.4457044728763448,[0.53188026],5.0,0.6,0.0,0.050865405678593364,0.3853183973630892,0.7264430614159136
1.8602607250213623,0.44922164977760487,[0.53188117],5.0,0.6,0.0,0.011283825394193883,0.3676614735231906,0.7549928757901521
1.8709359169006348,0.453911218979285,[0.53188204],5.0,0.6,0.0,-0.016625781918762107,0.34428647840431004,0.7964458788486524
1.8792390823364258,0.45742839588054507,[0.53188288],5.0,0.6,0.0,-0.03527467916236328,0.326631172222266,0.8299887080930874
1.8867449760437012,0.4605547753483318,[0.53188368],5.0,0.6,0.0,-0.04697504113744293,0.31099979228477387,0.8614732923142396
1.897108793258667,0.4646581483998018,[0.53188445],5.0,0.6,0.0,-0.053651205487160854,0.2904985471438952,0.9049950405596252
1.9047043323516846,0.46758912915085193,[0.53188519],5.0,0.6,0.0,-0.33283565218786637,0.275980466544258,0.9373658795350897
1.9136378765106201,0.47110630605211196,[0.5318859],5.0,0.6,0.0,-0.3666903334275517,0.25850327133765394,0.977571558343145
1.923990249633789,0.4754050778203187,[0.53188658],5.0,0.6,0.0,-0.31071615675207437,0.23712415438969783,1.028259301134542
1.9325652122497559,0.4787268560048421,[0.53188724],5.0,0.6,0.0,-0.23272358751523714,0.2204909065016999,1.0682031389733355
1.9406695365905762,0.4818532354726288,[0.53188789],5.0,0.6,0.0,-0.15966700097847825,0.20483223676248077,1.1060912979081805
1.9514760971069336,0.4863474059575722,[0.53188852],5.0,0.6,0.0,-0.10016454830134369,0.18242075235624172,1.1604658307218216
1.96242094039917,0.49045077900904227,[0.53188912],5.0,0.6,0.0,-0.055130018156137627,0.16192105782148958,1.2093327899275959
1.9718761444091797,0.4945541520605124,[0.53188971],5.0,0.6,0.0,-0.022649159575818024,0.14138530967708374,1.2566993147464938
1.9813697338104248,0.49846212639524584,[0.53189028],5.0,0.6,0.0,-0.00011015645484607761,0.12182477256974687,1.299724260728768
1.9927189350128174,0.5029562968801892,[0.53189082],5.0,0.6,0.0,0.01494648049274938,0.09939099440785025,1.3458260371896893
2.001885414123535,0.5066688724981859,[0.53189135],5.0,0.6,0.0,0.024553676746574785,0.08080624424783098,1.380526587102573
2.010183095932007,0.5099906506827093,[0.53189185],5.0,0.6,0.0,0.030286141687777185,0.06418154040296198,1.4085246280519974
2.0181472301483154,0.5133124288672327,[0.53189234],5.0,0.6,0.0,-0.24272001857140318,0.04773396356571842,1.4332430291671314
2.0274908542633057,0.5168296057684928,[0.53189282],5.0,0.6,0.0,-0.274657845794326,0.030243220042453448,1.455578057453365
2.037677526473999,0.5211283775366995,[0.53189327],5.0,0.6,0.0,-0.4956459481364397,0.00899172920545282,1.4769070828758035
2.0482468605041504,0.5250363518714329,[0.53189371],5.0,0.6,0.0,-1.0056111079228904,-0.010073148748505182,1.4898871986361237
2.0567173957824707,0.5277719339057463,[0.53189414],5.0,0.6,0.0,-1.2236278068732744,-0.023474340982569005,1.495493936351724
2.0661985874176025,0.5310937120902697,[0.53189454],5.0,0.6,0.0,-1.2915303949514025,-0.03962967983901807,1.4986315854645724
2.074953556060791,0.5334384966911098,[0.53189493],5.0,0.6,0.0,-1.8347731022117424,-0.05070185003105663,1.4970239207916411
2.083969831466675,0.5361740787254231,[0.53189532],5.0,0.6,0.0,-2.405841936242819,-0.06348857906999705,1.4920549987945564
2.0918514728546143,0.5387142620429999,[0.5318957],5.0,0.6,0.0,-2.8484976013930776,-0.07522696410122796,1.4847408419381556
2.1007955074310303,0.5410590466438399,[0.53189607],5.0,0.6,0.0,-3.68359439792601,-0.08568714979228219,1.4733488342027279
2.1135060787200928,0.5441854261116267,[0.53189643],5.0,0.6,0.0,-4.99426243400505,-0.09939849424153023,1.4520208801400876
2.123739242553711,0.5465302107124667,[0.53189677],5.0,0.6,0.0,-5.0,-0.10934281188035114,1.4398087115483058
2.132781744003296,0.5482887991630967,[0.53189711],5.0,0.6,0.0,-5.0,-0.116058838369193,1.4294128839563665
2.14372181892395,0.5502427863304634,[0.53189743],5.0,0.6,0.0,-5.0,-0.12390783325649976,1.4166369844535152
2.1530725955963135,0.5516105773476201,[0.53189774],5.0,0.6,0.0,-5.0,-0.12856186275477635,1.4069562590058031
2.161468267440796,0.5527829696480401,[0.53189805],5.0,0.6,0.0,-5.0,-0.1323532100958689,1.3981928655109797
2.170194149017334,0.5539553619484602,[0.53189836],5.0,0.6,0.0,-5.0,-0.1362908370358346,1.3890137457257448
2.17909836769104,0.5547369568154068,[0.53189865],5.0,0.6,0.0,-5.0,-0.138089307684116,1.3826711345888059
2.1883206367492676,0.5557139503990901,[0.53189893],5.0,0.6,0.0,-5.0,-0.14081552683236662,1.3744978346130061
2.1972501277923584,0.5563001465493002,[0.5318992],5.0,0.6,0.0,-4.989140364626818,-0.14167068519932388,1.3695455357300421
2.204660415649414,0.5566909439827735,[0.53189945],5.0,0.6,0.0,-5.0,-0.14139364285796555,1.3660632774074473
2.216238260269165,0.5568863426995102,[0.53189969],5.0,0.6,0.0,-4.779248598411088,-0.14023398591000108,1.3658975070691772
2.2247140407562256,0.5570817414162468,[0.53189991],5.0,0.6,0.0,-4.428957078462585,-0.1390294063829816,1.3664971393643746
2.2339553833007812,0.5572771401329836,[0.53190012],5.0,0.6,0.0,-4.326399903929614,-0.13779972984747782,1.3654098592283166
2.2440311908721924,0.5570817414162468,[0.53190032],5.0,0.6,0.0,-3.719105533577267,-0.1347747347347342,1.3707004832323175
2.2531251907348633,0.5568863426995102,[0.53190052],5.0,0.6,0.0,-3.0200424501350334,-0.1320073804494912,1.3758784443121634
2.2632124423980713,0.5566909439827735,[0.5319007],5.0,0.6,0.0,-2.9400880368876465,-0.12886324908394092,1.3779487239342247
2.272650718688965,0.5563001465493002,[0.53190088],5.0,0.6,0.0,-2.211281818481276,-0.12516252141546738,1.384123478484861
2.283493757247925,0.5557139503990901,[0.53190104],5.0,0.6,0.0,-1.3854831184891645,-0.12062545854612954,1.39135686114621
2.292952299118042,0.5551277542488802,[0.53190121],5.0,0.6,0.0,-0.39269043532439585,-0.1164299146176384,1.3976075693258105
2.3016459941864014,0.5545415580986702,[0.53190138],5.0,0.6,0.0,0.19391762616587294,-0.11214215991444383,1.4025361273392725
2.311756134033203,0.5537599632317235,[0.53190154],5.0,0.6,0.0,0.8119900559584887,-0.10708918724708727,1.4083749628559137
2.322308301925659,0.5527829696480401,[0.5319017],5.0,0.6,0.0,1.3130163700123652,-0.10104562776828004,1.4152070207305976
2.330692768096924,0.55219677349783,[0.53190185],5.0,0.6,0.0,1.3893642790093028,-0.09690172351521907,1.4194900407607602
2.339632272720337,0.5514151786308834,[0.531902],5.0,0.6,0.0,1.8498639868777171,-0.09201166381495109,1.4241337350353036
2.3496477603912354,0.5504381850472001,[0.53190215],5.0,0.6,0.0,2.048328901966566,-0.08616665850177625,1.4304773812704452
2.358619451522827,0.5494611914635167,[0.53190228],5.0,0.6,0.0,2.3761686927685814,-0.0804056682991222,1.4360141966125632
2.366643190383911,0.5486795965965701,[0.5319024],5.0,0.6,0.0,2.6548636089846394,-0.07573450959631657,1.4400410535117854
2.37561297416687,0.5477026030128868,[0.53190252],5.0,0.6,0.0,2.8329234781951387,-0.07012587578073412,1.4453587836260922
2.386131525039673,0.5465302107124667,[0.53190262],5.0,0.6,0.0,3.186790765060205,-0.0637211891371788,1.4506064318064045
2.3946261405944824,0.5455532171287834,[0.53190272],5.0,0.6,0.0,3.2157534070462708,-0.058193324822686486,1.455779718706974
2.40385365486145,0.5445762235450999,[0.53190282],5.0,0.6,0.0,3.3720431701980678,-0.05283644330957618,1.4599943409706857
2.4133739471435547,0.54340383124468,[0.53190292],5.0,0.6,0.0,3.49917269332402,-0.04657764303376572,1.4648606415064456
2.4209492206573486,0.5426222363777332,[0.53190302],5.0,0.6,0.0,3.5507679374478265,-0.042275501401397526,1.4679838996577004
2.4286091327667236,0.5416452427940499,[0.53190312],5.0,0.6,0.0,3.52562883210004,-0.03706005237450438,1.4720293810765297
2.4366579055786133,0.5406682492103666,[0.53190321],5.0,0.6,0.0,3.438250150253288,-0.031809479379072816,1.4760292749524835
2.446045160293579,0.5394958569099465,[0.5319033],5.0,0.6,0.0,3.5822116322003894,-0.025769899055535013,1.4790751561655928
2.453916311264038,0.5385188633262632,[0.53190338],5.0,0.6,0.0,3.4542870660540768,-0.020621606697857193,1.4824814306331953
2.4638559818267822,0.5373464710258432,[0.53190345],5.0,0.6,0.0,3.4977077748755208,-0.014656976219568015,1.4850676935175544
2.4722042083740234,0.5363694774421598,[0.53190352],5.0,0.6,0.0,3.546079234261999,-0.009654869496162595,1.4867454627702732
2.4801502227783203,0.5355878825752132,[0.53190358],5.0,0.6,0.0,3.5443013072358385,-0.005691325788520774,1.488024557315183
2.4895384311676025,0.5346108889915298,[0.53190365],5.0,0.6,0.0,3.4841814682329506,-0.0008204086995930401,1.489579754055509
2.4982166290283203,0.5338292941245831,[0.53190372],5.0,0.6,0.0,3.6509264850439846,0.002917771065556594,1.48943420433974
2.507493495941162,0.5328523005408997,[0.53190379],5.0,0.6,0.0,3.5391909547338107,0.007694056997209902,1.4905822205393475
2.5176820755004883,0.5320707056739531,[0.53190386],5.0,0.6,0.0,3.592582507231409,0.011441319870001741,1.490478435546666
2.5259900093078613,0.5316799082404797,[0.53190392],5.0,0.6,0.0,3.921927955010469,0.012969965701972409,1.4886700608175918
2.5367865562438965,0.5310937120902697,[0.53190399],5.0,0.6,0.0,4.230491786532025,0.01531187182453627,1.4867220436291815
2.546635627746582,0.5307029146567964,[0.53190405],5.0,0.6,0.0,4.422970908191164,0.01661964796827565,1.485359052332465
2.5546531677246094,0.530312117223323,[0.53190412],5.0,0.6,0.0,4.4884240692610895,0.017914561747865404,1.4847192452624745
2.5638785362243652,0.5301167185065864,[0.53190418],5.0,0.6,0.0,4.7227160412655405,0.01807969603512455,1.4830306933299453
2.5728554725646973,0.529725921073113,[0.53190424],5.0,0.6,0.0,4.634147683536203,0.019235487547978734,1.4833180499146628
2.5826470851898193,0.5295305223563763,[0.5319043],5.0,0.6,0.0,4.954913234756084,0.019147794431917293,1.4809277503519918
2.5913031101226807,0.5295305223563763,[0.53190435],5.0,0.6,0.0,4.735003171751405,0.018290726782029806,1.482459448033091
2.5989530086517334,0.5295305223563763,[0.53190439],5.0,0.6,0.0,4.601996794554969,0.01731969381892668,1.4833543384015853
2.608102798461914,0.5295305223563763,[0.53190444],5.0,0.6,0.0,4.190982294642765,0.016507915601268748,1.4859681138628091
2.6167068481445312,0.5293351236396396,[0.53190448],5.0,0.6,0.0,3.994288506342377,0.016526722199958585,1.4869440729597314
2.6288115978240967,0.5295305223563763,[0.53190452],5.0,0.6,0.0,3.5800079852032747,0.014818388779338191,1.4894233301496846
2.6369123458862305,0.5293351236396396,[0.53190456],5.0,0.6,0.0,3.1314177392840916,0.014941004041147682,1.4914340638130383
2.6456801891326904,0.5293351236396396,[0.5319046],5.0,0.6,0.0,2.4433965361602774,0.014417178490020046,1.4942559099327206
2.655400037765503,0.5293351236396396,[0.53190463],5.0,0.6,0.0,1.7796818349761945,0.013990524362869806,1.4963282326561347
2.663895606994629,0.5293351236396396,[0.53190465],5.0,0.6,0.0,1.2285434386219434,0.013576979309704766,1.497558098970028
2.6735129356384277,0.5295305223563763,[0.53190467],5.0,0.6,0.0,0.8036283864667456,0.012267037250126546,1.4983928035157572
2.683166980743408,0.5295305223563763,[0.53190469],5.0,0.6,0.0,0.2144092107368532,0.012081785017683186,1.4988390850170328
2.6957757472991943,0.5295305223563763,[0.5319047],5.0,0.6,0.0,-0.31833715992425693,0.0119685131423075,1.4987978561454947
2.7096405029296875,0.5295305223563763,[0.53190473],5.0,0.6,0.0,-0.7278574310085137,0.011929000770952653,1.49847905665791
2.719679117202759,0.5295305223563763,[0.53190475],5.0,0.6,0.0,-1.011155757350911,0.01192157647164626,1.498112720897966
2.7321157455444336,0.5295305223563763,[0.53190478],5.0,0.6,0.0,-1.1878500663931666,0.011878738954938867,1.4978239783802978
2.743345022201538,0.5295305223563763,[0.53190481],5.0,0.6,0.0,-1.2823917623500294,0.011899587780737983,1.497650494309271
2.755668878555298,0.5295305223563763,[0.53190485],5.0,0.6,0.0,-1.3171286935133917,0.011845787438596413,1.4975834122600151
2.766354560852051,0.529725921073113,[0.53190488],5.0,0.6,0.0,-1.310202929170047,0.010930056993067006,1.497774649674874
2.7775795459747314,0.529725921073113,[0.53190491],5.0,0.6,0.0,-1.2754552369487393,0.010872677949597054,1.4978413373635842
2.7856571674346924,0.529725921073113,[0.53190494],5.0,0.6,0.0,-1.2230454826293897,0.01088950362899698,1.49793856319309
2.794954776763916,0.529725921073113,[0.53190496],5.0,0.6,0.0,-1.1602298518435932,0.010884940775267103,1.4980497506877535
2.802635431289673,0.5299213197898497,[0.53190498],5.0,0.6,0.0,-0.8160373807841008,0.009769102691885074,1.498717867079398
2.8126723766326904,0.5299213197898497,[0.531905],5.0,0.6,0.0,-0.7128840477670495,0.009675405530729868,1.4988351519576915
2.820608615875244,0.5299213197898497,[0.53190501],5.0,0.6,0.0,-0.6983898418997032,0.009595569198481804,1.4988503532393356
2.8287243843078613,0.5299213197898497,[0.53190503],5.0,0.6,0.0,-0.7068170959865581,0.009588450891551113,1.4988415339111554
2.837643623352051,0.5299213197898497,[0.53190504],5.0,0.6,0.0,-0.7125420767503272,0.009607351496716715,1.498835481419595
2.848268508911133,0.5301167185065864,[0.53190505],5.0,0.6,0.0,-0.7077586742379416,0.008640899342044456,1.4989878296577186
2.856966972351074,0.5301167185065864,[0.53190507],5.0,0.6,0.0,-0.6920073146971322,0.008566895440879553,1.4990042175665534
2.8661627769470215,0.5301167185065864,[0.53190508],5.0,0.6,0.0,-0.6674129435295584,0.00858113307411096,1.4990290797399781
2.874889612197876,0.5301167185065864,[0.53190509],5.0,0.6,0.0,-0.6366350978176514,0.008611134862262546,1.4990589331399502
2.883622169494629,0.5301167185065864,[0.5319051],5.0,0.6,0.0,-0.602074342813919,0.008606988564679242,1.4990907784238532
2.893780469894409,0.530312117223323,[0.53190511],5.0,0.6,0.0,-0.5656371423551613,0.0076515760306024435,1.4992544952966231
2.9043633937835693,0.530312117223323,[0.53190512],5.0,0.6,0.0,-0.5287311488387872,0.007620648475290802,1.4992845379223083
2.9138832092285156,0.530312117223323,[0.53190514],5.0,0.6,0.0,-0.4923415689399065,0.007599044192192159,1.4993121769583033
2.9231767654418945,0.530312117223323,[0.53190515],5.0,0.6,0.0,-0.4571241955793677,0.007628546995484966,1.4993370521656348
2.932584285736084,0.530312117223323,[0.53190516],5.0,0.6,0.0,-0.4234900833157237,0.007639048527757828,1.499359086066739
2.9429819583892822,0.5305075159400596,[0.53190518],5.0,0.6,0.0,-0.3916743814555843,0.006662122494808677,1.4994952006985547
2.9546186923980713,0.5305075159400596,[0.5319052],5.0,0.6,0.0,-0.3617890985213328,0.006649782195690299,1.4995119475589833
2.9676687717437744,0.5305075159400596,[0.53190522],5.0,0.6,0.0,-0.33386214505646905,0.006647903659731218,1.4995263936298664
2.9785916805267334,0.5307029146567964,[0.53190525],5.0,0.6,0.0,-0.3078655490983945,0.005694354245374638,1.4996403707282657
2.99320650100708,0.5307029146567964,[0.53190528],5.0,0.6,0.0,-0.28373549490035954,0.0056540958774467945,1.499650981705688
3.000603437423706,0.5307029146567964,[0.5319053],5.0,0.6,0.0,-0.26138635150787937,0.0056449651390402785,1.4996600366773618
3.0096042156219482,0.5307029146567964,[0.53190532],5.0,0.6,0.0,-0.2407203624212647,0.005645139729596196,1.4996677508480696
3.017610549926758,0.5307029146567964,[0.53190534],5.0,0.6,0.0,-0.22163424259854048,0.005662311309866143,1.4996743137965616
3.027700424194336,0.5307029146567964,[0.53190534],5.0,0.6,0.0,-0.204023592533924,0.005663869735739505,1.4996798906895772
3.0357842445373535,0.5307029146567964,[0.53190534],5.0,0.6,0.0,-0.18778578413328834,0.005664845748408802,1.4996846253986114
3.0435879230499268,0.5307029146567964,[0.53190534],5.0,0.6,0.0,-0.1728217849349757,0.005665514632491757,1.4996886426743055
3.052603244781494,0.5307029146567964,[0.53190534],5.0,0.6,0.0,-0.4350756104069518,0.005836765980099489,1.4995699890696574
3.0606462955474854,0.5307029146567964,[0.53190533],5.0,0.6,0.0,-0.4555060815795209,0.005924172811234662,1.4995564517089481
3.0695765018463135,0.5307029146567964,[0.53190532],5.0,0.6,0.0,-0.3887215701659388,0.005967934589033431,1.4995984146981371
3.07914662361145,0.5307029146567964,[0.53190531],5.0,0.6,0.0,-0.30187823268620523,0.005989834415240322,1.4996430559185643
3.0901172161102295,0.5308983133735331,[0.5319053],5.0,0.6,0.0,-0.22145364854208577,0.005033563654415437,1.4997607093951484
3.098247766494751,0.5308983133735331,[0.53190529],5.0,0.6,0.0,-0.15571913017691172,0.00502935988126138,1.4997791691320217
3.110656261444092,0.5308983133735331,[0.53190528],5.0,0.6,0.0,-0.10533574191981825,0.005061735672502319,1.4997889635908663
3.119615316390991,0.5308983133735331,[0.53190528],5.0,0.6,0.0,-0.06820423242333669,0.005037498363237405,1.4997937617031492
3.1286232471466064,0.5308983133735331,[0.53190528],5.0,0.6,0.0,-0.0415763639030236,0.005024056772649137,1.4997959377627663
3.137625217437744,0.5308983133735331,[0.53190528],5.0,0.6,0.0,-0.022891046429059987,0.005014538878955912,1.4997968353378512
3.147578716278076,0.5308983133735331,[0.53190527],5.0,0.6,0.0,-0.010038748154925174,0.0050439031402820505,1.4997971525176537
3.1556262969970703,0.5308983133735331,[0.53190527],5.0,0.6,0.0,-0.00138615375736186,0.005024410216719587,1.4997972286500953
3.1643407344818115,0.5308983133735331,[0.53190526],5.0,0.6,0.0,0.004286776901496797,0.005027324442840615,1.499797219650259
3.173459529876709,0.5308983133735331,[0.53190525],5.0,0.6,0.0,0.007870957688491463,0.005029495220724035,1.4997971916375223
3.182905912399292,0.5308983133735331,[0.53190523],5.0,0.6,0.0,0.010007115174954999,0.005030984070075927,1.499797168570269
3.1926028728485107,0.5308983133735331,[0.53190522],5.0,0.6,0.0,0.011151053854120014,0.005031995215809333,1.499797156637432
3.2027599811553955,0.5308983133735331,[0.5319052],5.0,0.6,0.0,0.011624337082044058,0.00503267268283732,1.4997971552300293
3.2119431495666504,0.5308983133735331,[0.53190518],5.0,0.6,0.0,0.011652253396378483,0.005033117203664368,1.4997971617273334
3.2256851196289062,0.5308983133735331,[0.53190517],5.0,0.6,0.0,0.011391630424056907,0.005033399388204369,1.4997971733966986
3.236670970916748,0.5308983133735331,[0.53190515],5.0,0.6,0.0,0.010950916601084552,0.005033568831382621,1.4997971880160144
3.255784273147583,0.5308983133735331,[0.53190513],5.0,0.6,0.0,0.010404538151354382,0.005033660427802089,1.4997972039735645
3.268611431121826,0.5308983133735331,[0.53190511],5.0,0.6,0.0,0.009803093139440656,0.005033698764294199,1.4997972201834364
3.2783164978027344,0.5308983133735331,[0.53190509],5.0,0.6,0.0,0.009180554129094139,0.005033701183408121,1.499797235958279
3.2857091426849365,0.5308983133735331,[0.53190508],5.0,0.6,0.0,0.008559338613668997,0.005033679924641054,1.4997972508923214
3.300086259841919,0.5308983133735331,[0.53190506],5.0,0.6,0.0,0.007953868148175272,0.005033643623973904,1.499797264769537
3.311647891998291,0.5308983133735331,[0.53190505],5.0,0.6,0.0,0.0073730605594251805,0.005033598366013652,1.4997972774970079
3.321629762649536,0.5308983133735331,[0.53190503],5.0,0.6,0.0,0.006822071132135928,0.0050335484237019595,1.4997972890588451
3.3306212425231934,0.5307029146567964,[0.53190502],5.0,0.6,0.0,0.006303506290436415,0.006000720427373115,1.4997110009325705
3.3395802974700928,0.5308983133735331,[0.53190501],5.0,0.6,0.0,0.005818267409734462,0.005043117730215043,1.4997973088330936
3.348829507827759,0.5307029146567964,[0.531905],5.0,0.6,0.0,0.005366135666890284,0.006000716335485788,1.4997110204705215
3.3565807342529297,0.5308983133735331,[0.53190499],5.0,0.6,0.0,0.004946175825574014,0.005043022321074764,1.49979732457718
3.364600658416748,0.5307029146567964,[0.53190498],5.0,0.6,0.0,0.004557013596492937,0.006000625910032158,1.4997110359711934
3.3729407787323,0.5308983133735331,[0.53190497],5.0,0.6,0.0,0.004197024858919089,0.005042938739626527,1.4997973368899353
3.382329225540161,0.5308983133735331,[0.53190496],5.0,0.6,0.0,0.0038644635474425547,0.005033326019579623,1.499797341942296
3.392578363418579,0.5308983133735331,[0.53190495],5.0,0.6,0.0,0.0035575469537805953,0.00503319777669213,1.4997973463487222
3.4013419151306152,0.5307029146567964,[0.53190495],5.0,0.6,0.0,0.0032745115486053395,0.006000391690543736,1.4997110572618366
3.4104208946228027,0.5308983133735331,[0.53190494],5.0,0.6,0.0,0.0030136484745228284,0.0050428150614938005,1.4997973534674536
3.4206960201263428,0.5308983133735331,[0.53190494],5.0,0.6,0.0,0.002773325093433587,0.005033217728726069,1.4997973562905544
3.431903839111328,0.5308983133735331,[0.53190493],5.0,0.6,0.0,0.0025519970347739306,0.005033103335892733,1.4997973586896594
3.4397706985473633,0.5307029146567964,[0.53190493],5.0,0.6,0.0,0.0023482138366646512,0.006000310342128153,1.4997110690929896
3.448878049850464,0.5308983133735331,[0.53190493],5.0,0.6,0.0,0.0021606203252533757,0.0050427459536415056,1.4997973623930867
3.4582319259643555,0.5308983133735331,[0.53190493],5.0,0.6,0.0,0.0019879552162239645,0.005033159948015898,1.499797363777128
3.46732234954834,0.5308983133735331,[0.53190492],5.0,0.6,0.0,0.0018290479608824108,0.005033055938943975,1.4997973648970657
3.47554349899292,0.5308983133735331,[0.53190492],5.0,0.6,0.0,0.0016828145374126538,0.005033048731863152,1.4997973657848762
3.4845523834228516,0.5308983133735331,[0.53190492],5.0,0.6,0.0,0.0015482526638159173,0.0050330442524778975,1.4997973664697444
3.4925804138183594,0.5308983133735331,[0.53190492],5.0,0.6,0.0,0.0014244367532958812,0.005033041348112255,1.4997973669782432
3.5055675506591797,0.5308983133735331,[0.53190492],5.0,0.6,0.0,0.001310512824845799,0.005033039807193065,1.4997973673345024
3.5146067142486572,0.5308983133735331,[0.53190492],5.0,0.6,0.0,0.0012056935071296105,0.005037289970567246,1.4997973674049494
3.5249063968658447,0.5308983133735331,[0.53190492],5.0,0.6,0.0,0.0011092532223502564,0.0050275647861715905,1.4997973672352964
3.532634735107422,0.5308983133735331,[0.53190492],5.0,0.6,0.0,0.0010205236016164348,0.005012122907159011,1.4997973679548506
3.544391632080078,0.5308983133735331,[0.53190492],5.0,0.6,0.0,0.0009388891594253048,0.005073447951991176,1.4997973689525823
3.5545923709869385,0.5307029146567964,[0.53190492],5.0,0.6,0.0,0.0008637832388281323,0.006018497926269912,1.4997110760860988
3.563261032104492,0.5308983133735331,[0.53190493],5.0,0.6,0.0,0.0007946842282317378,0.005021442263123071,1.4997973629855803
3.5719070434570312,0.5308983133735331,[0.53190494],5.0,0.6,0.0,0.0007311120439301294,0.005017966783710819,1.4997973597715235
3.5815517902374268,0.5308983133735331,[0.53190495],5.0,0.6,0.0,0.0006726248681855863,0.005022464942329413,1.499797358641601
3.5911741256713867,0.5308983133735331,[0.53190494],5.0,0.6,0.0,0.0006188161301696545,0.005025665380673791,1.499797359289553
3.5990312099456787,0.5308983133735331,[0.53190494],5.0,0.6,0.0,0.0005693117157633263,0.005027885516404947,1.4997973614332194
3.606562376022339,0.5307029146567964,[0.53190493],5.0,0.6,0.0,0.0005237673917073333,0.005996640010809451,1.499711073237092
3.6155877113342285,0.5308983133735331,[0.53190492],5.0,0.6,0.0,0.0004818664296142985,0.005040135217026062,1.499797369199007
3.6249046325683594,0.5308983133735331,[0.53190491],5.0,0.6,0.0,0.00044331741571564164,0.005031266229447534,1.499797374375457
3.633577346801758,0.5308983133735331,[0.53190489],5.0,0.6,0.0,0.0004078522327877317,0.005031638319119761,1.4997973801548583
3.6415884494781494,0.5308983133735331,[0.53190488],5.0,0.6,0.0,0.0003752242013952515,0.00503193795277036,1.499797386369529
3.652212381362915,0.5308983133735331,[0.53190486],5.0,0.6,0.0,0.0003452063683450086,0.005032121656167237,1.49979739287199
3.660710573196411,0.5307029146567964,[0.53190484],5.0,0.6,0.0,0.0003175899310203724,0.005999447716559526,1.4997111146675173
3.6692683696746826,0.5308983133735331,[0.53190483],5.0,0.6,0.0,0.00029218278703881714,0.005041942581855436,1.4997974062441162
3.6775858402252197,0.5308983133735331,[0.53190481],5.0,0.6,0.0,0.0002688081994257642,0.005032375033168236,1.4997974129087484
3.685617446899414,0.5308983133735331,[0.53190479],5.0,0.6,0.0,0.00024730356821673987,0.005032261574108093,1.4997974194484942
3.6965882778167725,0.5308983133735331,[0.53190478],5.0,0.6,0.0,0.000227519300080926,0.005032226216913161,1.4997974257980085
3.7045836448669434,0.5308983133735331,[0.53190476],5.0,0.6,0.0,0.00020931776819952018,0.005032181482125714,1.4997974319044838
3.712984800338745,0.5308983133735331,[0.53190475],5.0,0.6,0.0,0.00019257235523110632,0.005032130947663406,1.4997974377264016
3.721628189086914,0.5308983133735331,[0.53190474],5.0,0.6,0.0,0.0001771665727539011,0.005032077795712844,1.499797443232328
3.731559991836548,0.5308983133735331,[0.53190472],5.0,0.6,0.0,0.00016299325109248735,0.005032024266949896,1.499797448399767
3.7415406703948975,0.5308983133735331,[0.53190471],5.0,0.6,0.0,0.0001499537939163172,0.005031971916697176,1.499797453214072
3.7495737075805664,0.5308983133735331,[0.5319047],5.0,0.6,0.0,0.000137957492440872,0.005031921803820604,1.4997974576674271
3.757539749145508,0.5307029146567964,[0.53190469],5.0,0.6,0.0,0.0001269208944721043,0.005999098273826588,1.4997111889535395
3.7665743827819824,0.5308983133735331,[0.53190468],5.0,0.6,0.0,0.00011676722391288746,0.005041503053456919,1.4997974654885222
3.7760119438171387,0.5308983133735331,[0.53190467],5.0,0.6,0.0,0.00010742584669884258,0.005031887339679394,1.4997974688665594
3.7838964462280273,0.5308983133735331,[0.53190466],5.0,0.6,0.0,9.883177945222526e-05,0.0050317550929396045,1.499797471902691
3.794058322906494,0.5308983133735331,[0.53190466],5.0,0.6,0.0,9.092523743855034e-05,0.005031721346782574,1.4997974746103808
3.8038454055786133,0.5308983133735331,[0.53190465],5.0,0.6,0.0,8.365121868321855e-05,0.0050316921709680435,1.499797477005266
3.8127787113189697,0.5307029146567964,[0.53190465],5.0,0.6,0.0,7.69591213563877e-05,0.005998890139882315,1.499711209665133
3.820707321166992,0.5308983133735331,[0.53190464],5.0,0.6,0.0,7.080239176535528e-05,0.00504131636387022,1.4997974809268766
3.8296773433685303,0.5308983133735331,[0.53190464],5.0,0.6,0.0,6.513820050636189e-05,0.005031721600170191,1.499797482491211
3.8409979343414307,0.5308983133735331,[0.53190464],5.0,0.6,0.0,5.992714452341749e-05,0.0050316094949353915,1.499797483817179
3.849529981613159,0.5308983133735331,[0.53190463],5.0,0.6,0.0,5.5132973001839174e-05,0.005031594862163352,1.499797484924404
3.8594257831573486,0.5307029146567964,[0.53190463],5.0,0.6,0.0,5.072233518989866e-05,0.005998807272149648,1.4997112176979681
3.870836019515991,0.5308983133735331,[0.53190463],5.0,0.6,0.0,4.6664548394451376e-05,0.005041246852547701,1.4997974865599146
3.8799185752868652,0.5308983133735331,[0.53190463],5.0,0.6,0.0,4.2931384536716474e-05,0.005031664328262526,1.4997974871256197
3.8890695571899414,0.5308983133735331,[0.53190463],5.0,0.6,0.0,3.9496873783453974e-05,0.005031563346006909,1.4997974875470925
3.8982975482940674,0.5308983133735331,[0.53190463],5.0,0.6,0.0,3.6337123887550095e-05,0.005031558738758132,1.4997974878411393
3.905545473098755,0.5308983133735331,[0.53190462],5.0,0.6,0.0,3.343015398128683e-05,0.005031556462009267,1.499797488023622
3.914581537246704,0.5308983133735331,[0.53190462],5.0,0.6,0.0,3.075574166610235e-05,0.005031555394151036,1.4997974881093992
3.9246017932891846,0.5308983133735331,[0.53190462],5.0,0.6,0.0,2.8295282335137077e-05,0.005031555355137518,1.4997974881122884
3.9335646629333496,0.5308983133735331,[0.53190462],5.0,0.6,0.0,2.6031659749952168e-05,0.005031556187036771,1.4997974880450475
3.9445760250091553,0.5308983133735331,[0.53190462],5.0,0.6,0.0,2.394912697109424e-05,0.005031557744956456,1.4997974879193738
3.9532251358032227,0.5308983133735331,[0.53190463],5.0,0.6,0.0,2.2033196814203495e-05,0.005031559896869909,1.4997974877459157
3.9626681804656982,0.5308983133735331,[0.53190463],5.0,0.6,0.0,2.0270541069624957e-05,0.005031562523368482,1.4997974875342965
3.9714691638946533,0.5307029146567964,[0.53190463],5.0,0.6,0.0,1.864889778444538e-05,0.005998789165127324,1.4997112194419864
3.9837000370025635,0.5308983133735331,[0.53190463],5.0,0.6,0.0,1.7156985961963017e-05,0.005041241019664822,1.499797487030155
3.9935522079467773,0.5307029146567964,[0.53190463],5.0,0.6,0.0,1.578442708519727e-05,0.005998892607058034,1.4997112187959152
4.002542018890381,0.5308983133735331,[0.53190463],5.0,0.6,0.0,1.452167291851541e-05,0.005041249008279432,1.4997974864648946
4.011156797409058,0.5308983133735331,[0.53190463],5.0,0.6,0.0,1.3359939085127942e-05,0.005031676154615981,1.499797486173688
4.019189119338989,0.5308983133735331,[0.53190463],5.0,0.6,0.0,1.2291143958383318e-05,0.005031584003561326,1.4997974858828655
4.0268800258636475,0.5308983133735331,[0.53190463],5.0,0.6,0.0,1.1307852441758583e-05,0.005031586609107005,1.4997974855961351
4.036491632461548,0.5308983133735331,[0.53190463],5.0,0.6,0.0,1.0403224246450043e-05,0.005031590073893684,1.4997974853165803
4.045472860336304,0.5308983133735331,[0.53190463],5.0,0.6,0.0,9.570966306756549e-06,0.005031593428041054,1.4997974850467148
4.054296255111694,0.5308983133735331,[0.53190463],5.0,0.6,0.0,8.805289002231785e-06,0.005031596637256001,1.4997974847885391
4.066260576248169,0.5308983133735331,[0.53190463],5.0,0.6,0.0,8.100865882064272e-06,0.005031599682260114,1.4997974845435935
4.076576232910156,0.5308983133735331,[0.53190463],5.0,0.6,0.0,7.452796611506848e-06,0.00503160254895537,1.4997974843130093
4.084534168243408,0.5308983133735331,[0.53190463],5.0,0.6,0.0,6.8565728825917e-06,0.005031605227729425,1.4997974840975568
4.09463095664978,0.5308983133735331,[0.53190463],5.0,0.6,0.0,6.308047051988158e-06,0.00503160771288844,1.4997974838976913
4.104038715362549,0.5308983133735331,[0.53190464],5.0,0.6,0.0,5.803403287831754e-06,0.005031610002124058,1.4997974837135963
4.113819599151611,0.5308983133735331,[0.53190464],5.0,0.6,0.0,5.339131024807058e-06,0.005031612096022968,1.4997974835452226
4.124678373336792,0.5308983133735331,[0.53190464],5.0,0.6,0.0,4.912000542823792e-06,0.005031613997611475,1.4997974833923244
4.134045839309692,0.5308983133735331,[0.53190464],5.0,0.6,0.0,4.519040499398793e-06,0.005031615711939399,1.4997974832544942
4.143333196640015,0.5307029146567964,[0.53190464],5.0,0.6,0.0,4.15751725944753e-06,0.005998840893550496,1.4997112144722753
4.153537273406982,0.5308983133735331,[0.53190464],5.0,0.6,0.0,3.824915878692178e-06,0.0050412908433857696,1.4997974830217713
4.166260480880737,0.5308983133735331,[0.53190464],5.0,0.6,0.0,3.5189226083971112e-06,0.005031716526916082,1.499797482925508
4.174537420272827,0.5308983133735331,[0.53190464],5.0,0.6,0.0,3.237408799725555e-06,0.005031621815590601,1.4997974828416183
4.18350887298584,0.5308983133735331,[0.53190464],5.0,0.6,0.0,2.9784160957476647e-06,0.00503162175824844,1.4997974827692788
4.192224502563477,0.5307029146567964,[0.53190464],5.0,0.6,0.0,2.740142808087963e-06,0.005998846163627248,1.4997112139665292
4.2012505531311035,0.5308983133735331,[0.53190464],5.0,0.6,0.0,2.520931383440999e-06,0.005041295396777341,1.4997974826558595
4.210308074951172,0.5308983133735331,[0.53190464],5.0,0.6,0.0,2.3192568727657697e-06,0.005031720415339434,1.4997974826130762
4.22271466255188,0.5308983133735331,[0.53190464],5.0,0.6,0.0,2.1337163229445422e-06,0.005031625091315751,1.499797482578459
4.23157525062561,0.5308983133735331,[0.53190464],5.0,0.6,0.0,1.963019017109006e-06,0.005031624473414036,1.4997974825511955
4.24411416053772,0.5308983133735331,[0.53190464],5.0,0.6,0.0,1.8059774957403036e-06,0.005031624721738682,1.499797482530504
4.253404855728149,0.5308983133735331,[0.53190464],5.0,0.6,0.0,1.6614992960810933e-06,0.005031624907070598,1.4997974825156384
4.261581659317017,0.5308983133735331,[0.53190464],5.0,0.6,0.0,1.5285793523946167e-06,0.00503162502880944,1.4997974825058917
4.269510746002197,0.5308983133735331,[0.53190464],5.0,0.6,0.0,1.4062930042030525e-06,0.005031625095114579,1.4997974825006002
4.2795329093933105,0.5308983133735331,[0.53190464],5.0,0.6,0.0,1.2937895638668126e-06,0.005031625113682868,1.4997974824991447
4.289371967315674,0.5307029146567964,[0.53190464],5.0,0.6,0.0,1.1902863987574705e-06,0.0059988487394892695,1.4997112137197242
4.297552108764648,0.5307029146567964,[0.53190464],5.0,0.6,0.0,1.095063486856875e-06,0.006008520919872435,1.4997112137251487
4.305563449859619,0.5308983133735331,[0.53190464],5.0,0.6,0.0,1.0074584079083256e-06,0.005041393910222866,1.4997974825122924
4.315507650375366,0.5308983133735331,[0.53190464],5.0,0.6,0.0,9.268617352756632e-07,0.0050317225341513444,1.4997974825209086
4.324017524719238,0.5308983133735331,[0.53190464],5.0,0.6,0.0,8.527127964536111e-07,0.005031625696873634,1.4997974825309508
4.333405256271362,0.5307029146567964,[0.53190464],5.0,0.6,0.0,7.844957727373214e-07,0.005998848239595931,1.4997112137688209
4.343111753463745,0.5307029146567964,[0.53190464],5.0,0.6,0.0,7.217361109183363e-07,0.006008520318851081,1.4997112137830115
4.350612640380859,0.5308983133735331,[0.53190464],5.0,0.6,0.0,6.639972220448701e-07,0.005041393239552333,1.4997974825663314
4.359512090682983,0.5308983133735331,[0.53190464],5.0,0.6,0.0,6.108774442812801e-07,0.0050317218133519095,1.4997974825789666
4.36759352684021,0.5307029146567964,[0.53190464],5.0,0.6,0.0,5.620072487387776e-07,0.00599884859086738,1.4997112138280304
4.377650737762451,0.5308983133735331,[0.53190464],5.0,0.6,0.0,5.170466688396751e-07,0.005041296056189225,1.4997974826042255
4.385984182357788,0.5307029146567964,[0.53190464],5.0,0.6,0.0,4.7568293533250145e-07,0.005998944027321957,1.4997112138577344
4.393844127655029,0.5307029146567964,[0.53190464],5.0,0.6,0.0,4.376283005059017e-07,0.006008520360366057,1.499711213871973
4.403761386871338,0.5307029146567964,[0.53190464],5.0,0.6,0.0,4.0261803646542984e-07,0.00600861598290407,1.4997112138856414
4.412861347198486,0.5308983133735331,[0.53190464],5.0,0.6,0.0,3.704085935481953e-07,0.005041393157282457,1.499797482650798
4.423947334289551,0.5308983133735331,[0.53190464],5.0,0.6,0.0,3.4077590606433976e-07,0.005031720802504798,1.4997974826610845
4.4325103759765625,0.5307029146567964,[0.53190464],5.0,0.6,0.0,3.135138335791925e-07,0.00599884760824584,1.4997112139224429
4.44114089012146,0.5307029146567964,[0.53190464],5.0,0.6,0.0,2.88432726892857e-07,0.006008518766015821,1.4997112139331497
4.450785398483276,0.5307029146567964,[0.53190464],5.0,0.6,0.0,2.653581087414286e-07,0.006008615375728654,1.4997112139430389
4.4585325717926025,0.5307029146567964,[0.53190464],5.0,0.6,0.0,2.441294600421143e-07,0.006008616248402713,1.4997112139521085
4.4674973487854,0.5307029146567964,[0.53190464],5.0,0.6,0.0,2.2459910323874488e-07,0.006008616172055855,1.4997112139603674
4.4789369106292725,0.5307029146567964,[0.53190464],5.0,0.6,0.0,2.0663117497964516e-07,0.006008616094381409,1.4997112139678341
4.488092660903931,0.5307029146567964,[0.53190464],5.0,0.6,0.0,1.9010068098127387e-07,0.006008616024592519,1.4997112139745339
4.496725082397461,0.5307029146567964,[0.53190464],5.0,0.6,0.0,1.7489262650277213e-07,0.006008615962455976,1.4997112139804982
4.504507541656494,0.5307029146567964,[0.53190464],5.0,0.6,0.0,1.6090121638255037e-07,0.006008615907597396,1.4997112139857638
4.513550043106079,0.5307029146567964,[0.53190464],5.0,0.6,0.0,1.480291190719464e-07,0.006008615859603612,1.4997112139903699
4.522557020187378,0.5307029146567964,[0.53190464],5.0,0.6,0.0,1.3618678954619067e-07,0.006008615818036891,1.4997112139943585
4.532412767410278,0.5307029146567964,[0.53190464],5.0,0.6,0.0,1.252918463824951e-07,0.0060086157824427635,1.4997112139977737
4.5406036376953125,0.5307029146567964,[0.53190464],5.0,0.6,0.0,1.1526849867189565e-07,0.006008615752361101,1.4997112140006594
4.549519777297974,0.5307029146567964,[0.53190464],5.0,0.6,0.0,1.0604701877814377e-07,0.006008615727330615,1.4997112140030602
4.558572292327881,0.5307029146567964,[0.53190464],5.0,0.6,0.0,9.756325727589236e-08,0.006008615706896056,1.4997112140050197
4.56792140007019,0.5308983133735331,[0.53190464],5.0,0.6,0.0,8.975819669382108e-08,0.005041392042766639,1.4997974827411866
4.575509071350098,0.5307029146567964,[0.53190464],5.0,0.6,0.0,8.257754095831541e-08,0.005998943441573296,1.4997112140077844
4.585840225219727,0.5307029146567964,[0.53190464],5.0,0.6,0.0,7.597133768165028e-08,0.0060085189464348125,1.4997112140086704
4.594538927078247,0.5307029146567964,[0.53190464],5.0,0.6,0.0,6.989363066711817e-08,0.00600861469524262,1.499711214009276
4.603857517242432,0.5307029146567964,[0.53190464],5.0,0.6,0.0,6.430214021374878e-08,0.006008615649011273,1.4997112140096374
4.613622188568115,0.5307029146567964,[0.53190464],5.0,0.6,0.0,5.9157968996648846e-08,0.006008615657009091,1.4997112140097868
4.623030662536621,0.5307029146567964,[0.53190464],5.0,0.6,0.0,5.442533147691688e-08,0.006008615657412761,1.4997112140097553
4.6367480754852295,0.5307029146567964,[0.53190464],5.0,0.6,0.0,5.007130495876354e-08,0.006008615659312232,1.4997112140095714
4.645040512084961,0.5307029146567964,[0.53190464],5.0,0.6,0.0,4.606560056206245e-08,0.0060086156625307665,1.4997112140092608
4.655593395233154,0.5307029146567964,[0.53190464],5.0,0.6,0.0,4.238035251709744e-08,0.006008615666824243,1.499711214008847
4.666562795639038,0.5307029146567964,[0.53190464],5.0,0.6,0.0,3.898992431572964e-08,0.006008615671971495,1.4997112140083515
4.676655530929565,0.5307029146567964,[0.53190464],5.0,0.6,0.0,3.587073037047128e-08,0.0060086156777735674,1.4997112140077933
4.684489011764526,0.5307029146567964,[0.53190464],5.0,0.6,0.0,3.3001071940833626e-08,0.00600861568405426,1.4997112140071893
4.695493698120117,0.5307029146567964,[0.53190464],5.0,0.6,0.0,3.036098618556696e-08,0.0060086156906584845,1.4997112140065543
4.705906629562378,0.5307029146567964,[0.53190464],5.0,0.6,0.0,2.793210729072155e-08,0.0060086156974505965,1.499711214005901
4.719401836395264,0.5307029146567964,[0.53190464],5.0,0.6,0.0,2.5697538707463836e-08,0.006008615704313832,1.4997112140052415
4.730531692504883,0.5307029146567964,[0.53190464],5.0,0.6,0.0,2.3641735610866697e-08,0.006008615711148102,1.4997112140045847
4.742136001586914,0.5307029146567964,[0.53190464],5.0,0.6,0.0,2.1750396761997368e-08,0.006008615717869424,1.4997112140039386
4.75410532951355,0.5307029146567964,[0.53190464],5.0,0.6,0.0,2.0010365021037588e-08,0.00600861572440826,1.4997112140033104
4.76256537437439,0.5307029146567964,[0.53190464],5.0,0.6,0.0,1.8409535819354602e-08,0.006008615730707312,1.4997112140027054
4.7704832553863525,0.5307029146567964,[0.53190464],5.0,0.6,0.0,1.693677295380625e-08,0.00600861573672314,1.4997112140021274
4.779481887817383,0.5307029146567964,[0.53190464],5.0,0.6,0.0,1.5581831117501753e-08,0.006008615742420689,1.49971121400158
4.788295269012451,0.5307029146567964,[0.53190464],5.0,0.6,0.0,1.4335284628101619e-08,0.006008615747775427,1.4997112140010658
4.7965662479400635,0.5307029146567964,[0.53190464],5.0,0.6,0.0,1.3188461857853482e-08,0.006008615752770621,1.4997112140005862
4.805480480194092,0.5307029146567964,[0.53190464],5.0,0.6,0.0,1.213338490922518e-08,0.0060086157573973125,1.4997112140001416
4.814696311950684,0.5307029146567964,[0.53190464],5.0,0.6,0.0,1.1162714116487186e-08,0.006008615761652113,1.499711213999733
4.82581090927124,0.5307029146567964,[0.53190464],5.0,0.6,0.0,1.0269696987168202e-08,0.0060086157655377375,1.49971121399936
4.834504842758179,0.5307029146567964,[0.53190464],5.0,0.6,0.0,9.448121228194751e-09,0.0060086157690608065,1.4997112139990219
4.843532085418701,0.5307029146567964,[0.53190464],5.0,0.6,0.0,8.692271529939172e-09,0.006008615772231279,1.4997112139987174
4.852649450302124,0.5307029146567964,[0.53190464],5.0,0.6,0.0,7.996889807544036e-09,0.006008615775062994,1.4997112139984456
4.862890720367432,0.5307029146567964,[0.53190464],5.0,0.6,0.0,7.357138622940503e-09,0.006008615777571477,1.499711213998205
4.8706464767456055,0.5307029146567964,[0.53190464],5.0,0.6,0.0,6.768567533105261e-09,0.00600861577977392,1.4997112139979936
4.878638505935669,0.5307029146567964,[0.53190464],5.0,0.6,0.0,6.227082130456851e-09,0.006008615781688631,1.4997112139978097
4.887562036514282,0.5307029146567964,[0.53190464],5.0,0.6,0.0,5.728915560020304e-09,0.006008615783335575,1.4997112139976516
4.896610498428345,0.5307029146567964,[0.53190464],5.0,0.6,0.0,5.270602315218686e-09,0.006008615784735288,1.4997112139975175
4.90554666519165,0.5307029146567964,[0.53190464],5.0,0.6,0.0,4.848954130001191e-09,0.006008615785907759,1.499711213997405
4.9156482219696045,0.5307029146567964,[0.53190464],5.0,0.6,0.0,4.461037799601085e-09,0.0060086157868729706,1.4997112139973123
4.926303148269653,0.5307029146567964,[0.53190464],5.0,0.6,0.0,4.104154775633003e-09,0.006008615787650358,1.4997112139972377
4.937182188034058,0.5307029146567964,[0.53190464],5.0,0.6,0.0,3.775822393582361e-09,0.006008615788258802,1.4997112139971795
4.948945760726929,0.5307029146567964,[0.53190464],5.0,0.6,0.0,3.4737566020957716e-09,0.006008615788716625,1.4997112139971356
4.959068775177002,0.5307029146567964,[0.53190464],5.0,0.6,0.0,3.195856073928109e-09,0.006008615789040498,1.4997112139971047
4.967180252075195,0.5307029146567964,[0.53190464],5.0,0.6,0.0,2.9401875880138597e-09,0.006008615789247074,1.499711213997085
4.9760589599609375,0.5307029146567964,[0.53190464],5.0,0.6,0.0,2.7049725809727486e-09,0.006008615789351908,1.499711213997075
4.986783266067505,0.5307029146567964,[0.53190464],5.0,0.6,0.0,2.48857477449493e-09,0.006008615789369443,1.4997112139970734
4.994475841522217,0.5307029146567964,[0.53190464],5.0,0.6,0.0,2.2894887925353395e-09,0.0060086157893124645,1.499711213997079
5.005856037139893,0.5307029146567964,[0.53190464],5.0,0.6,0.0,2.1063296891325123e-09,0.006008615789193189,1.4997112139970905
5.014541149139404,0.5307029146567964,[0.53190464],5.0,0.6,0.0,1.9378233140019092e-09,0.006008615789023282,1.4997112139971067
5.022869110107422,0.5307029146567964,[0.53190464],5.0,0.6,0.0,1.7827974488817603e-09,0.00600861578881275,1.4997112139971271
5.033531904220581,0.5307029146567964,[0.53190464],5.0,0.6,0.0,1.64017365297122e-09,0.006008615788570487,1.4997112139971505
5.0422163009643555,0.5307029146567964,[0.53190464],5.0,0.6,0.0,1.5089597607335226e-09,0.006008615788304274,1.499711213997176
5.053327322006226,0.5307029146567964,[0.53190464],5.0,0.6,0.0,1.388242979874839e-09,0.006008615788021337,1.499711213997203
5.062970161437988,0.5307029146567964,[0.53190464],5.0,0.6,0.0,1.2771835414848508e-09,0.006008615787727789,1.4997112139972315
5.072106122970581,0.5307029146567964,[0.53190464],5.0,0.6,0.0,1.1750088581660636e-09,0.0060086157874297405,1.4997112139972602
5.082530498504639,0.5307029146567964,[0.53190464],5.0,0.6,0.0,1.0810081495127782e-09,0.0060086157871316465,1.4997112139972888
5.090594530105591,0.5307029146567964,[0.53190464],5.0,0.6,0.0,9.945274975517566e-10,0.006008615786836848,1.4997112139973172
5.100978374481201,0.5307029146567964,[0.53190464],5.0,0.6,0.0,9.14965297747617e-10,0.006008615786548679,1.4997112139973447
5.112665176391602,0.5307029146567964,[0.53190464],5.0,0.6,0.0,8.41768073927808e-10,0.006008615786269918,1.4997112139973716
5.124068737030029,0.5307029146567964,[0.53190464],5.0,0.6,0.0,7.744266280135827e-10,0.006008615786002792,1.4997112139973972
5.132611274719238,0.5307029146567964,[0.53190464],5.0,0.6,0.0,7.12472497772496e-10,0.006008615785749521,1.4997112139974216
5.141517639160156,0.5307029146567964,[0.53190464],5.0,0.6,0.0,6.554746979506961e-10,0.0060086157855106775,1.4997112139974444
5.150493860244751,0.5307029146567964,[0.53190464],5.0,0.6,0.0,6.030367221146403e-10,0.006008615785287365,1.499711213997466
5.159454345703125,0.5307029146567964,[0.53190464],5.0,0.6,0.0,5.547937843454687e-10,0.006008615785079597,1.499711213997486
5.167696475982666,0.5307029146567964,[0.53190464],5.0,0.6,0.0,5.104102815978318e-10,0.00600861578488847,1.4997112139975042
5.176835775375366,0.5307029146567964,[0.53190464],5.0,0.6,0.0,4.695774590700046e-10,0.006008615784712898,1.499711213997521
5.185962677001953,0.5307029146567964,[0.53190464],5.0,0.6,0.0,4.320112623444045e-10,0.006008615784552868,1.4997112139975366
5.194625616073608,0.5307029146567964,[0.53190464],5.0,0.6,0.0,3.9745036135685254e-10,0.006008615784408382,1.4997112139975504
5.2037858963012695,0.5307029146567964,[0.53190464],5.0,0.6,0.0,3.656543324483043e-10,0.00600861578427944,1.4997112139975628
5.212924003601074,0.5307029146567964,[0.53190464],5.0,0.6,0.0,3.3640198585243976e-10,0.006008615784164941,1.4997112139975737
5.220489501953125,0.5307029146567964,[0.53190464],5.0,0.6,0.0,3.0948982698424466e-10,0.006008615784063776,1.4997112139975834
5.22952127456665,0.5307029146567964,[0.53190464],5.0,0.6,0.0,2.847306408255052e-10,0.006008615783975934,1.4997112139975919
5.240227460861206,0.5307029146567964,[0.53190464],5.0,0.6,0.0,2.6195218955946485e-10,0.0060086157839003155,1.4997112139975992
5.249573707580566,0.5307029146567964,[0.53190464],5.0,0.6,0.0,2.409960143947076e-10,0.00600861578383581,1.4997112139976054
5.257477521896362,0.5307029146567964,[0.53190464],5.0,0.6,0.0,2.2171633324313145e-10,0.006008615783781307,1.4997112139976105
5.265512228012085,0.5307029146567964,[0.53190464],5.0,0.6,0.0,2.0397902658368087e-10,0.006008615783736249,1.4997112139976148
5.273454904556274,0.5307029146567964,[0.53190464],5.0,0.6,0.0,1.8766070445698613e-10,0.006008615783699526,1.4997112139976183
5.282134532928467,0.5307029146567964,[0.53190464],5.0,0.6,0.0,1.7264784810042716e-10,0.006008615783670033,1.4997112139976212
5.2929298877716064,0.5307029146567964,[0.53190464],5.0,0.6,0.0,1.5883602025239312e-10,0.006008615783647755,1.4997112139976232
5.302195072174072,0.5307029146567964,[0.53190464],5.0,0.6,0.0,1.4612913863220165e-10,0.0060086157836315955,1.499711213997625
5.30945611000061,0.5307029146567964,[0.53190464],5.0,0.6,0.0,1.3443880754162558e-10,0.006008615783620993,1.4997112139976259
5.31800389289856,0.5307029146567964,[0.53190464],5.0,0.6,0.0,1.2368370293829556e-10,0.0060086157836153915,1.4997112139976263
5.3265955448150635,0.5307029146567964,[0.53190464],5.0,0.6,0.0,1.1378900670323203e-10,0.006008615783613136,1.4997112139976267
5.334643125534058,0.5307029146567964,[0.53190464],5.0,0.6,0.0,1.0468588616697317e-10,0.006008615783614213,1.4997112139976265
5.344598054885864,0.5307029146567964,[0.53190464],5.0,0.6,0.0,9.631101527361547e-11,0.00600861578361862,1.499711213997626
5.354482650756836,0.5307029146567964,[0.53190464],5.0,0.6,0.0,8.860613405172628e-11,0.006008615783625259,1.4997112139976254
5.364573955535889,0.5307029146567964,[0.53190464],5.0,0.6,0.0,8.151764332758819e-11,0.006008615783633569,1.4997112139976245
5.37349271774292,0.5307029146567964,[0.53190464],5.0,0.6,0.0,7.499623186138099e-11,0.006008615783643544,1.4997112139976236
5.382126331329346,0.5307029146567964,[0.53190464],5.0,0.6,0.0,6.899653331247063e-11,0.006008615783654635,1.4997112139976227
5.393041610717773,0.5307029146567964,[0.53190464],5.0,0.6,0.0,6.347681064747297e-11,0.006008615783666836,1.4997112139976214
5.40052056312561,0.5307029146567964,[0.53190464],5.0,0.6,0.0,5.839866579567516e-11,0.006008615783679598,1.49971121399762
5.410773754119873,0.5307029146567964,[0.53190464],5.0,0.6,0.0,5.372677253202115e-11,0.006008615783692915,1.499711213997619
5.420249700546265,0.5307029146567964,[0.53190464],5.0,0.6,0.0,4.942863072945932e-11,0.006008615783706238,1.4997112139976176
5.429511070251465,0.5307029146567964,[0.53190464],5.0,0.6,0.0,4.5474340271102646e-11,0.00600861578371956,1.4997112139976165
5.439874649047852,0.5307029146567964,[0.53190464],5.0,0.6,0.0,4.1836393049414445e-11,0.006008615783732883,1.4997112139976152
5.448940277099609,0.5307029146567964,[0.53190464],5.0,0.6,0.0,3.848948160546124e-11,0.006008615783745657,1.4997112139976139
5.456495761871338,0.5307029146567964,[0.53190464],5.0,0.6,0.0,3.5410323077024405e-11,0.006008615783757875,1.4997112139976128
5.466463327407837,0.5307029146567964,[0.53190464],5.0,0.6,0.0,3.2577497230862446e-11,0.006008615783769537,1.4997112139976116
5.474457502365112,0.5307029146567964,[0.53190464],5.0,0.6,0.0,2.9971297452393446e-11,0.006008615783780645,1.4997112139976105
5.487471580505371,0.5307029146567964,[0.53190464],5.0,0.6,0.0,2.757359365620193e-11,0.006008615783791198,1.4997112139976094
5.49697208404541,0.5307029146567964,[0.53190464],5.0,0.6,0.0,2.5367706163705818e-11,0.006008615783800646,1.4997112139976085
5.505633115768433,0.5307029146567964,[0.53190464],5.0,0.6,0.0,2.3338289670609357e-11,0.006008615783809534,1.4997112139976077
5.514433145523071,0.5307029146567964,[0.53190464],5.0,0.6,0.0,2.147122649696063e-11,0.006008615783817316,1.499711213997607
5.525388240814209,0.5307029146567964,[0.53190464],5.0,0.6,0.0,1.975352837720376e-11,0.0060086157838239885,1.4997112139976063
5.535912752151489,0.5307029146567964,[0.53190464],5.0,0.6,0.0,1.817324610702747e-11,0.006008615783829551,1.4997112139976059
5.5439817905426025,0.5307029146567964,[0.53190464],5.0,0.6,0.0,1.671938641846529e-11,0.006008615783834553,1.4997112139976054
5.554502487182617,0.5307029146567964,[0.53190464],5.0,0.6,0.0,1.538183550498806e-11,0.00600861578383845,1.499711213997605
5.563170909881592,0.5307029146567964,[0.53190464],5.0,0.6,0.0,1.4151288664589e-11,0.006008615783841786,1.4997112139976045
5.571525812149048,0.5307029146567964,[0.53190464],5.0,0.6,0.0,1.3019185571421888e-11,0.006008615783844567,1.4997112139976045
5.580500841140747,0.5307029146567964,[0.53190464],5.0,0.6,0.0,1.1977650725708138e-11,0.006008615783846793,1.499711213997604
5.58952522277832,0.5307029146567964,[0.53190464],5.0,0.6,0.0,1.1019438667651479e-11,0.006008615783849014,1.499711213997604
5.598744869232178,0.5307029146567964,[0.53190464],5.0,0.6,0.0,1.0137883574239366e-11,0.006008615783850685,1.4997112139976037
5.608321666717529,0.5307029146567964,[0.53190464],5.0,0.6,0.0,9.326852888300206e-12,0.0060086157838518004,1.4997112139976037
5.616518974304199,0.5307029146567964,[0.53190464],5.0,0.6,0.0,8.580704657236196e-12,0.006008615783852911,1.4997112139976037
5.626799821853638,0.5307029146567964,[0.53190464],5.0,0.6,0.0,7.894248284657295e-12,0.006008615783854021,1.4997112139976034
5.635836601257324,0.5307029146567964,[0.53190464],5.0,0.6,0.0,7.262708421884713e-12,0.006008615783854581,1.4997112139976034
5.644148588180542,0.5307029146567964,[0.53190464],5.0,0.6,0.0,6.68169174813395e-12,0.006008615783855137,1.4997112139976034
5.652305603027344,0.5307029146567964,[0.53190464],5.0,0.6,0.0,6.1471564082832325e-12,0.006008615783855142,1.4997112139976034
5.662755489349365,0.5307029146567964,[0.53190464],5.0,0.6,0.0,5.655383895620566e-12,0.006008615783855142,1.4997112139976034
5.67183780670166,0.5307029146567964,[0.53190464],5.0,0.6,0.0,5.202953183970928e-12,0.006008615783855142,1.4997112139976034
5.680609226226807,0.5307029146567964,[0.53190464],5.0,0.6,0.0,4.786716929253251e-12,0.006008615783855142,1.4997112139976034
5.6907641887664795,0.5307029146567964,[0.53190464],5.0,0.6,0.0,4.403779574912987e-12,0.006008615783855142,1.4997112139976034
5.698440790176392,0.5307029146567964,[0.53190464],5.0,0.6,0.0,4.051477208919952e-12,0.006008615783855142,1.4997112139976034
5.707457780838013,0.5307029146567964,[0.53190464],5.0,0.6,0.0,3.727359032206358e-12,0.006008615783855142,1.4997112139976034
5.715893983840942,0.5307029146567964,[0.53190464],5.0,0.6,0.0,3.429170309629846e-12,0.006008615783855142,1.4997112139976034
5.727854251861572,0.5307029146567964,[0.53190464],5.0,0.6,0.0,3.1548366848594545e-12,0.006008615783855142,1.4997112139976034
5.736104488372803,0.5307029146567964,[0.53190464],5.0,0.6,0.0,2.9024497500706996e-12,0.006008615783855142,1.4997112139976034
5.7434375286102295,0.5307029146567964,[0.53190464],5.0,0.6,0.0,2.6702537700650453e-12,0.006008615783855142,1.4997112139976034
5.754031181335449,0.5307029146567964,[0.53190464],5.0,0.6,0.0,2.4566334684598393e-12,0.006008615783855142,1.4997112139976034
5.762588739395142,0.5307029146567964,[0.53190464],5.0,0.6,0.0,2.2601027909830552e-12,0.006008615783855142,1.4997112139976034
5.771430492401123,0.5307029146567964,[0.53190464],5.0,0.6,0.0,2.079294567704413e-12,0.006008615783855142,1.4997112139976034
5.780606746673584,0.5307029146567964,[0.53190464],5.0,0.6,0.0,1.9129510022880583e-12,0.006008615783855142,1.4997112139976034
5.791687726974487,0.5307029146567964,[0.53190464],5.0,0.6,0.0,1.7599149221050148e-12,0.006008615783855142,1.4997112139976034
5.801053047180176,0.5307029146567964,[0.53190464],5.0,0.6,0.0,1.6191217283366138e-12,0.006008615783855142,1.4997112139976034
5.810453176498413,0.5307029146567964,[0.53190464],5.0,0.6,0.0,1.4895919900696833e-12,0.006008615783855142,1.4997112139976034
5.819705963134766,0.5307029146567964,[0.53190464],5.0,0.6,0.0,1.370424630864108e-12,0.006008615783855142,1.4997112139976034
5.830191612243652,0.5307029146567964,[0.53190464],5.0,0.6,0.0,1.2607906603949811e-12,0.006008615783855142,1.4997112139976034
5.838426828384399,0.5307029146567964,[0.53190464],5.0,0.6,0.0,1.1599274075633827e-12,0.006008615783855142,1.4997112139976034
5.847471237182617,0.5307029146567964,[0.53190464],5.0,0.6,0.0,1.0671332149583129e-12,0.006008615783855142,1.4997112139976034
5.856455564498901,0.5307029146567964,[0.53190464],5.0,0.6,0.0,9.817625577616476e-13,0.006008615783855142,1.4997112139976034
5.865464448928833,0.5307029146567964,[0.53190464],5.0,0.6,0.0,9.032215531407139e-13,0.006008615783855142,1.4997112139976034
5.874425649642944,0.5307029146567964,[0.53190464],5.0,0.6,0.0,8.309638288894585e-13,0.006008615783855142,1.4997112139976034
5.885151386260986,0.5307029146567964,[0.53190464],5.0,0.6,0.0,7.644867225783014e-13,0.006008615783855142,1.4997112139976034
5.8954386711120605,0.5307029146567964,[0.53190464],5.0,0.6,0.0,7.033277847720364e-13,0.006008615783855142,1.4997112139976034
5.904896259307861,0.5307029146567964,[0.53190464],5.0,0.6,0.0,6.470615619902735e-13,0.006008615783855142,1.4997112139976034
5.912417411804199,0.5307029146567964,[0.53190464],5.0,0.6,0.0,5.952966370310513e-13,0.006008615783855142,1.4997112139976034
5.921578645706177,0.5307029146567964,[0.53190464],5.0,0.6,0.0,5.476729060685673e-13,0.006008615783855142,1.4997112139976034
5.929400682449341,0.5307029146567964,[0.53190464],5.0,0.6,0.0,5.038590735830825e-13,0.006008615783855142,1.4997112139976034
5.938483953475952,0.5307029146567964,[0.53190464],5.0,0.6,0.0,4.635503476964366e-13,0.006008615783855142,1.4997112139976034
5.9499452114105225,0.5307029146567964,[0.53190464],5.0,0.6,0.0,4.2646631988072196e-13,0.006008615783855142,1.4997112139976034
5.959515571594238,0.5307029146567964,[0.53190464],5.0,0.6,0.0,3.923490142902644e-13,0.006008615783855142,1.4997112139976034
5.9688639640808105,0.5307029146567964,[0.53190464],5.0,0.6,0.0,3.609610931470428e-13,0.006008615783855142,1.4997112139976034
5.976408243179321,0.5307029146567964,[0.53190464],5.0,0.6,0.0,3.320842056952791e-13,0.006008615783855142,1.4997112139976034
5.9879772663116455,0.5307029146567964,[0.53190464],5.0,0.6,0.0,3.0551746923965674e-13,0.006008615783855142,1.4997112139976034
5.997488975524902,0.5307029146567964,[0.53190464],5.0,0.6,0.0,2.810760717004844e-13,0.006008615783855142,1.4997112139976034
6.007108211517334,0.5307029146567964,[0.53190464],5.0,0.6,0.0,2.585899859644453e-13,0.006008615783855142,1.4997112139976034
6.01595401763916,0.5307029146567964,[0.53190464],5.0,0.6,0.0,2.3790278708729e-13,0.006008615783855142,1.4997112139976034
6.024185419082642,0.5307029146567964,[0.53190464],5.0,0.6,0.0,2.1887056412030682e-13,0.006008615783855142,1.4997112139976034
6.033490180969238,0.5307029146567964,[0.53190464],5.0,0.6,0.0,2.0136091899068178e-13,0.006008615783855142,1.4997112139976034
6.042092800140381,0.5307029146567964,[0.53190464],5.0,0.6,0.0,1.8525204547142726e-13,0.006008615783855142,1.4997112139976034
6.049854755401611,0.5307029146567964,[0.53190464],5.0,0.6,0.0,1.704318818337135e-13,0.006008615783855142,1.4997112139976034
6.060746192932129,0.5307029146567964,[0.53190464],5.0,0.6,0.0,1.567973312870165e-13,0.006008615783855142,1.4997112139976034
6.072705268859863,0.5307029146567964,[0.53190464],5.0,0.6,0.0,1.4425354478405517e-13,0.006008615783855142,1.4997112139976034
6.08400559425354,0.5307029146567964,[0.53190464],5.0,0.6,0.0,1.327132612013307e-13,0.006008615783855142,1.4997112139976034
6.092442512512207,0.5307029146567964,[0.53190464],5.0,0.6,0.0,1.2209620030522415e-13,0.006008615783855142,1.4997112139976034
6.103573799133301,0.5307029146567964,[0.53190464],5.0,0.6,0.0,1.1232850428080624e-13,0.006008615783855142,1.4997112139976034
6.111410856246948,0.5307029146567964,[0.53190464],5.0,0.6,0.0,1.0334222393834184e-13,0.006008615783855142,1.4997112139976034
6.123027801513672,0.5307029146567964,[0.53190464],5.0,0.6,0.0,9.507484602327462e-14,0.006008615783855142,1.4997112139976034
6.131421327590942,0.5307029146567964,[0.53190464],5.0,0.6,0.0,8.746885834141262e-14,0.006008615783855142,1.4997112139976034
6.141003608703613,0.5307029146567964,[0.53190464],5.0,0.6,0.0,8.047134967409955e-14,0.006008615783855142,1.4997112139976034
6.150856256484985,0.5307029146567964,[0.53190464],5.0,0.6,0.0,7.403364170017162e-14,0.006008615783855142,1.4997112139976034
6.159444332122803,0.5307029146567964,[0.53190464],5.0,0.6,0.0,6.81109503641579e-14,0.006008615783855142,1.4997112139976034
6.16907525062561,0.5307029146567964,[0.53190464],5.0,0.6,0.0,6.266207433502521e-14,0.006008615783855142,1.4997112139976034
6.181016445159912,0.5307029146567964,[0.53190464],5.0,0.6,0.0,5.764910838822322e-14,0.006008615783855142,1.4997112139976034
6.189227342605591,0.5307029146567964,[0.53190464],5.0,0.6,0.0,5.303717971716542e-14,0.006008615783855142,1.4997112139976034
6.19959020614624,0.5307029146567964,[0.53190464],5.0,0.6,0.0,4.8794205339792236e-14,0.006008615783855142,1.4997112139976034
6.209465503692627,0.5307029146567964,[0.53190464],5.0,0.6,0.0,4.489066891260879e-14,0.006008615783855142,1.4997112139976034
6.219525575637817,0.5307029146567964,[0.53190464],5.0,0.6,0.0,4.129941539960004e-14,0.006008615783855142,1.4997112139976034
6.2309348583221436,0.5307029146567964,[0.53190464],5.0,0.6,0.0,3.7995462167631957e-14,0.006008615783855142,1.4997112139976034
6.2434093952178955,0.5307029146567964,[0.53190464],5.0,0.6,0.0,3.4955825194221434e-14,0.006008615783855142,1.4997112139976034
6.253041744232178,0.5307029146567964,[0.53190464],5.0,0.6,0.0,3.2159359178683736e-14,0.006008615783855142,1.4997112139976034
6.2628867626190186,0.5307029146567964,[0.53190464],5.0,0.6,0.0,2.9586610444389085e-14,0.006008615783855142,1.4997112139976034
6.27206826210022,0.5307029146567964,[0.53190464],5.0,0.6,0.0,2.7219681608837978e-14,0.006008615783855142,1.4997112139976034
6.280872344970703,0.5307029146567964,[0.53190464],5.0,0.6,0.0,2.50421070801309e-14,0.006008615783855142,1.4997112139976034
6.2895612716674805,0.5307029146567964,[0.53190464],5.0,0.6,0.0,2.3038738513720417e-14,0.006008615783855142,1.4997112139976034
6.29752254486084,0.5307029146567964,[0.53190464],5.0,0.6,0.0,2.119563943262281e-14,0.006008615783855142,1.4997112139976034
6.307486057281494,0.5307029146567964,[0.53190464],5.0,0.6,0.0,1.949998827801296e-14,0.006008615783855142,1.4997112139976034
6.317097425460815,0.5307029146567964,[0.53190464],5.0,0.6,0.0,1.7939989215771957e-14,0.006008615783855142,1.4997112139976034
6.325797080993652,0.5307029146567964,[0.53190464],5.0,0.6,0.0,1.65047900785102e-14,0.006008615783855142,1.4997112139976034
6.334889888763428,0.5307029146567964,[0.53190464],5.0,0.6,0.0,1.518440687222936e-14,0.006008615783855142,1.4997112139976034
6.342938184738159,0.5307029146567964,[0.53190464],5.0,0.6,0.0,1.3969654322451027e-14,0.006008615783855142,1.4997112139976034
6.351675271987915,0.5307029146567964,[0.53190464],5.0,0.6,0.0,1.2852081976654934e-14,0.006008615783855142,1.4997112139976034
6.359461784362793,0.5307029146567964,[0.53190464],5.0,0.6,0.0,1.1823915418522543e-14,0.006008615783855142,1.4997112139976034
6.3708155155181885,0.5307029146567964,[0.53190464],5.0,0.6,0.0,1.0878002185040749e-14,0.006008615783855142,1.4997112139976034
6.379616737365723,0.5307029146567964,[0.53190464],5.0,0.6,0.0,1.0007762010237507e-14,0.006008615783855142,1.4997112139976034
6.390584468841553,0.5307029146567964,[0.53190464],5.0,0.6,0.0,9.207141049418504e-15,0.006008615783855142,1.4997112139976034
6.399583101272583,0.5307029146567964,[0.53190464],5.0,0.6,0.0,8.470569765465015e-15,0.006008615783855142,1.4997112139976034
6.409478425979614,0.5307029146567964,[0.53190464],5.0,0.6,0.0,7.792924184227813e-15,0.006008615783855142,1.4997112139976034
6.418381690979004,0.5307029146567964,[0.53190464],5.0,0.6,0.0,7.169490249489586e-15,0.006008615783855142,1.4997112139976034
6.4302215576171875,0.5307029146567964,[0.53190464],5.0,0.6,0.0,6.595931029530418e-15,0.006008615783855142,1.4997112139976034
6.440828323364258,0.5307029146567964,[0.53190464],5.0,0.6,0.0,6.068256547167997e-15,0.006008615783855142,1.4997112139976034
6.450568914413452,0.5307029146567964,[0.53190464],5.0,0.6,0.0,5.5827960233945535e-15,0.006008615783855142,1.4997112139976034
6.458668231964111,0.5307029146567964,[0.53190464],5.0,0.6,0.0,5.136172341522987e-15,0.006008615783855142,1.4997112139976034
6.468385934829712,0.5307029146567964,[0.53190464],5.0,0.6,0.0,4.725278554201144e-15,0.006008615783855142,1.4997112139976034
6.478125095367432,0.5307029146567964,[0.53190464],5.0,0.6,0.0,4.347256269865058e-15,0.006008615783855142,1.4997112139976034
6.488272666931152,0.5307029146567964,[0.53190464],5.0,0.6,0.0,3.9994757682758475e-15,0.006008615783855142,1.4997112139976034
6.496809005737305,0.5307029146567964,[0.53190464],5.0,0.6,0.0,3.679517706813776e-15,0.006008615783855142,1.4997112139976034
6.504439353942871,0.5307029146567964,[0.53190464],5.0,0.6,0.0,3.3851562902686803e-15,0.006008615783855142,1.4997112139976034
6.513395547866821,0.5307029146567964,[0.53190464],5.0,0.6,0.0,3.1143437870471865e-15,0.006008615783855142,1.4997112139976034
6.5233752727508545,0.5307029146567964,[0.53190464],5.0,0.6,0.0,2.8651962840834075e-15,0.006008615783855142,1.4997112139976034
6.532432317733765,0.5307029146567964,[0.53190464],5.0,0.6,0.0,2.635980581356734e-15,0.006008615783855142,1.4997112139976034
6.542940855026245,0.5307029146567964,[0.53190464],5.0,0.6,0.0,2.425102134848196e-15,0.006008615783855142,1.4997112139976034
6.550492286682129,0.5307029146567964,[0.53190464],5.0,0.6,0.0,2.2310939640603395e-15,0.006008615783855142,1.4997112139976034
6.558514595031738,0.5307029146567964,[0.53190464],5.0,0.6,0.0,2.052606446935514e-15,0.006008615783855142,1.4997112139976034
6.569416046142578,0.5307029146567964,[0.53190464],5.0,0.6,0.0,1.8883979311806728e-15,0.006008615783855142,1.4997112139976034
6.578161716461182,0.5307029146567964,[0.53190464],5.0,0.6,0.0,1.7373260966862202e-15,0.006008615783855142,1.4997112139976034
6.587004899978638,0.5307029146567964,[0.53190464],5.0,0.6,0.0,1.5983400089513217e-15,0.006008615783855142,1.4997112139976034
6.59450626373291,0.5307029146567964,[0.53190464],5.0,0.6,0.0,1.4704728082352163e-15,0.006008615783855142,1.4997112139976034
6.603379249572754,0.5307029146567964,[0.53190464],5.0,0.6,0.0,1.352834983576401e-15,0.006008615783855142,1.4997112139976034
6.6117377281188965,0.5307029146567964,[0.53190464],5.0,0.6,0.0,1.244608184890289e-15,0.006008615783855142,1.4997112139976034
6.620124340057373,0.5307029146567964,[0.53190464],5.0,0.6,0.0,1.1450395300990644e-15,0.006008615783855142,1.4997112139976034
6.628332614898682,0.5307029146567964,[0.53190464],5.0,0.6,0.0,1.0534363676911397e-15,0.006008615783855142,1.4997112139976034
6.637220859527588,0.5307029146567964,[0.53190464],5.0,0.6,0.0,9.691614582758485e-16,0.006008615783855142,1.4997112139976034
6.646219730377197,0.5307029146567964,[0.53190464],5.0,0.6,0.0,8.916285416137812e-16,0.006008615783855142,1.4997112139976034
6.654736280441284,0.5307029146567964,[0.53190464],5.0,0.6,0.0,8.202982582846787e-16,0.006008615783855142,1.4997112139976034
6.664610147476196,0.5307029146567964,[0.53190464],5.0,0.6,0.0,7.546743976219038e-16,0.006008615783855142,1.4997112139976034
6.674209833145142,0.5307029146567964,[0.53190464],5.0,0.6,0.0,6.943004458121516e-16,0.006008615783855142,1.4997112139976034
6.682392120361328,0.5307029146567964,[0.53190464],5.0,0.6,0.0,6.387564101471803e-16,0.006008615783855142,1.4997112139976034
6.693406343460083,0.5307029146567964,[0.53190464],5.0,0.6,0.0,5.876558973354055e-16,0.006008615783855142,1.4997112139976034
6.7048070430755615,0.5307029146567964,[0.53190464],5.0,0.6,0.0,5.406434255485727e-16,0.006008615783855142,1.4997112139976034
6.717272520065308,0.5307029146567964,[0.53190464],5.0,0.6,0.0,4.973919515046879e-16,0.006008615783855142,1.4997112139976034
6.727728843688965,0.5307029146567964,[0.53190464],5.0,0.6,0.0,4.576005953843122e-16,0.006008615783855142,1.4997112139976034
6.7354230880737305,0.5307029146567964,[0.53190464],5.0,0.6,0.0,4.209925477535675e-16,0.006008615783855142,1.4997112139976034
6.744403839111328,0.5307029146567964,[0.53190464],5.0,0.6,0.0,3.873131439332814e-16,0.006008615783855142,1.4997112139976034
6.753382205963135,0.5307029146567964,[0.53190464],5.0,0.6,0.0,3.5632809241861935e-16,0.006008615783855142,1.4997112139976034
6.762407541275024,0.5307029146567964,[0.53190464],5.0,0.6,0.0,3.2782184502513023e-16,0.006008615783855142,1.4997112139976034
6.772512197494507,0.5307029146567964,[0.53190464],5.0,0.6,0.0,3.0159609742311976e-16,0.006008615783855142,1.4997112139976034
6.781712532043457,0.5307029146567964,[0.53190464],5.0,0.6,0.0,2.7746840962927003e-16,0.006008615783855142,1.4997112139976034
6.789747714996338,0.5307029146567964,[0.53190464],5.0,0.6,0.0,2.5527093685892803e-16,0.006008615783855142,1.4997112139976034
6.797415018081665,0.5307029146567964,[0.53190464],5.0,0.6,0.0,2.348492619102137e-16,0.006008615783855142,1.4997112139976034
6.806972026824951,0.5307029146567964,[0.53190464],5.0,0.6,0.0,2.160613209573967e-16,0.006008615783855142,1.4997112139976034
6.814363956451416,0.5307029146567964,[0.53190464],5.0,0.6,0.0,1.987764152808052e-16,0.006008615783855142,1.4997112139976034
6.822413206100464,0.5307029146567964,[0.53190464],5.0,0.6,0.0,1.828743020583406e-16,0.006008615783855142,1.4997112139976034
6.830881118774414,0.5307029146567964,[0.53190464],5.0,0.6,0.0,1.6824435789367362e-16,0.006008615783855142,1.4997112139976034
6.838351249694824,0.5307029146567964,[0.53190464],5.0,0.6,0.0,1.5478480926217977e-16,0.006008615783855142,1.4997112139976034
6.847857475280762,0.5307029146567964,[0.53190464],5.0,0.6,0.0,1.4240202452120547e-16,0.006008615783855142,1.4997112139976034
6.857011318206787,0.5307029146567964,[0.53190464],5.0,0.6,0.0,1.3100986255950891e-16,0.006008615783855142,1.4997112139976034
6.865415573120117,0.5307029146567964,[0.53190464],5.0,0.6,0.0,1.2052907355474823e-16,0.006008615783855142,1.4997112139976034
6.874351263046265,0.5307029146567964,[0.53190464],5.0,0.6,0.0,1.1088674767036813e-16,0.006008615783855142,1.4997112139976034
6.885748624801636,0.5307029146567964,[0.53190464],5.0,0.6,0.0,1.0201580785673872e-16,0.006008615783855142,1.4997112139976034
6.894527912139893,0.5307029146567964,[0.53190464],5.0,0.6,0.0,9.385454322819963e-17,0.006008615783855142,1.4997112139976034
6.9044904708862305,0.5307029146567964,[0.53190464],5.0,0.6,0.0,8.634617976994364e-17,0.006008615783855142,1.4997112139976034
6.913538455963135,0.5307029146567964,[0.53190464],5.0,0.6,0.0,7.943848538834808e-17,0.006008615783855142,1.4997112139976034
6.921366930007935,0.5307029146567964,[0.53190464],5.0,0.6,0.0,7.308340655728025e-17,0.006008615783855142,1.4997112139976034
6.929627180099487,0.5307029146567964,[0.53190464],5.0,0.6,0.0,6.723673403269788e-17,0.006008615783855142,1.4997112139976034
6.937605857849121,0.5307029146567964,[0.53190464],5.0,0.6,0.0,6.18577953100821e-17,0.006008615783855142,1.4997112139976034
6.945396423339844,0.5307029146567964,[0.53190464],5.0,0.6,0.0,5.690917168527556e-17,0.006008615783855142,1.4997112139976034
6.953610420227051,0.5307029146567964,[0.53190464],5.0,0.6,0.0,5.2356437950453575e-17,0.006008615783855142,1.4997112139976034
6.963404417037964,0.5307029146567964,[0.53190464],5.0,0.6,0.0,4.816792291441722e-17,0.006008615783855142,1.4997112139976034
6.973037481307983,0.5307029146567964,[0.53190464],5.0,0.6,0.0,4.4314489081263795e-17,0.006008615783855142,1.4997112139976034
6.981965780258179,0.5307029146567964,[0.53190464],5.0,0.6,0.0,4.076932995476269e-17,0.006008615783855142,1.4997112139976034
6.989396333694458,0.5307029146567964,[0.53190464],5.0,0.6,0.0,3.7507783558381646e-17,0.006008615783855142,1.4997112139976034
6.998426198959351,0.5307029146567964,[0.53190464],5.0,0.6,0.0,3.4507160873711134e-17,0.006008615783855142,1.4997112139976034
7.008525371551514,0.5307029146567964,[0.53190464],5.0,0.6,0.0,3.1746588003814296e-17,0.006008615783855142,1.4997112139976034
7.018064022064209,0.5307029146567964,[0.53190464],5.0,0.6,0.0,2.920686096350916e-17,0.006008615783855142,1.4997112139976034
7.02717137336731,0.5307029146567964,[0.53190464],5.0,0.6,0.0,2.6870312086428428e-17,0.006008615783855142,1.4997112139976034
7.037349224090576,0.5307029146567964,[0.53190464],5.0,0.6,0.0,2.4720687119514125e-17,0.006008615783855142,1.4997112139976034
7.048869609832764,0.5307029146567964,[0.53190464],5.0,0.6,0.0,2.2743032149953065e-17,0.006008615783855142,1.4997112139976034
7.057889938354492,0.5307029146567964,[0.53190464],5.0,0.6,0.0,2.09235895779568e-17,0.006008615783855142,1.4997112139976034
7.067988634109497,0.5307029146567964,[0.53190464],5.0,0.6,0.0,1.9249702411720255e-17,0.006008615783855142,1.4997112139976034
7.076192855834961,0.5307029146567964,[0.53190464],5.0,0.6,0.0,1.7709726218782625e-17,0.006008615783855142,1.4997112139976034
7.084392786026001,0.5307029146567964,[0.53190464],5.0,0.6,0.0,1.6292948121280017e-17,0.006008615783855142,1.4997112139976034
7.092379570007324,0.5307029146567964,[0.53190464],5.0,0.6,0.0,1.498951227157761e-17,0.006008615783855142,1.4997112139976034
7.101683855056763,0.5307029146567964,[0.53190464],5.0,0.6,0.0,1.3790351289851382e-17,0.006008615783855142,1.4997112139976034
7.111285924911499,0.5307029146567964,[0.53190464],5.0,0.6,0.0,1.2687123186663289e-17,0.006008615783855142,1.4997112139976034
7.120046854019165,0.5307029146567964,[0.53190464],5.0,0.6,0.0,1.1672153331730236e-17,0.006008615783855142,1.4997112139976034
7.1298322677612305,0.5307029146567964,[0.53190464],5.0,0.6,0.0,1.0738381065191801e-17,0.006008615783855142,1.4997112139976034
7.139025688171387,0.5307029146567964,[0.53190464],5.0,0.6,0.0,9.879310579976464e-18,0.006008615783855142,1.4997112139976034
7.1476335525512695,0.5305075159400596,[0.53190464],5.0,0.6,0.0,9.088965733578354e-18,0.006975839431702274,1.4996096862863373
7.157970666885376,0.5307029146567964,[0.53190464],5.0,0.6,0.0,8.361848474892081e-18,0.006018288020333614,1.4997112139976034
7.165756464004517,0.5305075159400596,[0.53190464],5.0,0.6,0.0,7.692900596900707e-18,0.006975936154067059,1.4996096862863373
7.174361705780029,0.5305075159400596,[0.53190464],5.0,0.6,0.0,7.077468549148648e-18,0.006985512635404393,1.4996096862863373
7.183378458023071,0.5305075159400596,[0.53190464],5.0,0.6,0.0,6.5112710652167755e-18,0.006985608400217767,1.4996096862863373
7.193375587463379,0.5305075159400596,[0.53190464],5.0,0.6,0.0,5.9903693799994355e-18,0.0069856093578659,1.4996096862863373
7.202024221420288,0.5305075159400596,[0.53190464],5.0,0.6,0.0,5.511139829599475e-18,0.0069856093674423815,1.4996096862863373
7.21083402633667,0.5305075159400596,[0.53190464],5.0,0.6,0.0,5.0702486432315136e-18,0.006985609367538147,1.4996096862863373
7.218415021896362,0.5305075159400596,[0.53190464],5.0,0.6,0.0,4.664628751772994e-18,0.0069856093675391044,1.4996096862863373
7.226860523223877,0.530312117223323,[0.53190464],5.0,0.6,0.0,4.291458451631149e-18,0.007952833015385146,1.4994929042504617
7.235651969909668,0.5305075159400596,[0.53190464],5.0,0.6,0.0,3.948141775500654e-18,0.006995281604017575,1.4996096862863373
7.245976686477661,0.530312117223323,[0.53190464],5.0,0.6,0.0,3.632290433460605e-18,0.007952929737749932,1.4994929042504617
7.254991292953491,0.530312117223323,[0.53190464],5.0,0.6,0.0,3.3417071987837635e-18,0.007962506219087255,1.4994929042504617
7.262778997421265,0.530312117223323,[0.53190464],5.0,0.6,0.0,3.0743706228810625e-18,0.007962601983900627,1.4994929042504617
7.270333290100098,0.530312117223323,[0.53190464],5.0,0.6,0.0,2.828420973050576e-18,0.007962602941548762,1.4994929042504617
7.278696298599243,0.530312117223323,[0.53190464],5.0,0.6,0.0,2.6021472952065272e-18,0.007962602951125244,1.4994929042504617
7.286721706390381,0.5301167185065864,[0.53190464],5.0,0.6,0.0,-0.276038359678681,0.009100625334118774,1.499304155237665
7.295358896255493,0.5301167185065864,[0.53190464],5.0,0.6,0.0,-0.3091629628401228,0.009197404925474302,1.49928972720476
7.306720733642578,0.5301167185065864,[0.53190464],5.0,0.6,0.0,-0.2540657062482581,0.009241072405150652,1.4993128249525343
7.3172876834869385,0.5301167185065864,[0.53190464],5.0,0.6,0.0,-0.17798070109330374,0.009262858921828815,1.4993372933225253
7.326671838760376,0.5301167185065864,[0.53190464],5.0,0.6,0.0,-0.10745802346735632,0.009273751707936295,1.4993522775510169
7.334372520446777,0.5301167185065864,[0.53190464],5.0,0.6,0.0,-0.05083622777307088,0.009279198096267718,1.4993589494719057
7.344357252120972,0.5301167185065864,[0.53190464],5.0,0.6,0.0,-0.008838622509418248,0.009281921290386208,1.4993608150854238
7.355462551116943,0.5299213197898497,[0.53190464],5.0,0.6,0.0,0.020576511905589966,0.010250506535291562,1.4992132841248387
7.364158630371094,0.5299213197898497,[0.53190464],5.0,0.6,0.0,0.04010429702561604,0.010260859570299409,1.499212402039979
7.372390508651733,0.5299213197898497,[0.53190464],5.0,0.6,0.0,0.052256824935545454,0.010261296691928885,1.4992115665118038
7.384810447692871,0.5299213197898497,[0.53190464],5.0,0.6,0.0,0.05909845782171048,0.01026146785878488,1.4992109993914227
7.392404079437256,0.529725921073113,[0.53190464],5.0,0.6,0.0,0.06222089076799152,0.01122877661611987,1.4990482072807294
7.402950048446655,0.529725921073113,[0.53190464],5.0,0.6,0.0,0.06280582838462088,0.011238491402603145,1.4990481528409276
7.411395311355591,0.529725921073113,[0.53190464],5.0,0.6,0.0,0.0617088844173273,0.01123860939992294,1.4990482545147814
7.4208056926727295,0.529725921073113,[0.53190464],5.0,0.6,0.0,0.05953828732078825,0.011238621004623618,1.4990484504241175
7.428327798843384,0.5295305223563763,[0.53190464],5.0,0.6,0.0,0.05671992791712514,0.012205849980880949,1.4988709554634503
7.438333988189697,0.529725921073113,[0.53190464],5.0,0.6,0.0,0.053547838202258446,0.011248301228978809,1.4990489547059367
7.449348211288452,0.5295305223563763,[0.53190464],5.0,0.6,0.0,0.050221970314581886,0.012205950692397305,1.498871472748089
7.458704948425293,0.5295305223563763,[0.53190464],5.0,0.6,0.0,0.046875837110144286,0.012215527838576958,1.4988717146046082
7.468718767166138,0.5293351236396396,[0.53190464],5.0,0.6,0.0,0.04359643373723078,0.01318284758365807,1.4986789759907555
7.47770094871521,0.529139724922903,[0.53190464],5.0,0.6,0.0,0.040438446806075064,0.014159744591841831,1.4984710022950616
7.486352205276489,0.5289443262061664,[0.53190464],5.0,0.6,0.0,-0.23860404755426887,0.015307536026264069,1.4982064677654043
7.495164394378662,0.5289443262061664,[0.53190464],5.0,0.6,0.0,-0.5506000308076952,0.015575212083906657,1.498023224261503
7.50453519821167,0.5287489274894297,[0.53190464],5.0,0.6,0.0,-0.5312822406181692,0.01667321156397885,1.4978002096293206
7.513456583023071,0.5283581300559563,[0.53190464],5.0,0.6,0.0,-0.6786147683072856,0.018853487125348515,1.4971449255174367
7.52242112159729,0.5281627313392196,[0.53190464],5.0,0.6,0.0,-0.8434721408727052,0.020130736399297865,1.4966742247261975
7.531717538833618,0.527967332622483,[0.53190464],5.0,0.6,0.0,-0.6964895873317125,0.021254843975128477,1.4965433504205308
7.541088581085205,0.5277719339057463,[0.53190464],5.0,0.6,0.0,-0.7447017473879425,0.022476163151406818,1.4961773192736705
7.549360752105713,0.5275765351890096,[0.53190464],5.0,0.6,0.0,-0.8376698738431403,0.02374782595240409,1.4957384486129826
7.558125257492065,0.5271857377555363,[0.53190464],5.0,0.6,0.0,-0.6412950792875184,0.025841102856800635,1.4952502510375194
7.567411422729492,0.5269903390387995,[0.53190464],5.0,0.6,0.0,-0.6574058938592136,0.027073114499089893,1.4948599661130766
7.578006744384766,0.5265995416053263,[0.53190464],5.0,0.6,0.0,-0.4549487893962898,0.02914180952390448,1.494232951813544
7.588975191116333,0.5264041428885896,[0.53190464],5.0,0.6,0.0,-0.21512027937941827,0.030190683928348748,1.4939327348435125
7.596916198730469,0.5262087441718529,[0.53190464],5.0,0.6,0.0,-0.006244150324830486,0.031198878223414547,1.4935323358733943
7.604359149932861,0.5260133454551164,[0.53190464],5.0,0.6,0.0,0.15305377734343198,0.03219142476579862,1.4930651335707068
7.612462759017944,0.5256225480216429,[0.53190464],5.0,0.6,0.0,-0.011754087098477431,0.034314216737761055,1.492138034108033
7.6204142570495605,0.5256225480216429,[0.53190464],5.0,0.6,0.0,0.026568886367963944,0.034424654262903115,1.4921376114770104
7.629709720611572,0.5254271493049063,[0.53190464],5.0,0.6,0.0,0.1226997980458561,0.03543758708871179,1.4916323324758718
7.63832688331604,0.5252317505881696,[0.53190464],5.0,0.6,0.0,0.2177075950324857,0.03643724246617206,1.4910987707872403
7.649522066116333,0.5246455544379596,[0.53190464],5.0,0.6,0.0,0.29168977652067796,0.03936006116416422,1.4894531491376504
7.658469915390015,0.5244501557212229,[0.53190464],5.0,0.6,0.0,0.3413448180173725,0.040362088599329625,1.488860942875125
7.667918682098389,0.5242547570044862,[0.53190464],5.0,0.6,0.0,0.36963592473622187,0.04134212032169731,1.4882623940394812
7.677026271820068,0.5240593582877495,[0.53190464],5.0,0.6,0.0,0.3812369030831837,0.0423205381868523,1.487657591404669
7.685720443725586,0.5236685608542763,[0.53190464],5.0,0.6,0.0,0.38068463137148256,0.04426546661123883,1.4864171512550952
7.694337368011475,0.5234731621375396,[0.53190464],5.0,0.6,0.0,0.3717557291896575,0.045252488018350454,1.4857797740986176
7.704752206802368,0.5230823647040662,[0.53190464],5.0,0.6,0.0,0.35736497466072026,0.04719697976562533,1.4844589730263522
7.715342283248901,0.5228869659873295,[0.53190464],5.0,0.6,0.0,0.33966136734058644,0.048183735449699956,1.4837819845573188
7.724381685256958,0.5226915672705928,[0.53190464],5.0,0.6,0.0,0.3201787704044254,0.04916087021376493,1.4830908428678735
7.733125686645508,0.5223007698371195,[0.53190464],5.0,0.6,0.0,0.2999828869849166,0.05110511063678757,1.4816552619135392
7.742299318313599,0.5221053711203829,[0.53190464],5.0,0.6,0.0,0.2797947485236604,0.05209178757870824,1.4809198458572022
7.751007795333862,0.5219099724036462,[0.53190464],5.0,0.6,0.0,0.2600873132643173,0.05306888344089624,1.4801692310393246
7.7584388256073,0.5217145736869095,[0.53190464],5.0,0.6,0.0,0.24115802937609124,0.0540458807698258,1.4794033873105819
7.768341064453125,0.5215191749701729,[0.53190464],5.0,0.6,0.0,0.49922033749429384,0.054852077017141045,1.478473948772483
7.776996850967407,0.5213237762534362,[0.53190464],5.0,0.6,0.0,0.515413095967499,0.05574196394055046,1.477660178590894
7.785386323928833,0.5211283775366995,[0.53190464],5.0,0.6,0.0,0.44446227819349715,0.05667538711417598,1.4768950478700422
7.79467511177063,0.5209329788199628,[0.53190464],5.0,0.6,0.0,0.35359833690662923,0.05763059532203124,1.4761189767441267
7.802401781082153,0.5207375801032261,[0.53190464],5.0,0.6,0.0,0.5453816983289304,0.0584258974810414,1.4751464460850716
7.810802221298218,0.5205421813864896,[0.53190464],5.0,0.6,0.0,0.5091557124947141,0.059310337365020054,1.4743164892940517
7.821342945098877,0.5201513839530162,[0.53190464],5.0,0.6,0.0,0.40028378560246525,0.061208260666824256,1.4726311028019883
7.83098030090332,0.5199559852362795,[0.53190464],5.0,0.6,0.0,0.2839021263718257,0.06217177935132451,1.4717897594428944
7.839680194854736,0.5197605865195428,[0.53190464],5.0,0.6,0.0,0.18380802306558522,0.06313729608783392,1.470910004045138
7.848322629928589,0.5195651878028061,[0.53190464],5.0,0.6,0.0,0.10577069611840109,0.06410850385395449,1.4699982702613403
7.856379508972168,0.5195651878028061,[0.53190464],5.0,0.6,0.0,0.048393494925379185,0.06411538040707015,1.470004854797239
7.864638566970825,0.5193697890860695,[0.53190464],5.0,0.6,0.0,0.28402816019143984,0.06491045632312394,1.4690040824211141
7.87334418296814,0.5191743903693328,[0.53190464],5.0,0.6,0.0,0.28979536245580206,0.06579952248146907,1.4680452825988772
7.885373115539551,0.5191743903693328,[0.53190464],5.0,0.6,0.0,0.49301028853259893,0.06559456028367036,1.4679268938302452
7.894322395324707,0.5189789916525962,[0.53190464],5.0,0.6,0.0,0.4392380625813349,0.06645280787984731,1.4669940344722279
7.904334306716919,0.5189789916525962,[0.53190464],5.0,0.6,0.0,0.5837001995354815,0.06623712840591235,1.4668840737418747
7.9133429527282715,0.5189789916525962,[0.53190464],5.0,0.6,0.0,0.48150323325077476,0.06612284063622464,1.466965075069591
7.923299074172974,0.5189789916525962,[0.53190464],5.0,0.6,0.0,0.5895597801969247,0.06589483353600241,1.4668789587499331
7.932372570037842,0.5189789916525962,[0.53190464],5.0,0.6,0.0,0.7377124971212763,0.06560832261868631,1.4667326777193925
7.941391944885254,0.5189789916525962,[0.53190464],5.0,0.6,0.0,0.5857362549188478,0.06546334208635622,1.4668823021983468
7.949590682983398,0.5189789916525962,[0.53190464],5.0,0.6,0.0,0.6350034985157127,0.06522003583440326,1.4668375569675782
7.958397150039673,0.5189789916525962,[0.53190464],5.0,0.6,0.0,0.4560519665956747,0.0650966745485689,1.4669828321160723
7.96875524520874,0.5189789916525962,[0.53190464],5.0,0.6,0.0,0.508180516103536,0.06486417808900197,1.4669454285210104
7.977189302444458,0.5189789916525962,[0.53190464],5.0,0.6,0.0,0.3426759015527622,0.064746221701052,1.4670502261871259
7.986351490020752,0.5189789916525962,[0.53190464],5.0,0.6,0.0,0.1344271741211225,0.06468722642549535,1.467124179467577
7.995506763458252,0.5189789916525962,[0.53190464],5.0,0.6,0.0,-0.04963102553559724,0.06465772861690121,1.467135797466553
8.003937244415283,0.5189789916525962,[0.53190464],5.0,0.6,0.0,-0.19033324500759147,0.06464297971089598,1.4671106646189522
8.013002395629883,0.5189789916525962,[0.53190464],5.0,0.6,0.0,-0.28805741822033115,0.06463560525787629,1.4670758667348052
8.021256446838379,0.5189789916525962,[0.53190464],5.0,0.6,0.0,-0.34991837860852865,0.06463191803136627,1.467046492867643
8.032860040664673,0.5189789916525962,[0.53190464],5.0,0.6,0.0,-0.3842787814501624,0.06463007441811125,1.4670277174200992
8.040660858154297,0.5189789916525962,[0.53190464],5.0,0.6,0.0,-0.3986441828444909,0.06462915261148375,1.4670193470558728
8.05191445350647,0.5189789916525962,[0.53190464],5.0,0.6,0.0,-0.39905803731373024,0.06462869170817,1.467019101363165
8.061044931411743,0.5189789916525962,[0.53190464],5.0,0.6,0.0,-0.3901121648761699,0.06462846125651311,1.467024355475714
8.069299459457397,0.5189789916525962,[0.53190464],5.0,0.6,0.0,-0.3751708301592449,0.06462834603068468,1.4670328653555764
8.078330993652344,0.5189789916525962,[0.53190464],5.0,0.6,0.0,-0.3566357602226669,0.06462828841777046,1.4670429604549384
8.087141275405884,0.5189789916525962,[0.53190464],5.0,0.6,0.0,-0.3361855417106394,0.06462825961131335,1.467053505494255
8.09535527229309,0.5189789916525962,[0.53190464],5.0,0.6,0.0,-0.31496996037407465,0.0646282452080848,1.4670637874970096
8.105468511581421,0.5189789916525962,[0.53190464],5.0,0.6,0.0,-0.2937592531374671,0.06462823800647052,1.4670733975547958
8.114936113357544,0.5189789916525962,[0.53190464],5.0,0.6,0.0,-0.2730550386983517,0.06462823440566337,1.4670821323800776
8.12582778930664,0.5189789916525962,[0.53190464],5.0,0.6,0.0,-0.2531710552190805,0.06462823260525981,1.467089920589536
8.13736891746521,0.5191743903693328,[0.53190464],5.0,0.6,0.0,-0.23429109030731227,0.063661008057212,1.468066934255187
8.145427942276001,0.5191743903693328,[0.53190464],5.0,0.6,0.0,-0.21651011962382744,0.06365133537063264,1.4680729006819417
8.154735803604126,0.5193697890860695,[0.53190464],5.0,0.6,0.0,-0.1998632880762265,0.06268401477537083,1.4690343966479467
8.162646055221558,0.5193697890860695,[0.53190464],5.0,0.6,0.0,0.09169217181117173,0.06250354272409231,1.4690578726172856
8.170809507369995,0.5193697890860695,[0.53190464],5.0,0.6,0.0,0.13923400690496346,0.06241633858091658,1.4690497002702527
8.17886734008789,0.5195651878028061,[0.53190464],5.0,0.6,0.0,0.0974996980645344,0.06140554318030676,1.469999521764739
8.188157081604004,0.5195651878028061,[0.53190464],5.0,0.6,0.0,0.30981635285887393,0.06120328663558374,1.4699351510756113
8.1972017288208,0.5195651878028061,[0.53190464],5.0,0.6,0.0,0.2838410976196971,0.061105189774778045,1.4699466285238914
8.205317258834839,0.5199559852362795,[0.53190464],5.0,0.6,0.0,0.18266505267373548,0.05912172436279759,1.4718249173973486
8.215830564498901,0.5199559852362795,[0.53190464],5.0,0.6,0.0,0.35034418102851755,0.05890707239978699,1.4717583946850465
8.226330757141113,0.5201513839530162,[0.53190464],5.0,0.6,0.0,0.2924931509477077,0.0578402935778649,1.4726866806424543
8.23429822921753,0.5205421813864896,[0.53190464],5.0,0.6,0.0,0.44554154743329977,0.05567567543167863,1.4743616830252801
8.242304563522339,0.5207375801032261,[0.53190464],5.0,0.6,0.0,0.3560355056931299,0.054577054071233796,1.4752734601910977
8.251577377319336,0.5211283775366995,[0.53190464],5.0,0.6,0.0,0.4771990163852604,0.05240594606131653,1.47687259478887
8.260356903076172,0.5213237762534362,[0.53190464],5.0,0.6,0.0,0.6374506677324636,0.05113337534800976,1.4775554992512228
8.268760204315186,0.5215191749701729,[0.53190464],5.0,0.6,0.0,0.49615311892316044,0.05001160800034961,1.4784762206101814
8.277552366256714,0.5217145736869095,[0.53190464],5.0,0.6,0.0,0.554687784188834,0.04879145894763499,1.479217694065386
8.28648853302002,0.5221053711203829,[0.53190464],5.0,0.6,0.0,0.38375222289722455,0.04672395629571895,1.480868505232524
8.295816421508789,0.5224961685538563,[0.53190464],5.0,0.6,0.0,0.4428383383034906,0.04453760830560759,1.482305973864983
8.306692123413086,0.5228869659873295,[0.53190464],5.0,0.6,0.0,0.5594510116196412,0.042294885961013155,1.4836349263059647
8.316302299499512,0.5232777634208029,[0.53190464],5.0,0.6,0.0,0.3896790568345889,0.0401948056573737,1.4851126113386632
8.325276374816895,0.5236685608542763,[0.53190464],5.0,0.6,0.0,0.4313101342067711,0.03799695593134277,1.4863865582412932
8.335813999176025,0.5240593582877495,[0.53190464],5.0,0.6,0.0,0.5279273616223907,0.035748530589687987,1.4875583452225423
8.344277381896973,0.5244501557212229,[0.53190464],5.0,0.6,0.0,0.3415193681248798,0.033645599266227344,1.4888608541624333
8.354310035705566,0.5248409531546963,[0.53190464],5.0,0.6,0.0,0.3713348995190474,0.03144632403507292,1.4899678635327824
8.362311124801636,0.5252317505881696,[0.53190464],5.0,0.6,0.0,0.4606534361692184,0.029197185940903703,1.4909761135687605
8.37184762954712,0.5256225480216429,[0.53190464],5.0,0.6,0.0,0.2705952176355781,0.027093898241187138,1.4920836335982104
8.379843473434448,0.5258179467383796,[0.53190464],5.0,0.6,0.0,0.023441602842514148,0.026032467204802266,1.4926174124244616
8.387297868728638,0.5262087441718529,[0.53190464],5.0,0.6,0.0,0.08061951770916718,0.02388001960792351,1.4935275266843389
8.3953218460083,0.5265995416053263,[0.53190464],5.0,0.6,0.0,-0.05207741258959959,0.021820354840850677,1.4943849840563805
8.406959295272827,0.5271857377555363,[0.53190464],5.0,0.6,0.0,-0.22007669732379445,0.018846240751934768,1.4955202462231194
8.414778709411621,0.5275765351890096,[0.53190464],5.0,0.6,0.0,-0.36488255571881734,0.016856129066500275,1.4961614157597674
8.42228364944458,0.527967332622483,[0.53190464],5.0,0.6,0.0,-0.4703284270689449,0.014888819029526408,1.4967396862158577
8.431296110153198,0.5281627313392196,[0.53190464],5.0,0.6,0.0,-0.5374217259092715,0.013895441469096905,1.4969885914582195
8.441308498382568,0.5287489274894297,[0.53190464],5.0,0.6,0.0,-0.2969303492321784,0.01080979760879509,1.4979446528662803
8.450834512710571,0.529139724922903,[0.53190464],5.0,0.6,0.0,-0.27556526409501847,0.00875747430392057,1.4984156958243682
8.461623191833496,0.5295305223563763,[0.53190464],5.0,0.6,0.0,-0.32551142784064013,0.006758993989889216,1.4987944815663454
8.470407009124756,0.5299213197898497,[0.53190464],5.0,0.6,0.0,-0.3850239054807624,0.004782806998411017,1.4991032590036126
8.478317975997925,0.530312117223323,[0.53190464],5.0,0.6,0.0,-0.7077274382561971,0.0029885191215318937,1.4991201892914316
8.486271381378174,0.5305075159400596,[0.53190464],5.0,0.6,0.0,-0.7693337306201216,0.0020833132392814816,1.4991692887396755
8.4946608543396,0.5308983133735331,[0.53190464],5.0,0.6,0.0,-0.7259295112549546,0.00017979420694746857,1.499405357106787
8.502405881881714,0.5310937120902697,[0.53190464],5.0,0.6,0.0,-0.9242859143360157,-0.0006156757350796179,1.4992329481079931
8.511339902877808,0.5312891108070064,[0.53190464],5.0,0.6,0.0,-0.8756717306086477,-0.0014954596342753276,1.499353746810446
8.519829988479614,0.531484509523743,[0.53190464],5.0,0.6,0.0,-1.0223000117485455,-0.002252985162027111,1.4991873329947285
8.529612064361572,0.531484509523743,[0.53190464],5.0,0.6,0.0,-1.1916693930181392,-0.001980513702710068,1.4989087104634442
8.538356065750122,0.5316799082404797,[0.53190464],5.0,0.6,0.0,-1.321881193372053,-0.0026341905436150148,1.4986908467643283
8.548416376113892,0.531484509523743,[0.53190464],5.0,0.6,0.0,-1.6749197959620967,-0.0011764951479008817,1.4978807452936929
8.557564973831177,0.5316799082404797,[0.53190464],5.0,0.6,0.0,-1.736493897149834,-0.0017098388486008385,1.497750256806786
8.566287517547607,0.5316799082404797,[0.53190464],5.0,0.6,0.0,-1.9477177825732475,-0.0011639233189107284,1.4971738978831364
8.57629942893982,0.5316799082404797,[0.53190464],5.0,0.6,0.0,-2.143623746899213,-0.0005412422101629045,1.4965809614862537
8.585302114486694,0.5316799082404797,[0.53190464],5.0,0.6,0.0,-1.9956133627683994,-5.5605687298781155e-05,1.4970341158208131
8.595376253128052,0.5316799082404797,[0.53190464],5.0,0.6,0.0,-1.741036527066139,0.0003597542688693667,1.4977385502233571
8.603359460830688,0.5316799082404797,[0.53190464],5.0,0.6,0.0,-1.2035840947378262,0.0005691596639008015,1.498912711842412
8.612239837646484,0.5316799082404797,[0.53190464],5.0,0.6,0.0,-0.9387570329801259,0.0008446783506371764,1.4993343155788328
8.62467885017395,0.531484509523743,[0.53190464],5.0,0.6,0.0,-0.5247290382056891,0.0019513695017441526,1.4997597774092528
8.634116172790527,0.5316799082404797,[0.53190464],5.0,0.6,0.0,-0.13502691354853408,0.0010635689236051552,1.499976327449453
8.642266988754272,0.5316799082404797,[0.53190464],5.0,0.6,0.0,0.17441920020857773,0.001088868996922023,1.499967253691909
8.650691509246826,0.5316799082404797,[0.53190464],5.0,0.6,0.0,0.39713508643951906,0.0011062110372043203,1.4998725090768923
8.65933632850647,0.531484509523743,[0.53190464],5.0,0.6,0.0,0.5448421999858815,0.0020821526252282896,1.4997437703425707
8.66743516921997,0.5316799082404797,[0.53190464],5.0,0.6,0.0,0.6337940307541707,0.0011289606531492296,1.4996909668932394
8.675254583358765,0.5316799082404797,[0.53190464],5.0,0.6,0.0,0.6793202842528971,0.0011215648633720802,1.499646494339361
8.684905052185059,0.5316799082404797,[0.53190464],5.0,0.6,0.0,0.6940616702950275,0.0011225589704461291,1.4996314341162398
8.69383692741394,0.5316799082404797,[0.53190464],5.0,0.6,0.0,0.6877607256245919,0.00112310294400278,1.4996379108480309
8.704085111618042,0.5316799082404797,[0.53190464],5.0,0.6,0.0,0.6676282012445972,0.0011233753999813018,1.4996582097161988
8.713440179824829,0.531484509523743,[0.53190464],5.0,0.6,0.0,0.6388555494153891,0.0020907352805091465,1.4996609743898246
8.723388671875,0.531484509523743,[0.53190464],5.0,0.6,0.0,0.6051013138020972,0.0021004756333751636,1.4996922128742947
8.73284125328064,0.5316799082404797,[0.53190464],5.0,0.6,0.0,0.5688950972112317,0.0011333827660876112,1.4997490384044034
8.740596771240234,0.5316799082404797,[0.53190464],5.0,0.6,0.0,0.5319517827313164,0.0011237285259299203,1.4997792987118659
8.748243808746338,0.5316799082404797,[0.53190464],5.0,0.6,0.0,0.49540693108953593,0.0011236403277859357,1.499807235994487
8.757793188095093,0.5316799082404797,[0.53190464],5.0,0.6,0.0,0.45998902312049894,0.0011236436179332923,1.4998324165455097
8.766367673873901,0.531484509523743,[0.53190464],5.0,0.6,0.0,0.42614352525075583,0.002090869384745746,1.4998295354652504
8.774420738220215,0.531484509523743,[0.53190464],5.0,0.6,0.0,0.394121265725228,0.0021005426854460696,1.4998490835310812
8.782254934310913,0.5316799082404797,[0.53190464],5.0,0.6,0.0,0.3640408630676845,0.0011334162921225902,1.4998912568675238
8.790293455123901,0.5316799082404797,[0.53190464],5.0,0.6,0.0,0.3359325244697534,0.001123745288947405,1.4999059003392539
8.799535512924194,0.5316799082404797,[0.53190464],5.0,0.6,0.0,0.3097685845389874,0.0011236487092946782,1.499918474350544
8.808730602264404,0.5316799082404797,[0.53190464],5.0,0.6,0.0,0.2854846665514259,0.001123647808687663,1.4999292332992915
8.816948890686035,0.531484509523743,[0.53190464],5.0,0.6,0.0,0.2629942440485956,0.0020908714801229317,1.499913214531236
8.824571132659912,0.531484509523743,[0.53190464],5.0,0.6,0.0,0.2421985764388037,0.0021005437331346626,1.4999210343265927
8.832249641418457,0.5316799082404797,[0.53190464],5.0,0.6,0.0,0.22299341383316493,0.0011334168159668864,1.4999528846374588
8.840615034103394,0.5316799082404797,[0.53190464],5.0,0.6,0.0,0.20527345376793693,0.001123745550869553,1.4999585334113705
8.8492591381073,0.531484509523743,[0.53190464],5.0,0.6,0.0,0.1889352398878994,0.0020908724881023347,1.49993812726106
8.86064624786377,0.5316799082404797,[0.53190464],5.0,0.6,0.0,0.17387898603804558,0.001133320110646666,1.4999673937487257
8.870040655136108,0.531484509523743,[0.53190464],5.0,0.6,0.0,0.16000966371692626,0.0020909682352279846,1.499945640474662
8.881661176681519,0.5316799082404797,[0.53190464],5.0,0.6,0.0,0.14723758862446912,0.0011333210688818623,1.499973761844935
8.890375852584839,0.5316799082404797,[0.53190464],5.0,0.6,0.0,0.1354786703437147,0.0011237445973457244,1.499976236484149
8.89848017692566,0.5316799082404797,[0.53190464],5.0,0.6,0.0,0.12465443898554703,0.0011236488326940245,1.4999783324703369
8.906932830810547,0.5316799082404797,[0.53190464],5.0,0.6,0.0,0.11469192750667767,0.0011236478750793384,1.4999801074487387
8.914600372314453,0.5316799082404797,[0.53190464],5.0,0.6,0.0,0.10552346387984757,0.0011236478655191069,1.4999816103936379
8.92226529121399,0.531484509523743,[0.53190464],5.0,0.6,0.0,0.09708641018391323,0.0020908715132780444,1.4999576825673553
8.931325674057007,0.531484509523743,[0.53190464],5.0,0.6,0.0,0.0893228737657483,0.0021005437497596128,1.4999587598463244
8.941744804382324,0.5316799082404797,[0.53190464],5.0,0.6,0.0,0.0821794073452872,0.0011334168242798355,1.4999848721245865
8.949270009994507,0.5316799082404797,[0.53190464],5.0,0.6,0.0,0.07560670919583112,0.0011237455550260325,1.4999856441207093
8.958444833755493,0.5316799082404797,[0.53190464],5.0,0.6,0.0,0.06955933056768512,0.001123648842333992,1.499986297605453
8.968034982681274,0.5316799082404797,[0.53190464],5.0,0.6,0.0,0.06399539479793671,0.0011236478752073202,1.4999868507583018
8.977270364761353,0.5316799082404797,[0.53190464],5.0,0.6,0.0,0.05887633068726908,0.0011236478655361776,1.4999873189748474
8.989062547683716,0.531484509523743,[0.53190464],5.0,0.6,0.0,0.05416662146360532,0.002090871513286111,1.4999625149836846
8.997331142425537,0.531484509523743,[0.53190464],5.0,0.6,0.0,0.049833569808489395,0.0021005437497636412,1.4999628504376488
9.006947755813599,0.531484509523743,[0.53190464],5.0,0.6,0.0,0.045847078867216146,0.0021006404721284322,1.4999631343734041
9.016362428665161,0.5316799082404797,[0.53190464],5.0,0.6,0.0,0.04217944880823555,0.0011334177915055055,1.4999885750091804
9.027565002441406,0.5316799082404797,[0.53190464],5.0,0.6,0.0,0.03880518827886069,0.0011237455646992802,1.4999887784260024
9.038742303848267,0.531484509523743,[0.53190464],5.0,0.6,0.0,0.03570083997925376,0.0020908724902778016,1.4999637502923298
9.047477722167969,0.5316799082404797,[0.53190464],5.0,0.6,0.0,0.03284481951480643,0.001133320111687006,1.4999890963294311
9.057276248931885,0.5316799082404797,[0.53190464],5.0,0.6,0.0,0.0302172666673478,0.0011237445879010986,1.4999892196756455
9.066261053085327,0.5316799082404797,[0.53190464],5.0,0.6,0.0,0.02779990823356842,0.0011236488326632397,1.4999893240764288
9.076236248016357,0.531484509523743,[0.53190464],5.0,0.6,0.0,0.02557593160460902,0.0020908715229574436,1.4999642121339092
9.08531403541565,0.531484509523743,[0.53190464],5.0,0.6,0.0,0.023529868297048707,0.0021005437498603854,1.499964286926425
9.094237565994263,0.531484509523743,[0.53190464],5.0,0.6,0.0,0.021647486687850746,0.002100640472129415,1.499964350230959
9.102237939834595,0.5316799082404797,[0.53190464],5.0,0.6,0.0,0.019915693251018877,0.001133417791505523,1.4999896041197103
9.11125135421753,0.5316799082404797,[0.53190464],5.0,0.6,0.0,0.018322441639674673,0.0011237455646992843,1.499989649470777
9.119312286376953,0.5316799082404797,[0.53190464],5.0,0.6,0.0,0.016856649002616814,0.0011236488424312219,1.4999896878559604
9.127798318862915,0.531484509523743,[0.53190464],5.0,0.6,0.0,0.015508118968288766,0.0020908715230551233,1.4999645200375087
9.139790773391724,0.5316799082404797,[0.53190464],5.0,0.6,0.0,0.014267470770942616,0.0011333201020147802,1.4999897478441206
9.149254083633423,0.5316799082404797,[0.53190464],5.0,0.6,0.0,0.013126074033349058,0.0011237445878043769,1.499989771119213
9.159246444702148,0.531484509523743,[0.53190464],5.0,0.6,0.0,0.01207598875753839,0.0020908724805088546,1.4999645905115613
