t_s,q_rad,q_des_rad,jerk
0.009022235870361328,-0.06917114572478127,0.00035131120599568463,0.0
0.01998591423034668,-0.06917114572478127,0.0016973132718839335,0.0
0.03753066062927246,-0.06838955085783459,0.004216497974089344,0.276038359678681
0.052292823791503906,-0.06721715855741456,0.007692275596947681,1.1372780418761654
0.06831932067871094,-0.06526317139004786,0.011929492576911295,3.6658998318767537
0.08231616020202637,-0.06291838678920783,0.016753994626737313,5.0
0.10512185096740723,-0.05803341887079106,0.02201114005521585,5.0
0.12026643753051758,-0.05412544453605766,0.0275647851779014,5.0
0.13434505462646484,-0.04963127405111425,0.03329658293486602,5.0
0.14934492111206055,-0.044160109982487476,0.039104668198087465,5.0
0.17282462120056152,-0.03517176901260064,0.044902317164858846,5.0
0.18836331367492676,-0.02911440879376387,0.05061676397434044,5.0
0.2032628059387207,-0.02305704857492709,0.056187713735940094,5.0
0.21827173233032227,-0.01739048578956365,0.06156612014635741,5.0
0.24025940895080566,-0.00840214481967682,0.066713511911409,4.680213969635902
0.2552812099456787,-0.0021493858841033727,0.07160086711716789,2.5545948802051566
0.2713277339935303,0.0042987717682067455,0.07620683487777097,-0.3313666851729602
0.2898542881011963,0.011723923004200214,0.08051696833780053,-2.9098494301622635
0.30414867401123047,0.018367479373247002,0.0845232069770291,-4.864494080276474
0.3194093704223633,0.024034042158610443,0.08822269008122245,-5.0
0.33470654487609863,0.02989600366071055,0.09161699513216258,-5.0
0.350344181060791,0.036344161313020665,0.09471143721360845,-5.0
0.3652653694152832,0.042401521531857445,0.09751421933081289,-5.0
0.3792736530303955,0.048458881750694224,0.10003595462959002,-5.0
0.4000697135925293,0.05686102657037104,0.10228962788682172,-5.0
0.41416287422180176,0.06272298807247115,0.10429007505983962,-5.0
0.42929935455322266,0.06878034829130793,0.10605289528575788,-5.0
0.44426631927490234,0.07483770851014471,0.10759409168367064,-5.0
0.4602682590484619,0.08109046744571814,0.10892994214284088,-5.0
0.4832625389099121,0.09066500456581499,0.11007722683557587,-4.908152900205085
0.4982941150665283,0.09672236478465177,0.11105305891729794,-4.701085915150198
0.5115299224853516,0.10219352885327855,0.11187368637400052,-4.4398478232202
0.5262441635131836,0.10825088907211532,0.11255438113715714,-4.433562058143172
0.5380582809448242,0.11294045827379541,0.11310985662902336,-4.457362492979712
0.5543062686920166,0.11880241977589551,0.11355418238449647,-4.708878611332343
0.5682923793792725,0.12329659026083893,0.11390070207421223,-5.0
0.5823395252227783,0.127986159462519,0.1141619732113978,-5.0
0.6048974990844727,0.13443431711482912,0.11435021802620746,-5.0
0.6187326908111572,0.13736529786587917,0.11447721772176082,-5.0
0.6323308944702148,0.14029627861692923,0.11455324385384055,-5.0
0.6472344398498535,0.14303186065124263,0.1145871553845698,-5.0
0.6622574329376221,0.14537664525208266,0.11458699114116909,-5.0
0.6816897392272949,0.14811222728639603,0.11456019176275083,-5.0
0.7013216018676758,0.14967541702028941,0.11451388499929575,-5.0
0.7152643203735352,0.1502616131704994,0.11445443622490171,-5.0
0.7292671203613281,0.15065241060397278,0.11438689807368135,-5.0
0.7442941665649414,0.1504570118872361,0.11431534806162788,-5.0
0.7669568061828613,0.14967541702028941,0.11424375770924018,-5.0
0.7822470664978027,0.14889382215334274,0.11417595267197307,-5.0
0.796252965927124,0.14752603113618606,0.11411461924092534,-5.0
0.8112566471099854,0.14596284140229268,0.11406144649039435,-5.0
0.8252565860748291,0.1443996516683993,0.11401774035189156,-5.0
0.8428912162780762,0.14225026578429595,0.11398465007713007,-3.9812841059779203
0.8588924407958984,0.13971008246671923,0.11396329012337096,-2.850581553116598
0.8753492832183838,0.13736529786587917,0.1139545012349619,-1.588407442836639
0.8881635665893555,0.13521591198177582,0.11395861422473652,-0.22861332302832715
0.9032599925994873,0.1326757286641991,0.11397544886419522,0.9069969169608666
0.9192290306091309,0.12954934919641237,0.11400457848554697,1.1916933196894406
0.942133903503418,0.12485977999473229,0.11404586968102923,1.9621179095014678
0.9556107521057129,0.12231959667715558,0.11409935552127527,2.9950592482547376
0.9713277816772461,0.11919321720936885,0.11416445678827805,3.8803314148248997
0.986248254776001,0.1168484326085288,0.11424018046036168,4.7793267790045615
1.0095973014831543,0.11333125570726875,0.11432590877234258,5.0
1.0252909660339355,0.11137726853990204,0.11442130069858861,5.0
1.0412275791168213,0.10981407880600867,0.11452552937592814,5.0
1.0564093589782715,0.10844628778885199,0.11463741568068565,5.0
1.0716419219970703,0.10746929420516863,0.11475595443464533,5.0
1.0877037048339844,0.10668769933822195,0.11488033942373001,5.0
1.0992050170898438,0.10590610447127527,0.11500971684639028,5.0
1.1203289031982422,0.10551530703780194,0.1151432306674446,5.0
1.1353001594543457,0.10551530703780194,0.1152802892528167,5.0
1.1555986404418945,0.10551530703780194,0.11542044132467805,5.0
1.167578935623169,0.10551530703780194,0.11556320516700173,5.0
1.1852471828460693,0.10590610447127527,0.11570801950455155,5.0
1.201277494430542,0.10610150318801194,0.1158543957796264,4.94884988140627
1.2142786979675293,0.10668769933822195,0.11600178571362826,4.37383832619673
1.2281913757324219,0.1070784967716953,0.11614953403366751,3.6869095239723717
1.2433080673217773,0.1076646929219053,0.11629708666849937,3.32625528602287
1.265965461730957,0.10844628778885199,0.11644434229714606,2.823232339869329
1.281266450881958,0.10883708522232532,0.11659158712385358,2.0600238816861456
1.2972736358642578,0.10922788265579866,0.1167387173194951,0.7812482897466247
1.3203024864196777,0.10922788265579866,0.11688567070362763,-0.7059858959495722
1.336188793182373,0.10903248393906198,0.11703278375159053,-1.9692974228017377
1.35028076171875,0.10922788265579866,0.11717999136783033,-3.172883454009277
1.3652191162109375,0.10922788265579866,0.11732688880843341,-3.814443568563026
1.3858413696289062,0.10903248393906198,0.11747342161406955,-3.5552848740089216
1.3960776329040527,0.10903248393906198,0.11761971921276186,-3.01267145639926
1.4129877090454102,0.10903248393906198,0.11776566369064533,-2.4457301098347544
1.4287943840026855,0.10903248393906198,0.1179112891393466,-1.9493252646760275
1.444228172302246,0.10922788265579866,0.11805679685141647,-1.5465581903740082
1.4582574367523193,0.10922788265579866,0.11820216230168869,-1.2319095241207434
1.4732885360717773,0.10961868008927202,0.11834725569807085,-0.7145969578791684
1.491765022277832,0.10981407880600867,0.11849219471447626,-0.2217408399327069
1.5081076622009277,0.11040027495621868,0.11863748846240331,0.1722585293320918
1.5235528945922852,0.11040027495621868,0.11878361092269615,0.7335374026877809
1.5382239818572998,0.11059567367295536,0.11893066173625934,0.6811581222335397
1.5541572570800781,0.11059567367295536,0.11907849489601133,0.15692072239332358
1.5767900943756104,0.11059567367295536,0.1192273870281304,-0.6975712942669361
1.5922391414642334,0.11059567367295536,0.11937803483526942,-1.211642599167916
1.607240915298462,0.11059567367295536,0.11953054858054157,-1.5038851757612075
1.630789041519165,0.11059567367295536,0.11968500773068368,-1.375087830498882
1.646219253540039,0.1109864711064287,0.1198419288331968,-1.1186860720329035
1.6622087955474854,0.11118186982316537,0.12000125184568983,-0.3044110744021274
1.6771657466888428,0.11137726853990204,0.12016242933141572,0.2624014299040103
1.7001864910125732,0.11196346469011205,0.1203254540494098,0.9147261780612812
1.7162590026855469,0.11235426212358537,0.12049077816802882,1.459667452452
1.7376935482025146,0.11294045827379541,0.12065869901029662,1.5729380370475476
1.7541944980621338,0.11313585699053208,0.12082945405829056,1.230775632332644
1.7692081928253174,0.11313585699053208,0.12100288567673924,0.24012863501025544
1.7832787036895752,0.11313585699053208,0.12117836084701838,-0.7739890152606138
1.7971837520599365,0.11313585699053208,0.1213552626058067,-1.317655634367622
1.819946050643921,0.11313585699053208,0.12153355812443545,-1.8667668558758028
1.832359790802002,0.11313585699053208,0.12171360175944536,-2.014860545321418
1.848266363143921,0.11313585699053208,0.12189523413690893,-1.7054721022256811
1.862349033355713,0.11313585699053208,0.12207808916296803,-1.2870925514131109
1.8762614727020264,0.11313585699053208,0.12226184728119473,-0.8976648679531507
1.891282320022583,0.11333125570726875,0.12244611772482593,-0.580778967222686
1.9066214561462402,0.1135266544240054,0.12263064885792613,-0.06445213438455452
1.9234917163848877,0.11372205314074207,0.12281549449250313,0.41876600596561475
1.9411306381225586,0.11411285057421541,0.1230011568745521,0.7944865085965425
1.9572231769561768,0.11469904672442544,0.12318814263131769,1.3307103979575199
1.9701619148254395,0.11508984415789876,0.12337639010932981,1.5247269544128157
1.9861783981323242,0.11548064159137211,0.12356553555337817,1.829431240171703
2.008683204650879,0.11587143902484545,0.12375584580903297,1.5378532662327369
2.0241899490356445,0.11587143902484545,0.12394811696768734,0.8151796208459923
2.0381839275360107,0.11587143902484545,0.12414243275073872,-0.19481935325228994
2.053194999694824,0.11587143902484545,0.12433827018328,-1.3791378055566679
2.0709946155548096,0.11587143902484545,0.12453538726433143,-1.825940250881533
2.087303400039673,0.11587143902484545,0.12473395534267416,-1.928458794336693
2.098285436630249,0.11587143902484545,0.12493391236248712,-1.6014595329226051
2.116443634033203,0.11587143902484545,0.12513497871039908,-1.1790678836142263
2.131774663925171,0.11606683774158212,0.1253372325024226,-0.7920654841691073
2.1461920738220215,0.1162622364583188,0.12554057621016512,-0.20444573358581963
2.161278009414673,0.11645763517505547,0.1257445689228089,0.33857840025616387
2.1752562522888184,0.1168484326085288,0.12594880734997432,1.0360435789530773
2.1977500915527344,0.11763002747547549,0.12615352601212484,1.3622495075147456
2.2115676403045654,0.11802082490894884,0.12635949071124375,1.766622196694653
2.2262635231018066,0.1182162236256855,0.12656673816463104,1.8220959458104349
2.240143060684204,0.11841162234242215,0.12677468664379896,1.4567807128651644
2.253272533416748,0.11860702105915884,0.12698281964231808,1.0078999534014523
2.269235134124756,0.11860702105915884,0.12719068021752541,0.3292652795774109
2.286607027053833,0.11880241977589551,0.12739804995465756,-0.8504374693563821
2.3000032901763916,0.11860702105915884,0.12760489094689392,-1.6810970068671351
2.3183939456939697,0.11860702105915884,0.12781126516176006,-2.2213661540902234
2.3351969718933105,0.11880241977589551,0.1280174145013689,-1.9867453444618477
2.3501570224761963,0.11899781849263219,0.12822327318808954,-1.2473086187444722
2.364168167114258,0.11899781849263219,0.1284283810867996,-0.4708464425078047
2.3869919776916504,0.1195840146428422,0.12863278227077807,0.1756602726212007
2.402245044708252,0.12017021079305219,0.12883700256978986,0.6553771301275738
2.41825795173645,0.12056100822652555,0.12904095042561886,1.2584152846703984
2.4340410232543945,0.12095180565999888,0.12924413191453735,1.7714846640797797
2.454115867614746,0.12114720437673555,0.12944659918543322,1.584766380482089
2.46915602684021,0.12134260309347221,0.12964866661208554,0.9131373870352172
2.4825353622436523,0.12134260309347221,0.1298501424935298,-0.07401935455128844
2.4991748332977295,0.12134260309347221,0.13005048840643516,-1.2503663775613867
2.5217132568359375,0.12134260309347221,0.1302497406233911,-1.697045620929863
2.5371453762054443,0.12134260309347221,0.1304484430025587,-1.803538235562571
2.5511786937713623,0.12134260309347221,0.13064657870554247,-1.4825763404567116
2.5631494522094727,0.12134260309347221,0.1308436568684252,-1.067165937199668
2.5792198181152344,0.12153800181020889,0.13103928452236296,-0.6874650996903859
2.593230724334717,0.12173340052694555,0.13123315673798944,0.16892039907500078
2.6099839210510254,0.1221241979604189,0.1314251781851074,0.4619813498531677
2.623168468475342,0.12251499539389225,0.13161541320731476,1.0645031586907214
2.6342530250549316,0.12290579282736558,0.13180368404866477,1.6394181822399738
2.656118392944336,0.12368738769431226,0.13199006379142605,1.8004985885864753
2.672123908996582,0.12446898256125893,0.1321752898292152,2.052151347603499
2.6861841678619385,0.12485977999473229,0.13235980026822294,1.9844902041172714
2.7011878490448,0.12505517871146896,0.13254347029856164,1.5270133591592938
2.7203354835510254,0.1252505774282056,0.13272640595069876,0.7365739388808367
2.736098289489746,0.1252505774282056,0.13290910135780473,-0.295773187743162
2.7511870861053467,0.1252505774282056,0.13309193482300155,-1.482357723177624
2.7654874324798584,0.1252505774282056,0.13327499027894602,-2.1993289901596977
2.7768421173095703,0.1252505774282056,0.1334579797184982,-2.32642993641291
2.7921371459960938,0.1252505774282056,0.13364054137768494,-2.2115263003663648
2.806182384490967,0.1252505774282056,0.13382267210364052,-1.7379522043850633
2.821138381958008,0.1252505774282056,0.1340043967120566,-1.2180098720885966
2.8341424465179443,0.1252505774282056,0.13418562697907802,-0.7673098923699132
2.8502094745635986,0.1252505774282056,0.13436632169960813,-0.41533122761938646
2.8720407485961914,0.1254459761449423,0.13454699849092774,-0.15703279785977334
2.8881618976593018,0.12583677357841566,0.1347287168662327,0.29994664783143843
2.9022216796875,0.1260321722951523,0.13491195969375874,0.7304759261973164
2.9171690940856934,0.12642296972862566,0.13509657920842044,1.3379603363592332
2.931140899658203,0.126813767162099,0.13528240472708883,1.8709467369923987
2.947497606277466,0.12759536202904564,0.13546947790624717,1.9801876419144162
2.9617998600006104,0.12759536202904564,0.1356580696438166,1.6324261139006069
2.972106695175171,0.12759536202904564,0.13584809859733912,0.9079570197585973
2.9941468238830566,0.12779076074578233,0.1360397506460825,0.1889417329731855
3.0091712474823,0.12779076074578233,0.13623403705292766,-0.6700101838285342
3.0252373218536377,0.12759536202904564,0.13643138453034986,-1.402780709097236
3.0481295585632324,0.12759536202904564,0.13663219842759777,-1.6628226983034042
3.0619473457336426,0.12779076074578233,0.13683752546954234,-1.425245888889942
3.077159881591797,0.127986159462519,0.13704754685280782,-1.0554724694428383
3.093109607696533,0.1281815581792557,0.13726169995995735,-0.42468466194785603
3.1158182621002197,0.1287677543294657,0.13748024067955925,0.4514346706965527
3.129699945449829,0.12915855176293903,0.13770412180524938,0.9586325055095979
3.145158290863037,0.12935395047967568,0.1379333843673033,1.515204799019031
3.1600937843322754,0.12954934919641237,0.13816728711180923,1.4116677555163184
3.1741511821746826,0.12954934919641237,0.13840517387228712,0.8222691710163367
3.1871118545532227,0.12954934919641237,0.13864646601984157,0.17854167131803186
3.2083845138549805,0.12974474791314905,0.13889121222522546,-0.6385523738659523
3.226121425628662,0.1299401466298857,0.13914022215958763,-0.796483230267615
3.2411012649536133,0.1301355453466224,0.13939381445187377,-0.7025988784018415
3.2644217014312744,0.13072174149683238,0.13965219006950436,-0.2609985101089491
3.2782158851623535,0.13111253893030572,0.1399159017964013,0.48783268729781426
3.2917253971099854,0.1315033363637791,0.14018452765877373,0.9114219322457062
3.3052752017974854,0.13208953251398908,0.14045699753312973,1.1388642487747918
3.319118022918701,0.13248032994746242,0.14073232274161732,1.2462668432272
3.3350818157196045,0.1326757286641991,0.1410095099816902,1.2796549521062328
3.349102258682251,0.1326757286641991,0.14128766338310572,0.7154340771609875
3.3630921840667725,0.13287112738093576,0.1415659858137145,-0.2186384929406947
3.3761026859283447,0.1326757286641991,0.14184378087812477,-1.0917058586481405
3.389108180999756,0.1326757286641991,0.14212045512651805,-1.7661462787524504
3.412107467651367,0.13287112738093576,0.14239617533625804,-1.9512530275290203
3.426640748977661,0.13306652609767244,0.1426718505445705,-1.6441706558614806
3.4420790672302246,0.1332619248144091,0.14294771739545792,-1.217218990157431
3.4550957679748535,0.13345732353114578,0.14322328480994512,-0.5421452406968252
3.4710769653320312,0.1338481209646191,0.1434981129863477,0.36710390990291875
3.494185447692871,0.1346297158315658,0.14377272658751575,1.174594954136678
3.5091686248779297,0.13521591198177582,0.14404848829840705,1.505763090587854
3.524217367172241,0.13580210813198582,0.14432583333283866,1.878602507398946
3.538194179534912,0.13638830428219584,0.1446043934683053,2.1714773572030346
3.5521504878997803,0.13677910171566918,0.14488393311675743,2.0808613070029702
3.5747382640838623,0.13716989914914252,0.14516529405205317,1.3069311814981877
3.5900590419769287,0.13716989914914252,0.1454502416531897,0.16829911373452983
3.60410475730896,0.13736529786587917,0.14573940045797457,-0.8734464759261976
3.6190755367279053,0.13736529786587917,0.1460323962583051,-1.951619959569816
3.6330971717834473,0.13716989914914252,0.14632894915117134,-2.537212463990116
3.650688648223877,0.13716989914914252,0.14662929960887008,-2.8224847676927696
3.667527198791504,0.13736529786587917,0.14693453793557779,-2.370905692491163
3.684051752090454,0.13756069658261585,0.14724583685613477,-1.739409629260796
3.699155569076538,0.13775609529935254,0.14756360021608353,-0.5970149129904436
3.7141661643981934,0.13814689273282588,0.14788749893450756,0.22395999274461875
3.7370293140411377,0.1385376901662992,0.14821815067922908,1.058803327163403
3.753169298171997,0.1393192850332459,0.14855721292852359,1.7267864221528164
3.767141580581665,0.13971008246671923,0.1489048597396697,1.9173639352534664
3.7810542583465576,0.14029627861692923,0.1492599880917614,1.8949987562737705
3.795119047164917,0.14088247476713922,0.1496215801657665,1.7855754293750592
3.808056354522705,0.14146867091734927,0.14998869479281815,1.647482905804683
3.8220667839050293,0.14225026578429595,0.15036045988500635,1.7826650451934225
3.839890480041504,0.14283646193450597,0.15073654416774976,1.6827266793501412
3.857224941253662,0.14303186065124263,0.1511174584316721,0.9537983608228031
3.8720171451568604,0.14322725936797928,0.15150375462197826,0.14938607772152473
3.8870770931243896,0.14322725936797928,0.15189523277047448,-1.0803630604733503
3.902207374572754,0.14322725936797928,0.15229094181797015,-2.7525306923830075
3.925412893295288,0.14322725936797928,0.1526906798875301,-3.388299781861357
3.936136484146118,0.14342265808471594,0.15309489192865278,-3.2528544566149216
3.9465811252593994,0.14342265808471594,0.15350223771941945,-2.579740088465865
3.9664859771728516,0.14361805680145262,0.1539113458574972,-1.8304311373888957
3.9801220893859863,0.144008854234926,0.15432259471937532,-0.9009526979864155
3.99515438079834,0.1443996516683993,0.15473584623543665,-0.07924915445375619
4.01493763923645,0.14498584781860932,0.15515060130241276,1.1046549085484243
4.032974720001221,0.14557204396881931,0.15556757558595619,1.6149131885894326
4.049039602279663,0.146353638835766,0.15598778290699855,2.067967854724757
4.065117835998535,0.14693983498597601,0.1564112151055746,2.3917069563600464
4.078129529953003,0.14791682856965938,0.15683715939401607,2.5835955334392957
4.101288795471191,0.1490892208700794,0.15726631468090504,2.38952790588649
4.11522102355957,0.14987081573702607,0.15770073375777746,2.079380894806565
4.128227472305298,0.15065241060397278,0.1581408849252469,1.765831683598412
4.142303466796875,0.15123860675418274,0.15858585956847024,1.2135329741966543
4.157062292098999,0.15143400547091945,0.15903492897699323,0.3986929257938483
4.172028303146362,0.1516294041876561,0.1594875200296877,-0.9027268590376485
4.1860716342926025,0.1516294041876561,0.15994319201505444,-2.654799556930115
4.210122108459473,0.1516294041876561,0.16040316498354035,-3.6351543661881145
4.227138042449951,0.1516294041876561,0.16087005855863654,-4.137126749152543
4.24430775642395,0.15182480290439276,0.1613450856404784,-3.7879629977400073
4.263356685638428,0.15202020162112945,0.161829318842861,-2.9095806081749043
4.277528285980225,0.1522156003378661,0.1623241861726843,-1.7167291441652697
4.290603399276733,0.1524109990546028,0.1628292488545094,-0.6286596666163433
4.304364442825317,0.15280179648807612,0.163343016376941,0.2264807265573371
4.317565441131592,0.1531925939215495,0.163864204321299,0.8414235111404993
4.332029819488525,0.1535833913550228,0.1643917274523709,1.52812481423171
4.3423449993133545,0.15416958750523282,0.16492397181360902,1.8130832552457221
4.359042644500732,0.1549511823721795,0.16545962370651726,2.1688197514939422
4.375010251998901,0.1555373785223895,0.1659990845602969,2.4537310102224907
4.397006511688232,0.15670977082280954,0.16654436415821092,2.6322586311886136
4.412274360656738,0.15768676440649287,0.1670983979882457,2.4349850095587184
4.427047491073608,0.1586637579901762,0.16766241598450227,2.401003915486573
4.442073345184326,0.15964075157385957,0.1682355926745989,2.397247376175888
4.461014270782471,0.1608131438742796,0.16881774965736657,2.0991315577746295
4.473065614700317,0.16159473874122632,0.16940931096614736,1.4616461186304686
4.493970155715942,0.16237633360817297,0.1700110016653686,0.8184661416209214
4.508994102478027,0.16257173232490962,0.1706242227946565,-0.5422799536849585
4.524009466171265,0.1627671310416463,0.17124885791589933,-2.421109940887291
4.542979955673218,0.1627671310416463,0.17188424881450504,-3.528655205063819
4.5543458461761475,0.16257173232490962,0.17253031700169585,-4.135069325771738
4.5650904178619385,0.1627671310416463,0.17318487522110773,-4.139241343760322
4.582565784454346,0.162962529758383,0.17384563575484888,-3.622989465451636
4.600406885147095,0.16315792847511965,0.17451349017503962,-2.9937730758284644
4.616024017333984,0.163548725908593,0.17518986786807708,-1.8597312313231247
4.632092237472534,0.164134922058803,0.17587392167700824,-0.20421004666850406
4.654973268508911,0.16491651692574968,0.17656561538905727,1.0310906213111461
4.669074296951294,0.165307314359223,0.17726663630677986,1.8840000685495935
4.685115575790405,0.1660889092261697,0.1779762411172887,2.4291187469114703
4.7081897258758545,0.1674567002433264,0.17869342896230322,2.7424068238434
4.72313117980957,0.16843369382700976,0.17941910638946187,2.8886118306116986
4.7380383014678955,0.1694106874106931,0.18015223283987103,2.9185737955339874
4.753125190734863,0.17038768099437648,0.18088986703468585,2.8703898421002227
4.7709128856658936,0.17175547201153316,0.18162997291528224,2.4957148163243366
4.786326169967651,0.17292786431195314,0.18237178733619044,2.0571493423558165
4.803495407104492,0.17429565532910984,0.1831150638067,1.9326911516936958
4.819026231765747,0.1754680476295299,0.18385930715894097,1.6337919089830395
4.834031581878662,0.1766404399299499,0.1846028760406644,1.3159080007199728
4.851684331893921,0.1780082309471066,0.18534413479304673,0.7604797170316964
4.861990690231323,0.17859442709731663,0.18608169562313415,-0.05107059792577523
4.884137153625488,0.17937602196426328,0.1868149922792684,-1.0663231596136022
4.900049924850464,0.17957142068099996,0.18754536929750093,-2.493550699469903
4.915026903152466,0.17976681939773664,0.18827278862169142,-4.58045342036615
4.934325456619263,0.1799622181144733,0.1889963873757822,-5.0
4.948102951049805,0.1799622181144733,0.18971629381750527,-5.0
4.967022657394409,0.18015761683120995,0.19043262714682496,-4.68270658683436
4.981978178024292,0.18054841426468332,0.19114577388794002,-3.6101874006908923
5.005772590637207,0.18093921169815663,0.19185710220479582,-2.178903552528845
5.0210607051849365,0.18133000913162997,0.19256866496321737,-0.8778945717172657
5.035971641540527,0.18191620528184,0.1932804055294856,0.4205472899925514
5.057543992996216,0.18289319886552335,0.19399184675234665,1.4664120181468296
5.073021411895752,0.18367479373247003,0.1947043966818203,2.2146356667291487
5.088982105255127,0.1844563885994167,0.1954183481742001,2.4222424067792296
5.102998495101929,0.18523798346636342,0.1961322069855452,2.6632966724697407
5.118005275726318,0.18621497705004675,0.1968442109268879,2.837361170865636
5.140771865844727,0.18758276806720342,0.19755461399436916,2.9227343754470576
5.156083583831787,0.18875516036762346,0.19826541016282476,2.652216902365697
5.169013261795044,0.1897321539513068,0.19897636611891847,2.2866743481339915
5.183088064193726,0.19070914753499016,0.19968536491242736,1.9325467108982957
5.198144197463989,0.1918815398354102,0.20039054420303412,1.9022267271579976
5.220988750457764,0.19364012828604024,0.20109169106443045,1.4070301646706203
5.237091779708862,0.19461712186972355,0.20179019166834383,1.115384688401916
5.252087116241455,0.19520331801993357,0.2024858807783095,-0.17284275258886972
5.2702555656433105,0.19559411545340694,0.2031773329377266,-1.5351322594008536
5.285116672515869,0.19578951417014356,0.2038637362585295,-2.6440131580001616
5.302406549453735,0.19578951417014356,0.2045446520509963,-3.9809576754824922
5.3180084228515625,0.19578951417014356,0.20521961362357913,-4.813509368139043
5.3320229053497314,0.19578951417014356,0.20588735942872494,-4.991661277500592
5.346006393432617,0.19598491288688025,0.20654600386813166,-4.313270939175092
5.360980272293091,0.1961803116036169,0.20719382085939073,-3.4362089101061093
5.381011009216309,0.19657110903709027,0.2078302271863338,-2.0685051558621854
5.396376371383667,0.1969619064705636,0.20845581148727793,-0.5018180578692564
5.411384344100952,0.19735270390403695,0.2090704879239159,0.5612545852079466
5.425979375839233,0.19793890005424694,0.20967317625379853,1.5294828762738024
5.44095516204834,0.198525096204457,0.2102626236015305,2.264854116174205
5.455007314682007,0.1993066910714036,0.21083768670241815,2.758346600624166
5.478166580200195,0.20047908337182369,0.2113985058086171,3.047090394566105
5.493979215621948,0.20145607695550702,0.2119462959014173,3.178478704580699
5.5089733600616455,0.20243307053919038,0.21248109245553634,3.1960930254129454
5.527136325836182,0.2036054628396104,0.21300237325289362,2.8593339247867084
5.538612365722656,0.2043870577065571,0.21350996930781999,2.438138804472392
5.553731441497803,0.20536405129024043,0.21400330253968186,2.316563052703242
5.568551778793335,0.20653644359066042,0.2144822414356237,2.0107270141306577
5.581042051315308,0.20731803845760713,0.214947240568274,1.403500926687907
5.599857807159424,0.20829503204129046,0.21539911086078486,0.5217198293241442
5.614983320236206,0.20849043075802715,0.21583921054427904,-0.563228570365643
5.6309733390808105,0.2086858294747638,0.21626842739085747,-2.6048513413336747
5.644942998886108,0.2086858294747638,0.21668718149263388,-3.9832799979160063
5.66752290725708,0.2086858294747638,0.21709730578538328,-4.56242098526184
5.676540851593018,0.2088812281915005,0.2175010834059367,-4.719405503694665
5.696059703826904,0.2086858294747638,0.21789961743016328,-4.3779573549122475
5.712066173553467,0.2086858294747638,0.21829455403336398,-3.6123151876175505
5.729290246963501,0.2088812281915005,0.21868804041986795,-2.5361684162177998
5.74821138381958,0.20907662690823717,0.21908288263785825,-1.5340730278675654
5.76090407371521,0.20927202562497385,0.21948187294034363,-0.45177307263272554
5.776968002319336,0.20946742434171048,0.2198861342575452,0.45613703851592835
5.792959451675415,0.20985822177518385,0.22029661954164617,1.68199377364576
5.815772294998169,0.21063981664213055,0.22071607580101354,2.205055897381753
5.831060171127319,0.21122601279234052,0.22114835333437155,2.6520140416491893
5.844345331192017,0.21200760765928722,0.22159503245510281,2.681682128938461
5.858935117721558,0.21259380380949724,0.22205569232244465,2.815204055427225
5.874037742614746,0.21357079739318058,0.22252997057892743,2.9230153034402324
5.892569541931152,0.21435239226012726,0.22301853815465456,2.690949032541613
5.909515380859375,0.2153293858438106,0.22352387567043305,2.361243403633691
5.925013065338135,0.2161109807107573,0.22404817083720158,2.034407050095672
5.9399333000183105,0.21650177814423063,0.22459145673141323,1.1941039064404748
5.954963684082031,0.2166971768609673,0.2251525750409465,-0.21828391257261148
5.978193283081055,0.2166971768609673,0.225732458819796,-1.5439099044875841
5.992975234985352,0.2166971768609673,0.22633406267351436,-2.847241090437949
6.007024049758911,0.2166971768609673,0.22695769145235006,-3.3095168110945226
6.020001649856567,0.21689257557770397,0.22760120171814982,-3.0973877235899288
6.0360167026519775,0.21708797429444063,0.228262544347002,-2.6712361618002376
6.050912618637085,0.217478771727914,0.2289398536033413,-1.673006606731816
6.072655200958252,0.21786956916138733,0.22963385728909766,-0.3841171143311856
6.086922883987427,0.218651164028334,0.23034746938001513,0.48204692002758776
6.100954055786133,0.21923736017854403,0.23108056513471448,1.3177759870070758
6.115959405899048,0.219823556328754,0.23183041560024656,2.245141519598921
6.130927085876465,0.2206051511957007,0.2325945133359734,2.446796125332944
6.152623891830444,0.22177754349612072,0.23337280450226217,2.623134243703969
6.167725324630737,0.2225591383630674,0.2341674548918237,2.726338599729173
6.183909177780151,0.22373153066348742,0.2349779328169296,2.75366899343748
6.207071781158447,0.22529472039738077,0.23580323393720676,2.718331168553914
6.220154762268066,0.22627171398106416,0.23664376117627206,2.3608700303103207
6.2359619140625,0.22744410628148415,0.23749748962858452,1.9392723610673577
6.251032829284668,0.22842109986516748,0.2383612354408271,1.82989337734463
6.267348289489746,0.22998428959906086,0.2392319604211376,1.5438337370599173
6.288771390914917,0.2317428780496909,0.24010844938193504,1.5127466118503095
6.3039562702178955,0.2331106690668476,0.24099145907918698,1.2754758712638172
6.316909074783325,0.23408766265053094,0.2418792236469791,0.7255513771035669
6.33292031288147,0.23526005495095098,0.24276799315610714,-0.10530694802092522
6.35584020614624,0.2360416498178977,0.24365660305622747,-1.1435375612446577
6.369938373565674,0.23623704853463434,0.24454610985621242,-2.589632503346281
6.383964776992798,0.236432447251371,0.24543529147981485,-3.8612261303071165
6.3999106884002686,0.23662784596810765,0.24632105125642453,-5.0
6.414071559906006,0.23662784596810765,0.24720086453631082,-5.0
6.436774015426636,0.2368232446848443,0.2480749279902967,-4.952994665760242
6.451913595199585,0.23721404211831768,0.24894579962406355,-4.2023040118561
6.466943264007568,0.23760483955179101,0.24981370992181146,-2.7651535417621744
6.489730358123779,0.238191035702001,0.25067891990369656,-1.3468397576718358
6.505942344665527,0.23877723185221103,0.2515442870728722,0.08812943131892303
6.519885778427124,0.2395588267191577,0.25241088856266064,1.2547599616035494
6.534920930862427,0.24014502286936773,0.253277535861938,2.0982685234914755
6.548926591873169,0.2409266177363144,0.25414309558916737,2.652285962515064
6.5619285106658936,0.24170821260326106,0.25500684488732517,2.975996515011674
6.577404975891113,0.24268520618694442,0.25586860979637077,3.1283312868920996
6.598697662353516,0.2442483959208378,0.2567312417059768,2.8829611156354447
6.613961219787598,0.24542078822125782,0.2575997315749127,2.7975931115184727
6.630007028579712,0.24678857923841455,0.2584756830577932,3.0224329683431663
6.65092134475708,0.24854716768904456,0.25936018812791384,2.716094268616895
6.666200160980225,0.24991495870620126,0.2602570559560493,2.540365655084491
6.680890083312988,0.25128274972335796,0.26116784917170116,2.1335591783379635
6.6969358921051025,0.2528459394572513,0.26209088162527605,1.9800745097569687
6.71717381477356,0.25479992662461803,0.26302577691064694,1.9135606563185639
6.72729754447937,0.255972318925038,0.2639727110242652,1.3126495902761965
6.747418165206909,0.25773090737566806,0.26493089601267755,0.6380839292400908
6.7588887214660645,0.25831710352587806,0.2659002357400543,-0.2157264026167074
6.774311780929565,0.25909869839282473,0.26687938655773197,-1.2384791982722514
6.787883281707764,0.2594894958262981,0.26786648643970695,-2.382485045395853
6.802937269210815,0.2596848945430347,0.26885980338646454,-3.8716601629512946
6.816903352737427,0.2598802932597714,0.2698568793164812,-5.0
6.8319010734558105,0.2600756919765081,0.2708555224819089,-5.0
6.855194330215454,0.2604664894099814,0.2718565641346299,-5.0
6.869910478591919,0.26085728684345477,0.27286336023398156,-4.605342622785559
6.8843464851379395,0.26124808427692814,0.27387579311612015,-3.4612466700452935
6.8979833126068115,0.26163888171040145,0.2748908301759156,-1.6995980476084394
6.912992238998413,0.2624204765773481,0.27590581026069777,-0.0534155272210044
6.936283826828003,0.2633974701610315,0.27692111763924665,1.2434532157595684
6.952897548675537,0.2645698624614515,0.27793971228582315,2.442554782338386
6.976685523986816,0.2661330521953449,0.2789640111248119,3.0769970033991214
6.991888761520386,0.2671100457790282,0.2799959703483846,3.3721509291607044
7.006893157958984,0.2684778367961849,0.2810344810371557,3.737547326470013
7.028397083282471,0.27023642524681496,0.28207737811481415,3.735247556532601
7.044446229934692,0.2717996149807083,0.283125544536389,3.5701636063514623
7.058912754058838,0.2729720072811283,0.284179429217955,3.0651487777113595
7.075836181640625,0.2745351970150217,0.28523667699050115,2.7858855979952315
7.098605155944824,0.27687998161586175,0.28629685058722576,2.5989438262027464
7.113142728805542,0.2782477726330184,0.287362342274558,1.893984439130453
7.128905773162842,0.28000636108364846,0.2884323571362855,1.6855145695696088
7.147936582565308,0.2819603482510151,0.28950461051996806,1.3802590653504692
7.167097806930542,0.2837189367016452,0.29057983246666247,0.8092356641101275
7.182883977890015,0.2846959302853286,0.2916588051436718,-0.5766964607407514
7.19691801071167,0.2854775251522752,0.2927392872024219,-1.9547817333436739
7.212462425231934,0.28586832258574857,0.29381791698148124,-3.597123456285426
7.233956336975098,0.2862591200192219,0.29489410519047393,-4.96934534740192
7.248873949050903,0.2862591200192219,0.2959693545903619,-5.0
7.261857986450195,0.2862591200192219,0.2970425134481179,-5.0
7.277863502502441,0.28645451873595856,0.2981100540637003,-5.0
7.2928643226623535,0.28645451873595856,0.29916870359178305,-4.7206065754665385
7.3149192333221436,0.2868453161694319,0.3002179565429861,-3.522732232315705
7.329847812652588,0.28723611360290524,0.30125964801509164,-1.9383920121022684
7.343973636627197,0.28782230975311524,0.3022929554904509,-0.5073737171699951
7.358946800231934,0.2884085059033253,0.30331489337004985,1.4365850054266898
7.373873949050903,0.28919010077027196,0.3043230687863013,2.6070426490154572
7.396955251693726,0.29036249307069195,0.30531798649661634,3.2747614810936208
7.412931442260742,0.2913394866543753,0.3063026757648141,3.890473059676083
7.425977468490601,0.2923164802380587,0.30727770343533267,4.049729066307476
7.44941782951355,0.29407506868868866,0.30824407977182383,3.9831509887149568
7.462206125259399,0.29505206227237213,0.30920488644842237,3.808706358880344
7.477882385253906,0.2964198532895288,0.3101606433909945,3.586968702585793
7.493860960006714,0.29798304302342216,0.3111110047881447,3.6251275817147492
7.508882999420166,0.29935083404057883,0.31205601090873375,3.420183067556317
7.531926155090332,0.30169561864141886,0.31299825462879277,2.8588181619601065
7.54796028137207,0.30345420709204884,0.3139431803762062,2.8071161237980373
7.570725202560425,0.3059943904096256,0.31489587122618007,2.3435868033576126
7.58685827255249,0.3079483775769923,0.3158609991281662,2.0834349869456266
7.601922512054443,0.3097069660276223,0.31683956529271173,1.6371599924270677
7.615815877914429,0.31087935832804237,0.3178293823777043,0.9200613039288875
7.63813042640686,0.3126379467786724,0.3188318271515191,-0.03507295854188597
7.653387784957886,0.3134195416456191,0.3198512864451105,-1.4370350098172522
7.668833494186401,0.3140057377958291,0.320888182188115,-4.079450197620979
7.68935489654541,0.3143965352293024,0.3219417696870854,-5.0
7.7057600021362305,0.31459193394603907,0.3230146797273282,-5.0
7.72184419631958,0.31459193394603907,0.32410794486555994,-5.0
7.736937046051025,0.31459193394603907,0.3252189753143797,-5.0
7.759631872177124,0.3147873326627758,0.32634783866319705,-5.0
7.774746894836426,0.31498273137951244,0.3274979928848465,-4.243747642370696
7.788917541503906,0.31498273137951244,0.3286687654517292,-2.931412041262739
7.802854061126709,0.31537352881298575,0.3298559604978908,-1.3781460957913416
7.817915678024292,0.31576432624645917,0.33105590321033707,0.5261933634323879
7.8408918380737305,0.3167413198301425,0.33226899681633965,1.899401316791984
7.855900526046753,0.3173275159803524,0.33349908055479754,2.8178825983235023
7.871933460235596,0.31830450956403583,0.3347456324783153,3.6576542165341914
7.886870622634888,0.3190861044309825,0.33600442504427963,4.268632865097125
7.9085166454315186,0.32064929416487586,0.33727536325669816,4.362592280146684
7.922459840774536,0.3218216864652959,0.33856184978140763,4.495906465462436
7.93682074546814,0.3229940787657159,0.3398629595266875,4.286573954329685
7.952914714813232,0.32475266721634594,0.34117412584882884,4.507320215961143
7.973078489303589,0.32670665438371266,0.3424938423177072,4.218445490763793
7.989283800125122,0.3284652428343427,0.34382446890136664,3.7697376597059193
8.003279685974121,0.33022383128497274,0.3451667455820699,3.0335428448667825
8.01781415939331,0.3319824197356028,0.3465175779583739,2.5842900816098027
8.033926010131836,0.33413180561970607,0.34787310923924614,2.5578175626804676
8.050426244735718,0.3360857927870728,0.3492309669271665,2.365777890590358
8.063202381134033,0.33803977995443946,0.3505896463662106,2.128523798192513
8.081665754318237,0.34057996327201623,0.3519492831983813,1.6202082947541894
8.096414804458618,0.34214315300590964,0.3533125407157893,1.1017484630770435
8.11184287071228,0.3444879376067496,0.3546804588141755,0.6653085441687401
8.127825736999512,0.346637323490853,0.35605166556502277,0.3302189192345645
8.147406816482544,0.34937290552516637,0.35742576182008,0.08746849066671697
8.16346001625061,0.35152229140926977,0.35880520164327995,-0.3565141168099488
8.17867136001587,0.3536716772933732,0.36019275593510275,-1.0526969807516502
8.193905115127563,0.35503946831052985,0.361587896368741,-1.6851812193571627
8.20890188217163,0.3562118606109498,0.3629877248882758,-2.708837039994422
8.222947120666504,0.35718885419463325,0.3643891147860401,-4.735602898359655
8.244569063186646,0.3579704490615799,0.36579252968031806,-5.0
8.25937294960022,0.3581658477783165,0.3672021502278023,-5.0
8.27367091178894,0.3581658477783165,0.3686188684079542,-5.0
8.288783550262451,0.3583612464950532,0.3700393496066938,-5.0
8.30189323425293,0.3585566452117899,0.37145990824402775,-5.0
8.316805601119995,0.35875204392852655,0.37287732050118855,-5.0
8.333277940750122,0.3593382400787366,0.3742894762774448,-3.512347380234904
8.345796346664429,0.3595336387954733,0.3756945389652453,-1.7321937914588945
8.368884801864624,0.3603152336624199,0.3770931868532946,-0.17529774703129597
8.382786750793457,0.36090142981262996,0.3784895587577116,1.016002692639225
8.398900270462036,0.36129222724610327,0.3798840365564082,2.1270805914075828
8.412865161895752,0.36207382211305,0.381273297403032,2.699658704463899
8.429567337036133,0.3628554169799967,0.3826557749876414,2.957654140586654
8.438785791397095,0.36324621441346994,0.3840298558702386,3.305881331865125
8.452872514724731,0.36402780928041667,0.38539158189715184,3.3012910462997653
8.46590518951416,0.36500480286410003,0.38673779371429573,3.4203885545711983
8.48129940032959,0.3657863977310467,0.38806759756287035,2.9635636238742826
8.492830038070679,0.36676339131473,0.3893803550273496,3.200640720211531
8.510886907577515,0.36793578361515006,0.39067626336351413,3.025625212949801
8.528184413909912,0.36930357463230673,0.39195856894895786,2.714861331153526
8.540775537490845,0.3702805682159901,0.3932300650015915,2.386853274324574
8.557874917984009,0.3718437579498835,0.39449051551959585,2.363010244319404
8.57278037071228,0.3732115489670402,0.3957397273797906,2.1372440460419444
8.58784794807434,0.37457933998419685,0.39697720824608845,2.139745596379707
8.609374284744263,0.37672872586830025,0.3982043075387518,1.9135587603721695
8.623734474182129,0.3782919156021936,0.39942532708201406,1.633747057678392
8.639131784439087,0.3798551053360869,0.4006415874647985,1.370227406731328
8.652887344360352,0.381027497636507,0.40185096323960556,0.8695414415672051
8.666887044906616,0.3823952886536637,0.4030511645231451,0.37718375930755405
8.6818528175354,0.383958478387557,0.4042402562634782,0.25256789833947335
8.695815563201904,0.38532626940471365,0.40541662481949625,-0.009027257047544535
8.718803644180298,0.38747565528881706,0.4065818635013341,-0.26491833862936065
8.733766794204712,0.38884344630597373,0.40774021222064516,-0.7432127425604798
8.748849153518677,0.3902112373231304,0.4088922055591151,-0.9172881669517622
8.762940168380737,0.3913836296235505,0.41003525801255547,-1.225361650972129
8.776884317398071,0.39255602192397054,0.41116711870281497,-1.503344208417523
8.795485496520996,0.3941192116578639,0.41228720515183304,-1.7007806710901414
8.812997817993164,0.3952916039582839,0.41339753141637237,-1.8143589952850494
8.827772617340088,0.39626859754196725,0.4144994466534741,-2.1336211690283546
8.84379506111145,0.39724559112565055,0.4155912336063307,-2.4328502752866896
8.856844902038574,0.3978317872758606,0.4166700168663663,-2.3635426406436437
8.869877815246582,0.3986133821428072,0.4177332212373484,-2.7124488336821804
8.893855810165405,0.39939497700975396,0.41878063481839395,-2.5451015971953135
8.908899307250977,0.399981173159964,0.41981394137767725,-2.4888138718461037
8.924771308898926,0.4003719705934373,0.4208321156455677,-2.725154570116114
8.947768449783325,0.40095816674364737,0.42183364579121574,-2.702076673600116
8.963878631591797,0.4013489641771207,0.42281869986818493,-2.291387510139197
8.9788978099823,0.4013489641771207,0.42378532200572194,-2.0824601693365885
8.990813970565796,0.40154436289385737,0.4247298664858846,-1.9532068081504188
9.005804777145386,0.40154436289385737,0.42564910018480684,-1.8507281253283066
9.017871856689453,0.40154436289385737,0.4265401604131659,-1.4780947414930004
9.031872987747192,0.40154436289385737,0.4274005121003416,-1.0715347499622403
9.045865774154663,0.4013489641771207,0.42822790505731484,-0.7184383721448371
9.059798240661621,0.4013489641771207,0.42902033133694695,-0.44102432926270463
9.080002546310425,0.40154436289385737,0.4297762889713444,0.040641985252491464
9.096294164657593,0.40154436289385737,0.4304946618865859,0.4960732276526262
9.110215187072754,0.40154436289385737,0.43117382852347225,0.850571962043847
9.12478232383728,0.40154436289385737,0.4318115530031313,1.0950088057773462
9.140803098678589,0.40154436289385737,0.43240551149273315,1.2444226147403612
9.163737773895264,0.40154436289385737,0.4329525810637917,1.3199173114274219
9.179922819137573,0.40154436289385737,0.43344865060377835,1.3414270538539586
9.19486927986145,0.4013489641771207,0.43389012144410427,1.3253696653013156
9.212215900421143,0.40154436289385737,0.43427339389447467,1.284362128414765
9.22722864151001,0.40154436289385737,0.4345938045441055,1.227699730232161
9.238892078399658,0.40154436289385737,0.43484751413040096,1.1620299256041362
9.250757455825806,0.40154436289385737,0.43503265381613115,1.0919926398727635
9.271916627883911,0.40154436289385737,0.4351443039810736,1.0207521978365985
9.286772966384888,0.40154436289385737,0.4351734383752095,0.950410997083124
9.302843570709229,0.40154436289385737,0.4351140518291158,0.8823192482008382
9.316779613494873,0.40154436289385737,0.4349634850063855,0.8173014241302968
9.336477518081665,0.4013489641771207,0.43471557999741633,0.7558191733329804
9.349799871444702,0.40154436289385737,0.43436150192811035,0.6980871747011341
9.36687183380127,0.40154436289385737,0.43389467157403094,0.644154790910207
9.381832122802734,0.40154436289385737,0.43330982216917824,0.5939631785274107
9.397881984710693,0.40154436289385737,0.43260451321587523,0.547384942748433
9.420136213302612,0.40154436289385737,0.4317719429490484,0.5042514597209107
9.434086799621582,0.4013489641771207,0.4307991037329124,0.4643715313379357
9.448761701583862,0.4013489641771207,0.42968250287065457,0.4275439755672138
9.462750911712646,0.40154436289385737,0.4284271223545261,0.39356599166726847
9.476905345916748,0.4013489641771207,0.42703802213772746,0.36223859495069555
9.48989725112915,0.40154436289385737,0.4255203377091905,0.3333700295439087
9.503845691680908,0.40154436289385737,0.4238792766426694,0.30677779489163604
9.516725540161133,0.40154436289385737,0.4221201136118255,0.2822897297875495
9.532830715179443,0.4013489641771207,0.4202481835681343,0.2597444628903043
9.545739650726318,0.40154436289385737,0.41826887295173887,0.23899144417145457
9.56285810470581,0.4013489641771207,0.4161848295269344,0.21989070559257287
9.575181722640991,0.4013489641771207,0.4139974415014815,0.2023124530816371
9.588819742202759,0.4013489641771207,0.41171297314901717,0.18613655962467812
9.60281753540039,0.4013489641771207,0.4093393699885192,0.17125200682442576
9.618889570236206,0.4013489641771207,0.40687890253672615,0.15755630666578782
9.629505157470703,0.401153565460384,0.40433511133013655,0.14495492440790148
9.649664640426636,0.40076276802691063,0.40171147627731046,-0.14267764362852037
9.664753675460815,0.40056736931017395,0.3990024619306777,-0.4625079338351681
9.680752277374268,0.40017657187670064,0.396208732829078,-1.0024263999140244
9.694721460342407,0.3997857744432273,0.3933405479562721,-1.4985996332697806
9.711064100265503,0.3995903757264907,0.39040502426694285,-1.3163540723945069
9.728896856307983,0.3991995782930173,0.3874015269245369,-1.2105264271530882
9.742009162902832,0.3986133821428072,0.38432868531691394,-1.1348862862158051
9.752062320709229,0.3980271859925973,0.3811982066290088,-1.069719513007948
9.770994901657104,0.39665939497544056,0.378022685442106,-1.5595469363197227
9.786062479019165,0.3950962052415472,0.37480278011316115,-2.392339076924431
9.800828218460083,0.39314221807418054,0.3715419299015438,-3.700704000216833
9.815736055374146,0.39099283219007713,0.3682501733715059,-5.0
9.829814195632935,0.3884526488725004,0.3649369335454222,-5.0
9.850450992584229,0.3845446745377671,0.3616040612883268,-5.0
9.860359191894531,0.382199889936927,0.35825012538404444,-5.0
9.870744466781616,0.3800505040528236,0.3548875650210363,-5.0
9.893826961517334,0.3741885425507235,0.3515249407798415,-5.0
9.909810543060303,0.3696943720657801,0.3481540040984021,-5.0
9.923813581466675,0.3657863977310467,0.344773966279469,-5.0
9.94173288345337,0.3605106323791566,0.3413904355715753,-5.0
9.95191478729248,0.35718885419463325,0.338008110620104,-5.0
9.973928689956665,0.34937290552516637,0.33462901310638604,-4.780180309302909
9.988205432891846,0.3440971401732763,0.3312469608499487,-4.053347811073739
10.002800703048706,0.3388213748213862,0.32786264058927633,-3.2527151897499005
10.016801595687866,0.3335456094694961,0.32448546864124683,-2.2653681848854084
10.031734704971313,0.32768364796739596,0.3211235702010951,-1.6543490209051217
10.050876140594482,0.31967230058119256,0.3177794914568936,-0.7086721552376164
10.067142486572266,0.31420113651256576,0.31444858439454176,0.44962831143791343
10.08214521408081,0.3091207698774123,0.3111274631794414,2.2790360282684343
10.097731828689575,0.3040404032422589,0.307818806769704,4.225642740790558
10.112817764282227,0.29935083404057883,0.30452903205857373,5.0
10.126773118972778,0.2952474609891087,0.30126512494091073,5.0
10.14820647239685,0.2889947020535353,0.2980264043377847,5.0
10.164798736572266,0.2848913290020652,0.2948043043621627,5.0
10.179726362228394,0.28137415210080513,0.2915967895105921,5.0
10.203238248825073,0.27629378546565175,0.28840252601425764,5.0
10.2187819480896,0.273167405997865,0.2852142774020075,5.0
10.234694719314575,0.2700410265300783,0.28203395757318994,5.0
10.24769139289856,0.2676962419292382,0.2788711287715187,5.0
10.261828899383545,0.2653514573283982,0.2757339025689821,5.0
10.274686574935913,0.2633974701610315,0.272629057643686,5.0
10.292725086212158,0.26085728684345477,0.2695594489948419,5.0
10.311562776565552,0.25851250224261474,0.26652005348398217,5.0
10.325793504714966,0.25694931250872133,0.2635047261597645,4.905974687084483
10.341763973236084,0.25499532534135466,0.2605155565983327,5.0
10.358872890472412,0.2532367368907246,0.2575572422733376,4.4977731751095575
10.37894868850708,0.2514781484400946,0.2546274380553096,3.745948048829541
10.39568018913269,0.2501103574229379,0.2517202807071419,3.0116476669093015
10.416444778442383,0.2483517689723079,0.24883176427610282,2.386367553234842
10.429903745651245,0.2475701741053612,0.24595945829795637,1.6103204172161518
10.444083213806152,0.24659318052167786,0.24310643800213141,0.9138514108395793
10.459789276123047,0.2456161869379945,0.2402776470251098,0.36436945648929203
10.474721670150757,0.24483459207104782,0.23747550785970417,-0.0377535292598801
10.490785598754883,0.2442483959208378,0.2347041770818409,-0.039532157797363646
10.509571313858032,0.24327140233715447,0.2319658945128741,-0.4636642973543113
10.527300119400024,0.2422944087534711,0.22925606090985054,-0.6616068296968179
10.542670011520386,0.2411220164530511,0.22657053373465172,-1.5692830244508587
10.557700395584106,0.2397542254358944,0.2239121209173261,-3.066280304562089
10.57612419128418,0.23780023826852767,0.22128409542037542,-4.431814127282474
10.595004081726074,0.23526005495095098,0.21868303242436138,-5.0
10.6106698513031,0.23291527035011095,0.2161044500372604,-5.0
10.625717878341675,0.23017968831579752,0.21355060778909005,-5.0
10.64907193183899,0.22607631526432748,0.21102131998136833,-5.0
10.662325382232666,0.22353613194675076,0.20851120609290677,-5.0
10.676091194152832,0.2206051511957007,0.20602158728184217,-5.0
10.689742803573608,0.21708797429444063,0.20355810700584454,-5.0
10.704680681228638,0.21357079739318058,0.20112540448424146,-5.0
10.720714330673218,0.20927202562497385,0.19872784484313177,-5.0
10.743306636810303,0.2034100641228737,0.19636341792741072,-5.0
10.7582848072052,0.19911129235466699,0.19402479646601312,-5.0
10.77371859550476,0.19539871673667025,0.19171119692504476,-4.490679644796073
10.792100667953491,0.1905137488182535,0.1894255716461707,-2.927276312973422
10.806626319885254,0.18758276806720342,0.18716754549954287,-1.0103392202914543
10.81910490989685,0.1850425847496267,0.18493823465529702,1.2204184857784584
10.832909107208252,0.1823070027153133,0.18274229394858088,3.6658141627340743
10.852656364440918,0.17878982581405328,0.18058043068194757,5.0
10.867664575576782,0.17624964249647657,0.17844830827641206,5.0
10.8826904296875,0.17390485789563648,0.17634530223143885,5.0
10.898510932922363,0.17175547201153316,0.17427337626704936,5.0
10.916164875030518,0.1694106874106931,0.17223074512271616,5.0
10.933727741241455,0.1674567002433264,0.17021272727475048,5.0
10.947641849517822,0.16589351050943302,0.16821693590394726,5.0
10.962655782699585,0.16433032077553966,0.16624521376131682,5.0
10.980798959732056,0.16257173232490962,0.16429887631262488,4.904158571573049
10.993643283843994,0.1613993400244896,0.1623776932443461,4.519730703267661
11.010334730148315,0.16022694772406962,0.1604818889447349,3.785144168181551
11.02105712890625,0.1594453528571229,0.15861304036081636,3.0319562540402236
11.038510799407959,0.1582729605567029,0.1567728404930431,2.6555392841601764
11.053771734237671,0.15749136568975622,0.1549585966877072,2.4400953111995647
11.068633794784546,0.15670977082280954,0.15316756650251342,2.0120994946964292
11.084754228591919,0.15592817595586284,0.15140094598986245,2.1249127151292235
11.102498292922974,0.15534197980565284,0.1496590034381474,1.8128562616342214
11.118184566497803,0.1549511823721795,0.14793916059971648,1.4015282241589155
11.135115146636963,0.15456038493870616,0.14623810207545673,1.0195687250723755
11.150637149810791,0.1543649862219695,0.14455411704575885,0.7074033754725775
11.165656566619873,0.15377879007175946,0.14288835826566246,0.46853431792577904
11.188454627990723,0.1531925939215495,0.14123941470925608,0.01699101586018248
11.203242540359497,0.1524109990546028,0.13960206452860696,-0.9695207770957183
11.21772813796997,0.15143400547091945,0.13797567876633252,-1.9292209341315125
11.230983018875122,0.1502616131704994,0.1363639198426775,-3.22687078271202
11.246613264083862,0.14889382215334274,0.13476999474955165,-5.0
11.265353679656982,0.1465490375525027,0.1331944309763606,-5.0
11.273604154586792,0.14576744268555603,0.13163759557165702,-5.0
11.286643743515015,0.144008854234926,0.1301035081852322,-5.0
11.305427074432373,0.1416640696340859,0.12859397001895864,-5.0
11.320442914962769,0.13951468374998255,0.1271064431695759,-5.0
11.332449913024902,0.13756069658261585,0.12564011768584413,-5.0
11.348780155181885,0.13521591198177582,0.12419610033299668,-4.822428829961237
11.363049983978271,0.13287112738093576,0.12277422701180263,-4.518379015055259
11.379661321640015,0.1301355453466224,0.12137384228835144,-4.177151993153545
11.39371132850647,0.12759536202904564,0.11999519315674757,-3.562622861163967
11.408614158630371,0.12466438127799562,0.118639612596715,-3.486176229827526
11.429344177246094,0.12114720437673555,0.11730699022917665,-2.7275678298613686
11.44536018371582,0.11880241977589551,0.11599472514413672,-1.3086314030742883
11.460614204406738,0.11723923004200215,0.11470226337213509,0.6211130234538043
11.475706577301025,0.1156760403081088,0.11343232291716206,3.445386267291488
11.493951320648193,0.11391745185747876,0.11218753853614079,5.0
11.512670278549194,0.11254966084032206,0.11096836757023171,5.0
11.52765154838562,0.11176806597337538,0.10977501279758954,5.0
11.541738986968994,0.11137726853990204,0.10861012801715045,5.0
11.55663776397705,0.11118186982316537,0.1074775360902468,5.0
11.580909967422485,0.11059567367295536,0.10637930701619677,5.0
11.597724437713623,0.11040027495621868,0.10531606705146465,5.0
11.620595693588257,0.11040027495621868,0.10428890935803961,5.0
11.635589122772217,0.11040027495621868,0.10329936423987396,4.55744915463984
11.649685621261597,0.11040027495621868,0.10234992836818511,3.3845786769984416
11.664626359939575,0.11040027495621868,0.10144369765380842,2.434814084069032
11.688190698623657,0.11040027495621868,0.10058266724315888,1.1560503703072964
11.702422142028809,0.11020487623948202,0.09976794150522669,0.00044144080859220836
11.71760606765747,0.11000947752274534,0.09900084873027469,-0.8959512488423685
11.732668399810791,0.10961868008927202,0.0982827744267032,-2.0798870025999197
11.746585845947266,0.10922788265579866,0.09761455963780848,-3.382543545433349
11.765342950820923,0.10844628778885199,0.0969965356498249,-4.159294556986982
11.78016209602356,0.10786009163864198,0.09642861912405144,-4.2931714009107935
11.791821241378784,0.10727389548843196,0.09591041581859948,-4.419126465380037
11.807741403579712,0.10610150318801194,0.09544124544750598,-4.46556973703119
11.82267951965332,0.10531990832106528,0.09502018901360669,-4.423999152936833
11.837220668792725,0.1043429147373819,0.0946460822922231,-4.308898528435099
11.850788593292236,0.10336592115369855,0.09431747731112204,-4.140283567236294
11.865580797195435,0.10219352885327855,0.09403267767188976,-3.936790429441975
11.880601167678833,0.1010211365528585,0.09378980449327062,-3.713488729811523
11.904277324676514,0.09945794681896515,0.09358723360638191,-2.929597412084512
11.919607639312744,0.09887175066875514,0.09342358648084861,-1.8029420590748548
11.934574365615845,0.0984809532352818,0.09329695135622088,-0.20626917970974679
11.948607206344604,0.09809015580180845,0.09320495206269368,1.5168950858976369
11.967136859893799,0.09789475708507178,0.09314540670571224,2.9351856263788534
11.982306241989136,0.09809015580180845,0.09311641222046434,3.674571037482785
11.99774718284607,0.09809015580180845,0.0931160204472673,4.010770916367699
12.014705181121826,0.09789475708507178,0.09314215765041259,3.8290994662148545
12.028724670410156,0.09789475708507178,0.09319264843022691,3.469241830046318
12.050986289978027,0.09789475708507178,0.09326560032147162,2.526673571534829
12.06649661064148,0.09789475708507178,0.09335961305899673,1.5452403788876772
12.080214262008667,0.09809015580180845,0.09347294352121842,0.7192220995051498
12.0946044921875,0.09789475708507178,0.09360337828618653,0.09156023008245123
12.108638286590576,0.09789475708507178,0.09374881574457376,-0.3540738429038601
12.123661518096924,0.09809015580180845,0.09390731306963178,-0.6521756054554116
12.143818378448486,0.09789475708507178,0.09407736570241074,-0.8383065218967096
12.161656141281128,0.09789475708507178,0.0942581630308873,-0.9429582735038983
12.175614356994629,0.09789475708507178,0.09444886008629433,-0.9901744019470924
12.191586971282959,0.09789475708507178,0.09464807185888392,-0.998043102503907
12.213121891021729,0.09809015580180845,0.09485475568889659,-0.9797703609454653
12.229583978652954,0.09789475708507178,0.0950685656514319,-0.9447946515906716
12.24560284614563,0.09789475708507178,0.09528880809730965,-0.8997484355637733
12.259585618972778,0.09789475708507178,0.09551422506710183,-0.8492213162068034
12.276343584060669,0.09789475708507178,0.09574374293138477,-0.7963388428608933
12.293746709823608,0.09789475708507178,0.09597686297000392,-0.743189549351936
12.309821367263794,0.09789475708507178,0.09621336714726868,-0.6911344309249564
12.324585199356079,0.09809015580180845,0.09645272282595012,-0.6410284962044
12.337591886520386,0.09809015580180845,0.09669399753979606,-0.5933779842797657
12.353607177734375,0.09789475708507178,0.0969362040289604,-0.5484511799497409
12.376787662506104,0.09789475708507178,0.09717907214295808,-0.5063560881284893
12.392607927322388,0.09809015580180845,0.09742293308930135,-0.46709460212355774
12.407617092132568,0.09789475708507178,0.09766742606565075,-0.4306000843069351
12.430670022964478,0.09789475708507178,0.09791218315804001,-0.3967632876204241
12.44560194015503,0.09809015580180845,0.09815742824559631,-0.3654501090567999
12.459583282470703,0.09789475708507178,0.0984027383526591,-0.33651363814715274
12.47559905052185,0.09809015580180845,0.0986471565127104,-0.3098022329171537
12.495056867599487,0.09809015580180845,0.0988902069252534,-0.285164839034695
12.505086183547974,0.09789475708507178,0.09913158692271029,-0.26245440357539523
12.525277137756348,0.09809015580180845,0.09937090050936737,-0.24152997862271475
12.539203882217407,0.09809015580180845,0.09960816598653671,-0.22225793005070205
12.553584098815918,0.09789475708507178,0.09984322193649799,-0.20451254074133893
12.567569732666016,0.09809015580180845,0.10007552242323031,-0.1881762091944315
12.579962968826294,0.09789475708507178,0.10030464898346422,-0.17313938273061413
12.594656944274902,0.09809015580180845,0.10053030117178088,-0.15930032133890987
12.609639883041382,0.09809015580180845,0.10075228668966937,-0.14656475810878267
12.633571863174438,0.09789475708507178,0.10097107745414699,-0.13484550120310243
12.648629426956177,0.09789475708507178,0.10118771129607253,-0.1240620077315357
12.664612531661987,0.09809015580180845,0.10140256819251747,-0.11413994975257302
12.687433004379272,0.09809015580180845,0.10161605600894795,-0.1050107856212009
12.702562808990479,0.09809015580180845,0.10182916649856757,-0.09661134506625907
12.71863055229187,0.09809015580180845,0.1020421875383743,-0.08888343306757171
12.741588354110718,0.09809015580180845,0.10225541319615958,-0.081773455346938
12.756576299667358,0.09809015580180845,0.10246972641253979,-0.07523206676659483
12.770653247833252,0.09809015580180845,0.10268526510941854,-0.06921384291849111
12.785543441772461,0.09809015580180845,0.10290152701966844,-0.06367697453028653
12.79860234260559,0.09809015580180845,0.10311808268051056,-0.05858298389956473
12.822580099105835,0.09809015580180845,0.10333518630184098,-0.05389646231979478
12.837592840194702,0.09789475708507178,0.10355366209274386,-0.04958482732675013
12.853608846664429,0.09809015580180845,0.10377356084515665,-0.04561809853538847
12.866636514663696,0.09809015580180845,0.10399427716784934,-0.04196869082890284
12.886412858963013,0.09789475708507178,0.10421563865883265,-0.03861122368603259
12.904582023620605,0.09809015580180845,0.1044380851425907,-0.035522345477559614
12.920621871948242,0.09809015580180845,0.10466184526674853,-0.0326805716198416
12.93450379371643,0.09809015580180845,0.10488647573980907,-0.030066135536595023
12.94761610031128,0.09809015580180845,0.10511133587497805,-0.027660851446106024
12.96563982963562,0.09809015580180845,0.10533612018789121,-0.025447988057124515
12.984066247940063,0.09809015580180845,0.10556112584735156,-0.023412152321249477
12.999523162841797,0.09809015580180845,0.1057867181254552,-0.02153918245163595
13.013514518737793,0.09809015580180845,0.10601269815904267,-0.01981604947676559
13.028550624847412,0.09809015580180845,0.10623855117306902,-0.01823076665350669
13.042518377304077,0.09809015580180845,0.1064638165110211,-0.016772306115643797
13.0632963180542,0.09809015580180845,0.10668862205477368,-0.015430522182484653
13.077303409576416,0.09809015580180845,0.10691364745079865,-0.01419608079715055
13.092852115631104,0.09809015580180845,0.10713915695482554,-0.013060394605863744
13.107547283172607,0.09809015580180845,0.10736496349294199,-0.01201556322813431
13.122509956359863,0.09809015580180845,0.10759079344193485,-0.01105431830340135
13.14616322517395,0.09867635195201847,0.1078170190671123,-0.01016997293259169
13.15994906425476,0.09906714938549181,0.1080446527376639,0.5427203441939539
13.175625085830688,0.09945794681896515,0.10827389650570221,0.8857564201627943
13.188574314117432,0.09984874425243849,0.10850425506001336,1.3614518586815016
13.202526330947876,0.10023954168591184,0.10873531125142902,1.7731440563185332
13.217523574829102,0.10082573783612185,0.10896671638873441,1.7886896044861267
13.24142336845398,0.1010211365528585,0.10919884901686673,1.3762196424402031
13.256559133529663,0.1010211365528585,0.10943272066838934,0.6117449835062898
13.271545171737671,0.1010211365528585,0.10966852564950202,-0.6802426617875504
13.287273645401001,0.1010211365528585,0.10990578473879384,-1.6124105644633266
13.30124282836914,0.1010211365528585,0.11014416898218307,-1.9562173220554477
13.312565565109253,0.1010211365528585,0.11038322187081412,-2.0217738991234633
13.334502220153809,0.10121653526959519,0.11062285518530597,-1.684978521951631
13.35051441192627,0.10141193398633185,0.11086371339284466,-0.9863588352351145
13.364559650421143,0.1018027314198052,0.11110594078464277,-0.29213315529852724
13.375330686569214,0.10199813013654188,0.11134883594306307,0.27228037313055253
13.389559984207153,0.10258432628675188,0.1115916668209225,0.9604268135738048
13.403145551681519,0.10297512372022523,0.11183397623125083,1.2701039465598365
13.416697978973389,0.10356131987043524,0.1120753527215265,1.3838340599185783
13.431533336639404,0.10414751602064523,0.11231533350673431,1.6722928623788305
13.44552755355835,0.10453831345411858,0.11255351655904194,1.6661012562350936
13.459540367126465,0.10492911088759192,0.11278955901730389,1.2701770489346802
13.47995924949646,0.10492911088759192,0.11302351032001454,0.5327040591829993
13.493939399719238,0.10512450960432859,0.11325579742570172,-0.45705857885404916
13.50636625289917,0.10512450960432859,0.11348640632512547,-1.3345188794656941
13.522857666015625,0.10492911088759192,0.11371506843027374,-1.993086143756561
13.539559125900269,0.10512450960432859,0.1139419341805357,-2.432125036411795
13.554534435272217,0.10512450960432859,0.11416715935976614,-2.4118345436802375
13.568539142608643,0.10512450960432859,0.1143905985338876,-1.9425148082702848
13.587933778762817,0.10531990832106528,0.11461240134984511,-1.1184298690678545
13.600366353988647,0.10571070575453859,0.11483301656294591,-0.599303873942577
13.618860244750977,0.10610150318801194,0.1150528197796277,0.28225976796072866
13.63448715209961,0.10668769933822195,0.11527226677225758,0.8336057632707226
13.648501634597778,0.1070784967716953,0.11549151586105756,1.715939387466882
13.667499303817749,0.1076646929219053,0.11571065531426156,1.9645396475601546
13.680973052978516,0.10786009163864198,0.11593004575508209,1.662230879545171
13.700753211975098,0.10786009163864198,0.11615025437349652,0.9439829401689507
13.715467929840088,0.10786009163864198,0.11637207379708833,-0.05909645886480802
13.729517459869385,0.10786009163864198,0.11659577723703456,-1.2386357042641873
13.751417875289917,0.10786009163864198,0.11682170253669792,-1.959980575437562
13.768473863601685,0.10805549035537865,0.1170509489130877,-1.821134846324611
13.78351879119873,0.10805549035537865,0.11728416739203326,-1.1337964546163464
13.807671070098877,0.10844628778885199,0.11752195364409787,-0.38683216252156527
13.821561813354492,0.10883708522232532,0.11776537513720516,0.24205043994992476
13.83511471748352,0.10922788265579866,0.11801448100622254,0.7105184386137328
13.84860348701477,0.10961868008927202,0.11826843773307932,1.0297977938419791
13.862364530563354,0.11020487623948202,0.11852647009158335,1.5040561145431843
13.877589225769043,0.11040027495621868,0.11878784988377863,1.6440215481402571
13.895605325698853,0.11079107238969202,0.11905206097503329,1.353984621449987
13.906492233276367,0.11079107238969202,0.11931858818523763,0.6883077756822662
13.919494867324829,0.11079107238969202,0.11958656590712255,0.019893783359283046
13.933509349822998,0.11079107238969202,0.11985518587771672,-0.7986799966921185
13.94986629486084,0.1109864711064287,0.12012400335649968,-1.5004920502219985
13.963707685470581,0.1109864711064287,0.12039276016614596,-1.7373182733599264
13.978194952011108,0.11118186982316537,0.12066113943778532,-1.4825358977564398
13.996798753738403,0.11157266725663871,0.12092913007791943,-0.8240354142711225
14.011051416397095,0.11176806597337538,0.12119701495950098,-0.150764366938812
14.025477409362793,0.11215886340684872,0.1214644782520831,0.677188835041038
14.040580749511719,0.11254966084032206,0.12173077344007122,1.1134739567420509
14.055514097213745,0.11313585699053208,0.12199526936191668,1.6034244556678634
14.077342748641968,0.11411285057421541,0.12225809307254003,1.9983235177961387
14.092479228973389,0.11469904672442544,0.122520056252426,1.9875669535790053
14.108501195907593,0.11548064159137211,0.1227812809979775,1.8243822214369532
14.122476577758789,0.1156760403081088,0.12304126479567043,1.3451897719941432
14.140451908111572,0.11587143902484545,0.12329995479676094,0.2870704063533334
14.155376672744751,0.11606683774158212,0.12355783663738734,-0.7598655917077174
14.164915800094604,0.11606683774158212,0.12381487480967766,-1.5951643186759967
14.18098497390747,0.1162622364583188,0.12407060082382419,-2.184467114404316
14.196759223937988,0.1162622364583188,0.1243254111499002,-2.280339724033455
14.209797143936157,0.1162622364583188,0.12458003000819996,-2.1717479412207226
14.221112251281738,0.11645763517505547,0.12483448515324969,-1.7158517278027943
14.241005182266235,0.11645763517505547,0.12508910745720214,-1.214153547545767
14.257493495941162,0.11645763517505547,0.1253450969766523,-1.0544983053235175
14.28001618385315,0.11665303389179212,0.12560419347903096,-0.7466230458281313
14.295469284057617,0.11665303389179212,0.12586841726888132,-0.4405577635249781
14.310518026351929,0.1168484326085288,0.12613863023205418,-0.18794100435302488
14.335023403167725,0.11743462875873882,0.12641567246982832,0.55380015753761
14.349443674087524,0.11782542619221216,0.12670129914418726,1.0294245947753078
14.365445852279663,0.11802082490894884,0.1269959131937751,1.5926760681409733
14.380428791046143,0.11860702105915884,0.12729874639779923,2.058013554382676
14.39862585067749,0.11919321720936885,0.12760978863929404,2.102674092053264
14.415589570999146,0.1195840146428422,0.12793015739178695,1.9781590610219046
14.429166555404663,0.11997481207631551,0.1282605576582094,1.5230510843535325
14.442594289779663,0.11997481207631551,0.1286003755290657,0.7536477220661141
14.457529306411743,0.11997481207631551,0.12894855702131267,-0.5318926075781896
14.4734365940094,0.11997481207631551,0.12930416203559564,-1.7329936667880532
14.492820739746094,0.12017021079305219,0.12966710376410145,-2.105823436309333
14.505698442459106,0.12017021079305219,0.13003788525414134,-2.115842313106133
14.523502588272095,0.12036560950978886,0.13041668989348004,-1.7057040284183045
14.537712097167969,0.12075640694326222,0.13080370874835642,-0.9416946038034133
14.55246615409851,0.12114720437673555,0.1311985404008902,-0.19760012756319595
14.565446615219116,0.12153800181020889,0.13160013874802334,0.6771133460241758
14.580429792404175,0.1221241979604189,0.13200758749795172,1.4195652166234365
14.60082721710205,0.12290579282736558,0.13242090179660754,1.9613282130471912
14.613359928131104,0.12329659026083893,0.13284053082930358,2.0359601244306647
14.63350224494934,0.12446898256125893,0.13326659564311868,2.1976026014538244
14.646503686904907,0.12505517871146896,0.13369965057761024,2.054140819082438
14.661411046981812,0.12583677357841566,0.13413955844645817,2.091081873686263
14.685103178024292,0.12700916587883565,0.13458667276619782,1.8779624992584596
14.693637371063232,0.12700916587883565,0.1350417232491261,1.0502040784752935
14.71344542503357,0.12759536202904564,0.1355038459392501,-0.1068348239058845
14.729494571685791,0.12759536202904564,0.13597276209995784,-1.700859351379687
14.743427515029907,0.12759536202904564,0.13644818471368367,-3.1123182776967413
14.763787508010864,0.12759536202904564,0.13692990474718145,-3.6073893457513533
14.776845455169678,0.12779076074578233,0.1374186417125003,-3.670031348366069
14.788455963134766,0.12779076074578233,0.13791346037111668,-2.985412115874587
14.800817489624023,0.127986159462519,0.13841208372607888,-2.154427474461796
14.813570261001587,0.1281815581792557,0.13891272924437195,-1.1323087638725517
14.833627462387085,0.1287677543294657,0.13941547527549658,-0.22925973285397472
14.84848141670227,0.12915855176293903,0.1399218716819199,0.742659021922249
14.863513469696045,0.12974474791314905,0.14043214566376258,1.5431773560778832
14.877498626708984,0.1301355453466224,0.1409452832498085,1.8418497833525014
14.892410516738892,0.13091714021356907,0.14146041857677227,2.176116229707703
14.905471801757812,0.1315033363637791,0.1419768192848332,2.432219930642876
14.928197383880615,0.1326757286641991,0.1424953903417653,2.585308885207402
14.94341516494751,0.13365272224788244,0.14301846835962018,2.369078123772144
14.95953917503357,0.1346297158315658,0.14354653463054254,2.3226196806510773
14.982687711715698,0.13619290556545915,0.14407996673716542,2.3117835920523655
14.995609283447266,0.13697450043240583,0.14462045293030504,1.7346586359816185
15.011407375335693,0.13775609529935254,0.1451677692494759,1.3400648622852207
15.024407625198364,0.13814689273282588,0.14572031560819487,0.5110614486108961
15.03844404220581,0.1385376901662992,0.14627670461049472,-0.3064439579215364
15.052396297454834,0.1385376901662992,0.14683563249232032,-1.7893587304540939
15.067379713058472,0.13873308888303587,0.1473960054750329,-3.459347566970746
15.083227157592773,0.13873308888303587,0.1479572323160136,-4.278687482991093
15.100240230560303,0.13873308888303587,0.1485198417530837,-4.61709961277188
15.116093397140503,0.13873308888303587,0.14908513142124818,-4.128872776014545
15.131203174591064,0.13892848759977253,0.14965391888948243,-3.417684817703663
15.145392179489136,0.1391238863165092,0.15022602752419745,-2.4527785128404775
15.161432981491089,0.13971008246671923,0.15080060845896207,-1.0079970368000093
15.176389217376709,0.14010087990019257,0.1513766818249464,0.3288917283534568
15.198241710662842,0.14068707605040257,0.1519551237436854,1.0970451148032312
15.211780548095703,0.1412732722006126,0.15253828935564365,1.7989903841859962
15.225729942321777,0.1418594683508226,0.15312637198852175,2.0486207944015487
15.239327192306519,0.14264106321776926,0.15371784787352813,2.3566309521701627
15.253260374069214,0.14303186065124263,0.15431133754916596,2.5966378872487876
15.26841926574707,0.144008854234926,0.15490552671386834,2.4619484526306277
15.283419132232666,0.14498584781860932,0.15549922606333288,2.7547311174733506
15.299808740615845,0.14596284140229268,0.1560916560966096,2.544397599255314
15.320415019989014,0.14752603113618606,0.15668366524179306,2.181491267362082
15.333404541015625,0.14869842343660605,0.1572768538721775,2.088269156995486
15.348407745361328,0.14987081573702607,0.15787087091979235,1.7984999773674926
15.36250114440918,0.1510432080374461,0.15846404742086725,1.4789167858382368
15.378376960754395,0.15182480290439276,0.1590549318851949,0.6406305680799131
15.39546275138855,0.1522156003378661,0.15964285204954376,-0.48912956924572937
15.411483764648438,0.1524109990546028,0.16022827385983837,-2.0442970471065873
15.42377519607544,0.15260639777133944,0.16081129970408,-3.1403939435822656
15.43238091468811,0.15260639777133944,0.1613900478815745,-4.118765334877229
15.451827764511108,0.15260639777133944,0.1619629839738505,-4.823913365139436
15.470538854598999,0.15280179648807612,0.16253154001947376,-4.973180027338915
15.485452890396118,0.15280179648807612,0.16309748798031973,-4.3033373435188755
15.499460935592651,0.1529971952048128,0.16366089909066492,-2.8932947927267607
15.517260074615479,0.15338799263828612,0.1642219833538437,-1.478096431907419
15.53614068031311,0.15416958750523282,0.1647827084915103,-0.3123884316321004
15.551376819610596,0.15456038493870616,0.16534528021172348,0.8312861733540011
15.566444396972656,0.15514658108891616,0.1659099453519942,1.7405924160293669
15.584285736083984,0.15592817595586284,0.16647644460732497,2.380776750940006
15.601086139678955,0.15670977082280954,0.1670458269820369,2.508061127227414
15.616705656051636,0.15768676440649287,0.16761951772688868,2.691949311495491
15.630576610565186,0.15846835927343958,0.16819782612509226,2.550783415505779
15.644391059875488,0.1594453528571229,0.16877978306808902,2.3011622249250396
15.659469604492188,0.16042234644080625,0.169364038492526,2.3124708686759092
15.673353910446167,0.16120394130775295,0.16994937239726784,2.1018622666660987
15.68839168548584,0.16237633360817297,0.17053468413832226,2.1106279583818983
15.70372724533081,0.16335332719185633,0.17111904381965895,1.8870007960720823
15.71805477142334,0.16433032077553966,0.1717019715491513,1.3323499263733367
15.733828783035278,0.16491651692574968,0.17228365906320028,0.4844665293429506
15.75206995010376,0.165307314359223,0.17286507024245995,-0.3025534944045585
15.767359495162964,0.1655027130759597,0.1734470371523196,-1.7449261445461444
15.781395196914673,0.16569811179269636,0.17402894560767299,-3.103332423125162
15.79540753364563,0.16569811179269636,0.17460938994882477,-4.415402707732213
15.80944275856018,0.16569811179269636,0.17518713170346906,-4.306121176997433
15.82341194152832,0.16569811179269636,0.17576109016456593,-4.2603311177955785
15.837341785430908,0.16569811179269636,0.17633033269539056,-3.6404847309047774
15.860022783279419,0.1660889092261697,0.1768954952982257,-2.6338388435578466
15.875376462936401,0.16647970665964307,0.17745851798277648,-1.386261809858582
15.890403270721436,0.1668705040931164,0.1780195445328935,0.2705672776389324
15.910446405410767,0.16765209896006306,0.17857808486547827,1.1890544731459363
15.920771837234497,0.1680428963935364,0.17913400768456283,1.957052718286587
15.937271356582642,0.16862909254374644,0.17968626053212136,2.2311508625344305
15.951700687408447,0.1694106874106931,0.18023425666557194,2.5433990762159695
15.964534521102905,0.16999688356090312,0.180777582915754,2.5020453030623937
15.976207971572876,0.17077847842784977,0.18131498097868637,2.600702723089017
15.98957085609436,0.17156007329479647,0.18184515974268883,2.418452045158861
16.008143186569214,0.1725370668784798,0.1823682805037811,2.4273935236301254
16.018609523773193,0.1733186617454265,0.18288513405725576,2.19103291359087
16.035326719284058,0.17449105404584653,0.18339568614643662,1.8943011519955861
16.05006241798401,0.1754680476295299,0.18390036585986216,1.6117773004784173
16.061376333236694,0.17624964249647657,0.18439937366743814,1.368166600188933
16.073156595230103,0.17703123736342324,0.1848917990292806,0.8909156087688079
16.089441061019897,0.17761743351363324,0.18537747503011667,0.41841914466921726
16.10436511039734,0.1780082309471066,0.18585747319598567,-0.5198697825476357
16.118373155593872,0.17820362966384326,0.18633251767436038,-1.6996689090051413
16.134347915649414,0.17839902838057992,0.18680271929696549,-3.2647531780405146
16.14735245704651,0.17839902838057992,0.18726822666314516,-4.341317854054079
16.16393756866455,0.17839902838057992,0.18772957133866908,-4.727897758744717
16.177305936813354,0.17839902838057992,0.18818755089094596,-4.486079252394534
16.19744110107422,0.17859442709731663,0.18864353064241826,-3.7579906631883233
16.21245574951172,0.17898522453078994,0.18909944231048315,-2.690525691614708
16.226462841033936,0.1791806232475266,0.1895559072854329,-1.4082752015397195
16.239368438720703,0.17937602196426328,0.1900123824482604,-0.28359206520306196
16.253352642059326,0.1799622181144733,0.1904684080878152,0.8561060517870115
16.26835536956787,0.18035301554794664,0.1909235990953962,1.773823077697919
16.292015314102173,0.18133000913162997,0.1913789912876345,2.4244100804258952
16.307385206222534,0.18211160399857668,0.191836799731437,2.8362767642055395
16.321470022201538,0.18289319886552335,0.1922974857664435,2.782947154516537
16.336330890655518,0.18367479373247003,0.19276002139122556,2.8325999579960204
16.35954260826111,0.1850425847496267,0.19322477348190673,2.8719878663587135
16.374349355697632,0.18582417961657338,0.1936933326320138,2.5900845618298955
16.390365839004517,0.18680117320025674,0.19416574467920306,2.22720609986853
16.411951065063477,0.1873873693504668,0.19464175648943394,1.3283973524307575
16.428308725357056,0.18758276806720342,0.19512242362570745,0.135813587174908
16.44432258605957,0.18758276806720342,0.19560779085007224,-2.030558020180573
16.467191696166992,0.18758276806720342,0.1960979187520143,-3.522435291695064
16.4812171459198,0.18758276806720342,0.19659406110365413,-3.9193227626233
16.49533224105835,0.18758276806720342,0.19709604830644983,-3.841183025134919
16.509352922439575,0.18758276806720342,0.19760239925102022,-3.302798520678879
16.52254605293274,0.18777816678394008,0.1981118886647977,-2.4028363151790715
16.53834342956543,0.18797356550067676,0.19862358719175147,-1.2525665135273076
16.552305936813354,0.18816896421741344,0.1991368367113006,-0.2252181300661148
16.569952487945557,0.18855976165088678,0.19965184964627444,0.8460943411195538
16.58564329147339,0.1891459578010968,0.20016998029692698,1.4418223872551172
16.60204029083252,0.1897321539513068,0.20069304112919717,1.7539220511117266
16.617307662963867,0.19031835010151682,0.20122244335878753,2.170385734807093
16.63329792022705,0.1910999449684635,0.20175838705790378,2.791320263849422
16.653502464294434,0.19207693855214686,0.20230169332124415,2.7745442820518695
16.667182207107544,0.19285853341909354,0.2028545017212766,2.522318420920791
16.680710554122925,0.19364012828604024,0.20341738944257656,2.487971150886853
16.69179081916809,0.1942263244362502,0.20398889158789993,2.2244127550033204
16.704786777496338,0.1950079193031969,0.20456715410248125,1.910431518754046
16.720486402511597,0.19598491288688025,0.2051513532405277,1.6169453845693165
16.73767614364624,0.19715730518730026,0.20574262091924667,1.3664176941296433
16.75231432914734,0.19832969748772028,0.2063428174970524,1.160925871429855
16.76633596420288,0.1993066910714036,0.206952302199943,0.9950479339981111
16.782318830490112,0.19989288722161366,0.20757021631092074,0.5854635408480566
16.79816770553589,0.20028368465508697,0.20819614298674666,-0.6599139378710059
16.814727783203125,0.20047908337182369,0.20883090617053576,-1.929876101932217
16.829023361206055,0.20067448208856034,0.2094755121947097,-2.9433032102787866
16.842897176742554,0.20067448208856034,0.2101297803998586,-3.9222936012547223
16.858938217163086,0.20067448208856034,0.21079324429336735,-4.3810813120581535
16.872856616973877,0.20086988080529702,0.2114656820719487,-4.25658275937001
16.887393712997437,0.20106527952203365,0.2121463743485348,-3.640803402057198
16.903366327285767,0.20145607695550702,0.21283411369135402,-2.3880633433626324
16.922656059265137,0.202042273105717,0.21352902323180917,-1.1395857898547557
16.940282821655273,0.20262846925592706,0.214233450023212,0.16002189097344732
16.955402851104736,0.20321466540613706,0.21494896615692502,0.951209391071071
16.96932077407837,0.20380086155634705,0.2156746167036967,1.6929838149407328
16.984387159347534,0.2043870577065571,0.21640861982365037,2.257594281950461
16.99727773666382,0.20516865257350375,0.21714942349332422,2.6307908347360414
17.011326551437378,0.2061456461571871,0.21789568030250495,2.8398752720953544
17.03202772140503,0.20731803845760713,0.21864787716643547,2.6462727022453127
17.0480055809021,0.20829503204129046,0.21940873985129764,2.6040724915970994
17.061657428741455,0.20946742434171048,0.2201795430292632,2.311354651057196
17.07629895210266,0.21044441792539384,0.22095891404785545,1.9658502675820602
17.092299699783325,0.21200760765928722,0.22174490864505123,1.9214426066097599
17.106324195861816,0.2131799999597072,0.2225358259748697,1.959368234588783
17.128716945648193,0.21513398712707393,0.2233326052729537,1.7170485338003658
17.144311666488647,0.21630637942749392,0.22413842574403728,1.4099259978930394
17.158318281173706,0.217478771727914,0.22495352727390852,1.1233711189250948
17.173316478729248,0.218651164028334,0.22577565529511204,0.33232727971107506
17.192835569381714,0.2194327588952807,0.2266043428802056,-1.0269283219654064
17.209837675094604,0.21962815761201734,0.22744167788135236,-2.2985664069726823
17.223432064056396,0.219823556328754,0.2282889692417118,-3.824874337934781
17.239325523376465,0.219823556328754,0.22914481530615602,-5.0
17.25430727005005,0.219823556328754,0.23000700385221812,-5.0
17.268328189849854,0.219823556328754,0.23087369374439326,-5.0
17.281293392181396,0.219823556328754,0.23174339728379245,-4.5362722087492875
17.302061796188354,0.22021435376222737,0.23261697819325275,-3.3821631189519517
17.31260871887207,0.22040975247896405,0.23349640289856397,-1.9084076609779808
17.328162670135498,0.22080054991243736,0.23438107183125803,-0.5888387175344618
17.343189239501953,0.22138674606264738,0.2352702654645016,0.7134684932650809
17.360278129577637,0.22216834092959406,0.23616513213247126,1.7542174341821712
17.37529730796814,0.22275453707980408,0.2370670644845267,2.7679900638913626
17.389296054840088,0.22373153066348742,0.2379762028235912,3.271205281301481
17.405190229415894,0.22451312553043412,0.23889227323808399,3.4751556572677567
17.425457239151,0.22588091654759082,0.2398182030327402,3.5022903149683193
17.44131588935852,0.2270533088480108,0.24075880339426003,3.4253072426445836
17.456258058547974,0.2280303024316942,0.2417152399894145,3.564359717761487
17.472967386245728,0.22939809344885087,0.24268598035162472,3.427744992590245
17.495306730270386,0.23154747933295422,0.24367280601871624,3.1871892867976674
17.509257793426514,0.23291527035011095,0.24467989382994076,2.92062389790404
17.523305654525757,0.23428306136726765,0.24570727835949227,2.6612833281668204
17.53827953338623,0.2360416498178977,0.24675169871479255,2.421608458510031
17.55738615989685,0.23799563698526438,0.24781187724456927,1.9287065083331296
17.569121599197388,0.2391680292856844,0.24888773533672512,1.4247723306623699
17.582847833633423,0.24073121901957772,0.24997692005042838,0.9959360015280768
17.597941398620605,0.24248980747020776,0.2510767779626935,0.6608088501396974
17.61087155342102,0.24385759848736446,0.252185668311342,0.13556214686894824
17.626136302947998,0.24542078822125782,0.25330175239709096,-0.352732924248905
17.63462495803833,0.24600698437146784,0.25442145922060305,-1.008159070888835
17.648454904556274,0.24698397795515117,0.2555398075905197,-1.8568109068132976
17.66264033317566,0.2475701741053612,0.25665501006871844,-2.8601941946586567
17.68216300010681,0.24815637025557122,0.25776993475553533,-4.2405125743533905
17.696259260177612,0.2483517689723079,0.25888892973256256,-5.0
17.709705352783203,0.24893796512251787,0.2600131372401338,-5.0
17.724284887313843,0.24932876255599123,0.26114108775180556,-5.0
17.74026370048523,0.24991495870620126,0.26227163584180063,-4.655789781059984
17.760608196258545,0.2508919522898846,0.2634063498181529,-3.5466395625738913
17.770132780075073,0.25128274972335796,0.26454747761581904,-2.0833191713167456
17.78126811981201,0.25186894587356795,0.2656921755139293,-0.7589870287103804
17.794227123260498,0.25245514202377795,0.2668365483476549,0.5541139947584224
17.808292627334595,0.2532367368907246,0.2679799174679402,1.6074600354687587
17.825823068618774,0.25460452790788135,0.26912432122381097,2.081701343891595
17.842259645462036,0.25577692020830134,0.27027446759618495,2.530423023469499
17.854151487350464,0.256558515075248,0.27143341836570595,2.85530518715791
17.86822271347046,0.25792630609240474,0.27260091228567673,3.044319753383199
17.884662628173828,0.2592940971095614,0.2737784678053561,2.841101988923298
17.90025305747986,0.2606618881267181,0.2749693917896947,2.792141925041726
17.916292190551758,0.2624204765773481,0.27617465706897043,3.0446879094620654
17.936694622039795,0.2645698624614515,0.2773969728353786,2.757722130124844
17.95105266571045,0.2661330521953449,0.2786425656908211,2.594502755048953
17.9682776927948,0.26828243807944824,0.2799147061633839,2.471007370349035
17.983264446258545,0.2700410265300783,0.28121306131113066,2.3541151451989695
18.00171160697937,0.2721904124141816,0.2825384071729959,1.9572709187814141
18.01965832710266,0.27433979829828503,0.28389545273969385,1.5221952999496784
18.034242391586304,0.27629378546565175,0.28528827293408143,1.1392071967392106
18.050246238708496,0.2782477726330184,0.28671528930518675,0.5560501671292235
18.066567420959473,0.28020175980038514,0.2881731088430136,0.012565976838948889
18.084447860717773,0.28215574696775186,0.28966169957585636,-0.4150323547573055
18.09647297859192,0.2831327405514352,0.2911816405311283,-0.9951297282723899
18.10978388786316,0.28410973413511853,0.2927291989934628,-1.7782100952568742
18.124425411224365,0.2848913290020652,0.2942997613294222,-3.0086039146257155
18.13704752922058,0.2854775251522752,0.29588983756465626,-4.113154593006762
18.14722490310669,0.28567292386901194,0.29749269664348765,-5.0
18.168152809143066,0.28664991745269525,0.299104942410296,-5.0
18.183271884918213,0.2874315123196419,0.3007313075257814,-5.0
18.198245763778687,0.28821310718658855,0.3023729434870452,-4.518705792077185
18.213263034820557,0.28919010077027196,0.3040255957820447,-2.808496281708089
18.234716176986694,0.2905578917874287,0.30568949099538667,-1.2698522552195985
18.249693393707275,0.29153488537111205,0.3073693547122887,-0.06355645251084818
18.264203786849976,0.292707277671532,0.3090655403726428,1.0833280567349908
18.27821135520935,0.29387966997195203,0.3107733464990398,1.9801741360482255
18.292203664779663,0.29505206227237213,0.3124879880485821,2.3263066365423906
18.30524444580078,0.29622445457279206,0.31420542580322214,2.677466869603102
18.321340084075928,0.29798304302342216,0.31592235256796414,3.2074343455121355
18.339148998260498,0.29974163147405214,0.3176383913844149,3.3797563613708013
18.353294849395752,0.3015002199246822,0.3193561021815374,3.3636182797436547
18.369527101516724,0.30345420709204884,0.3210778634190522,3.2494988628783044
18.384502410888672,0.3054081942594156,0.32280593453188344,3.0865181589161317
18.394102573394775,0.30677598527657224,0.32453864335226357,2.9017322363545857
18.411131143569946,0.3091207698774123,0.32627238720655877,2.7102135718544966
18.42542266845703,0.31087935832804237,0.3280088222184941,2.5203929478429488
18.438359022140503,0.31283334549540903,0.3297496122543811,2.0609019363781447
18.453242778778076,0.31498273137951244,0.3314937880256471,1.5771495290951143
18.46924114227295,0.31713211726361584,0.33324070355994034,1.7106488347506428
18.485671758651733,0.31967230058119256,0.3349907837027696,1.444933818523466
18.497226238250732,0.3216262877485592,0.3367444476925421,1.359856797589613
18.521340370178223,0.325925059516766,0.33850601356502885,1.0567532038678737
18.536332845687866,0.3284652428343427,0.3402846185085876,1.0043920577478753
18.55898427963257,0.33237321716907614,0.34208743844239564,0.7546275331467253
18.574200868606567,0.3351087992033895,0.34391973458357417,0.20366049027244576
18.589292764663696,0.3378443812377029,0.34578125709783697,-0.06601559154423517
18.602238178253174,0.33979836840506955,0.3476655044257954,-0.46912370093536554
18.61631679534912,0.3419477542891729,0.349565508133958,-0.5569385383312425
18.629213571548462,0.34370634273980294,0.35147479673657145,-1.0719375799368356
18.64323353767395,0.34526953247369635,0.35338740736748475,-2.165853585791015
18.65724229812622,0.346637323490853,0.355297901371104,-3.4883849296701053
18.672283172607422,0.34780971579127296,0.35720138196242046,-5.0
18.688180685043335,0.3487867093749564,0.359094559244418,-5.0
18.697170972824097,0.34898210809169306,0.3609745419720507,-5.0
18.712316513061523,0.34995910167537636,0.36283676743531523,-5.0
18.732723474502563,0.3509360952590598,0.36468072113159633,-5.0
18.741856813430786,0.35152229140926977,0.36650801543734485,-4.751526022376031
18.762178421020508,0.3532808798598998,0.3683183029331588,-3.492124927452748
18.776413202285767,0.3544532721603198,0.37011444050532016,-1.8285476499863913
18.788991451263428,0.35543026574400316,0.371897370368262,-0.3289627526599179
18.804429531097412,0.3566026580444232,0.37366437727320406,1.1128813804800681
18.819214820861816,0.3579704490615799,0.37541417452524545,2.5248663853683224
18.834298610687256,0.3595336387954733,0.37714602733953656,3.3526228437276533
18.85260009765625,0.36129222724610327,0.3788616828172754,3.794752508891663
18.87056612968445,0.3634416131302067,0.38056790563184556,3.9831686801589528
18.8843994140625,0.36500480286410003,0.3822708377733893,3.730253650010086
18.899232387542725,0.36656799259799333,0.3839711227278839,3.6145591446120795
18.914297819137573,0.3685219797653601,0.3856674145540175,3.797695254152789
18.928225994110107,0.3702805682159901,0.387358867833143,3.720648258162556
18.951154947280884,0.3736023464005135,0.3890501602044355,3.52981345233151
18.967177152633667,0.3759471310013535,0.3907508232223587,3.2962398234116526
18.980212688446045,0.3780965168854569,0.39246388288394035,2.777690045392369
18.995182037353516,0.38024590276956033,0.39418674359667194,2.508608484320683
19.012110948562622,0.3829814848038737,0.3959180853976011,2.0648395242192352
19.023181438446045,0.3847400732545037,0.3976568451082697,1.6243592497588217
19.040187120437622,0.38747565528881706,0.3994023857448666,1.2491368732252204
19.059160470962524,0.39040663603986714,0.4011597579232373,0.9512301488867196
19.07355570793152,0.39294681935744386,0.40293544846561785,0.7234065803927366
19.08822464942932,0.3952916039582839,0.40472922552159435,0.276717027451135
19.10419201850891,0.3978317872758606,0.4065378182564592,0.11714139792558009
19.121346950531006,0.4003719705934373,0.40836016227803745,-0.19710823510395004
19.134581089019775,0.40232595776080404,0.41019645178927555,-0.7751285278435929
19.150235891342163,0.4042799449281707,0.41204567127429514,-1.5949959347339027
19.16927671432495,0.40603853337880075,0.41390915663546574,-2.593861713533457
19.185309648513794,0.4072109256792208,0.4157900354248471,-4.809645927946857
19.207929849624634,0.40857871669637746,0.41769242158945974,-5.0
19.22316551208496,0.4089695141298508,0.41962254263044785,-5.0
19.23918318748474,0.4093603115633242,0.4215802778214595,-5.0
19.26221990585327,0.4101419064302709,0.42356576324272777,-5.0
19.27499794960022,0.41053270386374413,0.425584537253516,-5.0
19.289376497268677,0.41131429873069086,0.42763538956972436,-4.082650228315396
19.302764892578125,0.4119004948809009,0.42971230568124147,-2.321859013236131
19.31819987297058,0.4128774884645843,0.4318103623602157,-0.5961676760899862
19.33117938041687,0.41365908333153095,0.4339252015001055,1.0735325180956716
19.346155643463135,0.41483147563195094,0.4360534890877799,2.6711164968143324
19.36383843421936,0.4163946653658443,0.43819491669687444,3.633846340555606
19.374186277389526,0.4173716589495276,0.4403496618072604,4.165628326436664
19.388163566589355,0.41873944996668433,0.44251413344661483,4.68365734453076
19.4038507938385,0.42049803841731437,0.4446877363361606,5.0
19.420700311660767,0.4226474243014178,0.44687739518574837,4.924314361275032
19.43096685409546,0.42401521531857445,0.44908747645407743,4.926269713026832
19.450721502304077,0.42655539863615116,0.4513202702109436,5.0
19.46616244316101,0.4289001832369912,0.45358395161366377,5.0
19.481188535690308,0.4310495691210946,0.4558826112965412,5.0
19.503013610839844,0.43476214473909125,0.458220005980375,4.836186915606055
19.515991926193237,0.437302328056668,0.46060537976965776,4.504564070710552
19.52413535118103,0.4388655177905614,0.4630338573592011,3.851821694936543
19.54716444015503,0.44355508699224144,0.4654970198449676,3.7255547406347906
19.56224036216736,0.44668146646002815,0.4680021454088958,3.7480969364768635
19.58175826072693,0.45058944079476154,0.4705571339541243,3.217218778860148
19.594954013824463,0.453325022829075,0.47316368109310086,2.5703994920305586
19.612558364868164,0.4572329971638084,0.4758218914340717,1.7022596725089918
19.62816286087036,0.4605547753483318,0.47853143919583657,1.1834124507782837
19.642154455184937,0.4638765535328551,0.48128787733606476,0.8614174682557412
19.65718984603882,0.4670029330006419,0.48408240706397354,0.6536509438184115
19.67118239402771,0.47012931246842854,0.48690677343292693,0.2382594515231341
19.684228658676147,0.4732556919362153,0.4897536345532016,-0.16792201030456805
19.707635402679443,0.4789222547215788,0.4926250961308793,-0.49194830045080706
19.72216296195984,0.4824394316228388,0.49553131838457226,-0.7220522505824394
19.738136291503906,0.48615200724083557,0.49847216303400077,-0.8695288296973416
19.75488567352295,0.490059981575569,0.5014410714290713,-1.2279828590353177
19.765169382095337,0.4926001648931457,0.5044324071791142,-1.5715295674625138
19.7883563041687,0.4980713289617725,0.507445836829193,-1.826143889145728
19.803165197372437,0.5015885058630325,0.510490175583386,-1.9818315345078146
19.81931233406067,0.5053010814810293,0.5135663144551914,-2.3283405187402924
19.842063188552856,0.510772245549656,0.5166754154362313,-2.6425171808599637
19.858182907104492,0.5137032263007061,0.5198278244841701,-3.1309174229649535
19.871254920959473,0.5158526121848095,0.5230229412294045,-3.8210889624283464
19.88613271713257,0.5181973967856495,0.5262508116061948,-5.0
19.903188943862915,0.5199559852362795,0.5295047219966493,-5.0
19.922926902770996,0.5219099724036462,0.5327887717567215,-5.0
19.93830633163452,0.5234731621375396,0.5361125881382987,-5.0
19.952167987823486,0.5248409531546963,0.5394743603782718,-5.0
19.96715998649597,0.5264041428885896,0.5428643281664776,-5.0
19.9845449924469,0.528553528772693,0.5462766475129316,-4.744411045011086
20.00426149368286,0.5308983133735331,0.5497162990810002,-3.1022000184888117
20.016356229782104,0.5322661043906898,0.5531899206639739,-1.288290379750163
20.030591249465942,0.5342200915580564,0.5566920437614755,0.2517228653188065
20.04173231124878,0.5355878825752132,0.5602106940423796,1.6839566403579154
20.05375051498413,0.5373464710258432,0.5637318529558436,2.789153529105696
20.06654119491577,0.5391050594764732,0.5672429504701437,3.2695489295775904
20.079251527786255,0.5410590466438399,0.5707361771109505,3.6942868972587766
20.091894149780273,0.5430130338112066,0.5742063546919097,3.9760715149548242
20.106435775756836,0.54574861584552,0.5776513616751087,4.110573218413936
20.1177921295166,0.5478980017296233,0.581069799507866,4.674844340567926
20.13284993171692,0.5510243811974102,0.5844601569791806,5.0
20.154147148132324,0.5555185516823535,0.5878330636349477,5.0
20.169154405593872,0.5590357285836136,0.5912066689241949,5.0
20.184135913848877,0.5627483042016103,0.5945865994201974,5.0
20.206767082214355,0.5684148669869737,0.5979802578815603,5.0
20.218849658966064,0.5715412464547605,0.6014022033377378,4.997256777344549
20.22713804244995,0.5736906323388637,0.604845959513783,4.3290042452430475
20.238120555877686,0.5766216130899139,0.608289592124937,3.7975160053349706
20.251163005828857,0.580138789991174,0.6117207062421078,3.6415168007103667
20.267460584640503,0.5846329604761173,0.6151400765867646,3.040289993359819
20.282286405563354,0.5910811181284275,0.6185554599201496,2.6494878710864787
20.301873445510864,0.595575288613371,0.6219804182934724,2.36890104618694
20.317089796066284,0.6004602565317877,0.6254300938111491,2.1486882312184186
20.331114053726196,0.604954427016731,0.6289090160189218,1.6879336638384024
20.34410262107849,0.6090578000682011,0.6324142639919016,1.2170128160180531
20.359107971191406,0.6137473692698813,0.635943744425909,0.8176892331895083
20.3731632232666,0.618632337188298,0.6394961182887374,0.5074791796274942
20.38759708404541,0.6235173051067148,0.6430711846118548,0.0027754828318868885
20.406808376312256,0.6291838678920781,0.6466782439673726,-0.1926564108090879
20.42263150215149,0.6344596332439683,0.6503375874777952,-0.5250972067914357
20.438178777694702,0.639930797312595,0.6540616598032789,-1.108228311288245
20.452175617218018,0.6446203665142752,0.6578487256188272,-1.6479880455368938
20.466190099716187,0.6493099357159552,0.6616933796852885,-2.0514519925119226
20.481139659881592,0.654194903634372,0.6655909534895617,-2.585791481828129
20.49513864517212,0.6586890741193153,0.6695374101063962,-2.753680535347501
20.513538122177124,0.6655280292050988,0.673537010170149,-3.29070618130478
20.532167673110962,0.670217598406779,0.677607219296171,-3.529032103440865
20.548173904418945,0.6749071676084589,0.6817608750404005,-3.8595847637380762
20.562126636505127,0.6782289457929824,0.6859940527371039,-4.662791130459205
20.584778308868408,0.6831139137113991,0.69031043342458,-5.0
20.59873604774475,0.6858494957457124,0.6947261776303556,-5.0
20.613218545913696,0.6883896790632892,0.699239324385449,-5.0
20.628112077713013,0.6905390649473927,0.7038325214909785,-5.0
20.64211678504944,0.692688450831496,0.7084897180653957,-5.0
20.656097650527954,0.6948378367155994,0.7131961031608942,-5.0
20.668068885803223,0.6965964251662294,0.7179380498792298,-5.0
20.683076858520508,0.6991366084838061,0.7227030652446772,-5.0
20.705010175704956,0.7030445828185395,0.727490987990926,-3.56116874999071
20.72015881538391,0.7059755635695895,0.7323138660766296,-1.3147916708412273
20.735095739364624,0.7087111456039029,0.7371712754421553,0.5045426606244926
20.751097202301025,0.7118375250716897,0.7420485077481487,2.3867179117873514
20.76813554763794,0.7151593032562131,0.7469345449269652,3.9028740264303643
20.787192344665527,0.7190672775909466,0.7518317943472952,4.966267829014595
20.801546096801758,0.7221936570587333,0.7567455426794124,5.0
20.815093278884888,0.7257108339599934,0.7616669808089217,5.0
20.831083059310913,0.7296188082947267,0.7665798431141004,5.0
20.848737001419067,0.7343083774964068,0.7714736758229631,5.0
20.865293502807617,0.7391933454148236,0.7763470750513171,5.0
20.87861680984497,0.7429059210328203,0.7811988174985464,5.0
20.89616870880127,0.7481816863847104,0.786024832853094,5.0
20.910099983215332,0.7526758568696538,0.7908232368320743,5.0
20.9260733127594,0.7581470209382805,0.7955884301108767,5.0
20.940123081207275,0.7630319888566973,0.800311393482086,5.0
20.953104734420776,0.767330760624904,0.8049852422539459,4.7443695070632455
20.96707034111023,0.7722157285433208,0.8096050613701304,4.209880387045789
20.989933013916016,0.7802270759295242,0.8141800449408088,3.9126715169458235
21.005087852478027,0.785698239998151,0.818731387769881,3.425346154756255
21.02008819580078,0.7919509989337246,0.8232657272051125,3.480367666430138
21.03828001022339,0.7989853527362445,0.8277815090167787,2.829691293236829
21.048086166381836,0.8025025296375047,0.8322782248577725,2.0414524165041046
21.06109070777893,0.8077782949893948,0.8367477368459152,1.3341863712128958
21.079630374908447,0.815398844942125,0.8411900086148381,0.7713638897966548
21.09361743927002,0.8210654077274883,0.845617189373377,0.07669378106096814
21.10490918159485,0.8253641794956951,0.8500320590121369,-0.5293642683845345
21.122787714004517,0.8325939320149518,0.8544344525352336,-0.9853858341233418
21.13348078727722,0.8366973050664219,0.8588299596678062,-1.2946269246086992
21.145765781402588,0.8417776717015754,0.8632121263474914,-1.7583517314536112
21.165421962738037,0.8497890190877789,0.8675814290266488,-2.16261236088838
21.180058240890503,0.8552601831564056,0.8719585073750696,-2.7210030169524044
21.194034099578857,0.8607313472250324,0.8763533269285813,-3.1902772807355007
21.210060834884644,0.8669841061606058,0.8807629634914892,-3.503410628716609
21.22902822494507,0.8742138586798627,0.8851923496157302,-3.6647303381483427
21.246033191680908,0.8804666176154361,0.8896598177396394,-3.7025385471174097
21.2599458694458,0.8855469842505895,0.8941799135236187,-3.648962030668071
21.275064706802368,0.8908227496024795,0.8987499570336678,-4.0844283457485915
21.28833842277527,0.8955123188041597,0.9033600948987023,-3.993537993210068
21.302069425582886,0.9000064892891031,0.9080013973331488,-4.254584224119421
21.317037105560303,0.9045006597740466,0.9126658282376533,-5.0
21.334576845169067,0.9091902289757265,0.9173499025791899,-5.0
21.35461974143982,0.9134890007439334,0.9220645798147776,-5.0
21.369038820266724,0.9164199814949833,0.9268255984507139,-5.0
21.385096311569214,0.9187647660958235,0.9316315771361801,-5.0
21.401509523391724,0.9213049494134001,0.9364736148617905,-5.0
21.41573429107666,0.9234543352975034,0.9413482409911843,-5.0
21.435062170028687,0.9265807147652902,0.9462606316351986,-5.0
21.451040506362915,0.9293162967996036,0.9512212223265802,-4.623951202005686
21.466114044189453,0.932051878833917,0.956227509832389,-2.7804031102694875
21.489149570465088,0.9361552518853872,0.961282338984371,-0.5051911863763061
21.501165628433228,0.9381092390527538,0.966400045950029,1.7588268798468318
21.516727924346924,0.9412356185205405,0.9715777435446323,3.2919328090810387
21.532034873962402,0.9441665992715907,0.9768047501129833,4.53493006962
21.54705309867859,0.9472929787393772,0.9820721202992891,5.0
21.57013988494873,0.9531549402414774,0.9873853498516196,5.0
21.586039543151855,0.9572583132929476,0.9927656772656747,5.0
21.601052284240723,0.9613616863444175,0.9982149616414148,5.0
21.61503553390503,0.9650742619624143,1.003718424916012,5.0
21.630778074264526,0.9697638311640945,1.0092659702755693,5.0
21.6530544757843,0.9764073875331412,1.0148660968642609,5.0
21.66706657409668,0.980706159301348,1.020537869506593,5.0
21.681107759475708,0.9853957285030279,1.0262798254421717,5.0
21.70268177986145,0.9930162784557581,1.0320875544866153,5.0
21.713000059127808,0.9967288540737549,1.0379615951466958,5.0
21.732369661331177,1.003763207876275,1.0438943912144532,5.0
21.746357202529907,1.009038973228165,1.0498855031598124,4.811615779061826
21.760138988494873,1.014510137296792,1.0559284493444618,4.5576413586274995
21.773279666900635,1.0201767000821553,1.0620047095428868,4.00007197785572
21.788087844848633,1.0258432628675187,1.0680978526890879,3.6787206981463134
21.803081274032593,1.031705224369619,1.074193409482382,3.4503437417460665
21.820661306381226,1.0391303756056123,1.0802830337236908,2.701815294909061
21.834237337112427,1.0444061409575025,1.086364250754788,1.6195583298328602
21.848575353622437,1.0500727037428659,1.0924322057762978,0.3399965456114431
21.861732959747314,1.0555438678114926,1.098478305362818,-0.48802225024126
21.88163995742798,1.0633598164809595,1.104503599115158,-1.283502725303104
21.896098613739014,1.0692217779830595,1.1105190928703894,-1.9019625381048622
21.910024881362915,1.0750837394851596,1.1165237184915737,-2.0470524230906086
21.925122022628784,1.0811410997039963,1.1225056945925878,-2.263623843773825
21.94683003425598,1.09032483939062,1.128468827479041,-2.4349002628966243
21.962249755859375,1.0963821996094567,1.1344324570517288,-2.529830368728876
21.97711491584778,1.1022441611115568,1.1404015942155086,-2.5517822771485985
22.002169609069824,1.1124048943818636,1.1463804053390445,-2.515442956076046
22.017117500305176,1.1182668558839637,1.1523859891771844,-2.4370530146377902
22.03303289413452,1.1249104122530105,1.1584165616721906,-2.33077222613944
22.04702663421631,1.1305769750383738,1.1644544094913023,-2.207734667988799
22.0609769821167,1.1364389365404741,1.170484595278379,-2.0761857500427894
22.083308696746826,1.145427277510361,1.1765109556960802,-1.9419762396519813
22.097222805023193,1.1508984415789878,1.1825532005849142,-1.8091061105923338
22.111680269241333,1.1569558017978245,1.1886118070160923,-1.680203313515539
22.125985622406006,1.1628177632999248,1.1946709287793758,-1.5569070890195649
22.139983654022217,1.1682889273685515,1.20071728140321,-1.440159578480694
22.155021905899048,1.1741508888706513,1.2067398978518111,-1.3304208658966576
22.1680166721344,1.1794266542225416,1.2127298909884112,-1.2278242912542252
22.19104242324829,1.1888057926259017,1.2186966300494664,-1.1322869427160378
22.20704460144043,1.1954493489949485,1.2246647956824854,-1.0435873178930064
22.221012592315674,1.2009205130635754,1.2306388974038591,-0.9614193210079558
22.245261907577515,1.210495050183672,1.2366227985394462,-0.885429395875012
22.26003670692444,1.2167478091192456,1.2426362164907245,-0.8152417428710264
22.27610969543457,1.2231959667715557,1.248679159482581,-0.7504751746488594
22.29919195175171,1.2321843077414425,1.2547516614214036,-0.6907541415928369
22.313148260116577,1.2380462692435428,1.260870337416516,-0.9117540771205769
22.32806634902954,1.244299028179116,1.267032392378249,-0.8941767681779107
22.344061374664307,1.250747185831426,1.273218626638252,-1.0684255136752987
22.361143350601196,1.2571953434837364,1.2794185277486678,-1.2585138808938265
22.377556324005127,1.2634481024193098,1.285635459092421,-1.4024836499644353
22.3938148021698,1.2695054626381466,1.2918782513748874,-1.4874191705082618
22.408032178878784,1.2749766267067733,1.298147492976038,-1.519358884077115
22.423019409179688,1.2808385882088735,1.3044321442855218,-1.5099330956130228
22.437986850738525,1.286505150994237,1.3107177104214183,-1.47085931815508
22.45201587677002,1.291780916346127,1.3169919728484472,-1.4120125941403718
22.474987983703613,1.300573858599277,1.323261938963616,-1.0649973480886992
22.49007225036621,1.3062404213846404,1.329550599757663,-0.9543831261926907
22.503959894180298,1.3115161867365306,1.3358594838339137,-1.2054924983992947
22.519978046417236,1.317182749521894,1.342171895789731,-1.2348618175283015
22.532944440841675,1.3216769200068375,1.3484731637394594,-0.8963939674427628
22.550065994262695,1.3281250776591476,1.3547559549723776,-0.7690730724556143
22.5693199634552,1.3347686340281941,1.3610299737869038,-0.7247035901884038
22.58503794670105,1.340435196813558,1.367308007576707,-0.4307398616868178
22.59798550605774,1.345124766015238,1.3735835499612976,-0.38312937565143057
22.6119544506073,1.350400531367128,1.3798395539224564,-0.14325471385044625
22.627026796340942,1.3558716954357548,1.3860612691434073,0.11467188337101761
22.640982151031494,1.3609520620709084,1.3922361304841002,0.3280290877254372
22.653949737548828,1.365837029989325,1.3983536433143804,0.4825607296966288
22.667956829071045,1.3709173966244785,1.4044052634200939,0.5829987998494959
22.681967973709106,1.3758023645428952,1.4103842699736344,0.6399395209495803
22.70597505569458,1.3843999080793088,1.4163008267741244,0.9404144440729341
22.72095274925232,1.3902618695814086,1.4221792619049274,1.2509321715255475
22.73499035835266,1.3959284323667722,1.4280251922659772,1.4906741276978765
22.758007049560547,1.4047213746199223,1.4338435077903486,1.644187224312797
22.77400279045105,1.4105833361220224,1.4396536607369794,1.4449985334229103
22.78699040412903,1.4152729053237025,1.445456992666177,1.428784095503309
22.80096983909607,1.420939468109066,1.4512395388964976,1.1813843414200713
22.8159818649292,1.4262152334609561,1.4569896752352522,1.1684106163896133
22.829957246780396,1.4314909988128461,1.4626979050336884,0.9433277933944988
22.852782726287842,1.4400885423492595,1.4683715810034448,0.6813916437030861
22.868038654327393,1.4463413012848332,1.4740321859323957,0.44917989153261667
22.88206934928894,1.4516170666367234,1.4796829956356943,0.26526946957766223
22.897072792053223,1.4572836294220868,1.4853118800460012,0.12867182248865955
22.9137761592865,1.4637317870743967,1.4909126595559978,0.03171837998359327
22.92672371864319,1.4686167549928135,1.496482636020383,-0.03442909512933257
22.947233200073242,1.476237304945544,1.5020270804291274,-0.077675879328868
22.96126365661621,1.4811222728639604,1.5075612785070376,-0.38043800118322335
22.974656343460083,1.486202639499114,1.5130873427896556,-0.7046740025959012
22.989022731781006,1.4912830061342672,1.5185945842924444,-0.6897253052481227
23.00497031211853,1.4969495689196308,1.5240743038258238,-0.8361610434111677
23.02154803276062,1.503397726571941,1.5295229402217514,-0.9967058470368618
23.036237955093384,1.5088688906405676,1.534943000276779,-0.8432914272095315
23.050340175628662,1.5135584598422478,1.5403370938367777,-0.8838497397497422
23.061809301376343,1.5172710354602443,1.5457006200650234,-0.9685549958525079
23.07936668395996,1.5233283956790813,1.5510301486821043,-0.7637205494940436
23.09044361114502,1.5274317687305514,1.5563282642908869,-0.7714465768360133
23.10610842704773,1.5329029327991783,1.5615919641404967,-0.8368917725924624
23.12277388572693,1.538374096867805,1.566825757661058,-0.8984452521135498
23.138041973114014,1.5438452609364317,1.5720431774253816,-0.6602307351936682
23.15401530265808,1.5493164250050584,1.5772462410920782,-0.9149056321697535
23.167929887771606,1.554201392923475,1.5824293992168594,-0.7168471030515122
23.189778327941895,1.5618219428762052,1.5876021135038352,-0.6780757257052874
23.204273223876953,1.5661207146444118,1.5927868195591388,-0.6898244642171049
23.218929290771484,1.5706148851293553,1.5979881896384243,-0.7073305261472838
23.234949350357056,1.5758906504812455,1.6031947649993836,-0.7148763281376642
23.2579083442688,1.5823388081335557,1.6084099183924483,-0.9852410677903528
23.27299189567566,1.5870283773352356,1.6136498959447227,-1.2770413120227522
23.286932468414307,1.5913271491034424,1.6189131952365317,-1.228938886902755
23.302043676376343,1.5960167183051226,1.624183418129959,-1.6178567157385912
23.320783615112305,1.6012924836570126,1.6294524698503974,-1.7781480386018012
23.338756799697876,1.6059820528586928,1.6347260900975922,-1.8130284987346368
23.35400676727295,1.6102808246268994,1.6400085013152408,-1.7791430316582424
23.37000036239624,1.6143841976783697,1.6452888756079882,-2.2602801777424575
23.39151430130005,1.6198553617469964,1.6505604870036217,-2.512676825696816
23.40794038772583,1.623567937364993,1.65582906721651,-2.6133115482336473
23.423962354660034,1.6272805129829897,1.6610902853382945,-2.890636954603889
23.446821212768555,1.63197008218467,1.666338296592135,-2.8614389308242574
23.46059012413025,1.6345102655022465,1.6715760226741618,-2.428712360205899
23.47493314743042,1.63724584753656,1.6767929781947961,-2.1951614572792106
23.49103283882141,1.6407630244378202,1.6819676835674822,-2.3198162130965683
23.5039381980896,1.6431078090386602,1.6870812039088752,-1.9562142735097532
23.527372121810913,1.6477973782403401,1.6921259105293627,-1.4810034752421286
23.5429904460907,1.6505329602746535,1.697103704189741,-1.0423726344472706
23.55699586868286,1.6528777448754937,1.7020060792879437,-0.4103135684176007
23.572003841400146,1.6552225294763336,1.7068154426565398,-0.3832147929442825
23.589354991912842,1.6583489089441203,1.711518426601629,0.0006132985025961157
23.60632061958313,1.661475288411907,1.7161076758117164,0.7024118924147736
23.622466802597046,1.6642108704462204,1.7205776726629296,1.3648263125684073
23.637909173965454,1.6669464524805337,1.7249198187423584,1.8723223731918344
23.652000665664673,1.6694866357981104,1.729121570875501,2.211042602049805
23.66693902015686,1.6720268191156873,1.733169656098332,2.6805660180503335
23.679949283599854,1.674567002433264,1.7370523996321448,3.0708318190540282
23.703096628189087,1.6790611729182072,1.7407618745584605,3.3245761840094405
23.7179012298584,1.6817967549525208,1.7442926843961872,3.44625430300765
23.733982801437378,1.6851185331370444,1.747636257100661,4.013009915919277
23.750316619873047,1.6884403113215678,1.750782046073548,4.015164077069352
23.76192021369934,1.6909804946391442,1.7537209663110311,3.7869253112088925
23.775257349014282,1.6937160766734578,1.7564453262545137,3.482422284630081
23.797732830047607,1.6987964433086111,1.7589462472713504,3.16942867373432
23.81184220314026,1.7021182214931343,1.76121328417364,3.15117509635259
23.825274229049683,1.705244600960921,1.7632390354875371,2.6414051689512617
23.839956760406494,1.7085663791454446,1.7650194748204615,2.3145647607011766
23.853987216949463,1.711888157329968,1.7665517590939035,2.0809525580568753
23.868902921676636,1.7150145367977547,1.767834117981393,1.6207363657446994
23.882882833480835,1.7181409162655412,1.7688657509109837,1.155545928909865
23.900378465652466,1.7214626944500648,1.7696440119657255,0.7632734171903951
23.913718461990356,1.7243936752011149,1.7701648565292827,0.18381461389984363
23.926103353500366,1.7267384598019548,1.770429677099994,-0.6240651376968824
23.94410467147827,1.7304510354199514,1.7704391194213127,-1.0684721405137731
23.96027636528015,1.7333820161710016,1.7701853960470557,-1.850658641359538
23.97493004798889,1.735531402055105,1.769663763819167,-2.29474844203493
23.98997688293457,1.7374853892224718,1.7688787251340496,-3.070133781180062
24.004897356033325,1.7394393763898388,1.7678379430623228,-4.3201081832581165
24.024945497512817,1.7417841609906786,1.7665402950410665,-5.0
24.035783052444458,1.742761154574362,1.7649812162312695,-5.0
24.054064512252808,1.7439335468747819,1.7631634060512225,-5.0
24.068633317947388,1.7445197430249917,1.7610875649994877,-5.0
24.084888458251953,1.7447151417417284,1.7587592772633995,-5.0
24.09890079498291,1.7447151417417284,1.7561925818352133,-5.0
24.111964225769043,1.7447151417417284,1.7534010336799675,-5.0
24.13262367248535,1.7445197430249917,1.7503876541627819,-5.0
24.149227142333984,1.7441289455915185,1.7471412446187773,-4.961191979378052
24.163918256759644,1.7437381481580454,1.7436585633163242,-3.7345898304363843
24.179986476898193,1.7435427494413085,1.7399536333145784,-2.5897956621881373
24.19628071784973,1.7431519520078353,1.7360416205897045,-1.1057002883867264
24.216219902038574,1.742565755857625,1.7319205090362257,0.2189403560412072
24.23196840286255,1.742174958424152,1.7275808577974259,1.237927570897051
24.245895385742188,1.741588762273942,1.7230328280444447,2.226070039435987
24.259915828704834,1.7408071674069951,1.7182996825378092,2.1617055111292176
24.283852338790894,1.7386577815228919,1.7133852975005348,1.7447225240828637
24.298922300338745,1.7370945917889984,1.7082769906864983,0.4443714115361259
24.314908981323242,1.7345544084714217,1.7029830739272303,-2.0028434216910034
24.33773708343506,1.730255636703215,1.6975116696544823,-4.054305073925086
24.35008716583252,1.7271292572354282,1.6918586252585708,-5.0
24.366896152496338,1.7232212829006948,1.6860400522531291,-5.0
24.378775596618652,1.7198995047161716,1.6800783630693557,-5.0
24.391456365585327,1.7163823278149113,1.6739952857002174,-5.0
24.406929969787598,1.7114973598964947,1.667815728361161,-5.0
24.422865629196167,1.7054399996776577,1.6615588425195398,-5.0
24.44416117668152,1.6966470574245076,1.6552260438568227,-5.0
24.45936918258667,1.6901988997721975,1.6488015298536736,-5.0
24.473185539245605,1.684532336986834,1.642284470447608,-5.0
24.486899852752686,1.6790611729182072,1.6356938257362075,-4.287685603575828
24.50185990333557,1.6730038126993705,1.629049763585355,-2.6416112986704032
24.516952753067017,1.6665556550470606,1.6223697187571235,-0.6998827259033136
24.53091263771057,1.6606936935449603,1.6156685999643958,1.2525550446790146
24.553645372390747,1.6511191564248633,1.6089394904197722,3.0984856996896952
24.569976568222046,1.6440848026223436,1.6021570505200156,4.7982507703167165
24.583872079849243,1.6380274424035066,1.5953196489622812,5.0
24.607528924942017,1.6280621078499362,1.5884267812635187,5.0
24.622871160507202,1.6220047476310997,1.5814586845968415,5.0
24.638882875442505,1.615165792545316,1.5744175678662524,5.0
24.659129858016968,1.606372850292166,1.567313903081699,5.0
24.676973342895508,1.5991430977729093,1.5601378736637184,5.0
24.692962408065796,1.5923041426871256,1.5528855141043945,5.0
24.710050106048584,1.5846835927343956,1.5455674860388116,5.0
24.726897716522217,1.5780400363653488,1.5381874243890685,5.0
24.735978841781616,1.574327460747352,1.5307602125693693,5.0
24.757880687713623,1.565534518494202,1.5233070222768665,4.977120453928794
24.773942470550537,1.5588909621251552,1.5158234224340308,4.779997913479837
24.787835121154785,1.5526382031895818,1.5083118971745908,4.506862436564829
24.80089259147644,1.547167039120955,1.5007927435299475,4.2070641854828725
24.817379474639893,1.5399372866016983,1.4932785517149916,3.9051574185988924
24.83087706565857,1.534075325099598,1.48577447315634,3.613072106311388
24.847091674804688,1.5274317687305514,1.4782823049475537,3.336288646462876
24.860193014144897,1.5219606046619245,1.4708047823084054,3.076985776713342
24.87265920639038,1.5168802380267712,1.463354529730979,2.8356553729075387
24.891257524490356,1.5094550867907774,1.455934124815385,2.6119370153838375
24.905085802078247,1.503397726571941,1.4485285028121901,2.6810913401865526
24.918611764907837,1.497340366353104,1.4411360437012082,2.247161531546278
24.933844327926636,1.4910876074175305,1.4337680635317378,2.258796076557764
24.948821544647217,1.484834848481957,1.4264337484322849,2.108547867295598
24.97208857536316,1.475455710078597,1.4191197261427386,1.9094179965095615
24.986130475997925,1.469593748576497,1.4117937305457495,1.7094698902041494
25.000885725021362,1.4631455909241868,1.4044492499015924,1.5267348135770176
25.016865253448486,1.4565020345551398,1.3971016557460074,1.6419795389812095
25.02987551689148,1.4510308704865131,1.3897639899038448,1.5355351486662494
25.043877124786377,1.4449735102676766,1.3824471621326424,1.083466515786781
25.05685305595398,1.4395023461990497,1.3751601429381348,1.145075038216701
25.07420516014099,1.4318817962463195,1.3679040349498288,1.070602725257252
25.08583116531372,1.4271922270446393,1.3606793889141193,0.9536148900616448
25.107921600341797,1.4183992847914892,1.3534778819943718,0.8337213667123101
25.121939420700073,1.4123419245726525,1.3462715655989497,0.7256673248134351
25.138805866241455,1.4053075707701321,1.3390513966148683,0.6332478560045359
25.151875257492065,1.3998364067015054,1.3318305422957477,0.5558234445322722
25.165884733200073,1.393779046482669,1.3246201445476677,0.4912681983678111
25.189948797225952,1.3834229144956252,1.3174088481686075,0.437227101823203
25.205862283706665,1.376974756843315,1.3101664105400777,0.391592644577848
25.228031635284424,1.3679864158734283,1.3028691460800452,0.35263656032855584
25.244847297668457,1.3607566633541714,1.2954976839832324,0.31900092946734226
25.259821891784668,1.3545039044185982,1.2880541575581075,0.28964124330711893
25.280996322631836,1.3449293672985012,1.2805450732145862,0.26376105679143813
25.29129910469055,1.340435196813558,1.2729698583862645,0.24075337191772872
25.30495858192444,1.335159431461668,1.265354129415985,0.22015305223573972
25.31848120689392,1.3292974699595674,1.2577277055009004,0.20160012825826013
25.32880163192749,1.3249986981913608,1.2501159290073638,0.18481231971418802
25.3508198261261,1.316010357221474,1.242529290335337,0.16956481412651989
25.364217042922974,1.3105391931528474,1.2349471906577134,0.15567553438300583
25.37502145767212,1.3056542252344305,1.227369779903134,0.14299446009990777
25.390689611434937,1.299401466298857,1.2198178251493266,0.13139589856769
25.40583872795105,1.2925625112130739,1.2122962994813853,0.1207728820495647
25.419292449951172,1.2870913471444472,1.2048090291672455,-0.16500527009894
25.431639432907104,1.2820109805092936,1.1973649623847509,0.06897125558645556
25.44583559036255,1.2755628228569833,1.189971139267088,0.14898723290840138
25.46083426475525,1.2693100639214097,1.182632909109421,-0.11360132850754376
25.47584843635559,1.2632527037025731,1.1753541404216863,-0.15921514910720008
25.488837003707886,1.2575861409172095,1.168137422039053,-0.12438589546081683
25.502903699874878,1.2521149768485829,1.1609842532857537,-0.06877889935442213
