t_s,q_rad,q_des_rad,K,B,jerk,tau_Nm,ilc_ff_Nm
0.005223512649536133,0.0,[-9.50394487e-06],0.005,0.1,0.0,-2.731248405837019e-05,0
0.014474630355834961,0.0,[-4.5929629e-05],0.005,0.1,0.0,-1.0232002897148982e-05,0
0.022760391235351562,0.0,[-0.00011415],0.005,0.1,0.0,-1.1087244683953731e-05,0
0.035921335220336914,0.0,[-0.00020838],0.005,0.1,0.0,-4.825498808546339e-06,0
0.04424095153808594,0.0,[-0.00032339],0.005,0.1,0.0,-2.3064275261367985e-06,0
0.05331707000732422,0.0,[-0.00045446],0.005,0.1,0.0,-1.201308398532926e-06,0
0.06382894515991211,0.0,[-0.00059744],0.005,0.1,0.0,-6.585265126161138e-07,0
0.07293963432312012,0.0,[-0.00074862],0.005,0.1,0.0,-3.6908804826865576e-07,0
0.08098840713500977,0.0,[-0.00090478],0.005,0.1,0.0,-2.0791686148581153e-07,0
0.08859515190124512,0.0,[-0.00106313],0.005,0.1,0.0,-1.1694166306383057e-07,0
0.09740734100341797,0.0,[-0.00122129],0.005,0.1,0.0,-6.584074418323653e-08,0
0.10825181007385254,0.0,[-0.00137723],0.005,0.1,0.0,-3.7628742166980055e-08,0
0.11858987808227539,0.0,[-0.00152927],0.005,0.1,0.0,-2.251765716604902e-08,0
0.12627816200256348,0.0,[-0.00167605],0.005,0.1,0.0,-2.5256512814534052e-08,0
0.13704252243041992,0.0,[-0.00181647],0.005,0.1,0.0,-1.6978712229136114e-08,0
0.1472642421722412,0.0,[-0.00194971],0.005,0.1,0.0,-1.3181504163696702e-08,0
0.15642642974853516,0.0,[-0.00207514],0.005,0.1,0.0,-1.1942002132136992e-08,0
0.16427206993103027,0.0,[-0.00219234],0.005,0.1,0.0,-1.2090627476290366e-08,0
0.17307209968566895,0.0,[-0.00230107],0.005,0.1,0.0,-1.3799650576169688e-08,0
0.18487119674682617,0.0,[-0.00240122],0.005,0.1,0.0,-1.4676240790437765e-08,0
0.19426393508911133,0.0,[-0.00249282],0.005,0.1,0.0,-1.590958886221071e-08,0
0.2042675018310547,0.0,[-0.002576],0.005,0.1,0.0,-1.7301189649371706e-08,0
0.21564316749572754,0.0,[-0.00265099],0.005,0.1,0.0,-1.873003454283376e-08,0
0.22429752349853516,0.0,[-0.00271808],0.005,0.1,0.0,-2.0125895493926763e-08,0
0.23325705528259277,0.0,[-0.00277762],0.005,0.1,0.0,-2.1447172175477257e-08,0
0.2442641258239746,0.0,[-0.00283],0.005,0.1,0.0,-2.2669088198047676e-08,0
0.25529050827026367,0.0,[-0.00287565],0.005,0.1,0.0,-2.3777368569768594e-08,0
0.26492857933044434,0.0,[-0.00291502],0.005,0.1,0.0,-2.4764745593853306e-08,0
0.27325916290283203,0.0,[-0.00294857],0.005,0.1,0.0,-2.5628911651037585e-08,0
0.2832639217376709,0.0,[-0.00297675],0.005,0.1,0.0,-2.6371212517591625e-08,0
0.29391980171203613,0.0,[-0.00300004],0.005,0.1,0.0,-2.699572762540575e-08,0
0.301271915435791,0.0,[-0.00301889],0.005,0.1,0.0,-2.750856466822372e-08,0
0.3112509250640869,0.0,[-0.00303373],0.005,0.1,0.0,-2.7917286679200098e-08,0
0.3226947784423828,0.0,[-0.003045],0.005,0.1,0.0,-2.8230433688789476e-08,0
0.33069348335266113,0.0,[-0.0030531],0.005,0.1,0.0,-2.8457121327748682e-08,0
0.3392915725708008,0.0,[-0.00305841],0.005,0.1,0.0,-2.860670728883133e-08,0
0.3494265079498291,0.0,[-0.0030613],0.005,0.1,0.0,-2.8688519596679285e-08,0
0.3593621253967285,0.0,[-0.00306211],0.005,0.1,0.0,-2.8711641288139235e-08,0
0.36905360221862793,0.0,[-0.00306113],0.005,0.1,0.0,-2.868474590660959e-08,0
0.38025951385498047,0.0,[-0.00305867],0.005,0.1,0.0,-2.8615977871893618e-08,0
0.38953185081481934,0.0,[-0.00305498],0.005,0.1,0.0,-2.8512871591567566e-08,0
0.3973994255065918,0.0,[-0.0030503],0.005,0.1,0.0,-2.8382307896333654e-08,0
0.40889954566955566,0.0,[-0.00304484],0.005,0.1,0.0,-2.8230472473961746e-08,0
0.41925644874572754,0.0,[-0.0030388],0.005,0.1,0.0,-2.8062888509174787e-08,0
0.43056607246398926,0.0,[-0.00303234],0.005,0.1,0.0,-2.788440936928371e-08,0
0.4387674331665039,0.0,[-0.00302561],0.005,0.1,0.0,-2.769925391409126e-08,0
0.44823193550109863,0.0,[-0.00301874],0.005,0.1,0.0,-2.751104396649382e-08,0
0.45832037925720215,0.0,[-0.00301184],0.005,0.1,0.0,-2.7322847360008302e-08,0
0.4674382209777832,0.0,[-0.003005],0.005,0.1,0.0,-2.71372241745341e-08,0
0.477602481842041,0.0,[-0.00299831],0.005,0.1,0.0,-2.6956274221086688e-08,0
0.48627638816833496,0.0,[-0.00299183],0.005,0.1,0.0,-2.6781684285146518e-08,0
0.4947688579559326,0.0,[-0.0029856],0.005,0.1,0.0,-2.661477402228722e-08,0
0.5039398670196533,0.0,[-0.00297967],0.005,0.1,0.0,-2.64565397201697e-08,0
0.5142467021942139,0.0,[-0.00297408],0.005,0.1,0.0,-2.6307695402271834e-08,0
0.5239372253417969,0.0,[-0.00296884],0.005,0.1,0.0,-2.6168710956866424e-08,0
0.5322988033294678,0.0,[-0.00296396],0.005,0.1,0.0,-2.6039847177819927e-08,0
0.5439839363098145,0.0,[-0.00295945],0.005,0.1,0.0,-2.5921031565776644e-08,0
0.5542256832122803,0.0,[-0.00295531],0.005,0.1,0.0,-2.5860388021930106e-08,0
0.5622165203094482,0.0,[-0.00295152],0.005,0.1,0.0,-2.576148395744355e-08,0
0.5748119354248047,0.0,[-0.00294804],0.005,0.1,0.0,-2.6764110406294993e-08,0
0.5842359066009521,0.0,[-0.00294474],0.005,0.1,0.0,-3.19179681488852e-08,0
0.5937056541442871,0.0,[-0.00294134],0.005,0.1,0.0,-7.664484192010541e-08,0
0.6020033359527588,0.0,[-0.00293741],0.005,0.1,0.0,-8.240177782049442e-08,0
0.6112401485443115,0.0,[-0.00293253],0.005,0.1,0.0,-1.7202886612844688e-07,0
0.6204476356506348,0.0,[-0.0029261],0.005,0.1,0.0,-3.422502314492873e-07,0
0.6312844753265381,0.0,[-0.00291725],0.005,0.1,0.0,-6.146441543238123e-07,0
0.6394593715667725,0.0,[-0.00290518],0.005,0.1,0.0,-6.002962630773237e-07,0
0.6492304801940918,0.0,[-0.00288891],0.005,0.1,0.0,-1.6970521885150134e-06,0
0.6612281799316406,0.0,[-0.00286686],0.005,0.1,0.0,-2.3122246551816054e-06,0
0.669813871383667,0.0,[-0.00283781],0.005,0.1,0.0,-1.953125204954025e-06,0
0.6799120903015137,0.0,[-0.00280112],0.005,0.1,0.0,-2.8367442209979914e-06,0
0.6892111301422119,0.0,[-0.00275533],0.005,0.1,0.0,-5.398299504629636e-06,0
0.6989085674285889,0.0,[-0.00269823],0.005,0.1,0.0,-6.05561519565822e-06,0
0.7078986167907715,0.0,[-0.00262869],0.005,0.1,0.0,-4.67497839474796e-06,0
0.7182397842407227,0.0,[-0.00254656],0.005,0.1,0.0,-5.722385844618255e-06,0
0.7293186187744141,0.0,[-0.00245061],0.005,0.1,0.0,-9.272690991142821e-06,0
0.7375538349151611,0.0,[-0.00233921],0.005,0.1,0.0,-6.784299345774832e-06,0
0.7472500801086426,0.0,[-0.00221213],0.005,0.1,0.0,-7.303292321515949e-06,0
0.7572355270385742,0.0,[-0.00206932],0.005,0.1,0.0,-7.4107867173189065e-06,0
0.7682361602783203,0.0,[-0.00190927],0.005,0.1,0.0,-1.1195505753153152e-05,0
0.7772116661071777,0.0,[-0.00173103],0.005,0.1,0.0,-9.886533266430132e-06,0
0.7853913307189941,0.0,[-0.00153506],0.005,0.1,0.0,-1.1284883851634573e-05,0
0.7944364547729492,0.0,[-0.00132011],0.005,0.1,0.0,-8.78401221497873e-06,0
0.8026363849639893,0.0,[-0.00108528],0.005,0.1,0.0,-5.182825151566894e-06,0
0.8112473487854004,0.0,[-0.0008313],0.005,0.1,0.0,-3.31054605849166e-06,0
0.8224458694458008,0.0,[-0.00055642],0.005,0.1,0.0,1.4537771052055025e-06,0
0.831477165222168,0.0,[-0.00025778],0.005,0.1,0.0,3.900357840431903e-06,0
0.8402388095855713,0.0,[6.53621268e-05],0.005,0.1,0.0,1.1353390621277482e-05,0
0.8512473106384277,0.0,[0.00041435],0.005,0.1,0.0,2.2686199262222935e-05,0
0.8616247177124023,0.0,[0.0007922],0.005,0.1,0.0,3.9727362441261907e-05,0
0.8704326152801514,0.0,[0.00120051],0.005,0.1,0.0,3.9061512790105765e-05,0
0.8792433738708496,0.0,[0.00164161],0.005,0.1,0.0,0.00011227066521590162,0
0.8912463188171387,0.0,[0.0021222],0.005,0.1,0.0,0.0001630220217991878,0
0.9022629261016846,0.0,[0.00264916],0.005,0.1,0.0,0.00023407260338373438,0
0.9105091094970703,0.0,[0.00322502],0.005,0.1,0.0,0.00020999329074049153,0
0.919234037399292,0.0,[0.00385328],0.005,0.1,0.0,0.0005239400853980458,0
0.9298434257507324,0.0,[0.00454377],0.005,0.1,0.0,0.0007070993247356293,0
0.9372434616088867,0.0,[0.0053027],0.005,0.1,0.0,0.0006115256741521602,0
0.947258472442627,0.0,[0.00613032],0.005,0.1,0.0,0.0009372196118409155,0
0.9555087089538574,0.0,[0.00703123],0.005,0.1,0.0,0.0013390626142214196,0
0.9632623195648193,0.0,[0.00800975],0.005,0.1,0.0,0.0012019474416494736,0
0.9732286930084229,0.0,[0.00907112],0.005,0.1,0.0,0.0028153358729453067,0
0.9848740100860596,0.0,[0.01022997],0.005,0.1,0.0,0.0036140585255872073,0
0.9932816028594971,0.0,[0.01149474],0.005,0.1,0.0,0.003028412711659897,0
1.00130033493042,0.0,[0.01286393],0.005,0.1,0.0,0.004342931978492079,0
1.0123317241668701,0.0,[0.01434852],0.005,0.1,0.0,0.00871465057011099,0
1.0203065872192383,0.0,[0.01595799],0.005,0.1,0.0,0.009541209268896568,0
1.0317661762237549,0.0,[0.01768281],0.005,0.1,0.0,0.011279767853608194,0
1.0402719974517822,0.0,[0.01952204],0.005,0.1,0.0,0.013488640233246384,0
1.0482337474822998,0.0,[0.02148829],0.005,0.1,0.0,0.01605766133271875,0
1.0579569339752197,0.0,[0.0235932],0.005,0.1,0.0,0.019186922366526426,0
1.0682673454284668,0.0,[0.02584759],0.005,0.1,0.0,0.022898777700446366,0
1.0789775848388672,0.0,[0.02826996],0.005,0.1,0.0,0.03818594460714543,0
1.0872061252593994,0.0,[0.030868],0.005,0.1,0.0,0.041279288447085595,0
1.0997483730316162,0.0,[0.03363175],0.005,0.1,0.0,0.060091841457173285,0
1.1101973056793213,0.0,[0.03657886],0.005,0.1,0.0,0.08004611466565605,0
1.1212315559387207,0.00019539871673667023,[0.03974056],0.005,0.1,0.0,0.0756882296569921,0
1.130647897720337,0.00039079743347334047,[0.04312317],0.005,0.1,0.0,0.0738174304223394,0
1.138378381729126,0.0005861961502100108,[0.04671112],0.005,0.1,0.276038359678681,0.053929573803798585,0
1.1482188701629639,0.0005861961502100108,[0.05048799],0.005,0.1,0.5852013225188036,0.0807063753066048,0
1.1571319103240967,0.0009769935836833512,[0.05443707],0.005,0.1,0.8392670287670616,0.08602626680109114,0
1.1675302982330322,0.0011723923004200215,[0.05853337],0.005,0.1,1.0172477298603653,0.11333779989290413,0
1.1762232780456543,0.0017585884506300322,[0.06277205],0.005,0.1,1.1247057533277216,0.10799267723869264,0
1.1871387958526611,0.0021493858841033727,[0.06715722],0.005,0.1,1.4515803407794734,0.10719192741289395,0
1.1967480182647705,0.0027355820343133836,[0.07168335],0.005,0.1,1.4935435664503336,0.1096589877759108,0
1.205289363861084,0.0031263794677867237,[0.07633593],0.005,0.1,1.69390815763156,0.08218258065498318,0
1.2150802612304688,0.003907974334733405,[0.08110276],0.005,0.1,1.8868818182911125,0.13236594765964818,0
1.224682331085205,0.004494170484943416,[0.08599327],0.005,0.1,1.742129662299197,0.13822029616572168,0
1.2325210571289062,0.005080366635153426,[0.09100506],0.005,0.1,1.7712655067150629,0.10407418337480884,0
1.2414381504058838,0.005861961502100107,[0.09611567],0.005,0.1,1.8296022907426375,0.12142775651304234,0
1.2534863948822021,0.006838955085783458,[0.10132636],0.005,0.1,2.140340920549717,0.188285622449693,0
1.261606216430664,0.00781594866946681,[0.10664797],0.005,0.1,2.1715901543091727,0.13844705571151075,0
1.2702085971832275,0.008597543536413491,[0.1120679],0.005,0.1,1.8048090065966058,0.15541637659495153,0
1.2795240879058838,0.009769935836833513,[0.11757465],0.005,0.1,1.6339311457149523,0.17055056577716696,0
1.2875099182128906,0.010746929420516863,[0.12315754],0.005,0.1,1.8150321226904722,0.13028047931971726,0
1.2973830699920654,0.011919321720936885,[0.12879608],0.005,0.1,1.7772423546796885,0.15476712101507734,0
1.308898687362671,0.013482511454830247,[0.13449342],0.005,0.1,1.654822914449209,0.2397009227428885,0
1.3169207572937012,0.014654903755250269,[0.14026198],0.005,0.1,1.784592898113065,0.17503540957898286,0
1.3261961936950684,0.01582729605567029,[0.14609003],0.005,0.1,1.9494964645974036,0.19381839376043122,0
1.33577561378479,0.01758588450630032,[0.15196679],0.005,0.1,1.794949049864063,0.2095489231963529,0
1.3446307182312012,0.019149074240193686,[0.15788251],0.005,0.1,1.8214013990582834,0.15831104101843396,0
1.3542585372924805,0.021103061407560384,[0.16381781],0.005,0.1,2.1552912687802612,0.18482261633006822,0
1.364272117614746,0.023252447291663758,[0.16977693],0.005,0.1,1.9467967302822733,0.28203009822394004,0
1.3725032806396484,0.024815637025557124,[0.17577354],0.005,0.1,2.1319835332460424,0.20440283502231693,0
1.3824706077575684,0.027355820343133833,[0.18179753],0.005,0.1,2.107128073519744,0.22247914361860066,0
1.3902394771575928,0.0289190100770272,[0.18783977],0.005,0.1,1.7180376459943447,0.23915072432379408,0
1.399214506149292,0.03106839596113057,[0.19389216],0.005,0.1,1.8170510076728723,0.1788774682483611,0
1.4086172580718994,0.033803977995443955,[0.19993716],0.005,0.1,1.7565782789854025,0.20671805002534044,0
1.4172756671905518,0.036148762596283995,[0.20595992],0.005,0.1,1.9112002679815516,0.15959718364545428,0
1.4287068843841553,0.03907974334733405,[0.21195842],0.005,0.1,2.0827701749467695,0.2710017912412061,0
1.4371895790100098,0.04142452794817409,[0.21794156],0.005,0.1,1.9261674273965972,0.20013499320553677,0
1.4469242095947266,0.04435550869922414,[0.22391701],0.005,0.1,1.9465719576769127,0.3118531957554344,0
1.4551973342895508,0.046700293300064186,[0.22989136],0.005,0.1,1.4446603878159325,0.2257138772410221,0
1.464195966720581,0.04943587533437757,[0.23585988],0.005,0.1,1.4046670266865902,0.24858677752723604,0
1.4732232093811035,0.05236685608542762,[0.24180835],0.005,0.1,0.9520773437058039,0.18776791443271987,0
1.481987476348877,0.05549323555321435,[0.24772518],0.005,0.1,0.9932754760880957,0.2223248397446112,0
1.4912800788879395,0.058815013737737745,[0.25361157],0.005,0.1,0.897687974472916,0.2505970751249958,0
1.4999573230743408,0.061355197055314455,[0.25949013],0.005,0.1,0.765444868323778,0.3739520762364537,0
1.5091814994812012,0.06467697523983784,[0.2653804],0.005,0.1,0.6373395092631601,0.26589509927340244,0
1.5194034576416016,0.06819415214109792,[0.27127808],0.005,0.1,0.5272584488754131,0.2871025168466783,0
1.5291657447814941,0.07171132904235797,[0.27717983],0.005,0.1,0.7136078724261592,0.30554681750192453,0
1.537224292755127,0.07503310722688138,[0.28308313],0.005,0.1,0.6753998671826803,0.22688576161943932,0
1.5461814403533936,0.07894108156161479,[0.28897553],0.005,0.1,0.5640390924575192,0.26289480099912343,0
1.5541965961456299,0.0826536571796115,[0.29484697],0.005,0.1,0.44351320404753825,0.20190681165248683,0
1.5659637451171875,0.08714782766455492,[0.30070045],0.005,0.1,0.6136522690590771,0.3482361618809374,0
1.5742473602294922,0.09046960584907832,[0.30655011],0.005,0.1,0.5616568398127318,0.2562114628195852,0
1.5851430892944336,0.09496377633402173,[0.31240853],0.005,0.1,0.16523499321573593,0.40512292022340995,0
1.5941500663757324,0.0984809532352818,[0.31828682],0.005,0.1,-0.2687548288333169,0.2918713880829678,0
1.6081197261810303,0.1043429147373819,[0.32420594],0.005,0.1,-0.9051967745213105,0.5840439932624967,0
1.617173433303833,0.10805549035537865,[0.33019498],0.005,0.1,-1.4750419730460815,0.3995629857824107,0
1.6290526390075684,0.11294045827379541,[0.33626712],0.005,0.1,-1.897471927588004,0.544539647850282,0
1.6401453018188477,0.11704383132526547,[0.34243339],0.005,0.1,-2.4454411787521404,0.5141172137018339,0
1.6501719951629639,0.12095180565999888,[0.3487142],0.005,0.1,-2.900374631562414,0.6542046211508413,0
1.6582136154174805,0.12427358384452228,[0.35511462],0.005,0.1,-2.9280703460113386,0.4473814980243568,0
1.6661829948425293,0.12759536202904564,[0.36160305],0.005,0.1,-3.053834838489174,0.32536796159802955,0
1.6762137413024902,0.1315033363637791,[0.36814038],0.005,0.1,-3.1506362058596453,0.36915336979237084,0
1.6844511032104492,0.13482511454830248,[0.37471671],0.005,0.1,-3.1819115526748476,0.40737463375381466,0
1.6924760341644287,0.13834229144956253,[0.38133538],0.005,0.1,-3.147962266344278,0.43869250493868356,0
1.7021753787994385,0.14225026578429595,[0.38799926],0.005,0.1,-3.0616854653474466,0.46515036542119587,0
1.713744878768921,0.1471352337027127,[0.39471075],0.005,0.1,-2.938211571233304,0.4848330768808616,0
1.7225193977355957,0.1504570118872361,[0.40147179],0.005,0.1,-2.790961714162231,0.5061044629788123,0
1.7301506996154785,0.1535833913550228,[0.40827181],0.005,0.1,-2.6305419292926366,0.37407412846164634,0
1.7408723831176758,0.15788216312322959,[0.41510199],0.005,0.1,-2.464794683645664,0.5932098950478238,0
1.748915672302246,0.16120394130775295,[0.4219671],0.005,0.1,-2.29924643609744,0.430439191807223,0
1.7571494579315186,0.16433032077553966,[0.42884644],0.005,0.1,-2.1376254757381012,0.33178260696286915,0
1.766155481338501,0.1680428963935364,[0.43571037],0.005,0.1,-1.7062872189342428,0.4054633915534458,0
1.7761754989624023,0.1719508707282698,[0.44255889],0.005,0.1,-1.8016555341982607,0.46677137940914315,0
1.7888593673706055,0.17742203479689655,[0.44941729],0.005,0.1,-1.7508451596787882,0.7003331704296943,0
1.7961742877960205,0.18035301554794664,[0.45631975],0.005,0.1,-1.3655707166129005,0.6909071422204697,0
1.806562900543213,0.1844563885994167,[0.46328265],0.005,0.1,-1.2054524987370177,0.6839028435867833,0
1.8142352104187012,0.18777816678394008,[0.47029438],0.005,0.1,-1.133791616783789,0.49478825967101575,0
1.825655221939087,0.1924677359856202,[0.47733211],0.005,0.1,-1.366662424846113,0.5461426775938832,0
1.8342394828796387,0.19598491288688025,[0.48437633],0.005,0.1,-1.3609086747847146,0.4145709617654907,0
1.8436269760131836,0.19989288722161366,[0.4914105],0.005,0.1,-0.9870417657430433,0.4913888985332706,0
1.8518729209899902,0.20321466540613706,[0.49843354],0.005,0.1,-0.8298709907174641,0.5552020234227345,0
1.8592753410339355,0.20595024744045046,[0.50544473],0.005,0.1,-0.7623803662112543,0.42525143050569664,0
1.871974229812622,0.2110306140756039,[0.51244362],0.005,0.1,-0.7274414044339628,0.7026328908068864,0
1.8806381225585938,0.2147431896936006,[0.51945519],0.005,0.1,-0.700893183939914,0.7156792792586536,0
1.8898701667785645,0.21826036659486067,[0.52648763],0.005,0.1,-0.3976418661468637,0.5230860276104663,0
1.9005711078643799,0.22236373964633074,[0.53353469],0.005,0.1,-0.33417655868915797,0.7973100892012459,0
1.9127249717712402,0.22744410628148415,[0.5406282],0.005,0.1,-0.3559706362721713,1.0277528437205252,0
1.9229764938354492,0.23193827676642756,[0.54780638],0.005,0.1,-0.39680571346229365,0.9388201608904343,0
1.933159351348877,0.23584625110116098,[0.55507485],0.005,0.1,-0.43125165929814446,0.8779780117333014,0
1.9411647319793701,0.2391680292856844,[0.56241187],0.005,0.1,-0.4519205552176373,0.620506810401938,0
1.9501605033874512,0.24268520618694442,[0.56978546],0.005,0.1,-0.45880310417664716,0.6561373397513701,0
1.9606435298919678,0.24698397795515117,[0.57717999],0.005,0.1,-0.4544331278620972,0.6828300601119957,0
1.9691431522369385,0.2505011548564112,[0.58459372],0.005,0.1,-0.4418169363748735,0.7036782913915471,0
1.9781534671783447,0.25440912919114467,[0.59201246],0.005,0.1,-0.4236407367480892,0.5192544525340956,0
1.9871232509613037,0.25792630609240474,[0.5994117],0.005,0.1,-0.40204400358852854,0.584357163375661,0
1.9985547065734863,0.2626158752940848,[0.60679479],0.005,0.1,-0.3786247098886647,0.8561822345702261,0
2.0081253051757812,0.2663284509120815,[0.61418866],0.005,0.1,-0.3545247209791168,0.833223552357428,0
2.0171735286712646,0.26965022909660497,[0.62159184],0.005,0.1,-0.3305302494530851,0.6014214328487594,0
2.027177333831787,0.27375360214807504,[0.62897899],0.005,0.1,-0.5832007007998345,0.6531306062816862,0
2.0364139080047607,0.27785697519954505,[0.63635313],0.005,0.1,-0.5939131034673827,0.9354589946901961,0
2.044161558151245,0.2809833546673318,[0.64372932],0.005,0.1,-0.5175527007117419,0.67089784499174,0
2.0531582832336426,0.2846959302853286,[0.65108428],0.005,0.1,-0.42145269872497515,0.5105953237189544,0
2.062911033630371,0.2887993033367986,[0.65838685],0.005,0.1,-0.3321981137784385,0.6003839523061527,0
2.0736403465270996,0.2930980751050054,[0.66564834],0.005,0.1,-0.25811974689347655,0.918392925734752,0
2.0841622352600098,0.2970060494397388,[0.67290388],0.005,0.1,-0.47594393464840923,0.9143566587449191,0
2.092785358428955,0.3005232263409988,[0.68017171],0.005,0.1,-0.4646244624294667,0.9163945496340501,0
2.1034998893737793,0.30501739682594226,[0.68746797],0.005,0.1,-0.37609593787143186,1.2155426796728708,0
2.1112148761749268,0.30814377629372897,[0.69479393],0.005,0.1,-0.2750133668717254,1.2332215466032692,0
2.1233601570129395,0.3130287442121457,[0.70211294],0.005,0.1,-0.18579392100527756,1.1495423620390235,0
2.1319162845611572,0.3165459211134058,[0.7094071],0.005,0.1,0.16092179058441897,1.1006608263466797,0
2.1423959732055664,0.32064929416487586,[0.71669993],0.005,0.1,0.24670589336913987,1.398776854912036,0
2.150228977203369,0.3237756736326626,[0.72401172],0.005,0.1,0.22921056786919525,0.9724240988765757,0
2.159524917602539,0.32748824925065934,[0.73133421],0.005,0.1,0.17903285149218412,0.9893849700623224,0
2.1685268878936768,0.33120082486865604,[0.73866059],0.005,0.1,0.1257167771464735,1.0097215954870482,0
2.1775314807891846,0.3349134004866528,[0.74598527],0.005,0.1,0.08001160433473894,0.7488636500421649,0
2.187040090560913,0.3390167735381229,[0.7532909],0.005,0.1,0.04448098539912412,0.8389756461704285,0
2.1955456733703613,0.34253395043938295,[0.76057618],0.005,0.1,0.01844361858463383,0.914261715485442,0
2.2031755447387695,0.3458557286239063,[0.76784041],0.005,0.1,0.0001888552248798317,0.6992020135963802,0
2.211219310760498,0.34898210809169306,[0.77507053],0.005,0.1,-0.012093771046787737,0.8151264409758805,0
2.220165729522705,0.35249928499295313,[0.78226904],0.005,0.1,-0.01997454493189315,0.9088390768488107,0
2.232767343521118,0.3573842529113699,[0.78946465],0.005,0.1,-0.30073924044988587,1.311036551656823,0
2.2411859035491943,0.3607060310958933,[0.79668181],0.005,0.1,-0.336380036021198,0.9470217572720664,0
2.2502329349517822,0.36422320799715335,[0.80391495],0.005,0.1,-0.28228262421878864,1.0131807345627888,0
2.260499954223633,0.36871737848209674,[0.81115919],0.005,0.1,-0.48221898607256974,1.0653837838176483,0
2.2719004154205322,0.3732115489670402,[0.81843637],0.005,0.1,-0.4441413267798717,1.4634126594395298,0
2.280442953109741,0.3763379284348269,[0.82576451],0.005,0.1,-0.33132821202235496,1.045041974758318,0
2.293447494506836,0.381613693786717,[0.83314506],0.005,0.1,-0.21190883386470316,1.4470001332886164,0
2.3012030124664307,0.3845446745377671,[0.84057847],0.005,0.1,-0.11050901473585205,1.0394596949783106,0
2.3111236095428467,0.38903884502271047,[0.84805133],0.005,0.1,-0.03285135107196599,1.0930902356623011,0
2.3218021392822266,0.3933376167909172,[0.85556461],0.005,0.1,0.022800598648969717,1.5033931930254627,0
2.330153703689575,0.397050192408914,[0.86313141],0.005,0.1,0.06051923084949328,1.0750347806633487,0
2.339149236679077,0.40056736931017395,[0.87073602],0.005,0.1,0.0845705639201708,1.126659887058861,0
2.3481247425079346,0.4042799449281707,[0.87836442],0.005,0.1,0.09863642662061042,1.1694427145346413,0
2.3568906784057617,0.40857871669637746,[0.88601722],0.005,0.1,0.10563081682921596,1.1998844955942103,0
2.36802077293396,0.4122912923143742,[0.89369432],0.005,0.1,0.10775168895391526,1.2242854773960528,0
2.3787434101104736,0.4165900640825809,[0.90139503],0.005,0.1,0.1066073022844802,1.2413866519217762,0
2.3875527381896973,0.42030263970057774,[0.90911815],0.005,0.1,0.379388007801666,1.2563433861739084,0
2.396192789077759,0.4236244178851011,[0.9168494],0.005,0.1,0.40795324318251847,0.9386943600934778,0
2.408994436264038,0.4289001832369912,[0.92457633],0.005,0.1,0.3475582635388229,1.3833715473354355,0
2.4181411266326904,0.43261275885498784,[0.9323136],0.005,0.1,0.2658224416271157,1.3640072812733834,0
2.4271230697631836,0.43632533447298466,[0.94006059],0.005,0.1,0.1895548053687845,1.005930291214769,0
2.4371514320373535,0.44042870752445473,[0.94779121],0.005,0.1,0.12726411811551452,1.0917466020166653,0
2.4481401443481445,0.44492287800939817,[0.95550865],0.005,0.1,0.07978206960266264,1.5320654583188316,0
2.4565019607543945,0.44824465619392156,[0.96321579],0.005,0.1,0.04513260714636867,1.552400784176617,0
2.4651408195495605,0.45176183309518164,[0.97086474],0.005,0.1,0.020657043981222496,1.1268320154050142,0
2.476106882095337,0.4566468010135984,[0.97841582],0.005,0.1,0.003859948861482271,1.190532418989073,0
2.487727642059326,0.4611409714985418,[0.98588721],0.005,0.1,-0.007319550861257671,1.63651103643838,0
2.496140718460083,0.4646581483998018,[0.99332071],0.005,0.1,-0.014478245308567806,1.5694461028215314,0
2.506530284881592,0.4685661227345353,[1.00075256],0.005,0.1,-0.01880834956844453,1.967950652404518,0
2.5141217708587646,0.47169250220232195,[1.00820118],0.005,0.1,-0.021179227783753113,1.3889718513675346,0
2.5251071453094482,0.4761866726872654,[1.01565679],0.005,0.1,-0.022214617618420394,1.4069892799227712,0
2.539177656173706,0.48165783675589213,[1.02313733],0.005,0.1,-0.02235668071445339,2.3683190243228607,0
2.5521891117095947,0.4869336021077822,[1.03070988],0.005,0.1,-0.021915820443913058,2.6414352848150155,0
2.562112331390381,0.49084157644251564,[1.03840489],0.005,0.1,-0.021108032455385138,1.7917987373412005,0
2.571647882461548,0.494749550777249,[1.04620839],0.005,0.1,-0.020082277070024253,2.218239064339777,0
2.5806851387023926,0.49846212639524584,[1.05410761],0.005,0.1,-0.018940242381241458,1.5614184212103617,0
2.59002685546875,0.5021747020132425,[1.0620777],0.005,0.1,-0.017750469439037297,1.5806080650794931,0
2.598477602005005,0.5056918789145026,[1.07009717],0.005,0.1,-0.016558376004981813,1.6095055709524615,0
2.608147621154785,0.5095998532492361,[1.0781609],0.005,0.1,-0.015393332612994266,1.6370810669416138,0
2.6161086559295654,0.5129216314337594,[1.0862376],0.005,0.1,-0.014273637587637653,1.6548296768597162,0
2.628652572631836,0.5178065993521761,[1.09428756],0.005,0.1,-0.013210003140142281,2.1862023932422012,0
2.6361186504364014,0.5209329788199628,[1.10230454],0.005,0.1,-0.012207990706023998,1.5748104387772794,0
2.6461033821105957,0.5250363518714329,[1.11028392],0.005,0.1,-0.01126970703422999,1.635353866401253,0
2.657142162322998,0.5295305223563763,[1.11822264],0.005,0.1,0.26564337824154527,1.6889577142653087,0
2.6671152114868164,0.5336338954078464,[1.12613253],0.005,0.1,0.2995807832138102,1.7377312559260454,0
2.67514705657959,0.5367602748756332,[1.13402439],0.005,0.1,0.24523694278500885,1.7834332111718756,0
2.6860456466674805,0.5412544453605765,[1.14192182],0.005,0.1,0.16984902770518284,2.375762885858493,0
2.694122076034546,0.5445762235450999,[1.14984524],0.005,0.1,0.09997043612038845,1.7163047263234454,0
2.7049381732940674,0.5488749953133067,[1.15779845],0.005,0.1,0.04394313386868696,2.3467345710722842,0
2.7141897678375244,0.5523921722145668,[1.16579887],0.005,0.1,0.002493816603663823,2.2591183467451343,0
2.7240941524505615,0.5563001465493002,[1.17386122],0.005,0.1,-0.02641594501457165,2.204227338372411,0
2.7321410179138184,0.5594265260170869,[1.18198386],0.005,0.1,-0.045478123666912,2.1818965255543166,0
2.741523504257202,0.5633345003518203,[1.19016523],0.005,0.1,-0.0572018291762698,2.176171523768198,0
2.752234935760498,0.5676332721200271,[1.19840389],0.005,0.1,-0.063648620336694,2.183725171305534,0
2.7601537704467773,0.5709550503045504,[1.20668414],0.005,0.1,-0.34244593099096376,1.6486031917847062,0
2.769695520401001,0.5752538220727572,[1.21497842],0.005,0.1,-0.3758209090472959,1.8205024948650643,0
2.7789523601531982,0.5785756002572806,[1.22326363],0.005,0.1,-0.3193187992678814,1.4422002271984582,0
2.7891173362731934,0.5828743720254873,[1.23152075],0.005,0.1,-0.24077984247221407,1.685088267747476,0
2.798206329345703,0.5863915489267474,[1.23974918],0.005,0.1,-0.1671780646187669,1.8896637825832188,0
2.81011962890625,0.5914719155619009,[1.24797884],0.005,0.1,-0.10714425940150427,2.706167631700278,0
2.819786310195923,0.5953798898966343,[1.25625067],0.005,0.1,-0.06160003325154499,2.6600155105024568,0
2.829155445098877,0.5990924655146309,[1.26456986],0.005,0.1,0.24740270554795532,1.9821237440416157,0
2.837139844894409,0.6022188449824176,[1.27289607],0.005,0.1,0.30352137290343756,1.5786206627600552,0
2.8461036682128906,0.605540623166941,[1.28119548],0.005,0.1,0.26390656598162643,1.8637587649772875,0
2.8551132678985596,0.6092531987849378,[1.28947043],0.005,0.1,0.19782551486578148,2.099943115133551,0
2.8646280765533447,0.6131611731196712,[1.29775422],0.005,0.1,0.13340382665317202,3.0256689331918403,0
2.873067617416382,0.6166783500209313,[1.30607572],0.005,0.1,0.08015572813591894,2.248651619210075,0
2.883089542388916,0.6205863243556646,[1.31442886],0.005,0.1,0.03966079548119096,2.421695596146707,0
2.8930983543395996,0.6246896974071348,[1.32280872],0.005,0.1,0.010490489892830065,2.567724542772693,0
2.9049432277679443,0.6297700640422882,[1.33124236],0.005,0.1,-0.009616813597039418,3.5040034157596787,0
2.9139907360076904,0.633482639660285,[1.33976811],0.005,0.1,0.2531683186936882,3.366519954110853,0
2.9231085777282715,0.6368044178448083,[1.34838639],0.005,0.1,0.278039260667569,2.485247176315513,0
2.9320950508117676,0.640516993462805,[1.35706548],0.005,0.1,0.21823988325636717,2.657795902178399,0
2.9400789737701416,0.6436433729305918,[1.36577788],0.005,0.1,0.1399196661121572,2.076387363432591,0
2.950462818145752,0.6479421446987986,[1.37451571],0.005,0.1,0.06883754383805257,3.1531225334704716,0
2.9590871334075928,0.6514593216000585,[1.3832878],0.005,0.1,0.012765640818108541,2.3924321650482474,0
2.9700984954833984,0.6561488908017388,[1.39208547],0.005,0.1,-0.027972497718067053,2.6186284899003747,0
2.97894287109375,0.6598614664197354,[1.40090101],0.005,0.1,-0.055697247795905645,2.8016581806049943,0
2.987748146057129,0.662987845887522,[1.40974318],0.005,0.1,-0.34933397698053614,2.9433742538097607,0
2.9981284141540527,0.6672866176557288,[1.41861874],0.005,0.1,-0.3925730174900508,3.041695783415875,0
3.00887393951416,0.6715853894239355,[1.42754801],0.005,0.1,-0.34225770833947644,4.021194991194666,0
3.0172441005706787,0.6751025663251957,[1.43654695],0.005,0.1,-0.26727071483685894,2.9270070216357538,0
3.0260846614837646,0.6788151419431923,[1.44559651],0.005,0.1,-0.19537971916034183,3.0278892231788492,0
3.034475088119507,0.6825277175611891,[1.45467933],0.005,0.1,-0.13580036733244655,3.1061568187006166,0
3.0420870780944824,0.6854586983122393,[1.46377987],0.005,0.1,-0.08987583726319816,2.395678728115952,0
3.0541040897369385,0.6901482675139192,[1.4728689],0.005,0.1,-0.33203367014480273,2.6371924276850542,0
3.0661659240722656,0.6946424379988627,[1.48195143],0.005,0.1,-0.34092127192876964,3.6616765089516092,0
3.0771498680114746,0.6991366084838061,[1.49106132],0.005,0.1,-0.2689161596970784,3.552157589206868,0
3.086071252822876,0.7026537853850661,[1.50021109],0.005,0.1,-0.1813175709600814,3.4715890519783663,0
3.0965776443481445,0.7069525571532729,[1.50939507],0.005,0.1,-0.10316580379687795,3.4127798161568297,0
3.1091012954711914,0.7120329237884264,[1.51862218],0.005,0.1,-0.04166675929581213,4.286337030027458,0
3.118215322494507,0.7159408981231598,[1.52789896],0.005,0.1,0.0032852911643726328,3.1120642577012134,0
3.1291465759277344,0.7206304673248398,[1.53720057],0.005,0.1,0.3103672561406327,3.16190067765025,0
3.137218713760376,0.7237568467926265,[1.54650547],0.005,0.1,0.3637467134931821,3.22236757775544,0
3.1466498374938965,0.72766482112736,[1.55582476],0.005,0.1,0.32092690593202416,4.177758842882647,0
3.155510902404785,0.7311819980286202,[1.5651677],0.005,0.1,0.25141557563414146,3.083032122625164,0
3.1641366481781006,0.7346991749298801,[1.57449778],0.005,0.1,0.18349974086398474,2.430441647381706,0
3.1741671562194824,0.7389979466980869,[1.58376973],0.005,0.1,0.12679966736970444,2.719254169458886,0
3.1828675270080566,0.742515123599347,[1.59297563],0.005,0.1,0.08296248696168317,2.9588381868983626,0
3.1968319416046143,0.7481816863847104,[1.60213956],0.005,0.1,-0.22543768711722528,4.039642155128583,0
3.2061331272125244,0.7520896607194437,[1.61129775],0.005,0.1,-0.28168750015906374,3.9399341648778083,0
3.215148687362671,0.7556068376207038,[1.62046656],0.005,0.1,-0.24267718246707753,3.877307527344216,0
3.225304365158081,0.7593194132387007,[1.62964542],0.005,0.1,-0.45353129652930546,3.866370833045196,0
3.2362003326416016,0.763813583723644,[1.63883445],0.005,0.1,-0.42329874070759876,3.8668115402198033,0
3.24519681930542,0.7675261593416408,[1.64803418],0.005,0.1,-0.31610087790090147,3.8908979334040574,0
3.255094051361084,0.7716295323931107,[1.65723013],0.005,0.1,-0.20069456964356905,3.016448338070163,0
3.264115333557129,0.7751467092943709,[1.66639536],0.005,0.1,-0.10216400568421899,3.304474291368975,0
3.2741620540618896,0.7792500823458409,[1.67552329],0.005,0.1,-0.3026006301515683,3.543168415316897,0
3.286423444747925,0.7841350502642577,[1.68464036],0.005,0.1,-0.28155216340307,4.796426933250661,0
3.2967867851257324,0.7884338220324644,[1.69378544],0.005,0.1,-0.18980608000439975,4.6583700303269495,0
3.307488203048706,0.7929279925174079,[1.70299215],0.005,0.1,0.18558891274862113,5.789460920667311,0
3.316063642501831,0.7964451694186679,[1.71227334],0.005,0.1,0.026690019380289226,4.230469956558266,0
3.325132369995117,0.8001577450366647,[1.72160801],0.005,0.1,0.0016573638670074747,4.317654863175447,0
3.3351306915283203,0.8042611180881346,[1.73097842],0.005,0.1,0.30050431280286144,4.412325618915044,0
3.3431777954101562,0.807582896272658,[1.74036925],0.005,0.1,0.3672151626411607,3.4443409752708054,0
3.3511366844177246,0.8107092757404448,[1.74973561],0.005,0.1,0.3420965451490765,2.879806627413644,0
3.362246036529541,0.8150080475086516,[1.75904047],0.005,0.1,0.2880762179583559,3.388456162787373,0
3.371189594268799,0.8185252244099116,[1.7682859],0.005,0.1,0.2315564877954143,3.807199581225511,0
3.382455825805664,0.8230193948948551,[1.77749073],0.005,0.1,0.18219202075283822,4.135688202574008,0
3.391184091567993,0.8269273692295884,[1.7866719],0.005,0.1,0.1423244929240019,4.401513418288664,0
3.4010109901428223,0.8310307422810586,[1.79584461],0.005,0.1,0.11138191589442067,4.6143333550730015,0
3.4105947017669678,0.834938716615792,[1.80502237],0.005,0.1,0.08785567966712687,4.789309985833347,0
3.418085813522339,0.8380650960835787,[1.81420049],0.005,0.1,0.07013322190532333,3.7899560003382864,0
3.4280505180358887,0.8421684691350487,[1.82335893],0.005,0.1,0.3328436087998963,4.20920797606755,0
3.437863826751709,0.8458810447530456,[1.83249785],0.005,0.1,0.3559059151796883,4.554770309610201,0
3.4480819702148438,0.8501798165212522,[1.84163457],0.005,0.1,0.29314883043935747,4.825180780287574,0
3.45774507522583,0.8542831895727223,[1.85078396],0.005,0.1,0.21116396189370099,5.024173691117083,0
3.4669225215911865,0.857995765190719,[1.85995862],0.005,0.1,0.13603090444372,5.2082656555086855,0
3.4784512519836426,0.8622945369589258,[1.86916926],0.005,0.1,0.07574704022868828,5.338829283530672,0
3.487499713897705,0.8656163151434492,[1.87842459],0.005,0.1,-0.2452487737251446,5.458422262159784,0
3.4967095851898193,0.8693288907614459,[1.88773141],0.005,0.1,-0.3102232858803182,5.558902597851499,0
3.5051045417785645,0.8726506689459693,[1.89709486],0.005,0.1,-0.2766911021163401,5.644081634928848,0
3.5154175758361816,0.8773402381476494,[1.90651837],0.005,0.1,-0.21449058395615486,5.697732197115872,0
3.5255775451660156,0.8816390099158562,[1.91600349],0.005,0.1,-0.152303073563269,5.7308252562513395,0
3.53605580329895,0.8859377816840628,[1.92554973],0.005,0.1,-0.10010774176344586,5.738857676908732,0
3.5471081733703613,0.8904319521690063,[1.93517021],0.005,0.1,-0.059845711611330704,7.14496100706607,0
3.5574207305908203,0.8945353252204764,[1.94488844],0.005,0.1,0.24568051789926643,6.610531370031301,0
3.5650439262390137,0.8974663059715264,[1.9546888],0.005,0.1,0.2995853101029335,4.953154346636901,0
3.57604718208313,0.9021558751732064,[1.96452328],0.005,0.1,0.25863106525375723,5.018873494785327,0
3.5850470066070557,0.9056730520744666,[1.97436371],0.005,0.1,0.19180994421185055,5.040197057100595,0
3.597123861312866,0.9109488174263566,[1.98421245],0.005,0.1,0.1270539827033779,6.142494834390513,0
3.6063671112060547,0.9146613930443533,[1.99408156],0.005,0.1,0.07374198745878373,5.672178289428006,0
3.6161887645721436,0.9183739686623502,[2.00396281],0.005,0.1,0.03335932459808598,5.291909728692246,0
3.6276707649230957,0.9230635378640303,[2.01384339],0.005,0.1,0.004412300813421685,5.963988387751694,0
3.6360347270965576,0.9265807147652902,[2.02370857],0.005,0.1,-0.015405460279391468,4.438049532951002,0
3.64734148979187,0.9308794865334971,[2.03352897],0.005,0.1,0.24770500102415188,5.089222052932669,0
3.6560587882995605,0.9345920621514938,[2.04327646],0.005,0.1,0.27291654260075915,3.899320716423263,0
3.6671268939971924,0.9392816313531739,[2.05291426],0.005,0.1,0.21345944061450842,3.8048675646911856,0
3.6751315593719482,0.9424080108209606,[2.06240918],0.005,0.1,0.13547437149100106,3.713335706514361,0
3.6830735206604004,0.9459251877222207,[2.07173307],0.005,0.1,0.06471476762483491,3.075993784069859,0
3.6920738220214844,0.9494423646234808,[2.08085154],0.005,0.1,0.008949511094679334,3.146709579115444,0
3.702162504196167,0.9533503389582141,[2.0897454],0.005,0.1,-0.03149956098573742,3.166895964358021,0
3.7112386226654053,0.9568675158594742,[2.0984167],0.005,0.1,-0.33499186292493655,3.6115958498539436,0
3.720038890838623,0.9603846927607341,[2.10686657],0.005,0.1,-0.38546228547642347,2.975442666223137,0
3.7300496101379395,0.9644880658122044,[2.11507851],0.005,0.1,-0.06420637547576441,2.9526817011664437,0
3.7407853603363037,0.9687868375804112,[2.12304628],0.005,0.1,0.04043890753343979,3.264946512773978,0
3.7490499019622803,0.9721086157649345,[2.1307732],0.005,0.1,0.054967697989295544,2.7562381457563188,0
3.7573351860046387,0.9754303939494579,[2.13824724],0.005,0.1,-0.23897946439814755,2.7206396076516284,0
3.7672858238220215,0.9797291657176646,[2.14545863],0.005,0.1,-0.021461449817447964,2.673206132246812,0
3.776095390319824,0.9834417413356613,[2.15240106],0.005,0.1,0.04363910669585682,2.404620011228385,0
3.785996198654175,0.9873497156703948,[2.15906428],0.005,0.1,0.04676846669356562,2.4290240034396273,0
3.7940711975097656,0.990671493854918,[2.16544187],0.005,0.1,-0.2472510582653713,2.261818827256374,0
3.803884744644165,0.9951656643398614,[2.17153618],0.005,0.1,-0.02604508238158279,2.471207301528982,0
3.8138790130615234,0.9990736386745949,[2.17736204],0.005,0.1,0.043308550665549325,2.4294573324046533,0
3.823045015335083,1.002590815575855,[2.18293326],0.005,0.1,0.05006883643239304,2.387654611372671,0
3.833892583847046,1.0066941886273253,[2.18825695],0.005,0.1,0.03478878404200498,2.3438370135590016,0
3.8420841693878174,1.0102113655285851,[2.19333587],0.005,0.1,0.014897487310697805,2.1916652270428147,0
3.8521041870117188,1.0143147385800553,[2.19816942],0.005,0.1,-0.002878053567118564,2.193292999760154,0
3.861941337585449,1.0178319154813154,[2.20276333],0.005,0.1,0.2594779280281426,2.18703342016859,0
3.8720529079437256,1.0217398898160488,[2.20712822],0.005,0.1,0.28303652854151784,2.167492372541056,0
3.882112503051758,1.0260386615842554,[2.21127404],0.005,0.1,0.2218297999065895,2.145265894132178,0
3.8903298377990723,1.0297512372022521,[2.21521061],0.005,0.1,0.14229595612764145,2.1277009915560336,0
3.8980789184570312,1.0328776166700389,[2.21894451],0.005,0.1,0.07026466011679408,2.050781729537152,0
3.90891432762146,1.0371763884382457,[2.22248261],0.005,0.1,0.01349195480786463,2.104955304670059,0
3.9192004203796387,1.0412797614897158,[2.22583856],0.005,0.1,-0.02774257374399833,2.0761072434092815,0
3.929609775543213,1.0455785332579226,[2.22902498],0.005,0.1,-0.0558063380702839,2.0480504852261108,0
3.940685749053955,1.0502681024596026,[2.23205291],0.005,0.1,-0.0736273250370727,2.0664843233798242,0
3.9509735107421875,1.0545668742278094,[2.23493525],0.005,0.1,-0.08388062227001875,2.0248517461406985,0
3.9600918292999268,1.058279449845806,[2.23767842],0.005,0.1,-0.08874242946714742,1.9596976925267446,0
3.970395565032959,1.0621874241805394,[2.24028357],0.005,0.1,-0.3659178840303724,1.9466028045972048,0
3.9809961318969727,1.0662907972320095,[2.24275534],0.005,0.1,-0.3976856223914901,1.931694429220706,0
3.9907662868499756,1.070198771566743,[2.24510117],0.005,0.1,-0.33962397837814895,1.9171464995070076,0
3.998059034347534,1.0733251510345296,[2.24732609],0.005,0.1,-0.2595934978621992,1.884989694414194,0
4.009983777999878,1.0780147202362098,[2.24943522],0.005,0.1,-0.1845797213161435,1.8938414239866688,0
4.019061803817749,1.0819226945709433,[2.25143607],0.005,0.1,-0.12321898433627392,1.857886236223737,0
4.028031349182129,1.08563527018894,[2.25333384],0.005,0.1,-0.07643443831094945,1.848513430247842,0
4.038530111312866,1.0899340419571466,[2.25513366],0.005,0.1,-0.04231527625804214,1.8348799376543659,0
4.0474021434783936,1.09325582014167,[2.25684267],0.005,0.1,-0.01824922531916573,1.8248334895150877,0
4.056163549423218,1.0969683957596668,[2.25846575],0.005,0.1,-0.0017738351335904682,1.7998437086943007,0
4.069122076034546,1.1022441611115568,[2.26000765],0.005,0.1,0.009148324175735655,1.7951231899687319,0
4.078831434249878,1.1061521354462902,[2.26147649],0.005,0.1,0.016097352984055402,1.7793456833462347,0
4.089031219482422,1.1102555084977603,[2.26287964],0.005,0.1,0.020253550061695012,1.7627808170631079,0
4.098018407821655,1.1137726853990204,[2.26422197],0.005,0.1,0.022477735276490458,1.7492192292125286,0
4.109687328338623,1.1184622546007006,[2.26550947],0.005,0.1,0.023387484657384328,1.7403631576239746,0
4.117553234100342,1.121588634068487,[2.26674891],0.005,0.1,0.02342048350146017,1.7250225320553267,0
4.127504110336304,1.1256920071199572,[2.26794471],0.005,0.1,0.022883853090331963,1.706615632237365,0
4.136652231216431,1.1295999814546906,[2.26909794],0.005,0.1,0.021991155600031786,1.6832682333588642,0
4.145119905471802,1.132921759639214,[2.27020842],0.005,0.1,0.020889523166118276,1.672542197526395,0
4.153899192810059,1.1366343352572106,[2.27127767],0.005,0.1,0.019679249564944636,1.6596670162944305,0
4.163808822631836,1.1409331070254176,[2.27230859],0.005,0.1,0.2944661541759667,1.6437000360835798,0
4.174010515213013,1.1450364800768875,[2.27330381],0.005,0.1,0.050304325087727184,1.6285439229030072,0
4.185076475143433,1.149530650561831,[2.27426577],0.005,0.1,-0.039133540947235416,1.6115024355810592,0
4.193069219589233,1.1526570300296177,[2.2751955],0.005,0.1,-0.06128749384101978,1.5970060504831465,0
4.204765796661377,1.157346599231298,[2.27609404],0.005,0.1,-0.3328696854062032,1.5838841641947055,0
4.213672161102295,1.160863776132558,[2.27696466],0.005,0.1,-0.3531343575225748,1.5706461044655593,0
4.22603702545166,1.1659441427677113,[2.27781114],0.005,0.1,-0.2843868883839875,1.5542114481048144,0
4.234686374664307,1.1694613196689714,[2.27863557],0.005,0.1,-0.19662688623710703,1.5369314069168514,0
4.243647336959839,1.1731738952869681,[2.27943779],0.005,0.1,-0.11705972623462164,1.5235565877535682,0
4.2520551681518555,1.1761048760380182,[2.28021677],0.005,0.1,-0.05384370508819489,1.5116823142803146,0
4.261566638946533,1.1800128503727516,[2.28097176],0.005,0.1,-0.2832960298889382,1.4981666886530607,0
4.272012710571289,1.1841162234242217,[2.28170333],0.005,0.1,-0.2839537083351786,1.4836436494173035,0
4.283032178878784,1.1888057926259017,[2.28241309],0.005,0.1,-0.20740710725044814,1.4665016031075435,0
4.29404091835022,1.1934953618275819,[2.28310254],0.005,0.1,-0.11805569707583807,1.4492949761830947,0
4.302004814147949,1.1968171400121053,[2.28377302],0.005,0.1,-0.04014123794255615,1.4378320703496132,0
4.313029050827026,1.2013113104970485,[2.28442575],0.005,0.1,0.019768470575454996,1.4215063285619338,0
4.324013948440552,1.2058054809819923,[2.28506184],0.005,0.1,0.06226058312991171,1.4051672215170492,0
4.333768367767334,1.209908854033462,[2.28568308],0.005,0.1,0.36636196107990443,1.3919120630125665,0
4.343949794769287,1.2138168283681954,[2.28629181],0.005,0.1,0.4164875574651359,1.3775570023941133,0
4.352811336517334,1.2175294039861924,[2.28688919],0.005,0.1,0.3703112381837752,1.364248510478407,0
4.36301064491272,1.2216327770376625,[2.28747536],0.005,0.1,0.2974554678629985,1.349615911460893,0
4.375020742416382,1.2265177449560791,[2.2880505],0.005,0.1,0.22628204505411473,1.3320157737625196,0
4.383795499801636,1.230034921857339,[2.28861475],0.005,0.1,0.16645790393715565,1.3199217436956538,0
4.393721580505371,1.2341382949088093,[2.28916824],0.005,0.1,0.11965732348986945,1.3056974884694272,0
4.401621103286743,1.237264674376596,[2.28971111],0.005,0.1,0.08450655198138712,1.2953531902559212,0
4.410409688949585,1.2409772499945926,[2.29024284],0.005,0.1,0.05877158691405131,1.2825144677032037,0
4.41802978515625,1.2439082307456428,[2.29076236],0.005,0.1,0.040252895840559876,1.2730999777731038,0
4.427704811096191,1.247816205080376,[2.29126951],0.005,0.1,0.02709336154701961,1.2599746185657998,0
4.4363579750061035,1.2515287806983728,[2.29176423],0.005,0.1,0.01783466691376875,1.2475811413968347,0
4.44481086730957,1.2550459575996329,[2.29224589],0.005,0.1,0.01137717862847353,1.2359497688281125,0
4.455353736877441,1.2595401280845764,[2.29271536],0.005,0.1,0.0069120754179077485,1.2208810934565784,0
4.4640583992004395,1.2628619062690998,[2.29317407],0.005,0.1,0.003853944906430759,1.2099311812494,0
4.474280595779419,1.26696527932057,[2.29362203],0.005,0.1,0.0017836570623604902,1.1963087227950646,0
4.483985900878906,1.2708732536553033,[2.29405928],0.005,0.1,0.00040340536277690803,1.1834468737115311,0
4.493630886077881,1.2745858292732999,[2.29448653],0.005,0.1,-0.0004972477396977457,1.1713656707010789,0
4.5018463134765625,1.27810300617456,[2.29490443],0.005,0.1,-0.001066379031583417,1.1600499769581885,0
4.511237859725952,1.281815581792557,[2.29531359],0.005,0.1,-0.0014078288065721943,1.1480928698399464,0
4.520002126693726,1.285332758693817,[2.29571398],0.005,0.1,-0.0015941957302134217,1.1370568619950778,0
4.528878688812256,1.2888499355950767,[2.29610509],0.005,0.1,-0.001676085911492991,1.1258439243316727,0
4.538003444671631,1.2923671124963367,[2.29648654],0.005,0.1,-0.0016886624163577324,1.1150128877363266,0
4.546996593475342,1.296079688114334,[2.2968581],0.005,0.1,-0.0016562664324197007,1.1031148061741205,0
4.556969165802002,1.3001830611658038,[2.29722019],0.005,0.1,-0.0015956693469096478,1.089999745448942,0
4.566476821899414,1.3038956367838006,[2.29757372],0.005,0.1,-0.0015183569207207778,1.0783242726198674,0
4.575017929077148,1.3074128136850605,[2.29791899],0.005,0.1,-0.0014321312328138542,1.067720390568932,0
4.583986282348633,1.3111253893030574,[2.29825586],0.005,0.1,-0.001342232780538936,1.0560957894440022,0
4.596267461776733,1.3162057559382108,[2.29858522],0.005,0.1,-0.0012521256107132844,1.0397797009095442,0
4.604797124862671,1.3195275341227342,[2.29890882],0.005,0.1,-0.0011640460887413031,1.0297118032377135,0
4.613978862762451,1.323240109740731,[2.29922766],0.005,0.1,-0.0010793860254946462,1.0184842020486315,0
4.623988151550293,1.3275388815089375,[2.29954207],0.005,0.1,0.27503939987105797,1.005407185828982,0
4.633003234863281,1.3312514571269343,[2.29985236],0.005,0.1,0.3082397724883277,0.9943158116136734,0
4.642001152038574,1.3347686340281941,[2.30015831],0.005,0.1,0.2532134679626737,0.984281069547663,0
4.651032447814941,1.3384812096461913,[2.30045933],0.005,0.1,0.17719460964120048,0.9732238480973001,0
4.661638259887695,1.342779981414398,[2.30075538],0.005,0.1,0.10673339676288565,0.9604430745121861,0
4.67042875289917,1.3466879557491311,[2.30104691],0.005,0.1,0.050168575403086335,0.9489863085779721,0
4.67900276184082,1.3496189365001814,[2.30133383],0.005,0.1,0.008223685265650624,0.9410611078485169,0
4.6879987716674805,1.3531361134014415,[2.30161571],0.005,0.1,-0.021142742115209133,0.9308542118526424,0
4.697005987167358,1.3566532903027015,[2.30189269],0.005,0.1,-0.040625570380708874,0.9207461471215607,0
4.7116475105285645,1.362710650521538,[2.30216615],0.005,0.1,-0.05273663551604919,0.902575065643918,0
4.71998405456543,1.3660324287060617,[2.30243768],0.005,0.1,-0.05954005092156435,0.8936135600904187,0
4.731055021286011,1.3707219979077419,[2.30270733],0.005,0.1,-0.06262727357593241,0.8804395902892441,0
4.7393293380737305,1.3740437760922652,[2.30297473],0.005,0.1,-0.06317978257722007,0.871351204081483,0
4.7519001960754395,1.3791241427274186,[2.30324036],0.005,0.1,-0.06205297968103451,0.8569795796992333,0
4.762801170349121,1.3836183132123618,[2.30350497],0.005,0.1,-0.05985489514803537,0.8447472794043102,0
4.771992921829224,1.3871354901136221,[2.30376841],0.005,0.1,-0.057011235247385716,0.8357680107209219,0
4.78151798248291,1.3912388631650918,[2.30402975],0.005,0.1,-0.05381586063652408,0.8247585914819531,0
4.789539098739624,1.3947560400663521,[2.3042886],0.005,0.1,-0.050468564737422894,0.8155005182927089,0
4.803910255432129,1.4004226028517157,[2.30454537],0.005,0.1,-0.04710271362747541,0.8000601034161737,0
4.81203031539917,1.4033535836027657,[2.30480039],0.005,0.1,-0.043805166887039004,0.7930043527590175,0
4.820380210876465,1.4068707605040258,[2.30505316],0.005,0.1,-0.040630486031607,0.7839991007755284,0
4.829843997955322,1.4105833361220224,[2.3053033],0.005,0.1,-0.037610991521255896,0.7745309959803952,0
4.838019371032715,1.4139051143065458,[2.30555084],0.005,0.1,-0.03476383907278914,0.766183053009657,0
4.846600532531738,1.4172268924910691,[2.30579548],0.005,0.1,-0.03209597366451106,0.7583120059090458,0
4.854990482330322,1.4207440693923294,[2.30603627],0.005,0.1,-0.029607581426835707,0.7499193725642352,0
4.866657257080078,1.4254336385940094,[2.30627279],0.005,0.1,-0.027294483098107412,0.7375294677063934,0
4.87496542930603,1.4289508154952695,[2.3065054],0.005,0.1,-0.02514978429334449,0.7293078948922566,0
4.88400673866272,1.432663391113266,[2.30673409],0.005,0.1,0.2528733541820032,0.7201534438186129,0
4.893001079559326,1.436375966731263,[2.30695887],0.005,0.1,0.28783211399208264,0.7111105284852643,0
4.902107000350952,1.439893143632523,[2.30718012],0.005,0.1,0.23442799414017562,0.7026563445574091,0
4.910866975784302,1.443410320533783,[2.3073982],0.005,0.1,0.15990467387924923,0.6942758703195803,0
4.9189772605896,1.4465367000015699,[2.30761308],0.005,0.1,0.09082154584966681,0.6873734965207638,0
4.929002046585083,1.4506400730530398,[2.30782445],0.005,0.1,0.035526095493918636,0.6775732850224059,0
4.939855575561523,1.45532964225472,[2.30803272],0.005,0.1,-0.005249900229073196,0.6661130184852921,0
4.949463367462158,1.4592376165894534,[2.30823887],0.005,0.1,-0.3095785532489532,0.6571148527615237,0
4.957078456878662,1.4621685973405036,[2.30844311],0.005,0.1,-0.36119541552704343,0.6509412612863846,0
4.967390060424805,1.4662719703919733,[2.30864499],0.005,0.1,-0.31729753236698244,0.6415378565841877,0
4.975967168807983,1.469593748576497,[2.30884413],0.005,0.1,-0.24717692858789786,0.6344851666390403,0
4.987790107727051,1.4744787164949138,[2.30904056],0.005,0.1,-0.1789694003444623,0.6229763881493136,0
4.996389150619507,1.4781912921129103,[2.30923489],0.005,0.1,-0.12218967998564827,0.6147930593409324,0
5.008743762969971,1.483662456181537,[2.30942798],0.005,0.1,-0.0784115844740359,0.6024191025226956,0
5.0169501304626465,1.4869842343660604,[2.30962023],0.005,0.1,-0.04619691129668045,0.5957187757623982,0
5.024975776672363,1.4899152151171104,[2.30981136],0.005,0.1,-0.02327208507912308,0.5895222496440987,0
5.033999919891357,1.4934323920183705,[2.31000115],0.005,0.1,-0.28345340122175683,0.5820832262328929,0
5.046000003814697,1.498121961220051,[2.31018971],0.005,0.1,-0.30592064464385427,0.5721450185779247,0
5.055063962936401,1.5018345368380475,[2.31037713],0.005,0.1,-0.2439041326640375,0.56442866923117,0
5.065973997116089,1.506133308606254,[2.31056375],0.005,0.1,0.11249822054974856,0.5552511586603711,0
5.074971675872803,1.509845884224251,[2.31074984],0.005,0.1,0.21858802920486678,0.5481317848775126,0
5.084923267364502,1.513949257275721,[2.31093507],0.005,0.1,0.22129707851724295,0.5398136523967489,0
5.094649076461792,1.518052630327191,[2.31111915],0.005,0.1,0.1875472390096512,0.5315905253754728,0
5.1019580364227295,1.5211790097949778,[2.31130184],0.005,0.1,0.14621953994043968,0.5258198275555619,0
5.111973762512207,1.525086984129711,[2.31148266],0.005,0.1,0.1085493984361982,0.5180511702950681,0
5.121973752975464,1.5291903571811813,[2.31166149],0.005,0.1,0.07791172457241527,0.5099987136920212,0
5.130980730056763,1.5327075340824412,[2.3118385],0.005,0.1,0.05442472262813308,0.503206874935712,0
5.138997316360474,1.5360293122669648,[2.31201359],0.005,0.1,0.0370496707397795,0.49725617062790434,0
5.150926828384399,1.5413050776188546,[2.31218667],0.005,0.1,0.024499330579344766,0.4867499237286389,0
5.161084890365601,1.545408450670325,[2.3123582],0.005,0.1,0.015593120258933611,0.4790708842808482,0
5.1714441776275635,1.5497072224385315,[2.31252862],0.005,0.1,-0.2666729774140787,0.4711316310697107,0
5.179857015609741,1.553029000623055,[2.31269797],0.005,0.1,-0.3040919648489576,0.4650991842606645,0
5.1890037059783936,1.5563507788075785,[2.31286634],0.005,0.1,-0.25191147159636973,0.4591516771462722,0
5.199816703796387,1.5608449492925216,[2.31303376],0.005,0.1,-0.1777713016212927,0.45110211642188924,0
5.209996223449707,1.5647529236272555,[2.31320027],0.005,0.1,-0.38455185209603643,0.44416849659775515,0
5.219436883926392,1.5688562966787254,[2.31336589],0.005,0.1,-0.3618475880615424,0.4369724388808918,0
5.228970289230347,1.5725688722967222,[2.31353066],0.005,0.1,-0.2652208528649291,0.4305450556434144,0
5.23799204826355,1.576281447914719,[2.31369436],0.005,0.1,-0.15996751140711069,0.42452619210865666,0
5.247012376785278,1.579798624815979,[2.31385655],0.005,0.1,-0.07001492747333435,0.4184949628821106,0
5.256948947906494,1.5839019978674491,[2.31401709],0.005,0.1,-0.0012399992799406248,0.4115477624177692,0
5.269252300262451,1.5889823645026022,[2.31417637],0.005,0.1,0.04766336739964784,0.4027158585978336,0
5.277983665466309,1.5926949401205992,[2.31433474],0.005,0.1,0.08030449119378011,0.396982106783233,0
5.288295030593872,1.596993711888806,[2.31449224],0.005,0.1,0.10054370536367832,0.3896765212013699,0
5.297062873840332,1.600510888790066,[2.3146489],0.005,0.1,0.11173752947790172,0.38438739245591086,0
5.30902099609375,1.6053958567084827,[2.31480477],0.005,0.1,0.11655106105878715,0.3762944705855274,0
5.31797981262207,1.6091084323264795,[2.31495986],0.005,0.1,0.11699695471080088,0.37082279081229697,0
5.330248117446899,1.6136026028114228,[2.31511418],0.005,0.1,0.11454778569940557,0.3635340608259616,0
5.340979814529419,1.6179013745796298,[2.31526798],0.005,0.1,0.11025717519404152,0.3569906428021217,0
5.350022792816162,1.6216139501976263,[2.31542148],0.005,0.1,0.1048657504214035,0.35144597430136587,0
5.36119270324707,1.6263035193993067,[2.31557459],0.005,0.1,0.37492420483507083,0.34449027814230354,0
5.370018482208252,1.6300160950173033,[2.31572721],0.005,0.1,0.4018289638714243,0.33905087252697347,0
5.381214141845703,1.634705664218983,[2.3158793],0.005,0.1,0.06446602153432202,0.3322077664921748,0
5.391001462936401,1.6388090372704534,[2.3160308],0.005,0.1,0.22521096549784755,0.32632679544289794,0
5.403016090393066,1.6436940051888702,[2.31618191],0.005,0.1,0.23706421823252802,0.3191417686085514,0
5.413968801498413,1.6479927769570768,[2.31633276],0.005,0.1,0.1958774577531674,0.3134632332738291,0
5.424275636672974,1.6520961500085467,[2.31648322],0.005,0.1,-0.1329515916617737,0.3075387348364475,0
5.432945013046265,1.6560041243432801,[2.31663315],0.005,0.1,-0.21429015994648187,0.30251001125626675,0
5.44243860244751,1.659716699961277,[2.31678226],0.005,0.1,0.07812737626472052,0.2975176224480399,0
5.450930833816528,1.6630384781458003,[2.31693031],0.005,0.1,0.15835915804978112,0.29312165080802205,0
5.460258722305298,1.6663602563303237,[2.31707728],0.005,0.1,0.15312277847383188,0.288760378019404,0
5.471117973327637,1.6704636293817938,[2.3172232],0.005,0.1,-0.15651526996130458,0.283390590774307,0
5.479973316192627,1.6743716037165275,[2.31736787],0.005,0.1,-0.227422883648208,0.2786385109543329,0
5.49120306968689,1.6790611729182072,[2.31751107],0.005,0.1,0.07078058353668298,0.27233243032455023,0
5.503875255584717,1.684532336986834,[2.31765333],0.005,0.1,-0.12174692636248075,0.2652145346623513,0
5.514281749725342,1.6886357100383043,[2.31779529],0.005,0.1,-0.15821026120686277,0.260216709224025,0
5.523992300033569,1.6927390830897744,[2.31793707],0.005,0.1,-0.13559437492872672,0.2552943318006526,0
5.533493995666504,1.6966470574245076,[2.31807854],0.005,0.1,0.17941349433579207,0.25067896208881846,0
5.541977643966675,1.699968835609031,[2.31821936],0.005,0.1,0.25052876535100166,0.2470466646569701,0
5.551003456115723,1.7038768099437644,[2.31835905],0.005,0.1,0.22659237305286173,0.2424385111799472,0
5.559668779373169,1.7073939868450245,[2.31849742],0.005,0.1,0.17387815122774894,0.23835690698178644,0
5.571465015411377,1.7122789547634414,[2.31863453],0.005,0.1,0.11982663262703266,0.23273650539157864,0
5.581416845321655,1.7161869290981746,[2.31877043],0.005,0.1,0.0741763734072403,0.22831264299244441,0
5.592011213302612,1.720290302149645,[2.3189052],0.005,0.1,0.0390147524789425,0.22374384527072422,0
5.605196952819824,1.725566067501535,[2.3190393],0.005,0.1,0.013443004027125251,0.2175355670498917,0
5.616973161697388,1.7304510354199514,[2.3191733],0.005,0.1,0.2716948703489477,0.21259353068861656,0
5.626960039138794,1.7343590097546853,[2.31930706],0.005,0.1,0.29297138790389854,0.20849118736374384,0
5.637329816818237,1.7388531802396283,[2.31944047],0.005,0.1,0.23038364816554607,0.20361042322689457,0
5.648513555526733,1.7433473507245718,[2.31957385],0.005,0.1,0.1499186843511036,0.19905646325960852,0
5.656930685043335,1.7470599263425688,[2.31970704],0.005,0.1,0.07718657329673766,0.1955751695478281,0
5.666305303573608,1.7505771032438289,[2.31983952],0.005,0.1,0.019837303051785146,0.19206460750172014,0
5.673979759216309,1.7537034827116156,[2.31997083],0.005,0.1,-0.021900378742540097,0.18920746952832646,0
5.684939384460449,1.7580022544798222,[2.3201008],0.005,0.1,-0.3264565246486842,0.1847140686602045,0
5.6941869258880615,1.761714830097819,[2.32022969],0.005,0.1,-0.37781871030212255,0.1811377304161082,0
5.7049243450164795,1.7662090005827624,[2.32035773],0.005,0.1,-0.057321441277734586,0.17689395511145997,0
5.714054584503174,1.7697261774840223,[2.32048495],0.005,0.1,0.04666958865486623,0.17364318937236561,0
5.7270588874816895,1.7750019428359125,[2.32061152],0.005,0.1,0.06062727884887237,0.16858345344722878,0
5.737961292266846,1.7794961133208558,[2.32073779],0.005,0.1,0.04221474516403001,0.16457873258063024,0
5.7463366985321045,1.7828178915053792,[2.32086365],0.005,0.1,0.016370803848370127,0.16187834927336783,0
5.754028081893921,1.7859442709731659,[2.32098847],0.005,0.1,-0.28319051119939115,0.15931702747201199,0
5.7639665603637695,1.7902430427413727,[2.32111173],0.005,0.1,-0.33453552491666194,0.15549127436655966,0
5.772975921630859,1.7941510170761064,[2.32123337],0.005,0.1,-0.2921849107002701,0.1521051597683464,0
5.78226900100708,1.797863592694103,[2.32135356],0.005,0.1,0.051833657616802975,0.14895595494657615,0
5.792774438858032,1.801966965745573,[2.32147241],0.005,0.1,0.1509654156039701,0.1455403628030103,0
5.802955389022827,1.806070338797043,[2.32159008],0.005,0.1,0.15059700166005147,0.14216222115258603,0
5.813929319381714,1.81036911056525,[2.32170685],0.005,0.1,0.11645236698373385,0.13852544389305632,0
5.8233256340026855,1.8140816861832465,[2.32182318],0.005,0.1,0.07652184141628599,0.1356326123002909,0
5.832921504974365,1.81798966051798,[2.32193941],0.005,0.1,0.04139679674268376,0.1324644152793461,0
5.843961954116821,1.82209303356945,[2.32205566],0.005,0.1,0.013996113844042146,0.12956297784574428,0
5.85402512550354,1.82619640662092,[2.32217166],0.005,0.1,-0.005879148178498855,0.1264624263204112,0
5.863033294677734,1.8301043809556534,[2.32228702],0.005,0.1,-0.019484375116493938,0.12374147791479558,0
5.87201452255249,1.8338169565736502,[2.32240143],0.005,0.1,0.24778651454100492,0.12100114771886133,0
5.882960796356201,1.838311127058594,[2.32251476],0.005,0.1,0.2757062468542193,0.11774686904410311,0
5.890930652618408,1.8414375065263802,[2.32262709],0.005,0.1,0.21794168240077963,0.11551265035667303,0
5.902461767196655,1.8461270757280606,[2.32273869],0.005,0.1,-0.13509161823290827,0.11204394598670953,0
5.91283655166626,1.8502304487795302,[2.32284999],0.005,0.1,-0.23846566569875075,0.10926497495250134,0
5.924047470092773,1.8551154166979473,[2.32296113],0.005,0.1,-0.2389467766376053,0.10600027517283037,0
5.933531761169434,1.8588279923159439,[2.32307209],0.005,0.1,-0.20333758961671614,0.1035716645638775,0
5.940947771072388,1.8617589730669941,[2.32318282],0.005,0.1,-0.16043302111140778,0.10169498318796624,0
5.9528608322143555,1.8664485422686738,[2.32329329],0.005,0.1,-0.1214060115308048,0.09871310701169492,0
5.963010787963867,1.8703565166034077,[2.32340346],0.005,0.1,-0.08958583560580193,0.09626814540414011,0
5.970992803573608,1.8734828960711942,[2.32351329],0.005,0.1,-0.34109542319518626,0.09433415834495824,0
5.979990720748901,1.8771954716891908,[2.32362262],0.005,0.1,-0.3559188682371282,0.09223921612386014,0
5.989886522293091,1.8812988447406611,[2.3237311],0.005,0.1,-0.5634802540805925,0.08972347669969848,0
5.99959135055542,1.8852068190753946,[2.32383864],0.005,0.1,-0.5108664708243915,0.08739743013874902,0
6.007591962814331,1.8881377998264446,[2.32394531],0.005,0.1,-0.37834250428679406,0.08569154725011031,0
6.01613187789917,1.891264179294231,[2.324051],0.005,0.1,-0.516765262002012,0.08403985652179835,0
6.0239574909210205,1.894390558762018,[2.32415549],0.005,0.1,-0.7099313578166979,0.08221445556266797,0
6.03519344329834,1.8986893305302248,[2.32425893],0.005,0.1,-0.8755040740007646,0.07964888331917072,0
6.045337677001953,1.9029881022984314,[2.32436176],0.005,0.1,-0.7141884973022071,0.07730754024022257,0
6.053933382034302,1.9059190830494817,[2.32446406],0.005,0.1,-0.7457329475792303,0.07588841002854832,0
6.061920166015625,1.9088500638005315,[2.32456539],0.005,0.1,-0.5483977259400895,0.07445953169071706,0
6.070677280426025,1.9119764432683182,[2.32466541],0.005,0.1,-0.5843145290227518,0.07276592889428588,0
6.078124284744263,1.9149074240193684,[2.32476397],0.005,0.1,-0.68150251713186,0.07135396968564788,0
6.087897539138794,1.9182292022038918,[2.32486101],0.005,0.1,-0.4957377191944744,0.06960760731765513,0
6.098336935043335,1.9219417778218884,[2.32495676],0.005,0.1,-0.5242469428066265,0.06757873473155533,0
6.1099183559417725,1.9264359483068318,[2.32505181],0.005,0.1,-0.6100446855577585,0.06538239673215311,0
6.119293212890625,1.9293669290578819,[2.32514645],0.005,0.1,-0.6906672241221576,0.06397741602985357,0
6.128279685974121,1.9326887072424053,[2.32524078],0.005,0.1,-0.7460170579217886,0.06241279193793185,0
6.135922431945801,1.9354242892767186,[2.32533471],0.005,0.1,-0.7737604076700378,0.06125638707945668,0
6.147396087646484,1.9397230610449256,[2.32542818],0.005,0.1,-0.7780581082096741,0.05913932694657347,0
6.156473636627197,1.9428494405127124,[2.32552133],0.005,0.1,-0.7646530493030497,0.057850715490358876,0
6.165611743927002,1.9461712186972357,[2.32561408],0.005,0.1,-1.0149571861340583,0.05635186482014913,0
6.173928499221802,1.9489068007315489,[2.32570621],0.005,0.1,-1.0144000520824301,0.055247024856336466,0
6.1856396198272705,1.9526193763495459,[2.3257977],0.005,0.1,-1.1970370033299933,0.05350019325012352,0
6.194245100021362,1.9553549583838592,[2.32588885],0.005,0.1,-1.1135586255882834,0.05234798784957178,0
6.201932907104492,1.957699742984699,[2.32597975],0.005,0.1,-0.9468893001758427,0.05147044909086806,0
6.209932565689087,1.960239926302276,[2.32607018],0.005,0.1,-0.7737369898397708,0.050409211820387954,0
6.217931032180786,1.9627801096198525,[2.32615996],0.005,0.1,-0.898149613122652,0.04944458309360347,0
6.226879596710205,1.9657110903709027,[2.32624895],0.005,0.1,-0.807923591571031,0.04824027618536414,0
6.234910011291504,1.9682512736884794,[2.32633703],0.005,0.1,-0.379993427699871,0.04731727526677293,0
6.246337175369263,1.9717684505897393,[2.32642422],0.005,0.1,-0.4721460593623302,0.04582774097651594,0
6.25489616394043,1.974504032624053,[2.32651072],0.005,0.1,-0.4325522387797279,0.04486261622283219,0
6.263902902603149,1.9770442159416295,[2.32659657],0.005,0.1,-0.3528682596196577,0.043882035006146854,0
6.271917343139648,1.9791936018257328,[2.32668181],0.005,0.1,-0.2711807863224742,0.043076064306526135,0
6.282355785369873,1.9819291838600464,[2.32676664],0.005,0.1,-0.20111463840384403,0.042071575871022115,0
6.292893648147583,1.9852509620445697,[2.32685119],0.005,0.1,-0.14568974970077575,0.040881011665500226,0
6.303621768951416,1.9885727402290931,[2.32693574],0.005,0.1,-0.37980015800088857,0.03963736705234625,0
6.311918497085571,1.9911129235466698,[2.32702051],0.005,0.1,-0.3820639927843935,0.038839975711254505,0
6.320913791656494,1.9936531068642462,[2.32710526],0.005,0.1,-0.30465833437322326,0.038043945113885286,0
6.33566427230835,1.9977564799157166,[2.32718991],0.005,0.1,-0.4886886339177209,0.03652084427472915,0
6.343732118606567,1.9999058657998199,[2.32727499],0.005,0.1,-0.44003293172480634,0.035831693445837934,0
6.3543150424957275,2.00283684655087,[2.32736078],0.005,0.1,-0.3204165252084207,0.03491128223190312,0
6.364387512207031,2.0053770298684466,[2.3274472],0.005,0.1,-0.4728712505141,0.03411534242999592,0
6.3729143142700195,2.0077218144692868,[2.32753404],0.005,0.1,-0.40225366777363003,0.033454097899726316,0
6.383913040161133,2.0104573965036003,[2.32762096],0.005,0.1,-0.2683970985496343,0.032606770916562555,0
6.39189887046814,2.0124113836709667,[2.32770782],0.005,0.1,-0.13638955864793192,0.03200942122950639,0
6.405437469482422,2.0157331618554903,[2.32779477],0.005,0.1,-0.30446052374425464,0.030969804407186937,0
6.412909746170044,2.01749175030612,[2.32788194],0.005,0.1,-0.2575313981180356,0.030517493144403933,0
6.423316717147827,2.020031933623697,[2.3279693],0.005,0.1,-0.1471984003706781,0.029731715992061116,0
6.431917667388916,2.0221813195078004,[2.32805684],0.005,0.1,-0.035646244567907215,0.02918448646310887,0
6.442004203796387,2.0245261041086406,[2.32814437],0.005,0.1,-0.22050703421766898,0.028523627649256356,0
6.452911615371704,2.0268708887094804,[2.32823174],0.005,0.1,-0.18700479818040597,0.027876429676057014,0
6.4620041847229,2.029020274593584,[2.32831892],0.005,0.1,-0.08731103514081863,0.027294933165902386,0
6.470271110534668,2.0307788630442136,[2.32840593],0.005,0.1,0.015802317037652773,0.02682740771522756,0
6.482208251953125,2.0333190463617905,[2.32849275],0.005,0.1,0.10023561220047922,0.026160499183465597,0
6.490531921386719,2.0352730335291573,[2.32857939],0.005,0.1,0.1614087755769524,0.02565783880889029,0
6.500283718109131,2.0372270206965237,[2.32866584],0.005,0.1,-0.07450598950886723,0.02515737750952485,0
6.514029502868652,2.040158001447574,[2.32875221],0.005,0.1,-0.08432683064055252,0.02438986638566867,0
6.523887395858765,2.042111988614941,[2.32883872],0.005,0.1,-0.018467546476233748,0.023916357080011982,0
6.534988641738892,2.0444567732157806,[2.32892542],0.005,0.1,0.0594690845998959,0.023355768664727716,0
6.543553352355957,2.046019962949674,[2.32901223],0.005,0.1,0.12577303246193502,0.022989429084903687,0
6.552969932556152,2.047778551400304,[2.32909906],0.005,0.1,0.17422422984570174,0.022582188247747246,0
6.56399393081665,2.049732538567671,[2.32918583],0.005,0.1,-0.07040793636427078,0.022126237914519068,0
6.573965787887573,2.0516865257350374,[2.32927235],0.005,0.1,-0.08604957915645034,0.021710205401218836,0
6.583597183227539,2.0534451141856676,[2.32935831],0.005,0.1,-0.2999901260064195,0.021301258497993653,0
6.593885183334351,2.0552037026362977,[2.32944369],0.005,0.1,-0.2574959748707405,0.02087898577397537,0
6.6037962436676025,2.0573530885204008,[2.3295287],0.005,0.1,-0.1374137880010084,0.020417482382338138,0
6.6129209995269775,2.0589162782542942,[2.32961321],0.005,0.1,-0.013514903674167716,0.02010409107495451,0
6.620896816253662,2.060284069271451,[2.32969677],0.005,0.1,0.08823434805586507,0.01983358825001587,0
6.62996768951416,2.061651860288608,[2.32977907],0.005,0.1,0.16246024808436427,0.01953206015274939,0
6.6400697231292725,2.063215050022501,[2.32986019],0.005,0.1,0.21177118488255722,0.019175373950436246,0
6.649375915527344,2.064582841039658,[2.32994049],0.005,0.1,0.24114917131030011,0.01889397732044727,0
6.657916784286499,2.0657552333400777,[2.33002002],0.005,0.1,0.255633140241784,0.018677692784611278,0
6.6672444343566895,2.0671230243572345,[2.33009868],0.005,0.1,0.25950168375959404,0.018378174550380676,0
6.676267147064209,2.0684908153743913,[2.33017654],0.005,0.1,0.2561030168206634,0.018124145722278977,0
6.686978578567505,2.0700540051082847,[2.33025351],0.005,0.1,-0.02810154104743451,0.017808142591223704,0
6.695725679397583,2.071421796125441,[2.33032953],0.005,0.1,-0.07235115162856495,0.017534362331233934,0
6.705888509750366,2.072789587142598,[2.33040464],0.005,0.1,-0.030059629353299686,0.017273323658068336,0
6.714873790740967,2.0741573781597546,[2.33047883],0.005,0.1,0.30846182370036884,0.017008242008327873,0
6.725912570953369,2.0755251691769114,[2.33055226],0.005,0.1,0.3983103368213453,0.016733598514393513,0
6.73487401008606,2.076697561477331,[2.3306251],0.005,0.1,0.3862352217491624,0.01653116674741324,0
6.743886232376099,2.077869953777751,[2.33069716],0.005,0.1,0.33900014760152464,0.016325765924253534,0
6.752901315689087,2.0790423460781713,[2.33076818],0.005,0.1,0.5613885886271202,0.016105086841320216,0
6.7628490924835205,2.0802147383785914,[2.33083818],0.005,0.1,0.2695286153227169,0.015885941013487705,0
6.773885726928711,2.081582529395748,[2.33090728],0.005,0.1,0.14033806382669195,0.015634754342127462,0
6.7843687534332275,2.0827549216961683,[2.33097568],0.005,0.1,0.08638921417132425,0.015412113258996349,0
6.7928626537323,2.0837319152798512,[2.33104357],0.005,0.1,0.06588180337308912,0.015251740027044014,0
6.802344083786011,2.0849043075802713,[2.33111099],0.005,0.1,0.059248362298049466,0.015036000112371009,0
6.810848712921143,2.085685902447218,[2.33117791],0.005,0.1,0.057631712930548445,0.014917131174413241,0
6.821888208389282,2.086858294747638,[2.33124423],0.005,0.1,0.05724605331752135,0.01470353701928951,0
6.8298704624176025,2.0878352883313216,[2.33130996],0.005,0.1,0.056643095092126027,0.014545238620632058,0
6.839853525161743,2.088812281915005,[2.33137501],0.005,0.1,0.33144337131394536,0.014379877361802785,0
6.849886417388916,2.089984674215425,[2.33143931],0.005,0.1,0.3626957564111527,0.014181727983645082,0
6.85922908782959,2.0907662690823714,[2.33150287],0.005,0.1,0.5812737779995264,0.01405421285099123,0
6.868264436721802,2.091547863949318,[2.3315657],0.005,0.1,0.5356271854215994,0.013925876362188474,0
6.876597166061401,2.092329458816265,[2.33162774],0.005,0.1,0.4071455934468543,0.013806851544295286,0
6.8838911056518555,2.0929156549664754,[2.33168873],0.005,0.1,0.54755524669886,0.013721053158705108,0
6.8956427574157715,2.094088047266895,[2.33174854],0.005,0.1,0.46526102415693726,0.0135187723202153,0
6.904851198196411,2.0948696421338417,[2.33180731],0.005,0.1,0.3213089236024575,0.013393828711036311,0
6.91587495803833,2.0958466357175247,[2.33186514],0.005,0.1,0.18099817835003698,0.01323714133359596,0
6.926497936248779,2.096823629301208,[2.3319221],0.005,0.1,0.0663470129626312,0.013076448937286971,0
6.936672925949097,2.097605224168155,[2.33197827],0.005,0.1,-0.019054210440162665,0.012959580352989147,0
6.946863174438477,2.098386819035102,[2.33203353],0.005,0.1,0.1974562901265916,0.012841191675907311,0
6.956286668777466,2.0991684139020483,[2.33208769],0.005,0.1,0.19163753554363072,0.01272021538577359,0
6.96693229675293,2.099950008768995,[2.33214071],0.005,0.1,0.11303467374671977,0.01259904836820289,0
6.976552724838257,2.100731603635942,[2.3321926],0.005,0.1,0.30061181676204174,0.012480012618576678,0
6.985357284545898,2.1015131985028885,[2.33224334],0.005,0.1,0.2586135626741494,0.012361525291514856,0
6.995561838150024,2.1020993946530986,[2.33229293],0.005,0.1,0.4236066959223287,0.012274604055060215,0
7.004865646362305,2.1028809895200453,[2.33234135],0.005,0.1,0.34278072054581654,0.012157536715182445,0
7.0132155418396,2.1034671856702554,[2.33238853],0.005,0.1,0.47008291854582546,0.01207500340188772,0
7.021924734115601,2.1038579831037287,[2.33243526],0.005,0.1,0.35853561605186546,0.012024726930110561,0
7.034032821655273,2.1048349766874117,[2.33249234],0.005,0.1,0.1869703344800308,0.018806990282660904,0
7.044336557388306,2.1054211728376218,[2.33257259],0.005,0.1,0.3024713828087199,0.012159954641062879,0
7.0529022216796875,2.106007368987832,[2.33267278],0.005,0.1,0.20879457391055645,0.012062633708970219,0
7.061893701553345,2.106593565138042,[2.33278755],0.005,0.1,0.33909391346773493,0.012273466900691024,0
7.072861433029175,2.107179761288252,[2.33291813],0.005,0.1,0.23664921167135608,0.012149835416340666,0
7.081849575042725,2.107765957438462,[2.33306464],0.005,0.1,0.3519239910390691,0.012018863299582625,0
7.092863321304321,2.108352153588672,[2.33322562],0.005,0.1,0.5111791473693077,0.011717925857260015,0
7.104894638061523,2.1091337484556187,[2.33339437],0.005,0.1,0.3721649959316128,0.011879792835801622,0
7.113861083984375,2.109524545889092,[2.33356208],0.005,0.1,0.4350931958933078,0.011307664102914306,0
7.123426198959351,2.109915343322565,[2.33372732],0.005,0.1,0.2698309969834849,0.011273466444600424,0
7.132233381271362,2.1105015394727755,[2.33389089],0.005,0.1,0.33529169514477314,0.011212414193934955,0
7.1424641609191895,2.111087735622985,[2.33405075],0.005,0.1,0.1825457734919014,0.011148110819268763,0
7.151853799819946,2.1112831343397223,[2.33420519],0.005,0.1,-0.013631503908986972,0.011141865588290849,0
7.16306734085083,2.1120647292066685,[2.33435323],0.005,0.1,0.08968194257102372,0.011045734019169836,0
7.171877145767212,2.1122601279234052,[2.33449417],0.005,0.1,-0.007312695680056255,0.011037434694668044,0
7.1813671588897705,2.1126509253568786,[2.33462746],0.005,0.1,0.12574855608000476,0.010998794263201129,0
7.189928293228149,2.113041722790352,[2.33475276],0.005,0.1,0.030058824237587364,0.010957990395625346,0
7.199317932128906,2.1134325202238253,[2.33486991],0.005,0.1,0.15456997851307566,0.010916690488416892,0
7.2072014808654785,2.1138233176572987,[2.3349789],0.005,0.1,0.04843549938533705,0.010874003184236918,0
7.2158496379852295,2.1140187163740354,[2.33507978],0.005,0.1,0.16365581102209206,0.01086029797001412,0
7.22525429725647,2.1144095138075087,[2.33517273],0.005,0.1,0.05025827666308964,0.01081455626269236,0
7.233877897262573,2.114800311240982,[2.33525802],0.005,0.1,0.16022658778038615,0.010770135728940656,0
7.244834899902344,2.114995709957719,[2.33533596],0.005,0.1,0.043263643296714074,0.010751666352460712,0
7.252848148345947,2.1153865073911917,[2.33540691],0.005,0.1,0.1509709899205468,0.010704506330318801,0
7.2608513832092285,2.1155819061079284,[2.33547128],0.005,0.1,0.0327077628647523,0.010685214893029345,0
7.268820285797119,2.1157773048246655,[2.33552947],0.005,0.1,0.139797890749017,0.010664526416334962,0
7.278590679168701,2.115972703541402,[2.33558194],0.005,0.1,0.021388740258289823,0.01064317346528359,0
7.2877233028411865,2.1163635009748756,[2.33562919],0.005,0.1,0.12864825551963482,0.010593164866057317,0
7.296223878860474,2.116558899691612,[2.33567171],0.005,0.1,0.286649994187269,0.010570520415293765,0
7.304399728775024,2.116754298408349,[2.33571001],0.005,0.1,0.15149223883595153,0.010547596799641956,0
7.312882423400879,2.116754298408349,[2.33574454],0.005,0.1,0.22183755273992034,0.010552453354532896,0
7.3218467235565186,2.1169496971250856,[2.33577567],0.005,0.1,0.06628883499078259,0.010528788369729817,0
7.3308868408203125,2.117145095841822,[2.33580382],0.005,0.1,0.14279938908047174,0.010504612021683324,0
7.340714454650879,2.1175358932752952,[2.33582942],0.005,0.1,0.0017440710775768753,0.010452475054587134,0
7.349897623062134,2.1175358932752952,[2.3358529],0.005,0.1,0.09345048350716899,0.01045546535833181,0
7.358859062194824,2.117731291992032,[2.33587461],0.005,0.1,0.24156054897230803,0.010430397098021946,0
7.36788010597229,2.117926690708769,[2.33589479],0.005,0.1,0.10075459201018046,0.010405580001215968,0
7.377437114715576,2.117926690708769,[2.33591375],0.005,0.1,0.16850011222382416,0.0104084245102447,0
7.386817455291748,2.117926690708769,[2.3359318],0.005,0.1,0.012467198222113202,0.010411694808793562,0
7.397906303405762,2.1181220894255053,[2.33594931],0.005,0.1,0.08991263536339701,0.010388783698394844,0
7.405928373336792,2.1181220894255053,[2.3359666],0.005,0.1,-0.04929384278715764,0.010389603822549894,0
7.413856744766235,2.1181220894255053,[2.33598378],0.005,0.1,-0.23122148069964313,0.01039171214347117,0
7.4239561557769775,2.1181220894255053,[2.33600095],0.005,0.1,-0.11352606340501152,0.01039746339460774,0
7.432194232940674,2.1181220894255053,[2.33601833],0.005,0.1,-0.1963901985374896,0.010399082917628758,0
7.442312002182007,2.1181220894255053,[2.33603605],0.005,0.1,-0.3257336414938784,0.010403419346712474,0
7.450942754745483,2.1181220894255053,[2.33605422],0.005,0.1,-0.16552100403124553,0.010407379379084161,0
7.461658477783203,2.1181220894255053,[2.33607299],0.005,0.1,-0.21656381742189162,0.010411640968922761,0
7.47382664680481,2.1181220894255053,[2.33609246],0.005,0.1,-0.0472956259553286,0.010416027969190065,0
7.485862493515015,2.1181220894255053,[2.33611281],0.005,0.1,0.16131930020807264,0.01042402050234309,0
7.4958178997039795,2.1181220894255053,[2.33613424],0.005,0.1,0.3410312073703127,0.010426136012146021,0
7.5052876472473145,2.1181220894255053,[2.33615685],0.005,0.1,0.473198705564909,0.010429410630635056,0
7.512869358062744,2.1181220894255053,[2.33618059],0.005,0.1,0.5592666949481712,0.010428908935131303,0
7.523394584655762,2.1181220894255053,[2.33620541],0.005,0.1,0.607426524171989,0.010438462212412689,0
7.534851312637329,2.1181220894255053,[2.33623145],0.005,0.1,0.6269404399818719,0.010442651604975385,0
7.548824310302734,2.1181220894255053,[2.33625883],0.005,0.1,0.6259994423888107,0.01045094319580982,0
7.5578773021698,2.1181220894255053,[2.3362876],0.005,0.1,0.6111387589140168,0.01044849632785503,0
7.566814184188843,2.1181220894255053,[2.33631762],0.005,0.1,0.5872858013385478,0.010453782430444654,0
7.576538562774658,2.1181220894255053,[2.3363488],0.005,0.1,0.5580219638259372,0.010458804605597916,0
7.585214614868164,2.1181220894255053,[2.3363811],0.005,0.1,0.5258796885350527,0.010463889965488747,0
7.5953357219696045,2.1181220894255053,[2.33641451],0.005,0.1,0.49260703232241093,0.010469120444355,0
7.602840900421143,2.1181220894255053,[2.33644896],0.005,0.1,0.4593809137454967,0.010474102574190491,0
7.61182427406311,2.1181220894255053,[2.33648434],0.005,0.1,0.4269701718519539,0.010474882798779261,0
7.622822046279907,2.1181220894255053,[2.33652046],0.005,0.1,0.39585638014800695,0.010481443062231895,0
7.6308159828186035,2.1181220894255053,[2.33655725],0.005,0.1,0.3663215502670837,0.010488259532321423,0
7.638834476470947,2.1181220894255053,[2.33659461],0.005,0.1,0.3385109051673443,0.01048967154386097,0
7.647803068161011,2.1181220894255053,[2.33663242],0.005,0.1,0.312477339274088,0.010497575918940528,0
7.657299518585205,2.1181220894255053,[2.33667063],0.005,0.1,0.28821264233374966,0.010504194535759454,0
7.667402982711792,2.1181220894255053,[2.33670924],0.005,0.1,0.2656692619069097,0.01051061576731824,0
7.675860404968262,2.1181220894255053,[2.33674821],0.005,0.1,0.24477535653563265,0.010512913799981457,0
7.690796375274658,2.1181220894255053,[2.33678757],0.005,0.1,0.2254451198743626,0.01053251064310807,0
7.702846527099609,2.1181220894255053,[2.33682764],0.005,0.1,0.20758578806486355,0.010542294123878927,0
7.712822675704956,2.1181220894255053,[2.33686869],0.005,0.1,0.19110233120466075,0.010545265899080256,0
7.720829725265503,2.1181220894255053,[2.33691061],0.005,0.1,0.17590053490711455,0.010542701076088297,0
7.7297914028167725,2.1181220894255053,[2.33695316],0.005,0.1,0.1618889681883918,0.010548886966691704,0
7.739400625228882,2.1181220894255053,[2.33699622],0.005,0.1,0.14898018545234692,0.010555438958652807,0
7.749553203582764,2.1181220894255053,[2.33703972],0.005,0.1,0.13709140565314484,0.010561671898375584,0
7.7578301429748535,2.1181220894255053,[2.33708355],0.005,0.1,0.1261448380936168,0.0105631090540723,0
7.766813039779663,2.1181220894255053,[2.33712754],0.005,0.1,0.1160677726544503,0.010570956453421706,0
7.776951789855957,2.1181220894255053,[2.33717161],0.005,0.1,0.10679251605962883,0.01057858370754104,0
7.78679895401001,2.1181220894255053,[2.33721577],0.005,0.1,0.09825623047298698,0.010586231823315842,0
7.796855688095093,2.1181220894255053,[2.33726003],0.005,0.1,0.09040071304676492,0.01059250361025686,0
7.804881572723389,2.1181220894255053,[2.33730438],0.005,0.1,0.08317214272261926,0.01059987772752751,0
7.813228607177734,2.1181220894255053,[2.33734883],0.005,0.1,0.07652081201425824,0.010606655895328198,0
7.821844577789307,2.1181220894255053,[2.33739332],0.005,0.1,0.07040085555259745,0.010608216933753965,0
7.8308188915252686,2.1181220894255053,[2.33743771],0.005,0.1,0.0647699830594585,0.010616277522772282,0
7.839799165725708,2.1181220894255053,[2.33748197],0.005,0.1,0.05958922158116642,0.01062394357395097,0
7.848247289657593,2.1181220894255053,[2.33752613],0.005,0.1,0.05482266987155664,0.010631028179882505,0
7.8568055629730225,2.1181220894255053,[2.33757016],0.005,0.1,0.05043726649382976,0.010633036519155524,0
7.868846416473389,2.1181220894255053,[2.33761404],0.005,0.1,0.046402572322811184,0.010647244993535143,0
7.87919020652771,2.1181220894255053,[2.3376579],0.005,0.1,0.0426905675409726,0.01065357352414286,0
7.890747785568237,2.1181220894255053,[2.33770186],0.005,0.1,0.03927546284050764,0.010659450427778492,0
7.899648904800415,2.1181220894255053,[2.33774591],0.005,0.1,0.03613352430524721,0.010664656573501113,0
7.909919023513794,2.1181220894255053,[2.33779003],0.005,0.1,0.03324291130521908,0.010671023565374414,0
7.924139499664307,2.1181220894255053,[2.33783429],0.005,0.1,0.030583526661878538,0.01068483079402415,0
7.935672998428345,2.1181220894255053,[2.33787892],0.005,0.1,0.02813687831168351,0.010694981703913286,0
7.944459676742554,2.1181220894255053,[2.33792402],0.005,0.1,0.02588595169467825,0.010692112484376782,0
7.952806711196899,2.1181220894255053,[2.33796935],0.005,0.1,0.023815092112654954,0.010692194185024257,0
7.963298797607422,2.1181220894255053,[2.3380147],0.005,0.1,0.021909896331128408,0.010705265808823633,0
7.971145391464233,2.1181220894255053,[2.33806004],0.005,0.1,0.0201571127358783,0.010705542453594785,0
7.980309247970581,2.1181220894255053,[2.33810525],0.005,0.1,0.018544549394876177,0.010712779350468115,0
7.990021705627441,2.1181220894255053,[2.33815026],0.005,0.1,0.01706098941779384,0.010720132726344735,0
8.003142833709717,2.1181220894255053,[2.3381951],0.005,0.1,0.015696113046525732,0.01073145749210964,0
8.013636589050293,2.1181220894255053,[2.3382399],0.005,0.1,0.014440425950312464,0.010737540445246871,0
8.024154901504517,2.1181220894255053,[2.33828469],0.005,0.1,0.013285193237543633,0.010742197042381685,0
8.033201456069946,2.1181220894255053,[2.33832942],0.005,0.1,0.012222378732819474,0.010747796112015455,0
8.044142484664917,2.1181220894255053,[2.33837407],0.005,0.1,0.01124458910218944,0.010758361112374826,0
8.05177640914917,2.1181220894255053,[2.33841859],0.005,0.1,0.010345022441611153,0.010764939159541142,0
8.061598300933838,2.1181220894255053,[2.33846274],0.005,0.1,0.009517420973600057,0.010769963492294378,0
8.070356845855713,2.1181220894255053,[2.33850641],0.005,0.1,0.008756027524834521,0.010774439386004626,0
8.078824281692505,2.1181220894255053,[2.33854953],0.005,0.1,0.008055545483233492,0.010774878219943523,0
8.091869115829468,2.1181220894255053,[2.33859203],0.005,0.1,0.0074111019568448,0.010785588482274467,0
8.100785493850708,2.1181220894255053,[2.33863401],0.005,0.1,0.0068182138788862225,0.01079052447670376,0
8.109802007675171,2.1181220894255053,[2.3386755],0.005,0.1,0.006272756823587633,0.01079533848016949,0
8.117820978164673,2.1181220894255053,[2.33871651],0.005,0.1,0.005770936316209237,0.010800448013029791,0
8.1272132396698,2.1181220894255053,[2.338757],0.005,0.1,0.005309261437868531,0.010805925543172445,0
8.136431455612183,2.1181220894255053,[2.33879693],0.005,0.1,0.004884520541708275,0.010808838987837658,0
8.146963119506836,2.1181220894255053,[2.33883621],0.005,0.1,0.004493758911580067,0.010814370634537085,0
8.157115697860718,2.117926690708769,[2.33887486],0.005,0.1,0.004134258207899572,0.010852108384067022,0
8.165799617767334,2.117926690708769,[2.33891294],0.005,0.1,0.0038035175577397465,0.01085445773668822,0
8.175960302352905,2.1181220894255053,[2.33895042],0.005,0.1,0.003499236157651072,0.010831270628972897,0
8.184141874313354,2.117926690708769,[2.33898725],0.005,0.1,0.0032192972682103323,0.010865073710830937,0
8.192811250686646,2.117926690708769,[2.33902342],0.005,0.1,0.002961753488973454,0.010868388475052143,0
8.201503038406372,2.117926690708769,[2.33905886],0.005,0.1,0.00272481321140954,0.010874247560798297,0
8.209839820861816,2.117926690708769,[2.33909358],0.005,0.1,0.002506828155584551,0.010880011442260756,0
8.221776247024536,2.117926690708769,[2.33912768],0.005,0.1,0.0023062819038992257,0.010887351417779889,0
8.229902982711792,2.117926690708769,[2.33916118],0.005,0.1,0.0021217793521202946,0.01089233617443026,0
8.240314960479736,2.117926690708769,[2.33919398],0.005,0.1,0.0019520370043237818,0.010896485255527073,0
8.25211763381958,2.117926690708769,[2.33922608],0.005,0.1,0.001795874044239052,0.010903688733458344,0
8.264882564544678,2.117926690708769,[2.3392577],0.005,0.1,0.0016522041208827474,0.010909965313460222,0
8.275554656982422,2.117926690708769,[2.33928902],0.005,0.1,0.0015200277913401056,0.010912427065680255,0
8.28479814529419,2.117926690708769,[2.33932007],0.005,0.1,0.0013984255681224792,0.01091575706284406,0
8.292835712432861,2.117926690708769,[2.3393508],0.005,0.1,0.0012865515227353898,0.010916953656388142,0
8.303792476654053,2.117926690708769,[2.33938119],0.005,0.1,0.0011836274009604558,0.010924613935034863,0
8.314446210861206,2.117926690708769,[2.33941133],0.005,0.1,0.0010889372089143458,0.010928808668312778,0
8.32180380821228,2.117926690708769,[2.33944125],0.005,0.1,0.0010018222322227066,0.010930021643319701,0
8.330810785293579,2.117731291992032,[2.33947087],0.005,0.1,0.0009216764536599459,0.010963479599318296,0
8.340793371200562,2.117926690708769,[2.33950015],0.005,0.1,0.0008479423373776897,0.010939095187228689,0
8.351786851882935,2.117731291992032,[2.33952916],0.005,0.1,0.000780106950394851,0.01097426222641431,0
8.360799312591553,2.117731291992032,[2.33955793],0.005,0.1,0.0007176983943684261,0.010975738855022612,0
8.371893882751465,2.117731291992032,[2.33958642],0.005,0.1,0.0006602825228225667,0.010980480972999218,0
8.38150691986084,2.117731291992032,[2.33961459],0.005,0.1,0.0006074599209992926,0.010984170830800569,0
8.391803503036499,2.117731291992032,[2.33964247],0.005,0.1,0.0005588631273211212,0.010988841663486838,0
8.403568029403687,2.117731291992032,[2.3396701],0.005,0.1,0.000514154077136671,0.01099517732726664,0
8.412856101989746,2.117731291992032,[2.3396976],0.005,0.1,0.0004730217509666055,0.010998461243615433,0
8.4233980178833,2.117731291992032,[2.339725],0.005,0.1,0.0004351800108898845,0.011001673614544613,0
8.432794094085693,2.117731291992032,[2.33975222],0.005,0.1,0.0004003656100191186,0.011003722611928512,0
8.441765308380127,2.117731291992032,[2.33977918],0.005,0.1,0.00036833636121788745,0.011008165650883217,0
8.45081377029419,2.1175358932752952,[2.33980585],0.005,0.1,0.0003388694523206653,0.011040756351560623,0
8.460543870925903,2.117731291992032,[2.33983223],0.005,0.1,0.00031175989613515794,0.011016223411781321,0
8.471830368041992,2.117731291992032,[2.33985832],0.005,0.1,0.00028681910444444767,0.011020060101315484,0
8.480544567108154,2.117731291992032,[2.33988417],0.005,0.1,0.0002638735760889636,0.011024492334294757,0
8.48976182937622,2.1175358932752952,[2.3399098],0.005,0.1,0.00024276369000189612,0.011057058755991549,0
8.499549865722656,2.1175358932752952,[2.33993524],0.005,0.1,0.0002233425948017798,0.011060992188590303,0
8.508793592453003,2.1175358932752952,[2.33996049],0.005,0.1,0.00020547518721766161,0.011064593812046856,0
8.52004075050354,2.1175358932752952,[2.33998556],0.005,0.1,0.0001890371722402657,0.011068524550421358,0
8.52857232093811,2.1175358932752952,[2.34001046],0.005,0.1,0.00017391419846105635,0.01107234840578445,0
8.539480447769165,2.1175358932752952,[2.34003523],0.005,0.1,0.00016000106258418033,0.011076263456568695,0
8.548784732818604,2.1175358932752952,[2.34005989],0.005,0.1,0.00014720097757745177,0.011079755540883682,0
8.55826449394226,2.1175358932752952,[2.34008444],0.005,0.1,0.0001354248993712598,0.011083360098596855,0
8.565759181976318,2.1175358932752952,[2.34010886],0.005,0.1,0.00012459090742156193,0.011085496697359858,0
8.575332164764404,2.1173404945585586,[2.34013308],0.005,0.1,0.00011462363482783919,0.011118371792226729,0
8.584796905517578,2.1175358932752952,[2.3401571],0.005,0.1,0.00010545374404161346,0.01109382158840804,0
8.595988273620605,2.1173404945585586,[2.34018095],0.005,0.1,9.701744451828527e-05,0.011126215193292412,0
8.608290433883667,2.1173404945585586,[2.34020469],0.005,0.1,8.925604895682316e-05,0.011131971425732912,0
8.616897583007812,2.1173404945585586,[2.34022838],0.005,0.1,8.211556504027785e-05,0.011133407889672625,0
8.629883050918579,2.1173404945585586,[2.34025204],0.005,0.1,7.554631983705605e-05,0.011139001219688763,0
8.638631343841553,2.1173404945585586,[2.34027568],0.005,0.1,6.950261425009179e-05,0.01114108341307778,0
8.647948026657104,2.1173404945585586,[2.3402993],0.005,0.1,6.394240511008447e-05,0.011144272116387117,0
8.656042098999023,2.1173404945585586,[2.34032286],0.005,0.1,5.8827012701277887e-05,0.011148094984232587,0
8.66459035873413,2.1173404945585586,[2.34034637],0.005,0.1,5.4120851685175635e-05,0.01115127466959705,0
8.676181316375732,2.1173404945585586,[2.34036982],0.005,0.1,4.979118355036169e-05,0.011155170437609658,0
8.684061527252197,2.1173404945585586,[2.3403932],0.005,0.1,4.580788886633285e-05,0.011157888072319187,0
8.691797971725464,2.117145095841822,[2.34041647],0.005,0.1,4.2143257757026206e-05,0.011189403455101865,0
8.700778722763062,2.1173404945585586,[2.34043954],0.005,0.1,3.87717971364641e-05,0.011164489540115407,0
8.709819316864014,2.117145095841822,[2.34046244],0.005,0.1,3.567005336554701e-05,0.011198414133310994,0
8.721762418746948,2.117145095841822,[2.34048525],0.005,0.1,3.281644909630331e-05,0.011201751042230958,0
8.732832193374634,2.117145095841822,[2.34050799],0.005,0.1,3.019113316859901e-05,0.011204745546251635,0
8.741049528121948,2.117145095841822,[2.34053063],0.005,0.1,2.7775842515111087e-05,0.011207986930855217,0
8.750054836273193,2.117145095841822,[2.34055316],0.005,0.1,2.5553775113902212e-05,0.011211207462809755,0
8.762797594070435,2.117145095841822,[2.34057557],0.005,0.1,2.3509473104790053e-05,0.011214316462095825,0
8.77077865600586,2.117145095841822,[2.34059778],0.005,0.1,2.1628715256406874e-05,0.011216249810954941,0
8.780844926834106,2.117145095841822,[2.34061973],0.005,0.1,1.9898418035894324e-05,0.01121996773977292,0
8.791753053665161,2.117145095841822,[2.34064139],0.005,0.1,1.8306544593022778e-05,0.011223469423208305,0
8.801044940948486,2.117145095841822,[2.34066282],0.005,0.1,1.6842021025580944e-05,0.011227982381951574,0
8.808751821517944,2.117145095841822,[2.34068404],0.005,0.1,1.5494659343534487e-05,0.011229501307842824,0
8.818086385726929,2.117145095841822,[2.34070502],0.005,0.1,1.4255086596051717e-05,0.01123318050980015,0
8.828804016113281,2.1169496971250856,[2.34072576],0.005,0.1,1.3114679668367575e-05,0.011265600245782558,0
8.838746786117554,2.1169496971250856,[2.34074627],0.005,0.1,1.2065505294898183e-05,0.011268971594653947,0
8.849437952041626,2.1169496971250856,[2.34076656],0.005,0.1,1.110026487130633e-05,0.011271656398381706,0
8.859864950180054,2.1169496971250856,[2.3407866],0.005,0.1,1.0212243681601827e-05,0.011274786376828518,0
8.872796297073364,2.1169496971250856,[2.34080643],0.005,0.1,9.395264187073663e-06,0.011278637828377533,0
8.880741119384766,2.116754298408349,[2.34082607],0.005,0.1,8.643643052107782e-06,0.011309607591593208,0
8.895506143569946,2.1169496971250856,[2.34084552],0.005,0.1,7.952151607939159e-06,0.011285217756918951,0
8.903879165649414,2.1169496971250856,[2.3408648],0.005,0.1,7.315979479304013e-06,0.011287868340896998,0
8.912747859954834,2.1169496971250856,[2.3408838],0.005,0.1,6.730701120959696e-06,0.011289221693830223,0
8.921785831451416,2.1169496971250856,[2.34090268],0.005,0.1,6.192245031282925e-06,0.011305504532230289,0
8.93086314201355,2.116754298408349,[2.34092724],0.005,0.1,5.696865428780288e-06,0.01382569260492066,0
8.940820455551147,2.116754298408349,[2.34096466],0.005,0.1,5.2411161944778636e-06,0.01148598982457768,0
8.950749635696411,2.116754298408349,[2.34101144],0.005,0.1,4.821826898919634e-06,0.011337027655074253,0
8.96047568321228,2.116754298408349,[2.34106033],0.005,0.1,4.436080747006065e-06,0.011361524644336353,0
8.970770597457886,2.116754298408349,[2.34110715],0.005,0.1,4.081194287245579e-06,0.011558829240862923,0
8.980273246765137,2.116754298408349,[2.3411467],0.005,0.1,3.754698744265935e-06,0.012045821926974537,0
8.9907705783844,2.116754298408349,[2.34117216],0.005,0.1,3.4543228447246625e-06,0.012912003038281996,0
8.999727010726929,2.116558899691612,[2.34117576],0.005,0.1,3.1779770171466856e-06,0.014244942578170744,0
9.011807441711426,2.116754298408349,[2.34114707],0.005,0.1,2.9237388557749543e-06,0.018580148279404216,0
9.021721363067627,2.116558899691612,[2.3410733],0.005,0.1,2.689839747312953e-06,0.020785671980391007,0
9.033059358596802,2.116754298408349,[2.34094096],0.005,0.1,2.4746525675279173e-06,0.028846343780679594,0
9.043762683868408,2.116558899691612,[2.34073617],0.005,0.1,2.2766803621256847e-06,0.03130368710385554,0
9.05172085762024,2.116558899691612,[2.34045128],0.005,0.1,2.0945459331556293e-06,0.026978068102564853,0
9.064639806747437,2.116558899691612,[2.34008101],0.005,0.1,1.9269822585031847e-06,0.04096556272875635,0
9.073962211608887,2.116558899691612,[2.33961358],0.005,0.1,1.7728236778229292e-06,0.0448390635306034,0
9.081751346588135,2.116558899691612,[2.33904209],0.005,0.1,1.6309977835970918e-06,0.037181834036050826,0
9.089804887771606,2.116558899691612,[2.33836721],0.005,0.1,1.5005179609093244e-06,0.04421875951715936,0
9.099490642547607,2.116558899691612,[2.33758513],0.005,0.1,1.3804765240365797e-06,0.05185689831115083,0
9.111761808395386,2.116558899691612,[2.33668794],0.005,0.1,1.2700384021136518e-06,0.059735451113586864,0
9.12071442604065,2.116558899691612,[2.33566806],0.005,0.1,1.1684353299445606e-06,0.0677817259338553,0
9.129769325256348,2.1163635009748756,[2.3345184],0.005,0.1,1.0749605035489958e-06,0.07602714318547359,0
9.140150308609009,2.116558899691612,[2.33323251],0.005,0.1,9.889636632650779e-07,0.08410946701342517,0
9.14852261543274,2.116558899691612,[2.33181031],0.005,0.1,9.098465702038725e-07,0.06689927784441697,0
9.15776777267456,2.116558899691612,[2.33025749],0.005,0.1,8.370588445875602e-07,0.07988562934404375,0
9.166741609573364,2.116558899691612,[2.32857333],0.005,0.1,7.700941370205556e-07,0.0920460299809811,0
9.176544904708862,2.1163635009748756,[2.32675148],0.005,0.1,7.08486606058912e-07,0.10308020290032796,0
9.184738636016846,2.116558899691612,[2.32478663],0.005,0.1,6.51807677574198e-07,0.11244384649142967,0
9.194965124130249,2.116558899691612,[2.32267455],0.005,0.1,5.996630633682627e-07,0.12114184248640426,0
9.20392107963562,2.116558899691612,[2.32041191],0.005,0.1,5.51690018298801e-07,0.12933395522642116,0
9.211788177490234,2.116558899691612,[2.31799612],0.005,0.1,5.075548168348965e-07,0.13703355972087766,0
9.220739364624023,2.116558899691612,[2.31542517],0.005,0.1,4.6695043148810566e-07,0.1446420028220705,0
9.229190349578857,2.116558899691612,[2.31270518],0.005,0.1,4.295943969690572e-07,0.10944312631434219,0
9.240865230560303,2.116558899691612,[2.3098494],0.005,0.1,3.9522684521153315e-07,0.12574941372291623,0
9.252758264541626,2.116558899691612,[2.30686225],0.005,0.1,3.6360869759461056e-07,0.13829098853395505,0
9.26259732246399,2.116558899691612,[2.30374045],0.005,0.1,3.345200017870417e-07,0.15032915566781035,0
9.272746562957764,2.116558899691612,[2.30048108],0.005,0.1,3.0775840164407805e-07,0.15995445799478933,0
9.284603834152222,2.116558899691612,[2.2970733],0.005,0.1,2.8313772951255144e-07,0.2237499919550097,0
9.29532265663147,2.116558899691612,[2.2934998],0.005,0.1,2.6048671115154775e-07,0.21424955002907026,0
9.303747177124023,2.116558899691612,[2.28975495],0.005,0.1,2.3964777425942367e-07,0.2077487667654531,0
9.31272268295288,2.116558899691612,[2.28585227],0.005,0.1,2.2047595231866974e-07,0.149126394331774,0
9.32351541519165,2.116754298408349,[2.28180415],0.005,0.1,2.0283787613317635e-07,0.21687283114246672,0
9.333967685699463,2.116754298408349,[2.27760396],0.005,0.1,1.866108460425221e-07,0.20968431564850543,0
9.34256386756897,2.116754298408349,[2.27324694],0.005,0.1,1.7168197835912062e-07,0.20415849701007235,0
9.351613283157349,2.116754298408349,[2.26873871],0.005,0.1,1.5794742009039082e-07,0.20101241539244816,0
9.35973572731018,2.116754298408349,[2.26409462],0.005,0.1,1.4531162648315955e-07,0.14243154165383873,0
9.37275505065918,2.116754298408349,[2.2593286],0.005,0.1,1.3368669636450698e-07,0.2101739209027217,0
9.381762981414795,2.116754298408349,[2.2544433],0.005,0.1,1.2299176065534632e-07,0.14849673350776046,0
9.390740394592285,2.116754298408349,[2.24945145],0.005,0.1,1.1315241980291856e-07,0.15652768826566762,0
9.399932622909546,2.116558899691612,[2.24436452],0.005,0.1,1.0410022621868523e-07,0.16135009795355515,0
9.411726236343384,2.116558899691612,[2.23917283],0.005,0.1,9.577220812119033e-08,0.21598147361007355,0
9.419716596603394,2.116754298408349,[2.23386895],0.005,0.1,8.811043147149511e-08,0.1474330924720149,0
9.429152727127075,2.116558899691612,[2.22846785],0.005,0.1,8.106159695377562e-08,0.1483859549234529,0
9.438253402709961,2.116754298408349,[2.22298297],0.005,0.1,7.457666919747354e-08,0.1465230104294867,0
9.446643590927124,2.116754298408349,[2.21742658],0.005,0.1,6.861053566167561e-08,0.10343156764355081,0
9.457471132278442,2.116558899691612,[2.21182008],0.005,0.1,6.312169280874159e-08,0.11028387033838567,0
9.466907262802124,2.116754298408349,[2.20617137],0.005,0.1,5.8071957384042245e-08,0.11366081055176135,0
9.474766969680786,2.116754298408349,[2.2004874],0.005,0.1,5.342620079331894e-08,0.07998368012624081,0
9.4844810962677,2.116754298408349,[2.19478497],0.005,0.1,4.9152104729853366e-08,0.08644450167627761,0
9.49507474899292,2.116754298408349,[2.18906797],0.005,0.1,4.521993635146508e-08,0.0882464292724256,0
9.504720449447632,2.116754298408349,[2.18332907],0.005,0.1,4.160234144334788e-08,0.08650157334540115,0
9.514976978302002,2.116754298408349,[2.17756228],0.005,0.1,3.8274154127880024e-08,0.08204622117256206,0
9.524343252182007,2.116754298408349,[2.17176279],0.005,0.1,3.521222179764962e-08,0.07574851793700484,0
9.531709671020508,2.116754298408349,[2.16593747],0.005,0.1,3.2395244053837664e-08,0.05010827156331823,0
9.543468236923218,2.116754298408349,[2.16009238],0.005,0.1,2.980362452953062e-08,0.06470731429856313,0
9.553709268569946,2.116754298408349,[2.15422236],0.005,0.1,2.741933456716821e-08,0.040571543679529753,0
9.561742782592773,2.116754298408349,[2.14833382],0.005,0.1,2.522578780179479e-08,0.035635044455638094,0
9.571758508682251,2.116558899691612,[2.14243238],0.005,0.1,2.3207724777651178e-08,0.02922015612173907,0
9.58115005493164,2.116558899691612,[2.13651238],0.005,0.1,2.135110679543906e-08,0.02120267240064796,0
9.58873963356018,2.116754298408349,[2.13057974],0.005,0.1,1.9643018251803938e-08,0.009726870205545569,0
9.596733093261719,2.116558899691612,[2.1246605],0.005,0.1,1.8071576791659626e-08,0.003075157692775892,0
9.604694128036499,2.116558899691612,[2.11877652],0.005,0.1,1.6625850648326877e-08,-0.003234139749175402,0
9.612727642059326,2.116558899691612,[2.11293555],0.005,0.1,1.5295782596460706e-08,-0.007066672146222192,0
9.621701002120972,2.116558899691612,[2.1071436],0.005,0.1,1.4072119988743864e-08,-0.015705163259429285,0
9.629725694656372,2.116558899691612,[2.10139439],0.005,0.1,1.2946350389644357e-08,-0.025829078169740848,0
9.641027927398682,2.1163635009748756,[2.09567156],0.005,0.1,-0.27603834776803865,-0.03643343699204068,0
9.651688575744629,2.115972703541402,[2.08996088],0.005,0.1,-0.30916295188233167,-0.046927905141216336,0
9.66250205039978,2.1155819061079284,[2.08425013],0.005,0.1,-0.8061424155244521,-0.05746712348279874,0
9.673718690872192,2.1151911086744555,[2.07852886],0.005,0.1,-1.072344977177556,-0.06785559952483773,0
9.683712244033813,2.1144095138075087,[2.07278823],0.005,0.1,-1.4768291096286568,-0.07753111842779797,0
9.6927011013031,2.1140187163740354,[2.06702087],0.005,0.1,-2.107304333074141,-0.08768194792356442,0
9.702140808105469,2.113041722790352,[2.06121],0.005,0.1,-2.389432383689604,-0.13081114442788222,0
9.710692882537842,2.1122601279234052,[2.05534169],0.005,0.1,-2.753153486111265,-0.09698334362841526,0
9.720128059387207,2.1112831343397223,[2.04942596],0.005,0.1,-3.0410026999210746,-0.1084130044349638,0
9.729658842086792,2.1101107420393017,[2.04347142],0.005,0.1,-3.213237782574951,-0.11968677990597548,0
9.738223552703857,2.1091337484556187,[2.03747471],0.005,0.1,-3.552999955580159,-0.13088869366190303,0
9.747698545455933,2.1075705587217253,[2.03143305],0.005,0.1,-4.11555339901923,-0.14113833157310465,0
9.758845090866089,2.1056165715543584,[2.02534412],0.005,0.1,-4.317535476817661,-0.15061551651111388,0
9.768852472305298,2.1038579831037287,[2.019206],0.005,0.1,-4.589264914054987,-0.16035800898271393,0
9.778008699417114,2.1020993946530986,[2.01301725],0.005,0.1,-4.500714869309192,-0.17022704220633758,0
9.787245750427246,2.1001454074857318,[2.00677676],0.005,0.1,-4.535009121113504,-0.17983444670058282,0
9.795690774917603,2.098191420318365,[2.00049501],0.005,0.1,-4.271884859432104,-0.13468283410304752,0
9.806246042251587,2.0956512370007885,[1.99418091],0.005,0.1,-4.4637995471719245,-0.21689656922345904,0
9.81507921218872,2.0933064523999483,[1.98783076],0.005,0.1,-4.160130672031405,-0.15909760208868196,0
9.82569408416748,2.0905708703656347,[1.98145287],0.005,0.1,-4.256736127213091,-0.1791667967413047,0
9.836368083953857,2.087639889614585,[1.97505413],0.005,0.1,-3.8607173273900903,-0.1969510356111527,0
9.843684434890747,2.0852951050137447,[1.96864037],0.005,0.1,-3.611026841171947,-0.14907128855995694,0
9.853701114654541,2.082168725545958,[1.96222788],0.005,0.1,-3.6886013019006505,-0.17701039780912042,0
9.864683866500854,2.0784561499279612,[1.95581858],0.005,0.1,-3.5365143527062877,-0.20014989837022812,0
9.872667074203491,2.075720567893648,[1.94940221],0.005,0.1,-3.020896417952451,-0.2203332263504394,0
9.881665468215942,2.0723987897091245,[1.94296998],0.005,0.1,-2.72597651611495,-0.23639189677484998,0
9.88973069190979,2.0694678089580743,[1.93651448],0.005,0.1,-2.2494060843535904,-0.25052777377395874,0
9.899171829223633,2.0657552333400777,[1.93002962],0.005,0.1,-2.0539380506578393,-0.2609603247907997,0
9.907480955123901,2.0624334551555545,[1.92351059],0.005,0.1,-1.9614766589335173,-0.2703703951447451,0
9.917715072631836,2.058330082104084,[1.91695383],0.005,0.1,-1.620174990765712,-0.2771055264494504,0
9.9268319606781,2.054422107769351,[1.91034525],0.005,0.1,-1.2441519706458135,-0.38066434627639956,0
9.935063123703003,2.050904930868091,[1.90367375],0.005,0.1,-0.9134632253724078,-0.26355248967396927,0
9.94267988204956,2.0475831526835675,[1.89696572],0.005,0.1,-0.37320305981830304,-0.1938022659716244,0
9.952714920043945,2.0434797796320976,[1.89025568],0.005,0.1,0.13636810832870067,-0.22440165090289435,0
9.961518049240112,2.0397672040141006,[1.88354971],0.005,0.1,0.5376024800627439,-0.24986782001615931,0
9.971248865127563,2.0356638309626307,[1.87684143],0.005,0.1,1.3733433623189382,-0.2694753561637728,0
9.980031967163086,2.0321466540613704,[1.87012553],0.005,0.1,1.8976860933081279,-0.28584522356165437,0
9.989579677581787,2.0280432810099005,[1.86339772],0.005,0.1,2.4753996272603005,-0.29837506613190473,0
9.99967622756958,2.0239399079584306,[1.85665453],0.005,0.1,3.2068665524672415,-0.3089349677191773,0
10.008714199066162,2.0202273323404336,[1.84989321],0.005,0.1,3.8103809552392924,-0.3188926020752003,0
10.01811957359314,2.0163193580057,[1.84311161],0.005,0.1,4.212302337797725,-0.3276310980266216,0
10.025698184967041,2.0129975798211768,[1.83631969],0.005,0.1,4.1463597174290765,-0.23874876113632376,0
10.03371262550354,2.0098712003533903,[1.82954908],0.005,0.1,4.16857602905745,-0.1850701010491313,0
10.042277097702026,2.00635402345213,[1.8228262],0.005,0.1,4.440973864909488,-0.23245970018501413,0
10.050704956054688,2.00283684655087,[1.81614947],0.005,0.1,4.412844516692019,-0.272147829655806,0
10.058809995651245,1.99931966964961,[1.80951688],0.005,0.1,4.240335857165163,-0.2085795572573417,0
10.0702543258667,1.9944347017311932,[1.80292594],0.005,0.1,4.003229674420883,-0.3605695086931384,0
10.079160928726196,1.9905267273964597,[1.79635041],0.005,0.1,3.7423345078288595,-0.37277474603100863,0
10.08893871307373,1.9864233543449896,[1.7897677],0.005,0.1,3.47844135599652,-0.38230462800138776,0
10.10250735282898,1.9805613928428896,[1.78315836],0.005,0.1,3.2219812554928726,-0.5213247077697702,0
10.111504554748535,1.9768488172248928,[1.77649418],0.005,0.1,2.97797824154695,-0.4921762763472433,0
10.119677066802979,1.9739178364738426,[1.76977534],0.005,0.1,2.748611243223699,-0.346817136387148,0
10.129992485046387,1.969619064705636,[1.76301414],0.005,0.1,2.534553436693657,-0.5062079919042644,0
10.139594078063965,1.9653202929374292,[1.75619737],0.005,0.1,2.335681531921484,-0.49004874859497183,0
10.14969515800476,1.9612169198859593,[1.74931425],0.005,0.1,2.151456971039014,-0.4808945381911359,0
10.15967345237732,1.9569181481177527,[1.74236808],0.005,0.1,1.9811340378041704,-0.47676318321167777,0
10.168838500976562,1.953791768649966,[1.73536207],0.005,0.1,1.8238751775328081,-0.4800627367088781,0
10.177086591720581,1.950079193031969,[1.7283115],0.005,0.1,1.6788156300769423,-0.34725150082554707,0
10.189635276794434,1.9449988263968156,[1.72122939],0.005,0.1,1.545099787803255,-0.5339094600686038,0
10.19970417022705,1.9407000546286088,[1.71410243],0.005,0.1,1.421901431176657,-0.5290609173355382,0
10.208701372146606,1.9367920802938754,[1.70691954],0.005,0.1,1.3084345755133846,-0.5286032913985466,0
10.217689752578735,1.932884105959142,[1.69969623],0.005,0.1,1.2039587508301226,-0.38182305751501044,0
10.225708246231079,1.9295623277746186,[1.6924582],0.005,0.1,1.1077809398022547,-0.4275490940826432,0
10.233753442764282,1.9262405495900952,[1.68522717],0.005,0.1,1.0192555019890779,-0.3250132849651249,0
10.243702173233032,1.9221371765386253,[1.67802121],0.005,0.1,0.9377828955117367,-0.38914917268990307,0
10.251712322235107,1.9188153983541019,[1.67084256],0.005,0.1,0.8628077012090855,-0.44395433462522405,0
10.261584997177124,1.9147120253026317,[1.66367999],0.005,0.1,0.7938162681296386,-0.486821493466812,0
10.271369695663452,1.910999449684635,[1.65652351],0.005,0.1,0.7303341832316426,-0.5221758957771642,0
10.279698371887207,1.9076776715001116,[1.64936422],0.005,0.1,0.6719236943798069,-0.552188249030687,0
10.288394451141357,1.9041604945988515,[1.64220703],0.005,0.1,0.6181811680042628,-0.40917247162643045,0
10.298751831054688,1.899666324113908,[1.63506846],0.005,0.1,0.5687346315413104,-0.47076680840786994,0
10.311702966690063,1.8939997613285446,[1.62793661],0.005,0.1,0.2472030705009809,-0.7102389465313425,0
10.324442148208618,1.8891147934101278,[1.62076278],0.005,0.1,0.17222305097709292,-0.9194232365559128,0
10.33270788192749,1.8855976165088677,[1.61351874],0.005,0.1,0.18881215491930675,-0.6329072081704754,0
10.343941450119019,1.8805172498737142,[1.60620667],0.005,0.1,0.22946884100957599,-0.8633742012956925,0
10.3536958694458,1.8764138768222445,[1.59882898],0.005,0.1,-0.008641467576403453,-0.6029543302316193,0
10.36534333229065,1.8715289089038274,[1.59138819],0.005,0.1,-0.015131732527241794,-0.8505384017757922,0
10.37364935874939,1.868402529436041,[1.58388694],0.005,0.1,0.3304127473820907,-0.6021329275753083,0
10.38563847541809,1.8635175615176243,[1.57632787],0.005,0.1,0.44365565130639384,-0.8637253872907542,0
10.394675493240356,1.8598049858996273,[1.56871361],0.005,0.1,0.455257428202253,-0.6130448630142493,0
10.405738830566406,1.8553108154146838,[1.56104676],0.005,0.1,0.426463335446226,-0.8877830270570801,0
10.413688659667969,1.851793638513424,[1.55332982],0.005,0.1,0.38501509026061587,-0.6325154011595794,0
10.422688722610474,1.848081062895427,[1.54557838],0.005,0.1,0.34274719349487837,-0.6805025194839547,0
10.432691097259521,1.8437822911272206,[1.53780569],0.005,0.1,0.30413330298377805,-0.720921002521744,0
10.441596984863281,1.8402651142259603,[1.53000975],0.005,0.1,0.27038304204805136,-0.7564351047042822,0
10.450603485107422,1.8365525386079635,[1.52218878],0.005,0.1,0.2413668229088097,-0.7876247348257668,0
10.458707332611084,1.8332307604234404,[1.51435455],0.005,0.1,0.21649164498953982,-0.583851181393501,0
10.466729402542114,1.829908982238917,[1.50653027],0.005,0.1,0.19507826640799092,-0.6679758739754619,0
10.474928379058838,1.8263918053376569,[1.4987352],0.005,0.1,0.17650718994664658,-0.516115946583034,0
10.484150409698486,1.8222884322861865,[1.49098498],0.005,0.1,0.16026175301641715,-0.6234868935570614,0
10.492699384689331,1.8187712553849267,[1.48327842],0.005,0.1,0.1459286639957033,-0.7143722432784316,0
10.500646114349365,1.8158402746338766,[1.47561361],0.005,0.1,0.13318349394779738,-0.5533952540842003,0
10.510683298110962,1.8115415028656698,[1.46800155],0.005,0.1,0.12177301419090406,-0.6665072199542373,0
10.520676136016846,1.8076335285309364,[1.46043682],0.005,0.1,0.11149901969124237,-0.7619564540454313,0
10.529690742492676,1.8041163516296763,[1.45290009],0.005,0.1,0.10220504416311336,-0.8396220444009183,0
10.540228843688965,1.7998175798614697,[1.44537411],0.005,0.1,0.09376602956415844,-0.9010088035909296,0
10.548646450042725,1.7964958016769463,[1.43784362],0.005,0.1,0.08608053280334582,-0.9541347558358143,0
10.55663776397705,1.7927832260589496,[1.43030926],0.005,0.1,0.07906494677744585,-0.7132716319055534,0
10.565624713897705,1.7890706504409528,[1.42278519],0.005,0.1,0.0726492539916728,-0.8220629494964795,0
10.575875759124756,1.7847718786727458,[1.41526883],0.005,0.1,0.06677391741067404,-0.9110384613833415,0
10.585631370544434,1.7806685056212759,[1.4077434],0.005,0.1,0.061387602469084306,-0.9830548894859733,0
10.594825029373169,1.7769559300032791,[1.40019431],0.005,0.1,0.056445501104640645,-1.0423608156604183,0
10.604663133621216,1.7726571582350723,[1.39260902],0.005,0.1,0.051908089758066565,-1.0914248034033733,0
10.6142737865448,1.768749183900339,[1.38496241],0.005,0.1,0.04774019967596548,-1.513322361647486,0
10.622637748718262,1.7654274057158155,[1.37723352],0.005,0.1,0.04391031216054894,-1.0721660605259205,0
10.631625175476074,1.761714830097819,[1.36943411],0.005,0.1,0.040390016353490835,-1.1308535395118346,0
10.641363382339478,1.7576114570463488,[1.36157458],0.005,0.1,0.03715358508376984,-1.1827102263536702,0
10.649462699890137,1.754485077578562,[1.35364968],0.005,0.1,0.03417763711523321,-1.2303122640433735,0
10.65769338607788,1.750967900677302,[1.34567003],0.005,0.1,0.03144086323832377,-0.9157481270891717,0
10.666689395904541,1.747450723776042,[1.33765965],0.005,0.1,0.028923800096644546,-1.0425229927975213,0
10.676268100738525,1.7433473507245718,[1.32962426],0.005,0.1,0.3026469998862418,-1.1457868075317177,0
10.685319662094116,1.7394393763898388,[1.32155403],0.005,0.1,0.3336420327023386,-1.2291761264260914,0
10.694265365600586,1.735531402055105,[1.31344074],0.005,0.1,0.0005474754467154619,-1.295699272538302,0
10.702918529510498,1.732014225153845,[1.30527768],0.005,0.1,-0.11046417396008397,-1.3513806092490375,0
10.710798025131226,1.7288878456860584,[1.29707447],0.005,0.1,0.14849101611401713,-1.010930993272533,0
10.718678951263428,1.7257614662182716,[1.28886937],0.005,0.1,0.19955379051482103,-0.8033696823925826,0
10.730072975158691,1.720876498299855,[1.2806798],0.005,0.1,0.17157863444641597,-1.3797523749852187,0
10.739245176315308,1.717163922681858,[1.27247569],0.005,0.1,0.12140960080664225,-1.436822350830351,0
10.748675107955933,1.7134513470638615,[1.26423179],0.005,0.1,0.07216933977066185,-1.4795509279522194,0
10.759872913360596,1.708957176578918,[1.25594212],0.005,0.1,0.03171776103278458,-1.5110568843060055,0
10.76973032951355,1.7046584048107114,[1.24760236],0.005,0.1,0.0014013248226530765,-1.5372566327860933,0
10.777698040008545,1.701141227909451,[1.23922449],0.005,0.1,-0.01990828851143786,-1.1396815340702815,0
10.787662506103516,1.6972332535747179,[1.23083414],0.005,0.1,-0.034029978883849135,-1.2707536837612097,0
10.796639204025269,1.693520677956721,[1.22243867],0.005,0.1,-0.042745677145301905,-1.3739343784315363,0
10.80562424659729,1.6898081023387241,[1.21403006],0.005,0.1,-0.0475517151515131,-1.4491632012309745,0
10.815698623657227,1.6855093305705175,[1.20560236],0.005,0.1,-0.04961507475256155,-1.5006206063460994,0
10.824558019638062,1.681601356235784,[1.19715159],0.005,0.1,-0.04980787268593094,-1.5352490803958638,0
10.834892511367798,1.677497983184314,[1.18867562],0.005,0.1,-0.04876402368275966,-1.5576074103092645,0
10.846126556396484,1.6722222178324238,[1.18017401],0.005,0.1,0.22910322228624808,-1.5630619206075116,0
10.853707551956177,1.669291237081374,[1.17166188],0.005,0.1,0.2645252269980223,-1.1583971353388813,0
10.864320993423462,1.6651878640299036,[1.16315371],0.005,0.1,-0.06406297927283597,-1.689525411182798,0
10.872654438018799,1.6616706871286435,[1.15464905],0.005,0.1,-0.17062359885877154,-1.2290501907146862,0
10.882648229598999,1.657958111510647,[1.14616252],0.005,0.1,0.09264102505414412,-1.3016271032116344,0
10.893937826156616,1.6530731435922303,[1.13769533],0.005,0.1,0.14781904685090969,-1.75628338413922,0
10.903040647506714,1.649165169257497,[1.12922422],0.005,0.1,-0.15230282961589134,-1.6406916645084122,0
10.910649061203003,1.6460387897897102,[1.1207576],0.005,0.1,-0.231942123160928,-1.1779913186023492,0
10.920647621154785,1.6421308154549765,[1.11233009],0.005,0.1,0.05336710592500468,-1.212361667809978,0
10.92862868309021,1.6388090372704534,[1.10397195],0.005,0.1,0.12530224082208574,-0.9190526241012881,0
10.936676979064941,1.6352918603691935,[1.09570932],0.005,0.1,0.1133596148699895,-1.0060964000728294,0
10.945662260055542,1.6313838860344596,[1.08755335],0.005,0.1,0.0753171334769832,-1.0579265473870227,0
10.954868078231812,1.627671310416463,[1.0795027],0.005,0.1,0.03519476449485459,-1.0809753065383314,0
10.963849067687988,1.6239587347984663,[1.07155756],0.005,0.1,0.0016035846417981857,-1.081801114633855,0
10.971623420715332,1.6204415578972062,[1.06372966],0.005,0.1,-0.023521471155387844,-0.8183824123519226,0
10.981637477874756,1.616338184845736,[1.05603989],0.005,0.1,-0.04086441675120703,-0.8719384427602818,0
10.98963475227356,1.6132118053779496,[1.04849587],0.005,0.1,-0.05191599019797592,-0.9018936829135777,0
10.999678134918213,1.6093038310432162,[1.04109419],0.005,0.1,-0.05821895097549214,-0.9085715506897203,0
11.008646965026855,1.6053958567084827,[1.03383271],0.005,0.1,-0.06109666851409166,-0.8998998926771549,0
11.019442558288574,1.601097084940276,[1.02671032],0.005,0.1,-0.06159153137526033,-0.8806244422208885,0
11.028262615203857,1.5975799080390158,[1.0197267],0.005,0.1,-0.0604859927102044,-0.8569009220443727,0
11.036046504974365,1.5942581298544924,[1.01289032],0.005,0.1,-0.05834934518746238,-0.6572818828524765,0
11.044947385787964,1.5905455542364957,[1.00621661],0.005,0.1,-0.05558645149966687,-0.6846416113628312,0
11.052699327468872,1.5870283773352356,[0.99971763],0.005,0.1,0.22355854074931375,-0.5520549952282297,0
11.062626600265503,1.5827296055670288,[0.99340236],0.005,0.1,0.25993995804000825,-0.5967523991740197,0
11.07164978981018,1.5790170299490323,[0.98726934],0.005,0.1,0.20811975541238587,-0.6263174767527983,0
11.080038785934448,1.5756952517645089,[0.98130825],0.005,0.1,-0.14079132707332473,-0.6433941707240943,0
11.089826583862305,1.5717872774297754,[0.97550931],0.005,0.1,0.03469364808123809,-0.6515308178144389,0
11.099678754806519,1.5674885056615686,[0.96986309],0.005,0.1,0.06923732506092069,-0.6536632444418927,0
11.108421087265015,1.5639713287603085,[0.9643604],0.005,0.1,0.051003757501414546,-0.6546554514595228,0
11.116629600524902,1.5604541518590485,[0.95899934],0.005,0.1,0.018628249946582062,-0.527506013048856,0
11.125640630722046,1.556741576241052,[0.95377689],0.005,0.1,-0.01237315485070637,-0.6939706220354931,0
11.13574743270874,1.553029000623055,[0.94868171],0.005,0.1,-0.036893353790305686,-0.5518245937227302,0
11.14797854423523,1.5481440327046383,[0.9437027],0.005,0.1,-0.05422504639980812,-0.7116654597904815,0
11.158339977264404,1.5434544635029583,[0.93882187],0.005,0.1,-0.34133667749708924,-0.6928813949271906,0
11.169120788574219,1.5391556917347513,[0.93402258],0.005,0.1,-0.3806318390702037,-0.6807839990717044,0
11.177599906921387,1.5354431161167548,[0.92930389],0.005,0.1,-0.3280964346889188,-0.5448971954754672,0
11.186607599258423,1.5315351417820213,[0.92467087],0.005,0.1,-0.2520361576864312,-0.5788375347215438,0
11.19563627243042,1.5280179648807612,[0.92011899],0.005,0.1,-0.1798278904381151,-0.608957646458927,0
11.206140756607056,1.5237191931125544,[0.91563546],0.005,0.1,-0.12042160642268815,-0.6334373659752385,0
11.214643239974976,1.5202020162112944,[0.91121545],0.005,0.1,-0.07497969569402045,-0.5237354008953572,0
11.226159572601318,1.515121649576141,[0.90685314],0.005,0.1,-0.04176851985379786,-0.7203279950699562,0
11.234602928161621,1.5116044726748812,[0.90253451],0.005,0.1,-0.018304541819081328,-0.5805209440508912,0
11.243611097335815,1.5078918970568842,[0.89825415],0.005,0.1,-0.002217662802548148,-0.6283571674899476,0
11.253683090209961,1.503788524005414,[0.89399771],0.005,0.1,0.008463895270712495,-0.844645930727371,0
11.26304316520691,1.5004667458208907,[0.88973545],0.005,0.1,0.015273877222978058,-0.8383981694071398,0
11.271657705307007,1.4965587714861572,[0.88545745],0.005,0.1,0.019360028566803564,-0.6604818026008422,0
11.281528234481812,1.492650797151424,[0.88117102],0.005,0.1,-0.25447794232217014,-0.712246113042251,0
11.291628122329712,1.4883520253832172,[0.87687299],0.005,0.1,-0.28668617111468775,-0.7585693098709324,0
11.301466226577759,1.4846394497652204,[0.87254224],0.005,0.1,-0.23152982542809186,-1.0167161412704502,0
11.309619903564453,1.4809268741472237,[0.86816012],0.005,0.1,-0.1559434345346109,-0.780775851963921,0
11.31998872756958,1.4764327036622804,[0.86372821],0.005,0.1,-0.36230702181859203,-0.8269899535860117,0
11.331163883209229,1.4715477357438635,[0.85924738],0.005,0.1,-0.33986337655123655,-0.8683723653575779,0
11.338624477386475,1.4684213562760768,[0.85471838],0.005,0.1,-0.24392973448449018,-0.6998080701784769,0
11.348624467849731,1.4645133819413436,[0.85015102],0.005,0.1,0.13640581105150174,-0.7839028037176359,0
11.356607437133789,1.4613870024735567,[0.84555358],0.005,0.1,0.2583797864414446,-0.653225356975692,0
11.36562728881836,1.45767442685556,[0.84093311],0.005,0.1,-0.005152636195829924,-0.7540000805868354,0
11.375077247619629,1.4539618512375632,[0.83628589],0.005,0.1,-0.06664676738363982,-0.8365008725161731,0
11.385133743286133,1.4494676807526197,[0.8315992],0.005,0.1,0.22543743708827507,-0.8984793842023954,0
11.394037961959839,1.4459505038513598,[0.82686259],0.005,0.1,0.2971342578691485,-0.9461297976397233,0
11.403592109680176,1.4418471307998897,[0.82206793],0.005,0.1,0.2806783340586909,-0.9779607905316627,0
11.413604259490967,1.4377437577484196,[0.8172094],0.005,0.1,0.23559571200521062,-0.9979840097965622,0
11.422358512878418,1.4344219795638962,[0.81228343],0.005,0.1,0.18703384276350915,-1.009696868934112,0
11.431197166442871,1.4307094039458996,[0.80728864],0.005,0.1,0.14433400496993826,-1.0123802540174318,0
11.438603401184082,1.4277784231948494,[0.80222569],0.005,0.1,0.10990270242381134,-1.0100304550111083,0
11.446583986282349,1.4240658475768528,[0.79710612],0.005,0.1,-0.19268137639663344,-0.7861779963377719,0
11.455658435821533,1.4205486706755925,[0.79195046],0.005,0.1,-0.2457691380060512,-0.8360486513721407,0
11.464756727218628,1.4166406963408593,[0.78676848],0.005,0.1,-0.2054831811117097,-0.867315021848507,0
11.474582195281982,1.4129281207228626,[0.78156946],0.005,0.1,0.1357189391829677,-0.6971842441160581,0
11.483607769012451,1.4088247476713924,[0.77637124],0.005,0.1,0.23132067428769915,-0.7548562638319003,0
11.493347883224487,1.4051121720533957,[0.77117288],0.005,0.1,-0.0491394520787565,-0.9908312586723184,0
11.50168251991272,1.4017903938688723,[0.7659579],0.005,0.1,-0.12077604072571295,-0.9529047520270565,0
11.509636640548706,1.3986640144010856,[0.76073038],0.005,0.1,0.16592717378335944,-0.7402953795473097,0
11.520302772521973,1.3943652426328788,[0.75551137],0.005,0.1,0.23551270838785593,-0.7656025816365393,0
11.5286386013031,1.3908480657316187,[0.75031133],0.005,0.1,0.21913894598755038,-0.7824429947891448,0
11.53824758529663,1.386549293963412,[0.74513169],0.005,0.1,0.17556763745587606,-0.7886405470340987,0
11.54557180404663,1.3838137119290987,[0.73998193],0.005,0.1,0.12941045604147522,-0.6402586219527737,0
