t_s,q_rad,q_des_rad,jerk
0.005756378173828125,-0.04709109073353753,0.007537681265153751,0.0
0.01474905014038086,-0.04709109073353753,0.036427284522121024,0.0
0.0231015682220459,-0.046895692016800855,0.0905364764357643,0.0
0.03528285026550293,-0.046504894583327516,0.165271545511394,0.276038359678681
0.04375123977661133,-0.04572329971638084,0.2564806446216105,0.8612396821974845
0.05280327796936035,-0.044160109982487476,0.3604393719404,1.424468351285865
0.06367635726928711,-0.04161992666491077,0.47383304022521366,3.5127449166995124
0.0717475414276123,-0.038884344630597374,0.5937363753066318,5.0
0.08112287521362305,-0.03536716772933732,0.7175913035932371,5.0
0.09069085121154785,-0.031849990828077254,0.8431834113106718,5.0
0.10043859481811523,-0.027942016493343845,0.9686175854554094,5.0
0.10886573791503906,-0.02442483959208378,1.092293278326344,5.0
0.11777520179748535,-0.020712263974087045,1.212879774170033,5.0
0.12623023986816406,-0.017195087072826982,1.3292917780193148,5.0
0.13429808616638184,-0.013677910171566917,1.4406655932254158,5.0
0.14566349983215332,-0.009183739686623501,1.54633610542199,5.0
0.15483570098876953,-0.005275765351890096,1.6458147466037452,4.490107518132234
0.1649000644683838,-0.0013677910171566918,1.738768573496804,2.6992319286779134
0.17410659790039062,0.002344784600840043,1.8250005592520944,0.2516786380755027
0.18213391304016113,0.005471164068626767,1.904431166489251,-2.221348250417671
0.19019174575805664,0.008988340969886831,1.977081242619021,-3.9300079899343174
0.197906494140625,0.011919321720936885,2.043056254925405,-5.0
0.20585060119628906,0.015241099905460279,2.1025318628346676,-5.0
0.21592020988464355,0.019149074240193686,2.1557408109615825,-5.0
0.22453808784484863,0.022666251141453746,2.202961106541306,-5.0
0.23383426666259766,0.026378826759450486,2.2445054315175885,-5.0
0.2431507110595703,0.030091402377447216,2.280711759809022,-5.0
0.25384020805358887,0.034390174145653964,2.311935111415635,-5.0
0.26380419731140137,0.0381027497636507,2.338540339191407,-5.0
0.27367615699768066,0.042401521531857445,2.3608958993162323,-5.0
0.2848389148712158,0.0472864894502742,2.3793685358729553,-5.0
0.2952280044555664,0.0511944637850076,2.394318878328473,-4.933158408085534
0.3028109073638916,0.054320843252794335,2.406097634852863,-4.723019023088081
0.3119337558746338,0.0578380201540544,2.4150424090845126,-4.449988003590438
0.32118678092956543,0.061550595772051124,2.421475526240006,-4.1551819154452385
0.32878923416137695,0.06467697523983784,2.425702184218237,-3.859515228957669
0.338634729385376,0.06858494957457126,2.42800905482575,-3.5734339174891008
0.3468048572540283,0.07210212647583132,2.4286635208132052,-3.301913338945684
0.3548297882080078,0.07522850594361805,2.4279129863706173,-3.0470472662601695
0.36385512351989746,0.07874568284487811,2.4259849520591077,-2.8094039310759777
0.3738222122192383,0.08245825846287484,2.423087528279909,-2.5887457038793507
0.384246826171875,0.08695242894781824,2.4194095909850986,-2.3844167961754694
0.3947930335998535,0.09086040328255167,2.415121136271712,-2.195555420257923
0.4048316478729248,0.09515917505075841,2.4103739977799865,-2.021211585956794
0.41481828689575195,0.09906714938549181,2.40530271180606,-1.860413189541919
0.4251525402069092,0.10336592115369855,2.400025470640993,-1.7122031611706685
0.4348006248474121,0.10688309805495863,2.3946451041937427,-1.5756600547660198
0.4437992572784424,0.11059567367295536,2.3892501284102745,-1.4499089667943177
0.4528529644012451,0.11450364800768877,2.3839158404575924,-1.334126707871052
0.4633805751800537,0.11880241977589551,2.378705382900407,-0.951505160923761
0.47751688957214355,0.12427358384452228,2.3736712604979657,-0.8202797549002304
0.4910464286804199,0.1299401466298857,2.3688568533399645,-0.7850933763398497
0.4988126754760742,0.13287112738093576,2.3642957831197617,-0.77809585603305
0.5103507041931152,0.13775609529935254,2.3600124912112226,-0.7721675266697421
0.518101692199707,0.1404916773336659,2.3560243050202763,-0.7584438490492005
0.5288269519805908,0.14479044910187266,2.3523416722578325,-0.735716241849138
0.5391407012939453,0.14869842343660605,2.348969757728314,-0.705579019790313
0.5468084812164307,0.15202020162112945,2.3459090760420374,-0.6703150257007385
0.5564782619476318,0.15592817595586284,2.343156367193922,-0.6320565895857766
0.5659275054931641,0.16003154900733293,2.340706679229861,-0.5925183669254965
0.5738792419433594,0.16335332719185633,2.338551336976339,-0.552970094899949
0.5834598541259766,0.16706590280985303,2.336677880139525,-0.5142971175248656
0.5919671058654785,0.1705830797111131,2.3350732520317465,-0.4770822853181296
0.6016242504119873,0.17449105404584653,2.333724131806414,-0.16564444687244334
0.6102962493896484,0.1780082309471066,2.3326163733365246,-0.09913061603873358
0.6205770969390869,0.18211160399857668,2.3317351992615967,-0.12293037612196628
0.6287887096405029,0.18562878089983675,2.3310643092469263,-0.16981399355121368
0.6378123760223389,0.1891459578010968,2.33058657562497,-0.2131849578116259
0.6481409072875977,0.19324933085256688,2.330288059111182,-0.24462614504855557
0.6576528549194336,0.19657110903709027,2.3301563205069136,-0.263316604768311
0.6689655780792236,0.20145607695550702,2.330176572973734,-0.2711903436234999
0.6784892082214355,0.20536405129024043,2.3303347878893623,-0.2708308038543972
0.6877775192260742,0.2088812281915005,2.330618963316791,-0.2646384912780727
0.6998093128204346,0.21376619610991726,2.3310175706197875,-0.2545689033520575
0.7088098526000977,0.21767417044465065,2.3315195774755497,-0.2421092276291267
0.7192234992980957,0.2219729422128574,2.332114444690807,-0.22834197129144324
0.7289261817932129,0.22588091654759082,2.332792139513315,0.06200901063431141
0.7368688583374023,0.22900729601537753,2.3335416415986687,-0.16656756185154997
0.746807336807251,0.23271987163337426,2.3343512142752805,-0.24077208766472283
0.7575528621673584,0.23740944083505436,2.335211670790226,-0.24828068949280713
0.7674994468688965,0.24131741516978775,2.3361160904608615,-0.22990720117638658
0.7758543491363525,0.24463919335431117,2.337056547964726,0.07210660347917441
0.7875020503997803,0.24971955998946457,2.3380258914275034,-0.14487203148765113
0.7975277900695801,0.253627534324198,2.339020745574754,-0.2099634673127398
0.807776927947998,0.25773090737566806,2.3400379426324256,0.06477806907910347
0.818030834197998,0.26183428042713813,2.3410730063526515,0.11992923410260967
0.8275821208953857,0.2657422547618715,2.3421219106991615,-0.18358393229680253
0.8378262519836426,0.27043182396355164,2.3431810470671195,-0.26667814493229813
0.846764087677002,0.27394900086481166,2.3442472019651523,-0.2598094163158675
0.8581557273864746,0.2784431713497551,2.3453175307073715,-0.2221599660575948
0.868772029876709,0.2827419431179618,2.346389509540635,-0.1790865993870862
0.8794715404510498,0.2870407148861686,2.3474609157122663,-0.14030163210655594
0.889761209487915,0.29114408793763863,2.348529810575844,-0.10858305362765074
0.9001474380493164,0.2952474609891087,2.3495959547214587,-0.08386338561034234
0.9108834266662598,0.29954623275731546,2.350660537982194,-0.06508774305764259
0.9205610752105713,0.3036496058087855,2.3517230092673698,-0.051012395872801417
0.9319837093353271,0.30853457372720233,2.352781348560433,-0.04051271101106027
0.9432294368743896,0.3130287442121457,2.3538337884382816,-0.032673177009008715
0.9518342018127441,0.3163505223966691,2.3548787902568002,-0.026787644920028934
0.9608056545257568,0.32006309801466587,2.3559136667099474,-0.022328100804907408
0.9697446823120117,0.3237756736326626,2.356934815563439,-0.01890710098966904
0.980400562286377,0.3280744454008694,2.3579406440173183,-0.016243617191879084
0.9900758266448975,0.33237321716907614,2.358931245972207,-0.014135192067058336
0.9977684020996094,0.33549959663686285,2.359905458810674,-0.28847483398258134
1.0067691802978516,0.3390167735381229,2.3608611063818543,-0.32020616383461487
1.0176687240600586,0.3435109440230663,2.361797791934398,-0.2639461905642998
1.0287680625915527,0.3476143170745364,2.3627165745476852,-0.18687505832322335
1.0377705097198486,0.35113149397579646,2.3636183802200312,-0.3915421069980408
1.0467751026153564,0.35503946831052985,2.3645039864781694,-0.36730524571698114
1.0561387538909912,0.35894744264526324,2.3653740313614073,-0.2695586661249333
1.0637505054473877,0.36187842339631326,2.3662279186616817,-0.16347910336573357
1.0738987922668457,0.3659817964477834,2.367064078702388,-0.07290968771054362
1.0847642421722412,0.3702805682159901,2.36788243142417,-0.0036678121448610324
1.094090461730957,0.3741885425507235,2.3686852099235565,0.04559465290026215
1.1049563884735107,0.37887811175240366,2.369475438656132,0.07851674356443866
1.1137785911560059,0.3825906873704003,2.370254609334383,0.0989798355289802
1.1217646598815918,0.38591246555492376,2.371021852707889,0.11035538441259868
1.1318070888519287,0.38982043988965714,2.3717754060594203,0.11531912552329118
1.1420958042144775,0.3943146103746005,2.3725148803563862,0.39192968389247695
1.1517179012298584,0.3980271859925973,2.3732410470788694,0.42271299544334273
1.1617612838745117,0.4019351603273307,2.3739545534243565,0.3634185483787815
1.1724669933319092,0.40623393209553743,2.3746559207529776,0.2820239854017674
1.1817708015441895,0.40994650771353414,2.3753446538499885,0.2055938642417782
1.1911852359771729,0.4138544820482676,2.3760203308254355,0.14281688999631437
1.2000861167907715,0.417762456383001,2.376684475112975,0.09465005148407667
1.2087593078613281,0.42108423456752436,2.37733752678784,0.05920357537745405
1.2186861038208008,0.4253830063357311,2.377978103768647,0.033877443521081706
1.2287507057189941,0.4294863793872012,2.378606018150483,0.01621549824379438
1.2380988597869873,0.4333943537219346,2.37922209045178,0.004182604668711469
1.2467224597930908,0.43671613190645797,2.379826256046587,-0.0038016757349371025
1.2548167705535889,0.43984251137424474,2.380416863308529,-0.008919669311991264
1.2660911083221436,0.44492287800939817,2.3809935212411015,-0.012035263719387942
1.2748081684112549,0.4484400549106582,2.3815577747588454,-0.013769699492220112
1.2837176322937012,0.45176183309518164,2.382110203039199,-0.01456462299391115
1.2923293113708496,0.455083611279705,2.382651408898432,-0.014731212603046526
1.3027067184448242,0.45899158561443837,2.3831828898930763,-0.29052541180047314
1.311743974685669,0.4628995599491718,2.3837060368605365,-0.047107779138876565
1.323744773864746,0.4679799265843252,2.384222987136378,0.041773646846572254
1.3337717056274414,0.4724740970692687,2.384736487818144,0.06350565958297727
1.3438522815704346,0.476382071404002,2.3852480472687128,0.058724410918244194
1.3536691665649414,0.4804854444554721,2.385758095970714,0.045609636397611696
1.361727237701416,0.48380722263999554,2.3862661643127767,0.031755958073528406
1.3703031539916992,0.48712900082451893,2.3867710337838353,0.01991548010944079
1.3817243576049805,0.49181857002619894,2.3872733708694174,0.010733957713145097
1.3932569026947021,0.4967035379446158,2.387775418966293,0.00402430077240022
1.4012963771820068,0.5000253161291391,2.3882782125920308,0.2753754873965485
1.4095351696014404,0.5033470943136626,2.388781744402327,0.3053626746624959
1.4218721389770508,0.5080366635153426,2.389286769994507,0.2482687364586293
1.4304420948028564,0.5115538404166027,2.3897946502421026,0.17100329927469363
1.4424302577972412,0.5164388083350194,2.3903063082619234,0.0998710328928672
1.451707363128662,0.5201513839530162,2.3908221954568023,0.04303032572720254
1.4617745876312256,0.5242547570044862,2.391341607956264,0.0010748710817620015
1.4696812629699707,0.5275765351890096,2.3918628856386173,-0.028128894322360688
1.478898048400879,0.5312891108070064,2.392383724857176,-0.04734035363224398
1.4866657257080078,0.5348062877082664,2.3929013709293874,-0.05911602886725737
1.494699239730835,0.5379326671760531,2.3934140607930416,-0.0655506109891464
1.5048635005950928,0.5418406415107866,2.393921505866017,-0.06825618319360069
1.5146772861480713,0.54574861584552,2.3944240566547705,-0.3444662409661179
1.5241954326629639,0.5496565901802534,2.394921435948156,-0.3760928775444633
1.533616065979004,0.5535645645149868,2.3954128717296155,-0.04240311733919641
1.543060302734375,0.5572771401329836,2.3958978074451323,0.06998794592079015
1.5513474941253662,0.560598918317507,2.3963758751832844,0.08892667139387628
1.5596873760223389,0.5641160952187669,2.396846241254877,0.0731082662030608
1.5681700706481934,0.5676332721200271,2.397307688115678,0.04822626273016733
1.5766737461090088,0.5711504490212871,2.3977593179130774,0.024574646117649056
1.5874297618865967,0.5756446195062305,2.398201127080681,0.005518125477078379
1.5956881046295166,0.5789663976907539,2.398633862170196,-0.008504252844498406
1.607255220413208,0.5840467643259073,2.399058279770396,-0.018139334424195568
1.6186866760253906,0.5887363335275874,2.3994757513267184,0.25172499073900506
1.6287004947662354,0.5926443078623208,2.3998875180840344,0.2812548435247695
1.6378073692321777,0.5965522821970541,2.4002940642633703,0.22441126605345368
1.64908766746521,0.6006556552485243,2.4006958530749465,0.14786278856624652
1.65773606300354,0.6041728321497843,2.401092724777795,0.07773919053376345
1.6667003631591797,0.6076900090510444,2.401483981778048,0.022075017025404965
1.6760213375091553,0.6112071859523045,2.4018696937223867,-0.018621929023872306
1.683696985244751,0.6143335654200912,2.4022499813022686,-0.046543544933709616
1.6944050788879395,0.6190231346217714,2.402624995229301,-0.06448787497658354
1.7044670581817627,0.6231265076732413,2.402996115736306,-0.07503624176241364
1.716658353805542,0.6282068743083947,2.4033645334228018,-0.08029848378904886
1.7257616519927979,0.6317240512096549,2.4037306515650947,-0.08189518585266739
1.7341642379760742,0.6352412281109149,2.4040947992854633,-0.08102546842584174
1.7433395385742188,0.6387584050121751,2.4044572364181622,-0.0785545046131298
1.7516448497772217,0.6426663793469085,2.4048176033511792,-0.07509476853317025
1.7614009380340576,0.6463789549649053,2.4051750189827357,-0.07107286041594123
1.770052194595337,0.6500915305829019,2.4055293015026726,-0.06678122112008356
1.7787604331970215,0.6534133087674253,2.4058803107266664,-0.062416765197436164
1.7883756160736084,0.6571258843854221,2.406227932677095,-0.05810910776384292
1.796783208847046,0.6604476625699455,2.406572639906592,-0.05394088506295172
1.8079144954681396,0.6649418330548889,2.406914828089896,-0.0499622320384811
1.8166697025299072,0.6688498073896222,2.4072548150431494,-0.04620101773999553
1.8285117149353027,0.6735393765913023,2.4075928401310303,-0.04267003721504621
1.8379850387573242,0.6776427496427724,2.4079296021931507,-0.03937203781838865
1.8457159996032715,0.6805737303938224,2.4082651387203295,-0.03630321377650205
1.854768991470337,0.6842863060118193,2.4085984047103994,-0.30949398188026517
1.864701747894287,0.6883896790632892,2.4089290354141157,-0.3399818052539529
1.8752837181091309,0.692688450831496,2.4092577355987057,-0.006408452641811779
1.8855032920837402,0.6967918238829661,2.4095855617446706,0.10505220339453132
1.899355411529541,0.7022629879515929,2.4099133351911313,0.12255442004571462
1.9073050022125244,0.7057801648528529,2.4102412029609965,0.10500594501066972
1.914724349975586,0.7087111456039029,2.410567797153696,0.0782452861692131
1.9258012771606445,0.7130099173721096,2.410891470210933,0.052663885887891525
1.9341084957122803,0.7165270942733698,2.4112117948399088,0.03169070628578642
1.9421260356903076,0.7198488724578932,2.4115288762136307,0.015805989391276313
1.9537148475646973,0.7245384416595733,2.411842807450623,0.004388181825916675
1.9630491733551025,0.7284464159943067,2.412153671813579,-0.0034745556799458304
1.9707281589508057,0.73176819417883,2.4124615300256087,-0.008656945832367062
1.9823353290557861,0.7364577633805102,2.412766413696977,-0.28792608633676153
1.9902803897857666,0.7395841428482968,2.4130678977814397,-0.3228965510438322
1.997633457183838,0.7427105223160836,2.413365208227346,-0.5447220549160683
2.008016347885132,0.7464230979340803,2.4136585915692264,-0.5019930113261167
2.0170600414276123,0.7503310722688137,2.4139487094476304,-0.37617200559939507
2.0269551277160645,0.7540436478868106,2.414235268764398,-0.24298731508562754
2.0357422828674316,0.7579516222215439,2.414518027610041,-0.12982076148697952
2.043891668319702,0.7610780016893307,2.414796798217761,-0.04304384402087299
2.0516679286956787,0.7642043811571174,2.4150710310308114,0.019264522420232282
2.060145378112793,0.7675261593416408,2.4153403185592017,0.061624251538394396
2.068526268005371,0.7706525388094273,2.4156043563376923,-0.18726567979094277
2.07928466796875,0.7753421080111076,2.4158633108619205,-0.20436336699567603
2.090938091278076,0.7802270759295242,2.4161181377573113,0.1349153290591839
2.100071668624878,0.7841350502642577,2.416370053800849,0.2468269246459158
2.109279155731201,0.788043024598991,2.4166193318998928,0.26130118762458404
2.1166632175445557,0.7909740053500411,2.4168650564038368,0.23851490528610364
2.1256630420684814,0.7948819796847746,2.41710647046237,0.20519794213634274
2.133646011352539,0.7980083591525613,2.417343719562789,0.17235794745814143
2.145686388015747,0.802893327070978,2.417577688745357,0.14384284024717606
2.15366268157959,0.8060197065387646,2.4178091395882837,0.1204121030877747
2.1637122631073,0.8101230795902348,2.4180379897238384,0.10162542790823983
2.1761419773101807,0.8152034462253882,2.418264175391606,0.08668410383538816
2.184192180633545,0.8185252244099116,2.4184880076666424,0.07477962514671557
2.193202257156372,0.8220424013111718,2.4187097407156677,0.06521750612080926
2.200610637664795,0.8251687807789585,2.418929582693548,0.05744381944779948
2.2096269130706787,0.828881356396955,2.4191473596338993,0.051033682626937305
2.21903920173645,0.8325939320149518,2.419362585950598,0.04566813066289053
2.226649522781372,0.8357203114827386,2.4195752098960797,0.041110372327982536
2.2346408367156982,0.8388466909505254,2.419785212156718,0.03718537315735064
2.2451887130737305,0.8433408614354688,2.419992570210978,0.0337636478021408
2.252723455429077,0.8466626396199921,2.420197591909909,0.030748940659367723
2.262953042984009,0.8509614113881988,2.4204001578445684,0.02806910045017711
2.2706542015075684,0.853892392139249,2.4205997726274284,0.025669427827990768
2.280010223388672,0.8572141703237723,2.420796033946718,0.023507873833112654
2.2883810997009277,0.8607313472250324,2.420988946939334,0.02155159480924062
2.2976903915405273,0.8646393215597659,2.4211788720427294,0.019774488202764076
2.306823968887329,0.8683518971777625,2.4213661689805224,0.01815543151163948
2.3166074752807617,0.8722598715124958,2.4215511837191035,0.01667702248632562
2.3247087001800537,0.8755816496970192,2.421733951922895,0.015324675454426508
2.337104320526123,0.8804666176154361,2.421914498879593,0.014085970214951369
2.3460705280303955,0.8839837945166963,2.422093429147157,0.28898853966428734
2.354398727416992,0.8875009714179563,2.4222710031162147,0.32107088921338545
2.3625926971435547,0.890627350885743,2.422446575223486,0.2650166308697743
2.3736205101013184,0.8953169200874231,2.4226195907378427,0.18805249429947296
2.386969566345215,0.900592685439313,2.422790722469781,0.11672193295697102
2.3947346210479736,0.9039144636238364,2.4229610934717245,0.059357526297472145
2.403395652770996,0.9074316405250966,2.423130806224016,0.016677168395528727
2.413644552230835,0.9115350135765666,2.423299654780197,-0.013365783825755623
2.421668767929077,0.9150521904778267,2.4234674522413058,-0.03347094108998454
2.4316370487213135,0.91896016481256,2.423633753809823,-0.04615449720475839
2.4396090507507324,0.9222819429970835,2.4237984436317466,-0.05348456812111029
2.4516544342041016,0.9269715121987636,2.4239619550013405,-0.057056288512020076
2.4596073627471924,0.9300978916665504,2.424124647205925,-0.058054517697363694
2.4729483127593994,0.9355690557351771,2.4242865374119638,-0.05733776495684813
2.4806783199310303,0.9386954352029638,2.4244476319941866,-0.05551691787751156
2.4901137351989746,0.9424080108209606,2.4246076926151785,-0.053020310351588495
2.500671148300171,0.9465113838724306,2.424766493285349,-0.050144219667570905
2.5117907524108887,0.9510055543573741,2.424924300113142,-0.04709066200058605
2.520681858062744,0.9549135286921074,2.4250813262980135,-0.04399504797775917
2.5300025939941406,0.9586261043101042,2.425237497398863,-0.04094611789702843
2.5382206439971924,0.9621432812113643,2.425392736061307,-0.03800016334621714
2.5456113815307617,0.9648788632456776,2.4255465179429905,-0.0351910963205162
2.5549395084381104,0.9687868375804112,2.425698398432218,-0.032537536656887765
2.5626089572906494,0.9717178183314611,2.4258484639815765,-0.030047776260100086
2.5716118812561035,0.9756257926661944,2.4259963579628954,-0.027723240387573518
2.580573081970215,0.9791429695674545,2.42614158377728,-0.02556088974292491
2.5891478061676025,0.9830509439021881,2.426284186126259,-0.02355487868722112
2.598360300064087,0.9867635195201847,2.426424431376924,-0.02169769253545136
2.6071102619171143,0.9900852977047081,2.426562563734057,0.2560574386174873
2.6165995597839355,0.9937978733227049,2.4266986039681626,0.290767184199631
2.6246016025543213,0.9967288540737549,2.426832358153786,0.23713225775698923
2.635620594024658,1.001418423275435,2.426963878771736,0.16239539585338125
2.645236015319824,1.0053263976101683,2.4270934483874407,0.09311496974278041
2.652613639831543,1.0084527770779552,2.4272211181137004,0.03763741728160546
2.6623661518096924,1.0123607514126884,2.4273467364971846,-0.0033065239041772526
2.670786142349243,1.0158779283139485,2.4274703950717305,-0.3077899748258145
2.6797168254852295,1.0195905039319453,2.4275921873649597,-0.35954945283067297
2.6911394596099854,1.023889275700152,2.4277121903917878,-0.039744557622764354
2.7005817890167236,1.0276018513181489,2.4278308738969994,0.06337971068286606
2.7108592987060547,1.0319006230863554,2.427948831348893,-0.19965971005891778
2.7206766605377197,1.0360039961378256,2.4280663578168022,-0.25219207253366654
2.728788137435913,1.0391303756056123,2.4281833068935983,0.05210465117293256
2.7404167652130127,1.0440153435240291,2.4282995506683793,0.13682034763287027
2.751635789871216,1.0485095140089724,2.428415178513511,-0.14294523285829933
2.7626144886016846,1.0528082857771792,2.428530254681757,-0.20916462176144052
2.7706220149993896,1.0561300639617026,2.4286448190348193,-0.19153047762045255
2.778623104095459,1.0592564434294893,2.4287587204203915,-0.1479476174946772
2.788670301437378,1.0631644177642228,2.428871824162711,-0.1025146428357182
2.796638011932373,1.0666815946654828,2.4289841896289803,-0.06388802076821436
2.8056468963623047,1.0705895690002163,2.429095694361011,-0.03402544617874623
2.8146274089813232,1.0744975433349495,2.4292062366871834,-0.012250478695102889
2.8226418495178223,1.0774285240859998,2.4293159006139047,0.0029300412228872265
2.8309154510498047,1.0809457009872598,2.429424584789947,0.013067689745704167
2.842552900314331,1.085439871472203,2.4295321976687694,0.019498568182921724
2.851139545440674,1.0889570483734634,2.429638990746777,0.023280016931396523
2.859771728515625,1.0924742252747233,2.429745014360781,0.025210513854655864
2.8686368465423584,1.0957960034592467,2.4298499836193854,0.025875683708543998
2.87974214553833,1.1004855726609268,2.429953814882611,0.025696527769260083
2.8906145095825195,1.1047843444291336,2.4300565950091833,0.02497118021988752
2.9007794857025146,1.1094739136308136,2.4301583963969247,0.02390812084384518
2.912370443344116,1.113968084115757,2.4302594342498534,0.022651402090903768
2.9206886291503906,1.1174852610170172,2.4303598958125465,0.021299284756582194
2.929615020751953,1.1210024379182773,2.430459628770152,0.019917759955411743
2.9394500255584717,1.1249104122530105,2.4305584867319587,0.0185502425427633
2.948035955429077,1.1286229878710075,2.430656494679819,0.017224460907095687
2.955657958984375,1.1317493673387942,2.4307535326387995,0.015957323171510933
2.9676830768585205,1.1370251326906842,2.4308494947311363,-0.2612800226152773
2.976893901824951,1.1405423095919442,2.430944579469723,-0.29553095974493016
2.984602212905884,1.1434732903429943,2.431038824789529,-0.2414862237154755
2.995708465576172,1.1479674608279375,2.431132123076399,-0.16638094608972231
3.0050547122955322,1.1514846377291978,2.4312245075558843,-0.3728059651445071
3.013436794281006,1.1551972133471944,2.431315867594991,-0.35015095484955583
3.022993326187134,1.158909788965191,2.4314061236805964,-0.25383481560186194
3.0351381301879883,1.163794756883608,2.431495468415293,-0.14905384150126427
3.043290615081787,1.167311933784868,2.431584058719308,-0.05966692955914018
3.0516648292541504,1.1704383132526548,2.431671779941133,0.008495584253691357
3.0609257221221924,1.174541686304125,2.4317585340304055,0.05677101723345852
3.0696187019348145,1.1778634644886483,2.4318442336127704,0.08878922571199509
3.079634189605713,1.182162236256855,2.4319286841081547,0.1084236775816427
3.090611696243286,1.1866564067417984,2.432011850656997,0.11903892983703873
3.1036882400512695,1.192127570810425,2.4320940725103934,0.1233046347299961
3.113689661026001,1.1960355451451585,2.432175758436742,0.12323564582591306
3.122204542160034,1.1995527220464186,2.4322568911953395,0.3963435253396742
3.131544589996338,1.2032652976644154,2.432337325159049,0.42472937739367067
3.1426148414611816,1.2075640694326222,2.4324170450657125,0.08778631250798975
3.1506431102752686,1.2108858476171456,2.432495919083423,0.24824980230316912
3.159264087677002,1.214598423235142,2.4325737077014034,0.25937278233822364
3.1677029132843018,1.2181156001364022,2.432650205452028,0.21718227863581224
3.177217721939087,1.2222189731878725,2.4327252321406747,0.16323484152975187
3.185609817504883,1.225540751372396,2.4327987193033263,-0.16224549285912548
3.1997780799865723,1.2314027128744958,2.432870795770212,-0.23533285104624382
3.209583282470703,1.2351152884924925,2.4329416397221837,-0.21043907862827504
3.220294952392578,1.2394140602606996,2.4330113568042773,-0.15619992997135637
3.2276451587677,1.2423450410117491,2.43307993204266,-0.10094260925063407
3.235602855682373,1.2458622179130094,2.433147113531679,-0.054645016751253314
3.2479000091552734,1.2509425845481628,2.433212670012954,-0.01937325911305516
3.2556705474853516,1.2536781665824763,2.433276552062055,0.0058790248579078455
3.2660951614379883,1.2577815396339465,2.4333387133218585,0.02303655605528997
3.27457332611084,1.2611033178184698,2.433399115262482,0.034051207259416266
3.2860984802246094,1.26637908317036,2.433457721839386,0.316624812568417
3.2955734729766846,1.2700916587883566,2.4335145003488297,0.35311355866099314
3.306623935699463,1.2745858292732999,2.433569383500859,0.29919275562445236
3.3147263526916504,1.27810300617456,2.4336223250466937,0.22281471727772867
3.322556972503662,1.2812293856423467,2.433673300218623,0.15104349983966747
3.3306386470794678,1.2843557651101334,2.4337222965580123,0.09257968804931453
3.3402299880981445,1.2882637394448668,2.4337694272260246,0.04839802886117564
3.3476569652557373,1.2913901189126538,2.433814766529118,0.0166289617103686
3.3556132316589355,1.2949072958139138,2.4338582445374164,-0.005306675586382032
3.3678958415985107,1.2999876624490672,2.433899874872015,-0.01984449727663725
3.3755998611450195,1.3031140419168539,2.4339397987706253,0.24703845742561684
3.386784553527832,1.3074128136850605,2.4339781600925674,0.27482831956495696
3.3963305950164795,1.311320788019794,2.434015154784076,0.21705219225777794
3.4036812782287598,1.3142517687708442,2.434050926870787,0.14009665423011708
3.412379741668701,1.3177689456721042,2.434085468822579,0.06990573832487212
3.4215688705444336,1.321286122573364,2.434118735385166,0.0143904359052495
3.429616928100586,1.3246079007578877,2.43415075345638,-0.026024096743157313
3.4383480548858643,1.3283204763758845,2.434181724877867,-0.0535851311611306
3.4485456943511963,1.3326192481440908,2.4342119466276797,-0.3471660807143157
3.458976984024048,1.3369180199122979,2.434241636315499,-0.390420709878569
3.4665443897247314,1.3398490006633477,2.4342708883366435,-0.3401668358179419
3.4766016006469727,1.3437569749980813,2.4342997387686496,-0.26526945776054384
3.4852120876312256,1.3470787531826045,2.4343282789169596,-0.19348413975396797
3.495267868041992,1.351572923667548,2.434356647923861,0.14202005385078775
3.506638526916504,1.3560670941524915,2.4343850336200012,0.22095332828832123
3.516578435897827,1.359975068487225,2.4344135915387373,0.19962200467138458
3.527953863143921,1.364664637688905,2.434442379165809,0.14766296791208333
3.537663221359253,1.3685726120236386,2.434471499276609,0.09394206889027623
3.5475995540618896,1.3726759850751085,2.4345010375641185,0.3247718758861253
3.5558974742889404,1.3761931619763685,2.4345309429391215,0.32343372470108844
3.5641024112701416,1.3797103388776286,2.434561109532138,0.24371053501049694
3.5726583003997803,1.3834229144956252,2.434591439798345,0.15097024254230657
3.5835602283477783,1.3879170849805686,2.434621835230549,0.06984745563806452
3.592567205429077,1.391434261881829,2.4346522672766935,0.007040665569633148
3.6018874645233154,1.3951468374998257,2.4346828225061254,-0.03801957139149432
3.6135849952697754,1.3998364067015054,2.434713615770053,-0.06834773837277434
3.624692916870117,1.404330577186449,2.4347446847418475,-0.08734965423363375
3.63258957862854,1.407261557937499,2.4347759982531882,-0.09804595736937069
3.6431446075439453,1.4113649309889693,2.4348075144245764,-0.10285900412335586
3.651515483856201,1.4148821078902292,2.4348391882661784,-0.10362885538969607
3.659545660018921,1.4182038860747526,2.4348709264121644,-0.10170697970376699
3.671159267425537,1.4230888539931694,2.4349026421258357,-0.09806304056302517
3.6786282062530518,1.4264106321776928,2.4349343001843,-0.09338018893982833
3.6887660026550293,1.4301232077956894,2.43496581595408,-0.08813198703847033
3.7005245685577393,1.4348127769973695,2.4349971336071,-0.08264131686426429
3.7107160091400146,1.4389161500488394,2.4350283165990945,-0.07712410343697906
3.7216103076934814,1.4436057192505198,2.4350594519934274,-0.07172112439215281
3.731574296951294,1.4477090923019897,2.435090563842145,-0.34255920102296594
3.7406139373779297,1.4512262692032498,2.4351216388154824,-0.37073859293046507
3.750223398208618,1.4551342435379833,2.435152663030311,-0.31097894077956667
3.7587077617645264,1.4584560217225064,2.4351835759868306,0.04551285661764956
3.7676749229431152,1.4617777999070298,2.435214283952801,0.15323444932051083
3.776538848876953,1.4656857742417637,2.4352447064587994,0.1585461201064067
3.784548282623291,1.4690075524262869,2.4352747760656204,0.12797002514442263
3.794534206390381,1.4733063241944937,2.4353044804666393,0.09011188735271843
3.802852153778076,1.4768235010957538,2.4353338518208414,0.05602063530205549
3.8115804195404053,1.4801452792802772,2.435362876853462,0.02894741072589924
3.8206536769866943,1.483857854898274,2.4353915079015747,-0.2671078249413068
3.8301985263824463,1.4877658292330072,2.4354197576359407,-0.3142811198251096
3.8415186405181885,1.4924553984346873,2.435447688039797,-0.26858013031078937
3.8505477905273438,1.496167974052684,2.435475353349294,-0.19843384766430155
3.8602659702301025,1.5000759483874173,2.4355028044074096,-0.13136276816011352
3.8691258430480957,1.5035931252886776,2.435530090073347,-0.07644905595568366
3.877520799636841,1.5071103021899377,2.4355571989850806,0.2410721270096336
3.889648914337158,1.5117998713916176,2.4355841168748253,0.3038926655937343
3.899600028991699,1.515707845726351,2.4356109360745317,0.2691169823689294
3.908571481704712,1.5194204213443476,2.435637742119906,0.20629329174599928
3.9178683757781982,1.5233283956790813,2.4356645588692314,0.14389912445826422
3.9277188777923584,1.5274317687305514,2.4356914079037786,0.09177136597558583
3.9355530738830566,1.5307535469150746,2.435718259182554,-0.2242859508305655
3.9442694187164307,1.5344661225330716,2.435745037855312,-0.28654790413499653
3.9528887271881104,1.5379832994343312,2.435771727122283,-0.2518194044143851
3.961822032928467,1.5413050776188546,2.435798362580021,-0.46547492059238665
3.9695520401000977,1.544626855803378,2.435824925610509,-0.43689148309017284
3.9799585342407227,1.5485348301381114,2.4358513519906144,-0.3304952578311717
3.992017984390259,1.5534197980565285,2.435877683381997,-0.21529265461980424
3.999861478805542,1.556741576241052,2.4359040434983164,-0.1165593804624473
4.009567975997925,1.5608449492925216,2.4359304848517755,-0.04048983978478677
4.019708156585693,1.5645575249105188,2.4359569982909828,0.014314644061026841
4.028599739074707,1.5682701005285153,2.435983526498276,0.05168715194750212
4.038813352584839,1.5719826761465123,2.4360099667619215,0.07572554125332354
4.047180891036987,1.5756952517645089,2.436036269654186,0.08999434391298838
4.054556369781494,1.5790170299490323,2.436062401333442,0.09732633504032535
4.063495874404907,1.5827296055670288,2.436088287526776,0.09986367851962143
4.073550462722778,1.5870283773352356,2.4361139072129063,0.09917668605288668
4.08356499671936,1.5911317503867057,2.4361392908520134,0.0963918657475549
4.092596054077148,1.5948443260047027,2.4361644518176018,0.09230395834730394
4.1025450229644775,1.598752300339436,2.43618939426566,0.0874655118083557
4.111513614654541,1.6024648759574327,2.4362141330350173,0.08225511036744018
4.121368169784546,1.6065682490089026,2.436238676363314,0.0769278543974492
4.132110118865967,1.6108670207771094,2.4362630260270666,0.07165201565059154
4.1405229568481445,1.6141887989616328,2.4362871559238144,0.0665353184236886
4.148519515991211,1.617510577146156,2.4363110066756533,0.06164361341828504
4.157397508621216,1.6210277540474165,2.436334559483231,0.057014056498181545
4.166549921035767,1.6245449309486766,2.4363577992200804,0.05266435839842616
4.175159931182861,1.6282575065666731,2.436380678543078,0.04859924517693861
4.185474872589111,1.6323608796181432,2.436403200692818,0.04481494885624597
4.195551156997681,1.6362688539528767,2.436425408555236,0.041302312492196055
4.204587697982788,1.64017682828761,2.436447329341605,0.0380489237935614
4.213038921356201,1.6434986064721333,2.4364689820604832,-0.24099779006826466
4.2219483852386475,1.6476019795236037,2.436490387803313,-0.0008623861608427347
4.2318596839904785,1.651509953858337,2.4365115676054048,0.08479592188114723
4.242234230041504,1.6554179281930703,2.4365325414099583,0.10341997546396622
4.249549388885498,1.6583489089441203,2.436553327206139,0.09567938922463562
4.258131742477417,1.6618660858453804,2.4365739063512244,0.07977194767734003
4.267112970352173,1.6657740601801139,2.436594226377836,0.06329992924271782
4.276705980300903,1.669291237081374,2.436614272526761,0.04901620140206869
4.285560369491577,1.6730038126993705,2.436634074472006,0.03756281700555743
4.294100046157837,1.6765209896006308,2.4366536303572,0.02874619242928903
4.302149295806885,1.6798427677851542,2.436672903965072,0.02210880887553499
4.309508323669434,1.682773748536204,2.43669187141396,0.2932072977784372
4.318926811218262,1.686486324154201,2.436710519563125,0.3226711774687635
4.326572418212891,1.6896127036219875,2.436728846069359,0.26485852172187335
4.334507465362549,1.6927390830897744,2.4367468477128313,0.18674892389541944
4.343490839004517,1.6966470574245076,2.4367645553205426,0.11470354721966725
4.351978778839111,1.699968835609031,2.43678204355455,0.05692302875617122
4.360957622528076,1.7036814112270278,2.4367993737614806,0.014031016800045124
4.369527578353882,1.7070031894115512,2.436816555081687,-0.01608578599071763
4.379665374755859,1.7111065624630215,2.436833557021978,-0.036173749468003266
4.392343044281006,1.7161869290981746,2.4368504148025445,-0.04878162863215885
4.4014976024627686,1.7200949034329083,2.436867228023259,-0.05600004406258464
4.409607887268066,1.7232212829006948,2.436884024348969,-0.059439552710310706
4.4195122718811035,1.727324655952165,2.4369007609889035,-0.06029547209837581
4.42951512336731,1.7312326302868983,2.4369174226061507,-0.33547166507468684
4.437521457672119,1.7347498071881584,2.436933995658712,-0.3666314898212581
4.448033571243286,1.7388531802396283,2.4369504721585895,-0.30889809941814617
4.455594778060913,1.7417841609906786,2.436966908372983,0.046234698958299986
4.466307640075684,1.7458875340421487,2.4369833554944385,-0.12297666073427409
4.475205183029175,1.7494047109434088,2.4369997894959723,-0.15136260137601254
4.483159780502319,1.7531172865614053,2.437016157027092,0.14884528253382023
4.492590427398682,1.756829862179402,2.4370324223268547,0.21999637693729177
4.503950357437134,1.7615194313810822,2.437048578870673,0.2012325206597313
4.511532545089722,1.764645810848869,2.4370646472585014,0.1546663927077615
4.520104646682739,1.7679675890333926,2.43708062597689,0.10613950087502969
4.529964208602905,1.7720709620848625,2.4370965064140395,0.0649276785103113
4.538510084152222,1.7755881389861226,2.437112276383455,0.03312242262158585
4.547527551651001,1.7791053158873826,2.4371279023021533,0.009991610685465654
4.5570313930511475,1.7832086889388525,2.437143383117645,-0.006071075358308331
4.567536354064941,1.7875074607070596,2.4371587406674835,-0.016733061612103462
4.576797723770142,1.7910246376083194,2.4371739880660415,0.25260891127276736
4.588016986846924,1.7955188080932627,2.4371891648553743,0.005829157859530323
4.596508502960205,1.7986451875610496,2.4372043084773125,-0.0842852284889335
4.605556964874268,1.8023577631790462,2.4372193992904587,-0.10582021049438177
4.613910913467407,1.806070338797043,2.4372344414449767,-0.09991113519435468
4.6244823932647705,1.8101737118485133,2.4372494653336356,-0.085088864126694
4.63349461555481,1.8136908887497734,2.437264450565992,-0.06919170915522385
4.642642259597778,1.81740346436777,2.437279384260444,-0.05513860050141703
4.6515607833862305,1.8213114387025033,2.437294261596369,-0.043687702200070774
4.6600024700164795,1.8246332168870267,2.4373090452530324,-0.03472613388314506
4.669596433639526,1.8283457925050235,2.437323721098885,-0.027852114194734295
4.678989410400391,1.832253766839757,2.437338304060989,-0.02262212353523985
4.690030097961426,1.8365525386079635,2.4373528149148846,-0.018643742965924207
4.700151205062866,1.8406559116594339,2.437367276024148,-0.015600548238221684
4.711529970169067,1.8455408795778505,2.437381721615561,-0.013249483770843472
4.7205774784088135,1.8490580564791106,2.437396206314585,-0.011408993690901387
4.728492259979248,1.852184435946897,2.4374107325683743,-0.009945693754651878
4.736524343490601,1.8555062141314205,2.437425245541604,-0.00876252770750962
4.748589277267456,1.8601957833331009,2.4374397175665052,-0.0077892159890568646
4.760067939758301,1.8650807512515175,2.4374541682442747,-0.00697493599906282
4.7680823802948,1.8685979281527776,2.4374686136549717,-0.006282878191829193
4.776486873626709,1.8721151050540379,2.437483004921283,-0.00568627237247023
4.786505699157715,1.8762184781055076,2.437497273614597,-0.0051655219304121355
4.794946670532227,1.879540256290031,2.4375113989750044,-0.0047061532407076554
4.8046135902404785,1.8834482306247644,2.437525386923778,-0.0042973556873764284
4.812515735626221,1.8863792113758147,2.437539246564729,-0.003930945306878443
4.822043180465698,1.8902871857105479,2.4375529872586066,-0.0036006302245715615
4.829493522644043,1.8932181664615981,2.437566610740744,-0.0033014901313289146
4.838757038116455,1.896735343362858,2.437580087567026,-0.0030296071206085164
4.8465423583984375,1.9000571215473812,2.437593374662296,-0.0027818033771531076
4.857170104980469,1.9043558933155882,2.437606468943813,-0.002555454228394459
4.866050481796265,1.9082638676503216,2.4376193903781744,-0.0023483543466915413
4.873497009277344,1.9113902471181083,2.4376321279756032,-0.002158621454293868
4.882510185241699,1.9149074240193684,2.437644634672712,-0.001984626524623127
4.891315937042236,1.9184246009206285,2.437656878294596,-0.0018249427372824297
4.8994927406311035,1.9219417778218884,2.4376688713313954,-0.0016783077445126893
4.9085373878479,1.9254589547231487,2.437680644578665,-0.0015435954192735718
4.916539669036865,1.9289761316244087,2.4376922099386236,-0.001419794389713487
4.926493883132935,1.9330795046758789,2.4377035809415286,-0.0013059914603551974
4.935044765472412,1.9367920802938754,2.437714790850533,-0.27723971825701876
4.944278001785278,1.9403092571951355,2.4377258513499167,-0.310268105236308
4.956517934799194,1.9453896238302888,2.4377367850659506,-0.25508236200544543
4.969758749008179,1.9502745917487057,2.4377476444326995,-0.17891597171680237
4.978513479232788,1.953791768649966,2.437758443868225,-0.3843567952483478
4.986464977264404,1.9571135468344893,2.4377691592786097,-0.36079074393744703
4.996511936187744,1.961412318602696,2.4377798053517274,-0.2636325397490138
5.005101919174194,1.9647340967872193,2.4377904139379627,-0.15807413065289228
5.012504816055298,1.9676650775382694,2.4378009522299227,-0.06797006373692698
5.0224690437316895,1.9717684505897393,2.4378113740912335,0.0008535730478610656
5.033259630203247,1.976067222357946,2.437821699153746,0.0497381774646759
5.0424721240997314,1.979779797975943,2.437831978475161,0.08231748049025248
5.050470352172852,1.9834923735939396,2.4378422210783075,0.10246859912716431
5.060915470123291,1.9875957466454097,2.4378524041832486,0.11355950666035701
5.070152997970581,1.991503720980143,2.437862521651284,0.11826303970685802
5.079073905944824,1.9954116953148764,2.437872586900824,0.11859701041339002
5.089139699935913,1.99931966964961,2.437882628170546,0.11603736348729682
5.0988781452178955,2.00283684655087,2.4378926750560033,0.11163985623753525
5.107517957687378,2.00635402345213,2.4379027239425044,0.10614640606616337
5.116847991943359,2.0100665990701265,2.437912749355236,0.10007006093383292
5.125281095504761,2.0133883772546506,2.4379227516756283,0.09375968846791738
5.135869741439819,2.01807794645633,2.4379327716768144,0.087447813707623
5.144042491912842,2.0213997246408537,2.437942839748649,0.08128533764838983
5.151887893676758,2.0245261041086406,2.437952940043873,0.07536641437049518
5.159446716308594,2.027652483576427,2.437963047161746,0.06974611353843573
5.168456315994263,2.0313650591944237,2.437973134901007,0.06445287292963517
5.178046226501465,2.0352730335291573,2.4379831890771486,0.05949722695322052
5.185473918914795,2.038008615563471,2.4379932043070385,0.054877892460524214
5.196462392807007,2.0426981847651504,2.4380031726822677,0.050585989109631274
5.2054712772369385,2.0464107603831474,2.4380130904385293,0.04660794835373978
5.213459014892578,2.049732538567671,2.4380229349725795,0.04292750371688987
5.221451759338379,2.052663519318721,2.4380326819414946,0.31556539914533005
5.231299877166748,2.056376094936718,2.4380423182008344,0.06951309579645296
5.2407448291778564,2.0600886705547143,2.438051840246383,-0.021603311393424515
5.24889874458313,2.063410448739238,2.4380612512272455,-0.0452590029172963
5.258796215057373,2.067709220507444,2.4380705537009404,0.2338837051065287
5.2664477825164795,2.071030998691968,2.4380797357930097,0.27864541912016055
5.276379346847534,2.0751343717434376,2.4380887712620583,0.23608798237057155
5.286563396453857,2.0796285422283813,2.4380976583480147,0.17066663626912715
5.29702353477478,2.0837319152798512,2.4381064214211277,0.10826516748051347
5.306501150131226,2.0874444908978482,2.4381150911900704,0.0573931962466485
5.315128564834595,2.091157066515845,2.4381236616300472,0.019210679404947133
5.323446750640869,2.0944788447003684,2.4381320741108206,-0.007861683075520251
5.332485198974609,2.098191420318365,2.438140284958982,-0.026118486783395334
5.340456962585449,2.1015131985028885,2.438148287651488,-0.037754466020622005
5.349528789520264,2.1052257741208855,2.43815609017869,-0.04459465013098938
5.3599607944488525,2.1091337484556187,2.438163713472758,-0.04805581742793967
5.36855149269104,2.1126509253568786,2.438171177556746,-0.04919464971541054
5.378485441207886,2.116558899691612,2.438178497564815,-0.04877897619863797
5.386451721191406,2.1196852791593987,2.438185693566518,0.228681977612031
5.397224187850952,2.1243748483610787,2.438192796494296,0.26385138704317673
5.408468246459961,2.1286736201292857,2.4381998398888873,-0.06488384493096974
5.416853189468384,2.1321907970305456,2.438206845163651,-0.17151971154469758
5.42606258392334,2.136294170082016,2.43821382088266,0.0917178283615803
5.433509111404419,2.1394205495498024,2.4382207561395295,0.14690049896597862
5.449872970581055,2.1458687072021125,2.438227663083347,0.12284198825279422
5.461253881454468,2.150167478970319,2.4382345955947127,0.07636483033173323
5.471460342407227,2.1544662507385257,2.4382415834634394,0.030583150050819886
5.482495307922363,2.1587650225067327,2.438248626455452,-0.006643064977178845
5.493035554885864,2.1630637942749393,2.438255736785146,-0.03396172255877315
5.5037760734558105,2.167557964759883,2.438262937807821,-0.05249206103133373
5.512812376022339,2.17127054037788,2.438270235744618,-0.06404189170862289
5.520442008972168,2.17420152112893,2.438277608348095,-0.07038102834671622
5.529447555541992,2.178109495463663,2.438285023483254,-0.07299331320272351
5.5379557609558105,2.1816266723649234,2.4382924657785963,-0.07303329790391504
5.548462152481079,2.1861208428498666,2.4382999280605824,-0.07136100528706583
5.5574424266815186,2.189833418467863,2.438307387016883,-0.06859876290763747
5.569288730621338,2.1945229876695436,2.438314829153758,-0.06518719760180836
5.579171419143677,2.198430962004277,2.4383222757081753,-0.06143250135065062
5.589660167694092,2.2023389363390105,2.4383297376325666,-0.05754351920650595
5.599531888961792,2.2062469106737437,2.4383371992811256,-0.053659681381802216
5.608639240264893,2.209764087575004,2.438344650515192,-0.04987151303808718
5.617412567138672,2.213281264476264,2.4383520720859666,-0.046235444096012705
5.625440359115601,2.216603042660787,2.4383594311129184,-0.04278437893115514
5.637287378311157,2.2216834092959403,2.438366725309566,-0.03953517481674379
5.646447658538818,2.2253959849139373,2.4383739605314827,-0.036493896644493415
5.656247615814209,2.229303959248671,2.438381115469388,-0.033659486718545864
5.66671347618103,2.233407332300141,2.438388177003933,-0.03102631241329526
5.676040410995483,2.237119907918138,2.4383951398836423,-0.02858592334695047
5.683834791183472,2.240441686102661,2.438401995540645,-0.02632825396987553
5.691920280456543,2.2439588630039213,2.438408736574281,-0.02424243846682115
5.700865030288696,2.247671438621918,2.438415348173237,-0.02231735559522652
5.70882773399353,2.2507978180897044,2.4384218272105715,-0.020541986109332236
5.716432809829712,2.253533400124018,2.438428169670687,-0.01890564070267806
5.724415063858032,2.256855178308541,2.438434343813516,-0.01739809898838799
5.7352399826049805,2.2611539500767477,2.4384403396493806,-0.01600968780092693
5.743536710739136,2.2642803295445346,2.4384461888754196,-0.014731318515008047
5.752448081970215,2.2681883038792683,2.4384519086132737,-0.01355449706363681
5.761415719985962,2.272096278214001,2.438457490310649,-0.012471316125896872
5.770501136779785,2.275613455115262,2.438462930067856,-0.011474436018292643
5.780080556869507,2.279521429449995,2.438468224881605,-0.010557058766137467
5.788619518280029,2.2828432076345186,2.438473367912692,-0.009712898406216008
5.798609733581543,2.2869465806859886,2.438478362293116,-0.2849745092517508
5.810465574264526,2.2918315486044056,2.438483211824975,-0.3173844185750967
5.818676471710205,2.295153326788929,2.438487905384925,-0.2616295842140042
5.828434467315674,2.299061301123662,2.438492426321368,0.09109879377418767
5.837160348892212,2.302578478024922,2.438496766649906,0.19530271578857566
5.846458435058594,2.306291053642919,2.4385009150089516,0.19733938520715893
5.855496168136597,2.309808230544179,2.4385048503789113,0.163723159477863
5.865254878997803,2.3137162048789124,2.4385085693259523,0.1230491064858651
5.87675666809082,2.3184057740805923,2.4385120786991856,0.08635391390584979
5.885442733764648,2.3219229509818526,2.4385153731068643,0.05687575400184224
5.893936634063721,2.3254401278831125,2.4385184507742332,0.03463981995324851
5.904923915863037,2.329934298368056,2.438521310691793,0.018545032259935174
5.912452220916748,2.3332560765525794,2.438523943244541,0.00726316296755916
5.921896457672119,2.3371640508873126,2.4385263455634,-0.27645090906843084
5.932269811630249,2.341267423938783,2.4385285212932626,-0.31462670611352206
5.942877531051636,2.3455661957069895,2.438530480312457,-0.2627102566995244
5.950520753860474,2.34849717645804,2.4385322430476193,-0.1884957062340886
5.959105730056763,2.3520143533592996,2.438533823138041,-0.11893998334363018
5.9674413204193115,2.3551407328270866,2.4385352267623515,-0.06267271048140799
5.979514122009277,2.36022109946224,2.438536463747924,-0.020623027846339903
5.9899725914001465,2.3647152699471836,2.4385375553739377,0.009106627369064424
5.99909520149231,2.36784164941497,2.438538524606652,0.029111319735961493
6.008718490600586,2.3717496237497033,2.4385393770100543,-0.23420401299942945
6.017875671386719,2.3754621993677,2.438540120347044,-0.2598696727634596
6.0254223346710205,2.378588578835487,2.4385407703166035,-0.2010172264023946
6.034549713134766,2.382691951886957,2.4385413383154524,0.15231865171775744
6.045215606689453,2.3869907236551637,2.4385418365873415,-0.02056016515630618
6.056318759918213,2.3916802928568437,2.4385422802501298,-0.05374805695196301
6.06845760345459,2.3965652607752603,2.4385426781627353,-0.0350047947477079
6.0777623653411865,2.4002778363932573,2.438543032232186,-0.002680863237367069
6.0874011516571045,2.4039904120112543,2.4385433508162566,0.027906667161427073
6.095443964004517,2.4073121901957775,2.4385436445309248,0.051788565620601835
6.1034464836120605,2.410633968380301,2.4385439195871403,0.06835222710050866
6.112461805343628,2.4141511452815605,2.438544180706731,0.07859209386674282
6.120412111282349,2.417277524749348,2.438544426658229,0.083907018923159
6.128429174423218,2.420599302933871,2.438544651191742,0.08561939276115355
6.136404275894165,2.4237256824016575,2.4385448554766787,0.08481896136459002
6.14799952507019,2.428415251603338,2.4385450500299664,0.0823436611114142
6.155426263809204,2.4315416310711244,2.4385452361498356,0.0788112362011357
6.16344690322876,2.4344726118221742,2.438545408094093,0.07466384304984605
6.172290325164795,2.437794390006698,2.438545567367659,0.07021046870705769
6.1824469566345215,2.441897763058168,2.438545716951589,-0.48641453543610436
6.190441370010376,2.4446333450924813,2.438545858720181,-0.8332047194837764
6.201134920120239,2.4487367181439517,2.4385459920432395,-1.0365394998579407
6.212105989456177,2.452253895045212,2.4385461126365358,-1.6946862773371787
6.221464157104492,2.4553802745129985,2.4385462232191806,-2.3538983948351526
6.229742527008057,2.4575296603971015,2.4385463300809733,-2.859956468756482
6.237598180770874,2.459679046281205,2.4385464285511995,-3.186228428976035
6.246088266372681,2.4620238308820452,2.4385465147887984,-3.630421206672839
6.2543957233428955,2.4639778180494116,2.4385465941976325,-4.260661165033651
6.262447834014893,2.4657364065000413,2.4385466683473442,-4.503896429820456
6.270413160324097,2.467494994950672,2.438546734772709,-4.5222547258092005
6.2805633544921875,2.4692535834013016,2.4385467938055134,-5.0
6.291390419006348,2.471012171851932,2.4385468489106694,-5.0
6.30241322517395,2.472379962869088,2.438546902297001,-5.0
6.3114542961120605,2.4731615577360353,2.438546951993943,-5.0
6.321105480194092,2.4741385513197187,2.438546999471461,-5.0
6.3320605754852295,2.4747247474699283,2.4385470521785186,-5.0
6.340522527694702,2.474920146186665,2.438547114802267,-5.0
6.351035833358765,2.475115544903402,2.4385471880893377,-5.0
6.358653783798218,2.475115544903402,2.4385472771658354,-5.0
6.370519161224365,2.474920146186665,2.438547390794943,-5.0
6.382836818695068,2.4743339500364554,2.438547537613427,-5.0
6.391387939453125,2.473943152602982,2.4385477353049807,-5.0
6.400493621826172,2.473356956452772,2.438548001253281,-3.962562352646035
6.409590244293213,2.4725753615858252,2.4385483400088126,-2.874051953882333
6.419126510620117,2.471598368002142,2.4385487637422125,-2.2174628411619013
6.4289021492004395,2.4704259757017217,2.438549295543259,-1.5220564001916137
6.436868667602539,2.4694489821180383,2.4385499527656216,-0.6519749668282426
6.446914911270142,2.4682765898176187,2.438550750003878,-0.1591783183301071
6.454951286315918,2.467104197517198,2.4385516993303287,0.3964497657254337
6.463262319564819,2.4657364065000413,2.43855280435079,0.8619828388711985
6.473891019821167,2.4639778180494116,2.438554082312581,1.1997102405398632
6.483396530151367,2.462414628315518,2.4385555610033234,1.1416811271106937
6.493723392486572,2.4604606411481513,2.438557252055453,1.2295821335249144
6.505416631698608,2.4583112552640483,2.4385591710484404,1.333016461707706
6.51429557800293,2.4565526668134186,2.4385613351534414,1.681842159283449
6.524534463882446,2.454794078362788,2.438563744905884,1.7471865296742308
6.535412073135376,2.452644692478685,2.4385664037534758,2.2399449633384934
6.5445473194122314,2.4506907053113185,2.438569312157019,2.749827283420543
6.552419424057007,2.4491275155774246,2.4385724448811947,3.1353479267124706
6.560852289199829,2.447173528410058,2.438575773819215,3.6459893724106562
6.57041335105896,2.4450241425259547,2.4385792942808715,3.78010760965339
6.578447341918945,2.443265554075325,2.438583002907405,3.9981799770601882
6.5873823165893555,2.441702364341431,2.4385868789780747,4.1538736648477945
6.595409393310547,2.440139174607538,2.438590906662057,4.486091492818893
6.60652494430542,2.438185187440171,2.4385951014937426,5.0
6.617718458175659,2.4364265989895415,2.4385994929758463,5.0
6.626022815704346,2.4354496054058576,2.4386040849782873,5.0
6.633947134017944,2.4344726118221742,2.4386088596445914,5.0
6.642405986785889,2.4334956182384913,2.4386138056853537,5.0
6.652360677719116,2.432323225938071,2.4386189043843998,5.0
6.6613616943359375,2.4315416310711244,2.4386241186333146,5.0
6.670408248901367,2.4307600362041777,2.4386294279089418,5.0
6.68135666847229,2.4297830426204947,2.43863483678924,5.0
6.691376209259033,2.429196846470284,2.438640348627362,5.0
6.700366973876953,2.4286106503200746,2.438645956431557,5.0
6.711453914642334,2.4280244541698646,2.4386516731218135,5.0
6.721526622772217,2.427829055453128,2.4386575344661656,5.0
6.732199192047119,2.4274382580196545,2.4386635533949215,5.0
6.745398283004761,2.427047460586181,2.4386697326239806,5.0
6.75438928604126,2.427047460586181,2.4386760654241497,4.864118453300836
6.762386798858643,2.4268520618694445,2.4386825132297787,4.167111231809853
6.77040696144104,2.4268520618694445,2.4386890380774604,3.3718475803374854
6.779407262802124,2.427047460586181,2.438695610726294,2.6555832812268068
6.789454460144043,2.4268520618694445,2.4387022150953244,2.3450183507115883
6.798068284988403,2.4268520618694445,2.4387088510734203,1.6438790141160964
6.8054821491241455,2.427047460586181,2.43871550271427,1.206503004225174
6.8143603801727295,2.427047460586181,2.438722128532902,0.646643831683039
6.823401212692261,2.427242859302918,2.4387286960986807,0.14595859757000218
6.832400560379028,2.427242859302918,2.438735202677849,-0.24229393705821534
6.844483137130737,2.4274382580196545,2.438741661419377,-0.7937059933069489
6.8524010181427,2.4274382580196545,2.4387480802016253,-1.0073242932318627
6.861464023590088,2.4274382580196545,2.4387544499895424,-1.3355359947946694
6.871357679367065,2.4276336567363908,2.4387607645495124,-1.3462217567717296
6.881227493286133,2.427829055453128,2.4387670224141234,-1.5125175700239568
6.891332149505615,2.427829055453128,2.4387732130390627,-1.6791734044285767
6.899350643157959,2.427829055453128,2.438779322973631,-1.5180921165755712
6.90937066078186,2.4280244541698646,2.4387853480657466,-1.5399061743274467
6.920524835586548,2.4280244541698646,2.4387912990297314,-1.5979889882993137
6.928657531738281,2.4282198528866012,2.4387971789371026,-1.6375387392597718
6.936395168304443,2.4282198528866012,2.4388029604200563,-1.6439559263769468
6.9463324546813965,2.4282198528866012,2.4388086092558776,-1.6187576912678023
6.956413507461548,2.428415251603338,2.4388141175262223,-1.5687418625773053
6.966363430023193,2.428415251603338,2.4388194942544934,-1.7774512335325634
6.976568222045898,2.428415251603338,2.438824741826053,-1.7324475638111783
6.986377477645874,2.428415251603338,2.4388298577540786,-1.5935096214732472
6.994382858276367,2.428415251603338,2.4388348431852487,-1.7076392966179976
7.003382682800293,2.428415251603338,2.4388396930583287,-1.5850420750765704
7.011383056640625,2.428415251603338,2.438844407165811,-1.6665301196728293
7.0196404457092285,2.428415251603338,2.438849000989553,-1.5022141703773764
7.027340412139893,2.428415251603338,2.4388534876356367,-1.2719427953704017
7.038304567337036,2.428415251603338,2.4388578834362957,-1.0489220209911967
7.046373605728149,2.428415251603338,2.438862208012516,-0.8580228228942879
7.055335283279419,2.428415251603338,2.438866467297222,-0.7034413461239597
7.064333915710449,2.428415251603338,2.438870664064804,-0.5814833600536653
7.074376106262207,2.428415251603338,2.4388748145977157,-0.48622435502149414
7.083344221115112,2.428415251603338,2.438878934036224,-0.4118269405794529
7.091442346572876,2.428415251603338,2.4388830185992925,-0.35334054376446766
7.102585554122925,2.428415251603338,2.438887071718439,-0.30684982349506845
7.110889673233032,2.428415251603338,2.438891116778563,-0.26937275004259287
7.119342565536499,2.428415251603338,2.4388951620772557,-0.2386862418206259
7.127384901046753,2.428415251603338,2.4388992076789586,-0.21315249726320892
7.136348009109497,2.428415251603338,2.4389032582670995,-0.19157152410452813
7.146138429641724,2.428415251603338,2.438907304611172,-0.1730648699471351
7.157275676727295,2.428415251603338,2.4389113343275626,-0.15698763235869576
7.170605421066284,2.428415251603338,2.438915346425242,-0.14286349045895863
7.179366111755371,2.428415251603338,2.4389193441551043,-0.13033747044642613
7.1883385181427,2.428415251603338,2.4389233281359526,-0.11914193983859747
7.198312282562256,2.428415251603338,2.4389272990691837,-0.10907227435650818
7.209392070770264,2.428415251603338,2.43893125076767,-0.09996950659422535
7.221338272094727,2.428415251603338,2.438935169754898,-0.09170797169342346
7.231979608535767,2.428415251603338,2.4389390466025564,-0.08418650974484974
7.2393786907196045,2.428415251603338,2.438942872339244,-0.0773221909401842
7.2490925788879395,2.428415251603338,2.4389466330911636,-0.07104582650946138
7.2577996253967285,2.428415251603338,2.4389503156514114,-0.06529874271087185
7.268834114074707,2.428415251603338,2.4389539114088428,-0.06003044828503089
7.277599811553955,2.428415251603338,2.4389574088009622,-0.05519693459870445
7.287465333938599,2.428415251603338,2.438960791602834,-0.05075942469571908
7.295359134674072,2.4282198528866012,2.4389640560719354,-0.04668344179618822
7.303357124328613,2.428415251603338,2.438967199032064,-0.04293810604112627
7.313324928283691,2.428415251603338,2.438970202384213,-0.039495595187551545
7.3218207359313965,2.4282198528866012,2.438973051087292,-0.03633072387218436
7.329352378845215,2.428415251603338,2.4389757413745454,-0.03342060935157351
7.3394763469696045,2.428415251603338,2.4389782721128164,-0.030744400965571416
7.348315954208374,2.428415251603338,2.438980625107147,-0.02828305713666681
7.356328248977661,2.428415251603338,2.438982775691479,-0.02601915833699953
7.365393400192261,2.428415251603338,2.4389802225675665,-0.02393674770863947
7.374716281890869,2.4282198528866012,2.4389391359357036,-0.022021193318325024
7.3850250244140625,2.428415251603338,2.4387714377098573,-0.020259067651001144
7.39399266242981,2.4282198528866012,2.4383529524066376,-0.01863804109745975
7.402817249298096,2.4282198528866012,2.4375587923990962,-0.01714678701055966
7.412328720092773,2.428415251603338,2.4363009633039128,-0.01577489649030235
7.42341423034668,2.4282198528866012,2.4344998064217,-0.014512801479469286
7.432350158691406,2.4282198528866012,2.4320624390507595,-0.013351705056975477
7.441366195678711,2.4282198528866012,2.4289381903670164,-0.01228351803951705
7.450806617736816,2.4282198528866012,2.4250867279719803,-0.011300801167322903
7.460346937179565,2.4282198528866012,2.4204526474200954,-0.010396712273612843
7.470071315765381,2.4280244541698646,2.414994856500325,-0.009564957931496233
7.477566480636597,2.4280244541698646,2.408714140225826,-0.008799749144816932
7.487335920333862,2.4280244541698646,2.401647697458369,-0.008095760706719675
7.495352268218994,2.427829055453128,2.393806605539784,-0.2834864535743047
7.504996061325073,2.4274382580196545,2.385150992773717,-0.3160152050559055
7.513646841049194,2.4268520618694445,2.3756569475880127,-0.8124464855264064
7.525218725204468,2.4260704670024977,2.365373574237696,-1.9062597985729828
7.53831672668457,2.4245072772686043,2.3543252101735566,-2.961730479047331
7.5486273765563965,2.4229440875347112,2.3424871295412255,-4.044812996473407
7.5563530921936035,2.4215762965175545,2.3299084148888785,-5.0
7.565332412719727,2.4196223093501876,2.316699674632099,-5.0
7.575444936752319,2.417277524749348,2.302937993825427,-5.0
7.588217496871948,2.413564949131351,2.288645918121467,-5.0
7.596770763397217,2.410633968380301,2.2738284984070787,-5.0
7.608321666717529,2.4059443991786207,2.25850486568474,-5.0
7.616312026977539,2.4030134184275704,2.2427537630733614,-5.0
7.626730680465698,2.398714646659364,2.2267013167632546,-5.0
7.636345148086548,2.394611273607894,2.2104158306831967,-5.0
7.646405935287476,2.390312501839687,2.193938678749045,-5.0
7.654343366622925,2.3869907236551637,2.1773567954005215,-5.0
7.6653876304626465,2.382301154453484,2.1607483698219063,-5.0
7.673350811004639,2.378588578835487,2.144181591531157,-3.581067302890293
7.682344198226929,2.3746806045007536,2.1277788625118808,-1.4505203387049959
7.692353010177612,2.3705772314492832,2.1116430460919,0.5217687403478782
7.702918767929077,2.3662784596810766,2.095775300205903,2.3381409901625934
7.7123494148254395,2.36256588406308,2.0801341794547827,3.7311396016158227
7.723355054855347,2.3578763148613997,2.0646848518192966,4.9544068497998435
7.734383821487427,2.352991346942983,2.049397553480261,5.0
7.743393659591675,2.349278771324986,2.0342657312420744,5.0
7.751585483551025,2.3461523918571996,2.019321872654199,5.0
7.761369943618774,2.3420490188057297,2.004610655932815,5.0
7.772290945053101,2.33794564575426,1.990146292509166,5.0
7.78131890296936,2.333842272702789,1.9759168846247928,5.0
7.791309356689453,2.3295435009345824,1.961908595293335,5.0
7.8023436069488525,2.3248539317329024,1.9480856975226688,5.0
7.811289310455322,2.3209459573981692,1.9344148819928433,4.993598879515924
7.824412107467651,2.315279394612806,1.9208854930177865,4.816353986989906
7.836528539657593,2.3103944266943888,1.9074442822527826,4.559977681602621
7.8443663120269775,2.3070726485098656,1.8940443956080288,4.272112827118318
7.855724096298218,2.302383079308185,1.8807072194563228,3.977537628251298
7.868623733520508,2.2973027126730323,1.8674284503338248,3.413002175060117
7.877325773239136,2.293785535771772,1.8541825148445588,3.1038835896608536
7.885330677032471,2.2904637575872484,1.8409892341596663,2.8984951638404635
7.896669864654541,2.2853833909520955,1.8278440090912933,2.730749708344293
7.9083473682403564,2.2804984230336784,1.814700844448559,2.298189569658079
7.917327642440796,2.276981246132418,1.8015628915971298,2.11100561417777
7.926309585571289,2.2730732717976845,1.788474800019182,2.013065673860815
7.935013055801392,2.2691652974629517,1.7754327265768124,1.938314107000454
7.942688226699829,2.265843519278428,1.7624126336638182,1.8619722248124964
7.950330495834351,2.262521741093905,1.7494359431583328,1.7772795520070725
7.963318347930908,2.2574413744587516,1.7365213493482399,1.6846621778317323
7.971311569213867,2.2541195962742275,1.7236846394994794,1.5868744047746457
7.980312347412109,2.250602419372968,1.7109594253207556,1.4869589473011684
7.989321231842041,2.246889843754971,1.6983537021342385,1.3874988049980028
7.998056173324585,2.2427864707035012,1.685853667263482,1.5664710752358202
8.007564067840576,2.2388784963687676,1.6734470658362943,1.5062578383853351
8.01530909538269,2.2355567181842444,1.6611423277208786,1.3623922891932723
8.024572610855103,2.2316487438495107,1.6489648462639335,1.2025764423034333
8.032341241836548,2.228717763098461,1.6369142150102345,0.7775203334777427
8.043072938919067,2.2240281938967805,1.6249676786462321,0.6145256366624423
8.051924705505371,2.220315618278784,1.6131030995413733,0.8355477589481045
8.061375141143799,2.2162122452273136,1.6012988329932898,0.8521641609639681
8.069600105285645,2.212499669609317,1.5895337346399443,0.5135404750596879
8.07808780670166,2.209177891424794,1.577808492623708,0.3947438551449054
8.08832573890686,2.2052699170900603,1.5661425587452642,0.3645659820008301
8.096326351165771,2.2017527401888004,1.5545505260796806,0.6403207091089641
8.107473134994507,2.197258569703857,1.543021350185302,0.4024317674810768
8.116312265396118,2.193741392802597,1.5315225505967276,0.31555764189845237
8.125302791595459,2.1900288171846003,1.5200472444279844,0.2900296792402499
8.137068033218384,2.185143849266183,1.5085669544763138,0.5616634974765735
8.146973848342896,2.18064967878124,1.4970139789314738,0.31855630236901733
8.155614376068115,2.176937103163243,1.4853753175470132,0.22810855208533642
8.16409683227539,2.173419926261983,1.4736844634043738,0.20126491296385143
8.172334432601929,2.17009814807746,1.4619703541294256,0.19758691011410975
8.18132472038269,2.1661901737427263,1.4502578395498633,0.19969601976398793
8.191317319869995,2.1618914019745197,1.4385464861852555,0.20087149656803205
8.199429750442505,2.15837422507326,1.4268148402565215,0.19911254504417958
8.207301616668701,2.155247845605473,1.4150461485221386,0.19435355784770614
8.216309070587158,2.1515352699874764,1.4032492782664088,0.18720052403789628
8.22798776626587,2.146259504635586,1.3914338311974186,0.17838927735392124
8.235285758972168,2.1435239226012723,1.3795679617410292,0.16857755166613642
8.246581077575684,2.139029752116329,1.3676272901804902,0.1582849689998705
8.254743576049805,2.135707973931806,1.3556351263343336,0.14789372146510898
8.26230239868164,2.1321907970305456,1.3436334420718483,0.13767031621673861
8.271342277526855,2.128478221412549,1.3316587813871492,0.1277913593871857
8.2833411693573,2.1232024560606586,1.3197230108371028,0.11836682043341754
8.293719291687012,2.118903684292452,1.3077976388902999,0.38549722427035005
8.30229115486145,2.1153865073911917,1.2958601543516501,0.4102592165869404
8.31129503250122,2.111673931773195,1.283932321700862,0.3473506912548384
8.320924997329712,2.1073751600049886,1.2720531433208444,0.26399667075780886
8.330280065536499,2.1038579831037287,1.260237726843787,0.18672850466315116
8.3403639793396,2.0995592113355217,1.2484629083880876,0.12386019318793108
8.34928011894226,2.0958466357175247,1.2367105877346867,0.07608729176228317
8.359967947006226,2.091157066515845,1.225003218271997,0.04133891614238651
8.368802785873413,2.087639889614585,1.2133608294916558,0.01689056220592688
8.377328395843506,2.0837319152798512,1.2018002722249865,0.00020131575301015822
8.389204740524292,2.0790423460781713,1.1903358457908808,-0.010820957053221005
8.397380352020264,2.0755251691769114,1.178944328150303,-0.017794381027346897
8.40610122680664,2.071617194842178,1.1676231899026983,-0.021925592550136118
8.4173424243927,2.066927625640498,1.1564049201554725,-0.024093574363640038
8.426408767700195,2.062824252589028,1.145299412370273,0.2511100029048584
8.436310768127441,2.0587208795375576,1.134297581450054,0.2842868628031522
8.445368528366089,2.055008303919561,1.1233752953482101,-0.04622228570470327
8.454599142074585,2.051295728301564,1.1125124626850809,0.12158979608300297
8.463156700134277,2.047973950117041,1.1017255018052192,0.1404795812544502
8.471289873123169,2.0444567732157806,1.0910445686235561,0.10614157275786365
8.481269359588623,2.040158001447574,1.0804943788122674,0.059914737441463806
8.490264177322388,2.0364454258295774,1.0700786911006732,0.01792382174984595
8.501728534698486,2.0315604579111604,1.059767598242722,-0.014939939702166213
8.511134147644043,2.027652483576427,1.0495193550940967,-0.03844136353667708
8.519285440444946,2.024330705391904,1.039330253106887,-0.05400154776742527
8.52927303314209,2.0198365349069602,1.029228617532618,-0.06340019926861067
8.538311004638672,2.015928560572227,1.0192220888579524,-0.06826829105452156
8.547209739685059,2.0120205862374934,1.0093009833902147,-0.06993338568007013
8.55731201171875,2.0077218144692868,0.999457032501982,-0.06941154661305693
8.567499876022339,2.003618441417817,0.9896832491253521,-0.06745172576037464
8.578720092773438,1.999124270932873,0.9799737638912267,-0.06459182002550216
8.588378190994263,1.9952162965981397,0.9703237135848009,-0.061210367207974105
8.597728252410889,1.9911129235466698,0.9607290770318225,-0.05756892785869555
8.607262134552002,1.9872049492119364,0.9511864858360997,-0.05384481918818866
8.615264415740967,1.9836877723106763,0.9417078078570974,-0.050155533813427564
8.626373291015625,1.978998203108996,0.9323175291432173,-0.04657655935531011
8.640378713607788,1.972745444173423,0.923006393711303,-0.04315419144713718
8.6507728099823,1.9684466724052159,0.913722433919581,-0.039914650453213615
8.658611536026001,1.9651248942206925,0.9044510850106194,-0.03687051670908191
8.668083429336548,1.9612169198859593,0.8952384543042502,-0.03402524331029258
8.67632794380188,1.9578951417014356,0.8861233437427705,-0.031376301968736586
8.685235738754272,1.9539871673667024,0.877123453926563,-0.02891736278088388
8.695830345153809,1.949492996881759,0.8682249078950384,-0.02663979437881838
8.706188201904297,1.9453896238302888,0.8593874986503479,-0.024533687833616327
8.717248678207397,1.9407000546286088,0.85059148529834,-0.02258854799595259
8.727275848388672,1.9367920802938754,0.8418345308749746,-0.020793753431357517
8.735264301300049,1.9330795046758789,0.8331149689209708,-0.019138855970717385
8.743231296539307,1.9295623277746186,0.8244317605675379,-0.017613769623440426
8.752454996109009,1.9256543534398853,0.8157844923908796,-0.0162088836252077
8.761251449584961,1.9219417778218884,0.8071733773055962,-0.014915123875478982
8.769262552261353,1.9184246009206285,0.7986121607170382,-0.013723979643664633
8.779062271118164,1.9143212278691581,0.7901257142840371,-0.2886658669357658
8.789384603500366,1.9102178548176882,0.7817219616053093,-0.04474292203236653
8.797884702682495,1.9067006779164282,0.7733945357822634,0.04440769469207328
8.807260751724243,1.9024019061482214,0.7651381638245616,0.06625011222884976
8.817610740661621,1.8981031343800145,0.7569486101209862,-0.21456413073020822
8.827266216278076,1.8941951600452813,0.7488226343077417,-0.2608659829592083
8.836329460144043,1.8904825844272846,0.740769943584936,-0.21972710165414916
8.847930669784546,1.8854022177921312,0.7327990181948515,-0.15561196637921768
8.85526418685913,1.882471237041081,0.7248931423686988,-0.09441300943170708
8.863276720046997,1.8791494588565578,0.7170501688989631,-0.32068626729100574
8.87289047241211,1.8754368832385613,0.7092921479219207,-0.3166470644387816
8.88027572631836,1.8721151050540379,0.7016259973643503,-0.23541493300613103
8.889264106750488,1.868207130719304,0.6940570980078548,-0.1419358043466432
8.901299238204956,1.8627359666506773,0.6865900090778295,-0.06057094737328672
8.91148853302002,1.8584371948824707,0.6792062177812859,0.002160642660670578
8.922250509262085,1.8541384231142637,0.6718902474157685,0.04694739092172137
8.930732488632202,1.8506212462130038,0.6646510848972714,0.07688304927131584
8.9387366771698,1.8472994680284807,0.6575174661294372,0.0954262849916861
8.95273494720459,1.8412421078096437,0.6504924041125436,0.10563283041872215
8.964241743087769,1.8363571398912268,0.6435364668887378,0.38598648365373295
8.9753098487854,1.8318629694062836,0.636627214578407,0.41939011400575826
8.98526382446289,1.8277595963548137,0.6297671365778563,0.0858581061759219
8.995266675949097,1.8236562233033433,0.6229588192655413,-0.027448033256239693
9.006688117980957,1.8187712553849267,0.6161954389700848,-0.04798390017322431
9.014253854751587,1.81564487591714,0.6094717675856495,-0.03417011782398954
9.024363040924072,1.8113461041489332,0.6027936952193551,-0.011510325643525533
9.032347679138184,1.8080243259644098,0.596166684418477,0.009830645096015042
9.04095983505249,1.8045071490631495,0.5896136528643429,0.026574203149976737
9.0497305393219,1.800794573445153,0.5831629158987449,0.03833722785109962
9.058359861373901,1.7968865991104195,0.5768284869834316,0.04580149938511525
9.067528247833252,1.7931740234924227,0.5706125948075312,0.0499137428152846
9.076642274856567,1.7896568465911629,0.5645074842597997,0.051566342030509846
9.085160493850708,1.7863350684066395,0.5585145185969441,0.05149414585332081
9.0972261428833,1.781254701771486,0.5526259878179027,0.05026235308312384
9.105239629745483,1.7775421261534892,0.5468262673679833,0.048288062599318254
9.113315105438232,1.7742203479689658,0.541118600910029,0.04587034629250521
9.123852729797363,1.7699215762007592,0.535497418612062,0.04321876881344823
9.131356477737427,1.766990595449709,0.5299494130709315,0.040477062532138154
9.140205144882202,1.7630826211149755,0.5244871195431051,0.03774153421961916
9.150505065917969,1.7587838493467687,0.519120860142926,0.035074847181807395
9.158384084701538,1.7552666724455086,0.5138428593113827,0.0325160994054772
9.166553020477295,1.751554096827512,0.508653747815681,0.030088076955911154
9.174574136734009,1.7480369199262518,0.5035612070268465,0.027802415403556394
9.183172702789307,1.7447151417417284,0.4985709260130204,0.025663240770178418
9.194377183914185,1.740220971256785,0.4936794418043124,0.023669719215774005
9.202602863311768,1.7368991930722617,0.4888756597456147,0.021817830417659875
9.211238145828247,1.7333820161710016,0.4841569842318038,0.020101592273561095
9.223117589950562,1.7281062508191116,0.4795208547102493,0.018513899780284532
9.233239889144897,1.7240028777676415,0.47495036081463216,0.017047093762885216
9.241252422332764,1.720681099583118,0.470444955156251,0.015693341208789683
9.250266313552856,1.7169685239651216,0.4660249934518726,0.2904832444393604
9.261229991912842,1.7122789547634414,0.461693003639536,0.3224571646068731
9.269238710403442,1.708761777862181,0.4574364861013818,0.26629980742097453
9.279046058654785,1.7046584048107114,0.45324455703354893,0.18923847910352323
9.28786015510559,1.701141227909451,0.44910786242326767,0.11781686271284206
9.300420045852661,1.695865462557561,0.4450119081802883,0.06036753832417288
9.313504695892334,1.6903942984889342,0.44093173240374195,0.017608253134158675
9.321927547454834,1.686877121587674,0.4368469813562974,-0.01250787428535257
9.329219579696655,1.6837507421198874,0.4327604420810111,-0.03268074620174703
9.338553667068481,1.6798427677851542,0.42868769379708377,-0.04542687522749544
9.35105562210083,1.674567002433264,0.4246298323691568,-0.05281470602485703
9.359211206436157,1.6712452242487406,0.4205818546380834,-0.0564397004689509
9.368257999420166,1.6675326486307438,0.4165521453070497,-0.05748703625716754
9.378940105438232,1.6630384781458003,0.4125480971613543,-0.05681552772346772
9.386240482330322,1.6599120986780134,0.4085759316480042,-0.05503635160675221
9.396222114562988,1.6556133269098068,0.4046468390732024,-0.052578113771263854
9.406661987304688,1.651509953858337,0.40075854134526534,-0.04973734588571504
9.415242195129395,1.6479927769570768,0.39690317476888387,-0.04671630107179234
9.423537731170654,1.6444756000558167,0.39308563269810853,-0.04365060998863375
9.431681156158447,1.6407630244378202,0.389310094801694,-0.04062921679276439
9.439220428466797,1.6374412462532968,0.38557985915711906,-0.03770860162228087
9.449229001998901,1.6333378732018264,0.38190306819292663,-0.0349228506388761
9.45939302444458,1.6290391014336199,0.3782807915216967,0.24374761527582867
9.468553066253662,1.625326525815623,0.37470819713813824,0.2793422398125551
9.477245092391968,1.6216139501976263,0.37118630532603786,-0.049487001792889174
9.485672950744629,1.6180967732963663,0.36772095822240486,-0.15655096869082696
9.493239879608154,1.6149703938285795,0.3643114690866684,-0.16998575179802958
9.502374410629272,1.6112578182105828,0.36095171887592276,0.12735885976599587
9.511216878890991,1.6073498438758493,0.35764143675090077,0.19071229422111352
9.521276712417603,1.6032464708243792,0.35438523467628325,-0.11164349010862606
9.52927541732788,1.599924692639856,0.3511815801826825,-0.19693196230448576
9.542434930801392,1.594453528571229,0.34801891625868725,0.0822815929503408
9.551206350326538,1.5907409529532324,0.3448873982834696,0.148788486751814
9.560634851455688,1.5866375799017622,0.3417885593071054,0.1323820639019591
9.568931579589844,1.5831204030005024,0.3387237024928781,0.09080618866506221
9.577190637588501,1.5796032260992423,0.3356890121724878,0.04793549179049076
9.586484670639038,1.5751090556142986,0.33268131213409313,0.012218068853370772
9.596276998519897,1.5712010812795654,0.32969799850995535,-0.01455630634414744
9.606548547744751,1.5670977082280952,0.3267369717480891,-0.03318921320579242
9.616235494613647,1.5633851326100987,0.32379658789762755,-0.04526204440122403
9.626952648162842,1.5588909621251552,0.32087560813334703,-0.0523855487721083
9.63532304763794,1.555373785223895,0.3179731437773451,-0.05593327748974833
9.643947124481201,1.5516612096058984,0.3150929626662759,-0.05698433866080851
9.653265714645386,1.5475578365544282,0.3122427220695108,-0.056347959195428836
9.662078142166138,1.5442360583699049,0.3094244970196883,-0.05461296043322582
9.67121148109436,1.5403280840351714,0.3066397796283522,-0.052198500497045594
9.680181980133057,1.5368109071339113,0.30389393473253,-0.04939761944481099
9.68922472000122,1.5327075340824412,0.3011870993754355,-0.046411706759750454
9.698075294494629,1.528799559747708,0.29851501103282735,-0.043376596817964436
9.708194494247437,1.5245007879795012,0.29587400425012217,-0.040381797086616614
9.71852731704712,1.5203974149280313,0.2932609691508431,-0.03748440762693325
9.726454496383667,1.5168802380267712,0.29067329708756184,-0.03471907538058244
9.734215021133423,1.5135584598422478,0.2881127435322901,-0.03210504977919437
9.743685245513916,1.5096504855075141,0.2855846813312444,-0.029651149184334417
9.751220226287842,1.5067195047564643,0.2830934399387515,-0.02735923616446117
9.761185646057129,1.5024207329882575,0.2806424074885087,-0.025226635783482713
9.769232034683228,1.499294353520471,0.2782303503401176,-0.023247808515235828
9.779906749725342,1.494995581752264,0.2758521901319751,-0.021415499668035944
9.788300037384033,1.491478404851004,0.2735035532676635,-0.01972152243740806
9.797457456588745,1.4875704305162705,0.27118435770596644,-0.018157285391840108
9.805955648422241,1.4840532536150106,0.26889809649077673,-0.29275250197854374
9.815223217010498,1.4801452792802772,0.2666474785968437,-0.32454658178088946
9.82626461982727,1.4756511087953337,0.2644309837553252,-0.2682232613948655
9.83657956123352,1.4713523370271269,0.2622365802600849,-0.1910088898848628
9.845880508422852,1.46705356525892,0.2600506976646234,-0.39548458349981086
9.854448318481445,1.4633409896409235,0.2578726181934999,-0.3710299216174787
9.863302946090698,1.4596284140229265,0.2557088425043443,-0.27305371196332895
9.871280193328857,1.4565020345551398,0.25356486805882755,-0.16674239921733267
9.881197690963745,1.45239866150367,0.2514452584695445,-0.07594542390690626
9.890182256698608,1.4486860858856732,0.24935044875155907,-0.006484145472818156
9.900598049163818,1.4443873141174666,0.2472741938924298,0.042987205410279304
9.910208225250244,1.4402839410659962,0.24521127359448458,0.35214475616781926
9.918859720230103,1.4365713654479997,0.24316702128040651,0.40591723188844997
9.926962852478027,1.433249587263476,0.2411491385388291,0.36236793627754127
9.936251163482666,1.4293416129287426,0.2391576221401227,0.29140698122868247
9.948572874069214,1.424456645010326,0.23718615584667063,0.22160516952527273
9.957279920578003,1.4207440693923294,0.23522942489577472,0.16277968416847216
9.968437433242798,1.4158591014739124,0.23328616227161186,0.11671206190304684
9.977275371551514,1.411951127139179,0.23135541720546987,0.08210477504063193
9.986187934875488,1.408433950237919,0.2294394192329631,0.056777843381444246
10.000727415084839,1.402571988735819,0.22753438715603805,0.038569968992240806
10.008819580078125,1.3992502105512956,0.22563142290156735,0.025651087550077344
10.017350912094116,1.3957330336500358,0.22373475970511655,0.016582036260250902
10.025197505950928,1.3926066541822488,0.2218538986848538,0.010276765589454298
10.036247730255127,1.3881124836973056,0.21998840247264695,0.005936112518343219
10.046234607696533,1.3838137119290987,0.21813503895080555,0.002981557047595223
10.055627584457397,1.3799057375943653,0.21629668292685114,0.000998911859038447
10.063218355178833,1.3763885606931052,0.2144785287486873,-0.0003060625751154476
10.072203159332275,1.3726759850751085,0.2126875198203596,-0.0011412091329410041
10.081505060195923,1.3689634094571117,0.2109293220840813,-0.001652698759053316
10.0900559425354,1.365250833839115,0.2092031184249151,-0.001942955439057341
10.100494623184204,1.3607566633541714,0.20750278426721738,-0.00208351087592839
10.109730243682861,1.357044087736175,0.20582050312353092,-0.0021241548490705843
10.118550300598145,1.3531361134014415,0.2041522978278958,-0.002099415117732951
10.12650728225708,1.3500097339336545,0.20249745763819807,-0.0020331294011274766
10.136075496673584,1.3459063608821848,0.20085789090249778,-0.0019416626105672975
10.144649505615234,1.3425845826976612,0.19923766354243372,-0.001836166253106637
10.152178049087524,1.3394582032298745,0.1976400913868089,-0.0017241626879576216
10.161280870437622,1.3357456276118778,0.1960678117907807,-0.0016106545270657708
10.173240423202515,1.3304698622599875,0.19452048120786805,-0.001498900582562742
10.18225884437561,1.3265618879252543,0.19299526547821497,-0.0013909579382949963
10.191222190856934,1.3226539135905209,0.19148969429282192,-0.0012880601397877306
10.200738668441772,1.3189413379725243,0.18999935573672874,-0.001190880641607637
10.209197998046875,1.315619559788001,0.18852053105656605,-0.0010997159731944007
10.219030141830444,1.3115161867365306,0.18705469071303577,0.2750237469034834
10.229141235351562,1.307217414968324,0.18560311629703324,0.3082275072151388
10.238271951675415,1.3035048393503272,0.18416463197718796,0.2532036787549874
10.247344732284546,1.2997922637323305,0.18273827126992165,0.17718664997275643
10.255140781402588,1.2966658842645435,0.18132539815681464,0.10672680635567676
10.265557765960693,1.2919763150628636,0.17992718897916965,0.05016302497278266
10.273372411727905,1.2884591381616035,0.17854244830587035,0.008218937792406268
10.283061027526855,1.2849419612603434,0.17717224714411897,-0.021146858544003475
10.29324221611023,1.2804477907754,0.17581749181746073,-0.040629181622223454
10.301183938980103,1.2771260125908765,0.17447681907752602,-0.05273983474695442
10.31016755104065,1.2732180382561433,0.17315108911152197,-0.059542908036066294
10.319032669067383,1.2697008613548835,0.17184300325963725,-0.06262984179667475
10.329148769378662,1.2652066908699398,0.17055273962205744,-0.06318210311304276
10.337177753448486,1.261494115251943,0.16927836305190067,-0.062055085014875666
10.346846103668213,1.2575861409172095,0.1680182054599905,-0.05985681136377139
10.356212377548218,1.2536781665824763,0.16677084335510758,-0.05701298368193261
10.364398717880249,1.250747185831426,0.16553507843314372,-0.05381745905754015
10.372648477554321,1.2474254076469027,0.1643117893887553,-0.05047002818764282
10.381359338760376,1.2435174333121695,0.16310357576040374,-0.04710405503370832
10.391746997833252,1.2388278641104893,0.16191068903317626,-0.04380639750311031
10.400926113128662,1.2353106872092292,0.16073141213074105,-0.04063161576398297
10.409179449081421,1.2319889090247058,0.15956608263218605,-0.03761202917109217
10.418174266815186,1.2282763334067093,0.15841854414174295,-0.0347647925177491
10.428094387054443,1.2239775616385025,0.15729190415197689,-0.032096849998975864
10.437165260314941,1.220069587303769,0.15618501675279992,-0.029608387070016697
10.447742462158203,1.2153800181020888,0.1550932568962659,-0.02729522388070301
10.45886492729187,1.210495050183672,0.1540109486620767,0.25088789415177337
10.467498302459717,1.2069778732824121,0.15293509368456334,0.28599733080898
10.476173877716064,1.2036560950978887,0.15186665661609905,-0.04330407854987364
10.48418927192688,1.2003343169133653,0.15080817030046423,-0.15082050392641827
10.492257595062256,1.1970125387288422,0.14976007235476885,0.11135416208674082
10.500140190124512,1.1938861592610552,0.1487226747631408,0.16538156336112686
10.509400606155396,1.1897827862095849,0.1476978655389908,0.14013576038713796
10.518214225769043,1.1860702105915883,0.1466871553151401,0.09247905908556772
10.527137994766235,1.1823576349735918,0.145691713129352,0.04555107306081793
10.537362813949585,1.1780588632053848,0.1447108109313458,0.007227437823206968
10.545971393585205,1.1743462875873882,0.14374214161915036,-0.021130835019757696
10.557773351669312,1.1692659209522347,0.14278217296296092,-0.04063861931120926
10.566542863845825,1.1655533453342382,0.14182639438712974,-0.053102403841919915
10.57724380493164,1.1612545735660311,0.1408726447132159,-0.06029267254280057
10.585137128829956,1.1581281940982444,0.13992226799362842,-0.06369520602277502
10.594165325164795,1.1540248210467743,0.13897796713994784,-0.06446726492810266
10.60215973854065,1.150703042862251,0.1380405261849095,-0.06347201264931777
10.612159967422485,1.1467950685275177,0.13710911161153766,-0.06133511995037938
10.621296405792236,1.143082492909521,0.13618305462418054,-0.05850060720951199
10.631762266159058,1.1387837211413143,0.1352618331321397,-0.055278010949457376
10.639207363128662,1.135852740390264,0.1343464823541917,-0.05187940895426135
10.647216081619263,1.1321401647722673,0.13344074879135756,-0.04844731458394262
10.657855033874512,1.1276459942873238,0.1325463242164579,-0.04507516582415433
10.667038440704346,1.1237380199525906,0.13166030123878206,-0.041822125825456705
10.676127195358276,1.1198300456178572,0.13078159735038597,-0.03872365093771733
10.684956312179565,1.1161174699998604,0.1299121011122208,-0.3118373321118042
10.696118831634521,1.111623299514917,0.12905197273223193,-0.34221932045061115
10.704837083816528,1.1079107238969204,0.1281999158873497,-0.008524134388077531
10.712141752243042,1.1047843444291336,0.12735616963939522,0.10306574641384675
10.723149299621582,1.1000947752274535,0.12652225579716836,-0.15533950706623664
10.7352135181427,1.0950144085923001,0.12569672374167484,-0.2058837618603927
10.744808435440063,1.0913018329743032,0.12487433668928034,-0.17742276152444253
10.75375771522522,1.08739385863957,0.12405205597569802,-0.1268005859621986
10.762993574142456,1.0834858843048365,0.12323134906703669,-0.07713911830232814
10.773446321487427,1.0793825112533664,0.12241351111576035,-0.31233536770151904
10.781115293502808,1.0764515305023163,0.12159964389443899,-0.31478213051672344
10.789854526519775,1.072543556167583,0.12079197296362351,-0.2380412881507848
10.799139261245728,1.0686355818328495,0.11999107066874747,-0.147526301508227
10.808212280273438,1.0645322087813796,0.1191961110011141,-0.06800357225256165
10.81851315498352,1.060038038296436,0.11840638706710158,-0.006313625567104783
10.826156377792358,1.057107057545386,0.1176212987227638,0.0379888387674067
10.834609746932983,1.053589880644126,0.11684157362923552,0.06781919949609115
10.842486143112183,1.0502681024596026,0.11606904483840914,0.08650794393127945
10.851145029067993,1.0467509255583425,0.11530520420198097,0.09702013115014763
10.86165189743042,1.042256755073399,0.11455001360205153,0.10173790979999048
10.869154214859009,1.0389349768888756,0.11380214196467255,0.10247265602942733
10.881133317947388,1.033854610253722,0.11306162771875679,0.10055559216365051
10.889139652252197,1.0307282307859356,0.11232846043595657,0.0969422204757554
10.902737379074097,1.0252570667173089,0.11160016979363127,0.09230587164408581
10.910200357437134,1.0223260859662586,0.11087465014649513,0.0871133599903691
10.920145988464355,1.0180273141980518,0.11015252209289728,0.08168298080233835
10.928815364837646,1.0141193398633186,0.10943431075634377,0.07622758454437276
10.938115358352661,1.0104067642453218,0.10872043033836071,0.0708859270643393
10.947540521621704,1.0064987899105884,0.10801121054478875,0.06574517726718755
10.956223249435425,1.0029816130093283,0.10730572132407515,0.06085692007822298
10.969265699386597,0.9973150502239649,0.10660316576240834,0.0562484513340559
10.980264902114868,0.9928208797390216,0.10590170978454405,0.051930702114476715
10.990177154541016,0.9891083041210248,0.10519982351835631,0.04790376850818113
11.0026216506958,0.9840279374858714,0.10449626735709898,0.044160749692530823
11.010172128677368,0.9809015580180845,0.10379004270394183,0.0406903960180149
11.019693851470947,0.9767981849666146,0.1030826688619303,0.03747892296493606
11.028333187103271,0.9728902106318811,0.10237547745720381,0.03451124227648236
11.036640882492065,0.9695684324473578,0.10166960096894091,0.3078101468316061
11.04624056816101,0.9656604581126244,0.1009671249580076,0.33840801852896935
11.056762218475342,0.961166287627681,0.10026865117249664,0.004943306122643848
11.06480097770691,0.9576491107264208,0.09957353123653465,-0.10641222300261954
11.073132276535034,0.9543273325418974,0.09888232713314807,-0.12381409790160605
11.082536935806274,0.949833162056954,0.09819548077076243,-0.1061707707341147
11.090152978897095,0.9469021813059041,0.09751219154952341,-0.0793210714141615
11.098580121994019,0.9435804031213805,0.09683288041550696,-0.0536565102749701
11.112013816833496,0.9383046377694905,0.09615675915149542,-0.03260595212317064
11.121216058731079,0.9345920621514938,0.09548089642449453,0.2593889221220745
11.133199214935303,0.9295116955163404,0.09480394817972758,0.3039978132986345
11.14480972290039,0.9244313288811868,0.0941248149051746,0.25682475484392797
11.153980731964111,0.9209141519799268,0.09344261204818063,0.18597889265627393
11.164124488830566,0.9166153802117202,0.09275887411687188,0.11873935477037316
11.175146341323853,0.9121212097267768,0.09207493845729145,0.06401169325067703
11.183224439620972,0.9087994315422533,0.09139195037488998,0.0229429712906295
11.191192150115967,0.9054776533577299,0.0907119847828166,-0.0061998306143029695
11.20269250869751,0.9007880841560499,0.09003456635663756,-0.02589095593209296
11.210283041000366,0.8976617046882631,0.08935817021544946,-0.038486636107311165
11.21886134147644,0.8937537303535298,0.0886848047010799,-0.04594256408008536
11.229235172271729,0.8896503573020595,0.08801614612706452,-0.049775554759851195
11.239943504333496,0.8849607881003796,0.08735027729531862,-0.051116384744991236
11.250116348266602,0.8808574150489095,0.08668556113773696,-0.05078658467232198
11.259387254714966,0.8771448394309127,0.08602171317251164,-0.04937206471873414
11.270112037658691,0.8726506689459693,0.08535849762808038,-0.04728455897812728
11.278122663497925,0.8693288907614459,0.0846968064882657,-0.04480956319709477
11.289921522140503,0.8644439228430292,0.08403739228379657,-0.04214233006305289
11.29913592338562,0.8605359485082957,0.08337871745865409,-0.03941426283601006
11.307135820388794,0.857409569040509,0.08271949710901533,-0.036711968650156884
11.315644979476929,0.853892392139249,0.08206083240508324,-0.034090865655060365
11.323965787887573,0.8505706139547256,0.08140474079918578,-0.03158482540464171
11.335201263427734,0.8458810447530456,0.08075077533068342,0.24682539457802982
11.344675064086914,0.8417776717015754,0.080097479479388,0.006140194545400088
11.353249311447144,0.8378696973668419,0.07944682493732996,-0.07999886538182874
11.362093210220337,0.8343525204655821,0.07880151872210343,-0.09904766042433974
11.371129035949707,0.8306399448475852,0.07816167149739221,-0.09168554719074246
11.38075065612793,0.8267319705128519,0.07752627594405408,-0.07611769644034622
11.391141653060913,0.8222378000279084,0.07689445486785379,-0.059952077494891794
11.399122714996338,0.818916021843385,0.07626649419489397,-0.04594601986030629
11.410879850387573,0.8140310539249681,0.07564261632832724,-0.03474513968006149
11.42085886001587,0.8097322821567615,0.07502089709868046,0.24987960748053287
11.43314003944397,0.8048473142383447,0.07439971023582308,0.28943122287978745
11.44534182548523,0.7997669476031912,0.0737777231090291,0.23908130825141477
11.454122543334961,0.7962497707019311,0.07315385288516282,0.1664806090346267
11.462124109268188,0.7927325938006711,0.07252929486125485,0.09851152272310952
11.471093893051147,0.7892154168994111,0.0719051057111511,0.04376580389357068
11.479771614074707,0.7855028412814143,0.07128118786343039,0.0031545063241516687
11.488715648651123,0.781594866946681,0.07065749476851042,-0.025227215137262164
11.499813556671143,0.7769052977450008,0.07003302596934537,-0.0439757594325393
11.509115934371948,0.7726065259767941,0.06940698476557246,-0.05553248815103734
11.51904845237732,0.7686985516420607,0.06878075114252526,-0.061911283939472046
11.529090881347656,0.7645951785905907,0.06815553583254792,-0.06466787871740338
11.540151834487915,0.7602964068223839,0.0675313947878404,-0.06495835721742693
11.549773693084717,0.7563884324876504,0.06690840283794566,-0.06362005507442388
11.559501647949219,0.7520896607194437,0.06628665142324716,-0.061248122310643784
11.567124843597412,0.748963281251657,0.06566720927705015,-0.058259050244350616
11.576773166656494,0.7450553069169236,0.06505099868141274,-0.05494007441230178
11.585129737854004,0.7417335287324003,0.06443783283883782,0.22455216559577196
11.594157695770264,0.7382163518311402,0.0638285079932825,0.26113568540123927
11.603175401687622,0.7343083774964068,0.06322369765082558,-0.0666202593650595
11.612111568450928,0.7305958018784101,0.0626239390082955,-0.17258207942681966
11.623134136199951,0.7259062326767299,0.06202967198402729,-0.18492246056882217
11.63149642944336,0.7219982583419965,0.061440304203609575,-0.16255299643496962
11.639125347137451,0.7188718788742098,0.06085715712401518,-0.13130652435040413
11.64713430404663,0.7157454994064231,0.06028223557315703,-0.10156280710959167
11.65814733505249,0.7112513289214797,0.05971442610891426,-0.07673552951895027
11.66852617263794,0.7071479558700097,0.05915093040925869,-0.05728770188358179
11.67739462852478,0.7032399815352761,0.058590294905221205,-0.04257969196201482
11.688334703445435,0.6991366084838061,0.05803221721633431,-0.031681468925738906
11.696965217590332,0.6954240328658093,0.05747734062220129,-0.02370048201639687
11.708724737167358,0.6907344636641293,0.0569262244417479,-0.017890826868472456
11.717054843902588,0.6870218880461326,0.056378458815046155,-0.013669485103468434
11.72508692741394,0.6835047111448725,0.055834562312368184,-0.01059760136179399
11.733254432678223,0.6803783316770857,0.055294982817211576,-0.2843906894769447
11.742752075195312,0.6766657560590891,0.05475923954821844,-0.31586256383565803
11.751111268997192,0.6729531804410924,0.054227774216844465,-0.2595370004706984
11.761149644851685,0.6686544086728856,0.05370179591671537,-0.18252807519233674
11.769148349761963,0.6651372317716254,0.05318147713194156,-0.1113004662784669
11.778630495071411,0.6610338587201554,0.05266611966387139,-0.33017044101094356
11.786056280136108,0.6581028779691054,0.0521551333594096,-0.044827777828829046
11.794153690338135,0.6549764985013187,0.05164881905608357,0.0731558224124482
11.802238702774048,0.6516547203167954,0.05114901114684587,0.11395505047188387
11.812208890914917,0.6477467459820617,0.050656423993195476,0.1207815967518578
11.820115804672241,0.6444249677975383,0.05017001428587634,0.11392251654465102
11.82815432548523,0.6409077908962785,0.04968964908388146,0.10259281964940216
11.83914852142334,0.6362182216945983,0.04921519588766817,0.09074511275494496
11.849060773849487,0.6321148486431284,0.04874573370966979,0.07989272959757683
11.858409643173218,0.6282068743083947,0.048280471209054175,0.07046408072832373
11.866112470626831,0.6250804948406082,0.047818737486486546,0.06243974861618527
11.875107049942017,0.621563317939348,0.04736071320041463,0.05564295261778975
11.884105205535889,0.6176553436046146,0.04690729005278315,0.049865099056354396
11.892270803451538,0.6139427679866178,0.04645846125171629,0.04491475594757677
11.901121139526367,0.6102301923686212,0.046014191939781623,-0.2354059003549046
11.910083055496216,0.6067130154673611,0.045575163883517074,0.003766717353414481
11.91980791091919,0.603195838566101,0.0451411999830374,0.08868981164171333
11.931557893753052,0.5981154719309476,0.04471069889914042,0.10674489373428495
11.93920087814331,0.5951844911798975,0.04428301488156684,0.09855707157743238
11.947880268096924,0.5918627129953741,0.0438597255515157,0.08229203560311471
11.956157445907593,0.5883455360941141,0.04344214085437135,0.0655289891874629
11.967214345932007,0.583655966892434,0.043029935643697455,0.05100421435846579
11.976090669631958,0.5797479925577007,0.042622108951380945,0.03934781962549941
11.984119892120361,0.5762308156564405,0.042218479497546736,0.03035758444726583
11.99411654472351,0.5721274426049705,0.04181889537415259,0.023569706316113423
12.004636526107788,0.5678286708367637,0.041421886526927396,0.01849784752328007
12.012078046798706,0.5645068926522403,0.04102622992092231,0.014720225957744425
12.021148443222046,0.5609897157509803,0.040632243783395035,0.011900454165337498
12.029168367385864,0.5576679375664568,0.04024022806342614,0.00978206119051124
12.037189245223999,0.5543461593819334,0.03985108134731114,0.008174622125830172
12.046340227127075,0.5506335837639368,0.039466842037413526,0.006939028177025278
12.055061340332031,0.54692100814594,0.039088550561504336,0.005974662867594542
12.064111709594727,0.54340383124468,0.038716393362966645,0.0052091666344996
12.073963642120361,0.5391050594764732,0.03834985715528029,0.004590640528688798
12.08681035041809,0.5342200915580564,0.03798724861763361,0.2801202307562664
12.094202995300293,0.5307029146567964,0.03762714497863173,0.31281908985217705
12.103121995925903,0.5269903390387995,0.03726958046591616,0.25735984121728506
12.11359977722168,0.5224961685538563,0.03691400696335702,0.1809626210390335
12.124053716659546,0.5183927955023862,0.03655879282955606,0.11016729440525605
12.132117986679077,0.5150710173178628,0.03620321133998759,0.053304882020383956
12.143083572387695,0.5105768468329194,0.035846734235722405,0.011093067792463843
12.1537184715271,0.5062780750647126,0.0354884147097331,-0.018514125939049164
12.162622690200806,0.5027608981634525,0.03512810608332904,-0.038215095550496375
12.171063661575317,0.4992437212621924,0.034766883984449666,-0.050524495622551346
12.180102348327637,0.49553114564419576,0.034406265771837044,-0.057508730341641084
12.189019680023193,0.4916231713094623,0.0340475566905139,-0.06076115245643255
12.200889110565186,0.48673820339104557,0.033691338885215714,-0.06146483688138908
12.211081266403198,0.4826348303395755,0.033337064700368936,-0.060476549686773774
12.219216585159302,0.4793130521550521,0.03298432505212662,-0.05840550360145856
12.227452278137207,0.475795875253792,0.032633885600477336,-0.055678441866340335
12.235504627227783,0.47227869835253194,0.032286961880361155,-0.052590143519268606
12.24502682685852,0.4681753253010619,0.031944146930193776,-0.049341221946846925
12.25507140159607,0.4638765535328551,0.03160552852930375,0.229972579547326
12.265025854110718,0.45938238304791174,0.03127128150349271,0.26631161945923887
12.275144815444946,0.4554744087131783,0.030941649780208826,-0.0617257305536901
12.288039922714233,0.45058944079476154,0.0306165530300967,-0.1679861131747109
12.297048091888428,0.4470722638935015,0.030295651825616707,0.09540935343911638
12.308939695358276,0.4417964985416114,0.029978813717653232,0.15060559293011833
12.32132887840271,0.43671613190645797,0.02966606886338081,-0.14957123100956107
12.330057144165039,0.4331989550051979,0.029358177107978237,0.04672698930402355
12.340040683746338,0.4290955819537278,0.029056461546714984,0.08899442845731675
12.350073337554932,0.4247968101855211,0.028761700924475296,0.07256520949636588
12.35953688621521,0.420693437134051,0.028474194473744382,0.039486435711256006
12.368771314620972,0.4169808615160543,0.028194130944848426,0.006857635063382744
12.379322528839111,0.4122912923143742,0.02792158118403102,-0.01950909373198491
12.388104677200317,0.40857871669637746,0.02765650363953779,-0.03861564779493213
12.396728038787842,0.4050615397951174,0.027398751776852324,-0.05129079254846759
12.40403413772583,0.4021305590440673,0.02714838796051898,-0.058871256490728975
12.413768291473389,0.39841798342607065,0.026905648326586915,-0.0626644899847184
12.422975301742554,0.3945100090913372,0.02667029383561972,-0.06376554703077633
12.434086084365845,0.3900158386063938,0.02644167940359302,-0.06302533585745662
12.443024396896362,0.38630326298839707,0.026219128240795055,-0.06107657241017199
12.451030492782593,0.3829814848038737,0.026002280695556528,-0.05837600131666931
12.460381984710693,0.37907351046914023,0.02579071781952741,-0.05524594465312649
12.470056772232056,0.3747747387009336,0.025583653650351534,0.22412900661253
12.478899478912354,0.37106216308293677,0.02538067643805971,-0.015392694237204185
12.487069606781006,0.36774038489841343,0.02518134573716926,-0.1002669218971118
12.496085405349731,0.36402780928041667,0.024984875249611686,-0.11801535687173415
12.505115032196045,0.3605106323791566,0.024790898755162882,0.16667746000464417
12.514704942703247,0.3566026580444232,0.024599407963666723,0.21662623557175067
12.526353597640991,0.35152229140926977,0.024409629814353684,-0.09714071202601927
12.534443378448486,0.3482005132247464,0.024220519397874264,-0.1912043542162845
12.542089700698853,0.34526953247369635,0.02403189466801648,0.08168137188009225
12.55104112625122,0.34155695685569953,0.023843952840350006,0.1438579704652121
12.560810565948486,0.3378443812377029,0.02365685278377416,0.12464638061490851
12.570032119750977,0.33393640690296944,0.023470354140452714,0.08138223959269048
12.58103609085083,0.3290514389845527,0.023283887322204783,0.037616777012095336
12.59221601486206,0.32436186978287257,0.023096623072371328,0.001553925455973982
12.603042364120483,0.3198676992979292,0.022907173291468956,-0.02519539066011206
12.611301898956299,0.3165459211134058,0.022714768051040495,-0.3195993932932788
12.620593309402466,0.31283334549540903,0.022519881993449332,-0.3643778920864247
12.63095211982727,0.308729972443939,0.022322970906851685,-0.03985816948853943
12.640635251998901,0.3044312006757322,0.022124457534892148,0.0663567714587158
12.651132345199585,0.3001324289075255,0.021925085928150314,0.08130045267699505
12.660468578338623,0.2964198532895288,0.02172517116645454,-0.21299847627972274
12.669101238250732,0.292707277671532,0.021524666413219158,-0.27236238781692007
12.677648544311523,0.28938549948700865,0.021323901670399246,-0.24152973189918797
12.692914724349976,0.28293734183469854,0.021122861613047578,-0.184613629102634
12.704118013381958,0.2784431713497551,0.02092057984950813,-0.40393571207174295
12.713128089904785,0.2751213931652317,0.02071693882841954,-0.38964970686979394
12.725525379180908,0.26965022909660497,0.02051255952206347,-0.298180441782717
12.733046531677246,0.2663284509120815,0.02030739625495793,-0.19565916207777426
12.741055727005005,0.26281127401082144,0.020101780327914962,-0.1067102668648113
12.751002311706543,0.25890329967608805,0.019896679932003447,-0.037751446346430934
12.760586500167847,0.25499532534135466,0.019692694144378766,0.012121411577988794
12.76884126663208,0.2516735471568313,0.019490126223221264,0.04622728960248412
12.777024030685425,0.2483517689723079,0.019289576674370413,0.06822135579946326
12.78822636604309,0.24385759848736446,0.019091667768416327,0.08131788974083928
12.798169612884521,0.2395588267191577,0.018896565600982605,0.08808526217026617
12.807209253311157,0.23584625110116098,0.01870451533129095,0.09047182068512791
12.815006256103516,0.23271987163337426,0.01851622367319287,0.08990864915346766
12.824016809463501,0.2292026947321142,0.01833252434138282,0.0874237633480611
12.835094451904297,0.22470852424717075,0.018153873890035734,0.08374312868926885
12.84300184249878,0.22158214477938404,0.01798066936659987,0.07937186594064564
12.853151082992554,0.21708797429444063,0.017813668441916584,0.0746562984781042
12.861759185791016,0.21357079739318058,0.017653404472043815,0.06982994713368681
12.87394905090332,0.2086858294747638,0.01750001997076238,0.06504697076923702
12.882126569747925,0.20516865257350375,0.017353661384045954,0.060406163008324736
12.891560792922974,0.20126067823877036,0.017214625850860265,0.055968013056281615
12.901401042938232,0.19715730518730026,0.017083173729324552,0.051766751252843864
12.909451484680176,0.1942263244362502,0.01695944526574609,0.04781880616083947
12.921624183654785,0.1891459578010968,0.016843526951930275,0.04412871294353399
12.929060220718384,0.1864103757667834,0.01673545809874729,0.04069322118578722
12.937057733535767,0.18289319886552335,0.016635290597782026,0.037504135877827416
12.946629047393799,0.17878982581405328,0.01654305061973933,0.03455027002469082
12.954973936080933,0.1754680476295299,0.0164586634145906,0.03181877610775362
12.967299938201904,0.17038768099437648,0.01638261462093428,0.029296044485184337
12.976022481918335,0.16706590280985303,0.01631666390714384,0.026968300795930763
12.985162258148193,0.16315792847511965,0.016264278539296483,0.02482199491255524
12.993629932403564,0.1594453528571229,0.016228651679763107,0.022844046181586447
13.002870798110962,0.15573277723912618,0.01620938680823144,0.02102199015841764
13.014461755752563,0.15084780932070943,0.01620397569586382,0.01934405834963151
13.023513317108154,0.14693983498597601,0.016210198323201242,0.017799212881307085
13.031117677688599,0.144008854234926,0.01622605317515063,0.01637715129912055
13.039552927017212,0.14068707605040257,0.016249683086249567,0.015068292013186484
13.047574520111084,0.13756069658261585,0.016279318335259724,0.013863747626934864
13.055356740951538,0.13443431711482912,0.016313278520919,0.28879365077873553
13.063097953796387,0.13111253893030572,0.0163500746485124,0.32089828095109874
13.071112632751465,0.12779076074578233,0.01638848750196632,0.26486251411982104
13.079026937484741,0.12485977999473229,0.016427433310427116,0.18791398498194248
13.087074518203735,0.12134260309347221,0.016465826003061745,0.11659679909776874
13.09730839729309,0.11743462875873882,0.016502657699950678,0.05924400947006775
13.10601258277893,0.11372205314074207,0.01653707949559179,0.016573857352540026
13.114985466003418,0.11000947752274534,0.016568475845310994,-0.013460042872565471
13.123016834259033,0.10688309805495863,0.016596442092873608,-0.03355710843101023
13.13500714302063,0.10199813013654188,0.016620538934086694,-0.04623338546964349
13.147990465164185,0.0965269660679151,0.016640315351622123,-0.05355687534186146
13.157390117645264,0.09261899173318171,0.01665554786026259,-0.05712262216659994
13.1650230884552,0.08949261226539497,0.016666271934926855,-0.058115412367443886
13.174015760421753,0.0859754353641349,0.016672724592287302,-0.0573936954488274
13.189087152481079,0.07952727771182479,0.016675074563109456,-0.055568309106852565
13.199594974517822,0.07542390466035472,0.01667327366038615,-0.053067544906262656
13.207605838775635,0.07210212647583132,0.016667471986596957,-0.05018764369445893
13.216920852661133,0.06858494957457126,0.016658130569321947,-0.047130589870920225
13.229339122772217,0.06350458293941783,0.01664563332374346,0.2320065936243122
13.23909330368042,0.05920581117121108,0.01663025479565218,0.26818307520748774
13.248234033584595,0.05549323555321435,0.016612340390046297,-0.06000387730702206
13.25814700126648,0.05158526121848094,0.016592285505912057,-0.16640192841682225
13.26699423789978,0.04826348303395755,0.016570481339359653,-0.1791715004224787
13.276254653930664,0.044160109982487476,0.016547326269442077,0.11882193420834652
13.28498387336731,0.040642933081227406,0.016523215341884345,-0.0932402781717441
13.29404091835022,0.036734958746494004,0.016498495514584238,-0.1520913455203118
13.304079532623291,0.03263158569502393,0.016473468850978504,-0.1486016252263241
13.313445568084717,0.02872361136029053,0.016448412620316787,0.15212036101423765
13.321654558181763,0.025401833175767132,0.016423581969974916,0.21355015549286904
13.330257415771484,0.02188465627450707,0.016399209576324313,0.1836936014074143
13.33903694152832,0.018562878089983675,0.016375500838826315,0.12791126514366472
13.34906554222107,0.014654903755250269,0.016352633788716035,0.07284453572687907
13.35848355293274,0.011137726853990204,0.016330754926498835,0.3036351355539892
13.366101503372192,0.00840214481967682,0.016309980598490783,0.8550163194824215
13.375108480453491,0.005275765351890096,0.016290403715218973,1.1185666910327314
13.383659601211548,0.002540183317576713,0.01627247697646256,1.7780148894675807
13.394146919250488,-0.0005861961502100108,0.016257837578029625,2.6943492114617333
13.402996063232422,-0.0031263794677867237,0.016249608369084855,3.4869651535256008
13.412691831588745,-0.005861961502100107,0.016251919432605483,4.323341526096067
13.4201078414917,-0.0076205499527301395,0.016268410959949513,4.963017148188133
13.431949853897095,-0.010551530703780192,0.016302906112844393,5.0
13.44286036491394,-0.013091714021356905,0.016360943703045853,5.0
13.450986623764038,-0.0144595050385136,0.01644628592215123,5.0
13.460027933120728,-0.01621809348914363,0.01656001433381952,5.0
13.468721628189087,-0.01758588450630032,0.016703865727407848,5.0
13.476993322372437,-0.019149074240193686,0.016878934197251953,4.979005642350157
13.489054441452026,-0.020516865257350376,0.017085642281164083,5.0
13.49902892112732,-0.021493858841033726,0.017326863169761654,5.0
13.509993314743042,-0.02247085242471708,0.01760531517798085,5.0
13.519318103790283,-0.02305704857492709,0.0179196253930916,5.0
13.527010917663574,-0.023252447291663758,0.018266421201953577,4.898494024864362
13.53597378730774,-0.023447846008400428,0.018642901372593657,4.574755428338744
13.544984579086304,-0.0236432447251371,0.019047257977518446,3.910032836246682
13.55450963973999,-0.023447846008400428,0.019480871005286643,3.490928655723431
13.562020063400269,-0.023447846008400428,0.019946494144154468,3.1886522541560804
13.571053504943848,-0.023252447291663758,0.020447591708223547,2.3910863673030986
13.581010818481445,-0.022666251141453746,0.020994460193121355,2.3849968273186204
13.591654300689697,-0.02188465627450707,0.021612152636150524,2.0542230023376025
13.604412078857422,-0.020712263974087045,0.022348595385747776,1.9331355479847798
13.612146854400635,-0.020126067823877037,0.02324200540155479,1.3272993753680977
13.62162709236145,-0.019149074240193686,0.02430157335641867,0.6645553957631841
13.630482912063599,-0.017976681939773663,0.02555266768037976,0.6535105130412031
13.64008903503418,-0.01660889092261697,0.027043635773686663,0.2944924217188687
13.65005898475647,-0.015241099905460279,0.02882246627152237,-0.11189351448219398
13.658582210540771,-0.013873308888303588,0.030933617932641225,-0.45497584668221336
13.667837381362915,-0.012310119154410226,0.03341545631245072,-0.7070290651157043
13.677008628845215,-0.010746929420516863,0.03629887952877387,-0.8733964486326125
13.685523509979248,-0.009183739686623501,0.03959151723592599,-0.6940440733758932
13.695975542068481,-0.006838955085783458,0.043280874251674685,-0.7051567178910394
13.707519292831421,-0.0042987717682067455,0.047385923903191546,-0.4909874560214508
13.716032266616821,-0.002344784600840043,0.05193650365516902,-0.23907773057895082
13.729058265686035,0.0007815948669466809,0.056960310075368024,-0.02000949093309798
13.738494634628296,0.0033217781845233945,0.06251900212939261,-0.12893742103396705
13.746092319488525,0.005471164068626767,0.06860731269908756,-0.321236562021708
13.754952669143677,0.008011347386203481,0.07512326325386287,-0.22395119770440214
13.767990112304688,0.012310119154410226,0.08201945539878043,0.2268219321519747
13.77731704711914,0.01563189733893362,0.0893383699980726,0.15097264529603127
13.78539776802063,0.018367479373247002,0.09711862887514748,0.19418899269649176
13.794189214706421,0.021493858841033726,0.10537494001998539,0.2652031004090474
13.80203628540039,0.02442483959208378,0.11409656177046147,0.32849296927181926
13.810232877731323,0.028137415210080514,0.12327799352825507,0.09729028283108543
13.817986249923706,0.03106839596113057,0.13291430261439227,0.09006038029105118
13.825964212417603,0.034194775428917294,0.14294689887650916,0.15524267108617798
13.835148096084595,0.03790735104691403,0.1533881165324419,-0.046544218847587124
13.84614872932434,0.04259692024859412,0.16434037064098322,-0.01935878558375006
13.854659080505371,0.046309495866590854,0.1758331680466213,-0.47545391050076957
13.862861394882202,0.0498266727678509,0.1878306317095312,-1.2708402141704669
13.872673511505127,0.05373464710258431,0.20033610583866798,-2.009104797131273
13.87994384765625,0.05627483042016103,0.21335034852595924,-3.1166733770530284
13.888925313949585,0.059987406038157755,0.22683781256125524,-3.8192813736077706
13.897626638412476,0.06369998165615451,0.24080202652977353,-4.212165166489593
13.904959917068481,0.06663096240720455,0.25527839478121517,-4.65616222282206
13.91358470916748,0.06995274059172794,0.27025540510526685,-4.976384362608538
13.920939683914185,0.07288372134277801,0.28564421901010184,-5.0
13.930067539215088,0.0767916956775114,0.30136410155985544,-5.0
13.942160844802856,0.08128586616245481,0.3174500218587838,-4.981177342605739
13.949960947036743,0.08460764434697822,0.3339609849977833,-4.845837245367175
13.957970142364502,0.08773402381476494,0.3508318077723459,-4.640543104029662
13.97187876701355,0.09340058660012837,0.3680338408809225,-4.396043130098103
13.981315851211548,0.09750395965159846,0.3856750377755186,-4.132621355557045
13.98937201499939,0.10063033911938518,0.40376859218553446,-3.587527082437068
13.998939990997314,0.10453831345411858,0.4222135054115557,-3.2882902113571024
14.007953882217407,0.10805549035537865,0.44095135721294604,-3.0856149467027882
14.016611576080322,0.11196346469011205,0.4599596765888723,-2.9155134402415
14.026984691619873,0.11587143902484545,0.47921229733573056,-2.7532338088630306
14.03595495223999,0.1195840146428422,0.4986485682182309,-2.591267145516812
14.045932054519653,0.12368738769431226,0.5181797839623888,-2.429079718166613
14.055880308151245,0.12779076074578233,0.5377581529398748,-2.2684878593856372
14.065932989120483,0.1318941337972524,0.5573703385806867,-2.1117003725396475
14.073967933654785,0.13521591198177582,0.576999885966653,-1.960587111487045
14.082033634185791,0.13814689273282588,0.5966276034155643,-1.816485425402104
14.090017795562744,0.14146867091734927,0.616175226992831,-1.680222961707953
14.101097822189331,0.14557204396881931,0.6355449969577878,-1.5522119201851037
14.108990907669067,0.14889382215334274,0.6547385076795724,-1.4325533914485724
14.119998693466187,0.1535833913550228,0.6737836445435572,-1.321128851591718
14.12997817993164,0.15749136568975622,0.6926731458754618,-1.2176727725078602
14.14389681816101,0.163548725908593,0.7114248182143021,-1.1218271195487106
14.154747486114502,0.16765209896006306,0.7300769555868062,-1.033180772429414
14.166266679763794,0.1725370668784798,0.748657540850055,-0.9512972384739965
14.175345420837402,0.17605424377973988,0.7671614462587979,-0.8757336349472556
14.183319568634033,0.17937602196426328,0.785532472438563,-0.8060533300692732
14.192883253097534,0.18347939501573338,0.8037211823128838,-0.7418340653221057
14.204981565475464,0.18836436293415013,0.8217090926140865,-0.6826729070152235
14.214512348175049,0.19207693855214686,0.8394794500528797,-0.6281890041761891
14.224913597106934,0.1961803116036169,0.8570171813172177,-0.5780248510871469
14.23469090461731,0.20008828593835032,0.8743088967814959,-0.531846548291461
14.246933460235596,0.20536405129024043,0.8913639171655744,-0.213305048563209
14.25606656074524,0.2088812281915005,0.9082102786463674,-0.14106418346700328
14.266961336135864,0.2131799999597072,0.9248490126043936,-0.16016511688892807
14.278013229370117,0.21786956916138733,0.9412587642485876,-0.20312695068090103
14.287654638290405,0.22177754349612072,0.9574210713103176,-0.24317172256337077
14.295955419540405,0.22529472039738077,0.9733202841406458,-0.27175063318260095
14.303971290588379,0.22842109986516748,0.9889249256429475,-0.2879465358592128
14.313179731369019,0.23193827676642756,1.0041911057433701,-0.293622530039358
14.320976495742798,0.23506465623421427,1.0191027552542622,-0.29130920442902797
14.331063032150269,0.23936342800242105,1.0336494797237799,-0.2833671392588958
14.340490579605103,0.24327140233715447,1.0478072253537367,-0.27172120666181904
14.348752498626709,0.24678857923841455,1.0615766997610347,-0.2578347014667257
14.357047319412231,0.2501103574229379,1.0749621216156644,-0.24277115146446793
14.36493730545044,0.2532367368907246,1.08793581970254,-0.2272774137172452
14.374824047088623,0.2573401099421947,1.1004782115203986,-0.21186163672353586
14.383980751037598,0.2606618881267181,1.1126104835132133,-0.19685762108047353
14.394914627075195,0.2651560586116615,1.1243702119469057,-0.45851302379030207
14.406278371810913,0.27023642524681496,1.1358066819330321,-0.4779977167307673
14.419026613235474,0.2757075893154417,1.146993539365313,-0.41006537686597
14.429035425186157,0.27942016493343846,1.157993006810843,-0.3219711124898113
14.441868782043457,0.2845005315685919,1.1688419383385824,-0.24025896530256335
14.449912071228027,0.28782230975311524,1.1795568943973664,-0.17324406023208438
14.458935976028442,0.29153488537111205,1.1901231202026916,-0.12161557036386428
14.467993974685669,0.2948566635556354,1.200529364045224,-0.08329153242132036
14.478086233139038,0.29896003660710546,1.2107824449192304,-0.05553359681885835
14.48893928527832,0.30345420709204884,1.2208896829419276,-0.03578555077258749
14.496986627578735,0.3069713839933089,1.2308587445482906,-0.021939391302960576
14.505578994750977,0.310488560894569,1.2406830622313327,-0.012361136914543314
14.513925790786743,0.3140057377958291,1.2503297664187896,-0.005828682653123638
14.528875589370728,0.32006309801466587,1.2598012676150638,-0.0014481981503894686
14.539971828460693,0.3245572684996093,1.2691719898824372,0.0014244384122432258
14.549018621444702,0.3284652428343427,1.2784908295521287,0.003248653730362739
14.559974193572998,0.33295941331928613,1.287742354855293,0.004349692652591906
14.56901478767395,0.3368673876540195,1.2969133595106832,0.004956475068276418
14.578267812728882,0.3403845645552796,1.3060066722534254,0.005229340528964246
14.586978435516357,0.3439017414565396,1.3150247727931312,0.005280088206348153
14.594926357269287,0.3470281209243264,1.3239565937060265,-0.2708520488383907
14.603939294815063,0.3505452978255864,1.332779971841072,-0.3041613844604255
14.611932754516602,0.3538670760101098,1.3414772555808732,-0.5253414273212178
14.620986223220825,0.35757965162810657,1.3500349297892114,-0.48264917296285825
14.630969047546387,0.3616830246795766,1.358456389638431,-0.3573097771524659
14.640576362609863,0.36539560029757334,1.366759270614533,-0.22488476967271057
14.648644208908081,0.3685219797653601,1.3749597056260532,-0.11264032942049801
14.6599702835083,0.3732115489670402,1.3830852701387928,-0.02686879151035202
14.670901536941528,0.3779011181687203,1.3911597218878706,0.03440430514074849
14.682478904724121,0.38278608608713705,1.3991899266389982,0.07573416368110136
14.690888404846191,0.38630326298839707,1.4071814671237994,0.10188081646297338
14.699898719787598,0.3900158386063938,1.4151261280097913,0.11694804316445978
14.712211608886719,0.3949008065248106,1.4230291750297925,0.1241815450768195
14.722996234893799,0.39939497700975396,1.4309198875781297,0.4020664033813567
14.734130382537842,0.4036937487779607,1.4388096713815481,0.43343971884719024
14.743903398513794,0.4076017231126941,1.4466948939346862,0.3742741109542965
14.754723072052002,0.4119004948809009,1.4545719688121437,0.2927051459080642
14.767646789550781,0.4175670576662643,1.4624495601270464,0.2159079414663509
14.775107622146606,0.42049803841731437,1.4703345466772004,0.15264781748562536
14.787549018859863,0.42577380376920443,1.478220034029013,0.1039342831599182
14.794981718063354,0.4289001832369912,1.4861116517705724,0.06791311082696572
14.80538296699524,0.4331989550051979,1.494013619766332,0.31804630414778734
14.814081907272339,0.43652073318972134,1.501905099360107,0.05690262147095185
14.823904514312744,0.4406241062411914,1.5097564353368016,-0.043899387347408905
14.833241701126099,0.4447274792926615,1.5175546358646237,-0.07339220285971662
14.843570709228516,0.4486354536273949,1.5253009772206614,-0.07343911674584352
14.851945161819458,0.4519572318119182,1.5329852291464696,-0.06311426726901595
