t_s,q_rad,q_des_rad,K,B,jerk,tau_Nm,ilc_ff_Nm
0.0052607059478759766,-0.044746306132697485,[0.00741507],0.005,0.1,0.0,9.998999999999999,0
0.015152215957641602,-0.044746306132697485,[0.03583475],0.005,0.1,0.0,10.098989999999999,0
0.028416872024536133,-0.044746306132697485,[0.08906378],0.005,0.1,0.0,10.099989899999999,0
0.03745317459106445,-0.044746306132697485,[0.16258319],0.005,0.1,0.0,10.099999898999998,0
0.045830726623535156,-0.044746306132697485,[0.25230866],0.005,0.1,0.0,10.099999998989999,0
0.055394887924194336,-0.044746306132697485,[0.35457636],0.005,0.1,0.0,10.0999999999899,0
0.06480216979980469,-0.044746306132697485,[0.46612553],0.005,0.1,0.0,10.099999999999898,0
0.07455778121948242,-0.044746306132697485,[0.58407849],0.005,0.1,0.0,10.099999999999998,0
0.08407974243164062,-0.044746306132697485,[0.70591875],0.005,0.1,0.0,10.099999999999998,0
0.09401655197143555,-0.044746306132697485,[0.82946794],0.005,0.1,0.0,10.099999999999998,0
0.10403156280517578,-0.044746306132697485,[0.95286177],0.005,0.1,0.0,5.100499999999999,0
0.11379170417785645,-0.044746306132697485,[1.07452572],0.005,0.1,0.0,5.050504999999999,0
0.12405562400817871,-0.04259692024859412,[1.19315072],0.005,0.1,0.8281150790360429,5.050005049999999,0
0.136275053024292,-0.0381027497636507,[1.30766913],0.005,0.1,3.963910844985858,5.705896088071429,0
0.14659738540649414,-0.033803977995443955,[1.41723131],0.005,0.1,5.0,5.216978040912634,0
0.15506362915039062,-0.030482199810920558,[1.52118295],0.005,0.1,5.0,5.424210684040721,0
0.16409683227539062,-0.026769624192923825,[1.61904345],0.005,0.1,5.0,6.056072971622464,0
0.17406249046325684,-0.02286164985819042,[1.71048526],0.005,0.1,5.0,6.952661026610264,0
0.18396544456481934,-0.018953675523457014,[1.79531457],0.005,0.1,5.0,8.008510969110718,0
0.1951155662536621,-0.014264106321776927,[1.87345314],0.005,0.1,5.0,9.142136864683426,0
0.20553016662597656,-0.009769935836833513,[1.94492146],0.005,0.1,5.0,10.090421368646833,0
0.21638917922973633,-0.005471164068626767,[2.00982331],0.005,0.1,5.0,10.099904213686466,0
0.22660326957702637,-0.0013677910171566918,[2.06833147],0.005,0.1,4.033667758866175,10.099999042136863,0
0.23519539833068848,0.0019539871673667024,[2.1206749],0.005,0.1,1.8224300207293473,10.099999990421367,0
0.24509692192077637,0.006057360218836778,[2.16712708],0.005,0.1,-0.6674396371238129,10.099999999904213,0
0.25524330139160156,0.009965334553570182,[2.20799559],0.005,0.1,-3.041982622166795,10.09999999999904,0
0.2649543285369873,0.014068707605040257,[2.24361287],0.005,0.1,-4.891723459940667,10.099999999999989,0
0.2747781276702881,0.017976681939773663,[2.27432807],0.005,0.1,-5.0,10.099999999999998,0
0.28467869758605957,0.0216892575577704,[2.30049994],0.005,0.1,-5.0,5.100499999999999,0
0.2965865135192871,0.026574225476187156,[2.32249074],0.005,0.1,-5.0,5.050504999999999,0
0.3050205707550049,0.03028680109418389,[2.34066095],0.005,0.1,-5.0,5.050005049999999,0
0.3140583038330078,0.033999376712180625,[2.35536491],0.005,0.1,-5.0,5.0500000505,0
0.3260688781738281,0.038884344630597374,[2.36694717],0.005,0.1,-5.0,5.050000000504999,0
0.33713769912719727,0.0433785151155408,[2.37573955],0.005,0.1,-5.0,5.050000000005049,0
0.3451075553894043,0.046504894583327516,[2.38205876],0.005,0.1,-5.0,5.05000000000005,0
0.355135440826416,0.050412868918060925,[2.3862047],0.005,0.1,-5.0,5.05,0
0.36611127853393555,0.05510243811974101,[2.38845911],0.005,0.1,-5.0,5.05,0
0.37795448303222656,0.059987406038157755,[2.38908475],0.005,0.1,-4.891171307604561,5.05,0
0.3885610103607178,0.06389538037289116,[2.38832493],0.005,0.1,-4.677514595778028,5.05,0
0.39604783058166504,0.06663096240720455,[2.38640334],0.005,0.1,-4.690606221471139,5.05,0
0.4050438404083252,0.07014813930846461,[2.3835242],0.005,0.1,-4.441897768627526,5.05,0
0.41674232482910156,0.07522850594361805,[2.3798726],0.005,0.1,-3.8268031636331927,5.05,0
0.42766427993774414,0.07972267642856146,[2.37561509],0.005,0.1,-3.440716914310244,5.05,0
0.4350168704986572,0.08284905589634818,[2.37090035],0.005,0.1,-3.1604391399131657,5.05,0
0.44506192207336426,0.08695242894781824,[2.36586002],0.005,0.1,-2.929559201898736,5.05,0
0.454906702041626,0.09086040328255167,[2.36060965],0.005,0.1,-2.7232978449994985,5.05,0
0.46302342414855957,0.09437758018381173,[2.35524969],0.005,0.1,-2.531473754890103,5.05,0
0.474048376083374,0.09867635195201847,[2.34986648],0.005,0.1,-2.350367356749176,5.05,0
0.486100435256958,0.10356131987043524,[2.34453335],0.005,0.1,-2.178917862787966,5.05,0
0.4946169853210449,0.1070784967716953,[2.33931167],0.005,0.1,-2.01700628147177,5.05,0
0.5040411949157715,0.1109864711064287,[2.33425188],0.005,0.1,-1.8647250330996235,5.05,0
0.5148887634277344,0.11489444544116212,[2.32939456],0.005,0.1,-1.7221014887290067,5.05,0
0.5265986919403076,0.1195840146428422,[2.32477143],0.005,0.1,-1.5890209806125912,5.05,0
0.5340659618377686,0.12271039411062891,[2.32040627],0.005,0.1,-1.4652303749447193,5.05,0
0.5442314147949219,0.126813767162099,[2.31631586],0.005,0.1,-1.3503685684429052,5.05,0
0.55411696434021,0.13072174149683238,[2.31251084],0.005,0.1,-1.2440011556865342,5.05,0
0.5642697811126709,0.1346297158315658,[2.30899655],0.005,0.1,-1.1456507322717315,5.05,0
0.5740082263946533,0.13892848759977253,[2.30577375],0.005,0.1,-1.0548205510864224,5.05,0
0.5844521522521973,0.14322725936797928,[2.3028393],0.005,0.1,-0.9710117757111651,5.05,0
0.5940430164337158,0.14733063241944935,[2.30018688],0.005,0.1,-0.893735419019549,5.05,0
0.6037614345550537,0.15084780932070943,[2.29780749],0.005,0.1,-0.5464818242085888,5.05,0
0.6125435829162598,0.15456038493870616,[2.29569003],0.005,0.1,-0.7237926792040646,5.05,0
0.6210105419158936,0.15768676440649287,[2.29382171],0.005,0.1,-0.7516003527589208,5.05,0
0.630225658416748,0.1613993400244896,[2.29218852],0.005,0.1,-0.44092698000281166,5.05,0
0.6398420333862305,0.165307314359223,[2.29077548],0.005,0.1,-0.3510378870768214,5.05,0
0.649322509765625,0.16901988997721973,[2.28956711],0.005,0.1,-0.34510780526714246,5.05,0
0.6570296287536621,0.17234166816174315,[2.28854772],0.005,0.1,-0.3631979469175022,5.05,0
0.666041374206543,0.17585884506300323,[2.2877016],0.005,0.1,-0.38122709824546985,5.05,0
0.6751179695129395,0.17957142068099996,[2.28701328],0.005,0.1,-0.3912363467583976,5.05,0
0.6831588745117188,0.18289319886552335,[2.28646768],0.005,0.1,-0.3920665931862751,5.05,0
0.6911928653717041,0.18621497705004675,[2.28605018],0.005,0.1,-0.3850786550031814,5.05,0
0.7014148235321045,0.19031835010151682,[2.28574679],0.005,0.1,-0.3722800257701546,5.05,0
0.7100396156311035,0.19442172315298686,[2.28554429],0.005,0.1,-0.35557473326409234,5.05,0
0.7189695835113525,0.19774350133751029,[2.28543017],0.005,0.1,-0.06048024428238573,5.05,0
0.7290191650390625,0.20184687438898036,[2.28539273],0.005,0.1,-0.0071249836894171845,5.05,0
0.7392096519470215,0.20575484872371377,[2.28542118],0.005,0.1,-0.0416617543459097,5.05,0
0.7490878105163574,0.20966282305844713,[2.28550557],0.005,0.1,-0.0974378315879143,5.05,0
0.7603750228881836,0.2141569935433906,[2.28563682],0.005,0.1,-0.14828625689544142,5.05,0
0.7710754871368408,0.21845576531159733,[2.28580677],0.005,0.1,-0.18610734238878124,5.05,0
0.7792975902557373,0.22138674606264738,[2.28600798],0.005,0.1,-0.2103143301096327,5.05,0
0.7900185585021973,0.22588091654759082,[2.28623369],0.005,0.1,-0.22301447871943914,5.05,0
0.7995269298553467,0.22998428959906086,[2.28647789],0.005,0.1,-0.22692022315505572,5.05,0
0.8081345558166504,0.23350146650032094,[2.28673531],0.005,0.1,-0.22452903532589205,5.05,0
0.8160531520843506,0.2368232446848443,[2.28700121],0.005,0.1,-0.2178702125711195,5.05,0
0.8260202407836914,0.24073121901957772,[2.28727142],0.005,0.1,-0.20848794514283103,5.05,0
0.8372459411621094,0.2450299907877845,[2.28754258],0.005,0.1,-0.19750950399933126,5.05,0
0.8460416793823242,0.2487425664057812,[2.28781196],0.005,0.1,-0.18573288468883298,5.05,0
0.855107307434082,0.25265054074051463,[2.2880771],0.005,0.1,-0.17370801506127642,5.05,0
0.8650274276733398,0.256558515075248,[2.28833599],0.005,0.1,-0.16180343788015433,5.05,0
0.8740227222442627,0.2602710906932448,[2.28858701],0.005,0.1,-0.15025782327657555,5.05,0
0.883723258972168,0.26417906502797817,[2.28882882],0.005,0.1,-0.1392183675183901,5.05,0
0.8926558494567871,0.2676962419292382,[2.28906059],0.005,0.1,-0.12876877109224247,5.05,0
0.9005045890808105,0.27043182396355164,[2.28928172],0.005,0.1,-0.11894930743881883,5.05,0
0.910179615020752,0.27473059573175834,[2.28949168],0.005,0.1,-0.10977105294313366,5.05,0
0.9188416004180908,0.2780523739162818,[2.28969035],0.005,0.1,-0.10122588351514618,5.05,0
0.9279932975769043,0.2819603482510151,[2.28987789],0.005,0.1,-0.09329343906804989,5.05,0
0.935983419418335,0.2852821264355385,[2.2900545],0.005,0.1,-0.08594593524089555,5.05,0
0.9450852870941162,0.28919010077027196,[2.29022034],0.005,0.1,-0.07915145679773108,5.05,0
0.954451322555542,0.29251187895479536,[2.29037597],0.005,0.1,-0.07287618595078658,5.05,0
0.9636063575744629,0.2964198532895288,[2.2905223],0.005,0.1,-0.343124246857988,5.05,0
0.9730207920074463,0.30032782762426213,[2.29066011],0.005,0.1,-0.37090983837672054,5.05,0
0.9819996356964111,0.3038450045255222,[2.29078988],0.005,0.1,-0.03485397462451981,5.05,0
0.9899845123291016,0.3069713839933089,[2.29091192],0.005,0.1,0.07888811162873112,5.05,0
0.9986953735351562,0.3106839596113057,[2.29102661],0.005,0.1,-0.177550851879012,5.05,0
1.0090091228485107,0.31459193394603907,[2.29113466],0.005,0.1,-0.2262957404421394,5.05,0
1.0195577144622803,0.3188907057142458,[2.29123703],0.005,0.1,0.0798523005179457,5.05,0
1.0302882194519043,0.32318947748245264,[2.29133478],0.005,0.1,0.16511114971721058,5.05,0
1.0386998653411865,0.326511255666976,[2.29142876],0.005,0.1,0.16106316402496457,5.05,0
1.048633098602295,0.330614628718446,[2.29151961],0.005,0.1,0.12709473681093583,5.05,0
1.0574846267700195,0.3343272043364428,[2.2916079],0.005,0.1,0.08842079175581063,5.05,0
1.0680480003356934,0.3384305773879129,[2.29169422],0.005,0.1,0.05451867001522647,5.05,0
1.0761888027191162,0.34214315300590964,[2.29177897],0.005,0.1,0.027940254472469436,5.05,0
1.0857956409454346,0.34605112734064297,[2.29186231],0.005,0.1,-0.2676036714538062,5.05,0
1.0939970016479492,0.3491775068084297,[2.29194456],0.005,0.1,-0.31435154206143695,5.05,0
1.1037378311157227,0.3532808798598998,[2.29202619],0.005,0.1,-0.26833276893632024,5.05,0
1.1139860153198242,0.35718885419463325,[2.29210765],0.005,0.1,-0.19796671019582524,5.05,0
1.1222999095916748,0.3607060310958933,[2.29218929],0.005,0.1,-0.13075477612541928,5.05,0
1.131399393081665,0.36402780928041667,[2.29227145],0.005,0.1,-0.07575968035875735,5.05,0
1.1400339603424072,0.36774038489841343,[2.29235424],0.005,0.1,-0.03423835855716845,5.05,0
1.1479980945587158,0.37086676436620014,[2.2924376],0.005,0.1,-0.004533782812008915,5.05,0
1.1560194492340088,0.3741885425507235,[2.29252149],0.005,0.1,0.015776336705137547,5.05,0
1.1650183200836182,0.37770571945198356,[2.29260588],0.005,0.1,0.02901320256816099,5.05,0
1.1729919910430908,0.38063670020303364,[2.2926909],0.005,0.1,0.03710931780983437,5.05,0
1.184208631515503,0.3855216681214504,[2.29277689],0.005,0.1,0.04156653764167051,5.05,0
1.192185878753662,0.38903884502271047,[2.29286412],0.005,0.1,0.0435063629318634,5.05,0
1.200063705444336,0.39216522449049723,[2.29295264],0.005,0.1,0.04374494401932151,5.05,0
1.20896577835083,0.3958778001084939,[2.29304228],0.005,0.1,0.042865454738660116,5.05,0
1.218034267425537,0.3995903757264907,[2.29313291],0.005,0.1,0.04127866430593264,5.05,0
1.2269625663757324,0.4033029513444874,[2.29322447],0.005,0.1,0.03927026911277358,5.05,0
1.2389717102050781,0.4081879192629041,[2.29331734],0.005,0.1,0.037036469044035875,5.05,0
1.248506784439087,0.4119004948809009,[2.29341224],0.005,0.1,0.03471007298995689,5.05,0
1.2559983730316162,0.4150268743486876,[2.29350935],0.005,0.1,0.03237935540301016,5.05,0
1.2650234699249268,0.41873944996668433,[2.29360815],0.005,0.1,0.03010153035912049,5.05,0
1.2740163803100586,0.42225662686794435,[2.29370822],0.005,0.1,0.02791230510822803,5.05,0
1.2842955589294434,0.42655539863615116,[2.29380964],0.005,0.1,0.025832614126968245,5.05,0
1.2950084209442139,0.43085417040435786,[2.29391274],0.005,0.1,0.02387334309745258,5.05,0
1.3072714805603027,0.43593453703951135,[2.29401809],0.005,0.1,0.022038628670790414,5.05,0
1.3159723281860352,0.43945171394077137,[2.29412614],0.005,0.1,0.020328153667306725,5.05,0
1.3252944946289062,0.4431642895587681,[2.29423704],0.005,0.1,0.018738736164757373,5.05,0
1.3329887390136719,0.44609527030981816,[2.29435089],0.005,0.1,0.017265423668976206,5.05,0
1.3425564765930176,0.45019864336128823,[2.29446753],0.005,0.1,0.01590224127553843,5.05,0
1.351999282836914,0.4541066176960216,[2.29458687],0.005,0.1,0.014642698534571891,5.05,0
1.3629450798034668,0.45879618689770174,[2.29470934],0.005,0.1,0.013480128500063207,5.05,0
1.3725183010101318,0.4627041612324352,[2.29483554],0.005,0.1,0.012407910441486595,5.05,0
1.3809375762939453,0.4658305407002219,[2.29496542],0.005,0.1,0.011419612225131708,5.05,0
1.3919768333435059,0.4703247111851653,[2.29509837],0.005,0.1,0.010509077512278153,5.05,0
1.4018192291259766,0.47442808423663535,[2.29523412],0.005,0.1,0.009670475312906813,5.05,0
1.4123282432556152,0.4789222547215788,[2.29537277],0.005,0.1,0.008898324096909164,5.05,0
1.4212636947631836,0.4822440329061022,[2.29551435],0.005,0.1,0.008187498939544395,5.05,0
1.431643009185791,0.48654280467430894,[2.29565884],0.005,0.1,0.007533227565587601,5.05,0
1.4409873485565186,0.490059981575569,[2.2958059],0.005,0.1,0.006931079340239508,5.05,0
1.4521899223327637,0.494749550777249,[2.29595527],0.005,0.1,0.0063769499794533654,5.05,0
1.4619417190551758,0.49846212639524584,[2.29610729],0.005,0.1,0.0058670438718054704,5.05,0
1.4719414710998535,0.5025654994467159,[2.29626252],0.005,0.1,0.005397855285719478,5.05,0
1.4809553623199463,0.5062780750647126,[2.29642109],0.005,0.1,0.004966149309470811,5.05,0
1.4889826774597168,0.5095998532492361,[2.29658223],0.005,0.1,0.004568943077396671,5.05,0
1.4990532398223877,0.5137032263007061,[2.29674494],0.005,0.1,0.2802418473087985,5.05,0
1.510218858718872,0.5181973967856495,[2.29690927],0.005,0.1,0.31303021345906124,5.05,0
1.5184075832366943,0.5215191749701729,[2.29707552],0.005,0.1,0.2576236062170752,5.05,0
1.5298640727996826,0.5262087441718529,[2.29724364],0.005,0.1,0.18125398964423084,5.05,0
1.5395283699035645,0.5301167185065864,[2.29741385],0.005,0.1,0.11046946333995969,5.05,0
1.5503993034362793,0.5346108889915298,[2.29758666],0.005,0.1,0.05360676253984453,5.05,0
1.5598254203796387,0.5383234646095265,[2.2977621],0.005,0.1,0.01138752155363465,5.05,0
1.568387746810913,0.5420360402275233,[2.2979396],0.005,0.1,-0.01823151984370809,5.05,0
1.5786235332489014,0.54633481199573,[2.29811859],0.005,0.1,-0.037946900869866074,7.00820195569153,0
1.5883636474609375,0.54985198889699,[2.29829891],0.005,0.1,-0.05027201805108738,6.98188303487075,0
1.5959444046020508,0.5525875709313035,[2.2984801],0.005,0.1,-0.05727243379313411,6.947572774344644,0
1.604964256286621,0.5563001465493002,[2.29866146],0.005,0.1,-0.060540947475349986,6.8988914618567705,0
1.6150853633880615,0.5602081208840336,[2.29884267],0.005,0.1,-0.061260279724971875,6.847756650894,0
1.6240179538726807,0.5641160952187669,[2.29902345],0.005,0.1,-0.06028697906913403,6.7979073399544525,0
1.6324093341827393,0.5674378734032904,[2.29920324],0.005,0.1,-0.0582301339934877,6.754961912659398,0
1.6400158405303955,0.5707596515878138,[2.29938162],0.005,0.1,-0.055516426571150676,6.713311764918397,0
1.6495518684387207,0.5746676259225473,[2.29955825],0.005,0.1,-0.052440616764592766,6.662944149045749,0
1.6592803001403809,0.5785756002572806,[2.29973313],0.005,0.1,-0.049203326452290044,6.612936008071755,0
1.6679790019989014,0.5820927771585406,[2.29990656],0.005,0.1,-0.04593868465917408,6.568475015445513,0
1.6759750843048096,0.5852191566263274,[2.30007846],0.005,0.1,-0.042734253413964876,6.530251844093946,0
1.6880691051483154,0.5902995232614808,[2.30024881],0.005,0.1,-0.03964524086081388,6.464984038926508,0
1.6959702968597412,0.5936213014460042,[2.30041788],0.005,0.1,-0.036704562621214534,6.424585284699894,0
1.7078251838684082,0.5985062693644211,[2.30058588],0.005,0.1,-0.03392992214467482,6.3627722389002415,0
1.7162959575653076,0.6018280475489444,[2.30075325],0.005,0.1,-0.031328768452696686,6.32211195829831,0
1.724991798400879,0.6051498257334678,[2.30092008],0.005,0.1,-0.02890175148539087,6.282632472822928,0
1.7339909076690674,0.6086670026347278,[2.30108592],0.005,0.1,-0.026645118749332997,6.239817815091493,0
1.7436752319335938,0.612770375686198,[2.30125066],0.005,0.1,-0.02455236853063927,6.189925825679298,0
1.7546722888946533,0.6172645461711412,[2.3014147],0.005,0.1,0.25342297707702877,6.134797408458837,0
1.7648813724517822,0.6213679192226114,[2.30157863],0.005,0.1,0.2883377673307989,6.085716905900268,0
1.7749831676483154,0.6254712922740814,[2.30174265],0.005,0.1,0.23489319540444803,6.036980824579612,0
1.7849469184875488,0.6297700640422882,[2.30190668],0.005,0.1,0.160332659177318,5.98613916613174,0
1.7939817905426025,0.6332872409435483,[2.30207059],0.005,0.1,0.09121529241827414,5.944992506880637,0
1.803995132446289,0.6371952152782816,[2.3022343],0.005,0.1,0.0358883424031596,5.899447129152446,0
1.8129708766937256,0.6409077908962785,[2.30239748],0.005,0.1,-0.004916633026335781,5.857260426543908,0
1.822340965270996,0.6446203665142752,[2.30255959],0.005,0.1,-0.03323358771131168,5.814216980684152,0
1.8329782485961914,0.6489191382824818,[2.30272043],0.005,0.1,-0.05175037527392444,5.764580265145392,0
1.843292236328125,0.6534133087674253,[2.3028801],0.005,0.1,-0.06297231488292937,5.712869219104337,0
1.8530094623565674,0.6571258843854221,[2.30303871],0.005,0.1,-0.0689574771466032,5.670677323880677,0
1.860973596572876,0.6604476625699455,[2.3031961],0.005,0.1,-0.34733008622794287,5.6341217009847435,0
1.8710517883300781,0.6645510356214154,[2.30335212],0.005,0.1,-0.1042759770669083,5.587025722379769,0
1.8790180683135986,0.6676774150892022,[2.30350691],0.005,0.1,-0.014289793326302619,5.553182838207917,0
1.8881514072418213,0.6711945919904623,[2.30366033],0.005,0.1,0.009482621038022162,5.514091869432186,0
1.895951747894287,0.6745163701749858,[2.30381207],0.005,0.1,-0.26873470819711326,5.478171989181136,0
1.9063458442687988,0.6790105406599292,[2.30396213],0.005,0.1,-0.3120682661395673,5.427430998452878,0
1.9140703678131104,0.6823323188444524,[2.30411075],0.005,0.1,-0.2677910545230835,5.391994168156091,0
1.9240055084228516,0.6864356918959225,[2.30425787],0.005,0.1,-0.2005023526614167,5.3470656850454805,0
1.9330391883850098,0.6899528687971827,[2.30440351],0.005,0.1,-0.13618277606259402,5.30892779121383,0
1.9427237510681152,0.6936654444151793,[2.3045479],0.005,0.1,-0.08340578403936566,5.2689298927705766,0
1.952388048171997,0.6975734187499129,[2.30469126],0.005,0.1,-0.3194106230042193,5.226950910992116,0
1.9631226062774658,0.7018721905181196,[2.30483381],0.005,0.1,-0.0476526453104298,5.181088648975672,0
1.9713728427886963,0.7051939687026428,[2.3049757],0.005,0.1,0.06050441565068484,5.145997985946787,0
1.9791061878204346,0.708124949453693,[2.30511684],0.005,0.1,0.0947060868534582,5.11627343362296,0
1.9890308380126953,0.7124237212218996,[2.30525692],0.005,0.1,0.09745933198324061,5.070987086733897,0
1.999218463897705,0.7167224929901064,[2.3053959],0.005,0.1,0.08839355535906568,5.025896977914597,0
2.0079762935638428,0.7202396698913666,[2.30553402],0.005,0.1,0.07618382862433767,4.989477468554476,0
2.0199344158172607,0.7251246378097833,[2.30567145],0.005,0.1,0.06436739209025437,4.938960864673773,0
2.0289344787597656,0.72883721342778,[2.30580857],0.005,0.1,0.05415030923705491,4.900282517025672,0
2.0372695922851562,0.7321589916123035,[2.30594569],0.005,0.1,0.04573966030039324,4.86758400363302,0
2.0476696491241455,0.7366531620972468,[2.30608261],0.005,0.1,0.03895983045924772,4.822067520019131,0
2.058605194091797,0.7413427312989268,[2.30621936],0.005,0.1,0.03352577407116507,4.7741316568437115,0
2.067002058029175,0.7446645094834503,[2.30635616],0.005,0.1,0.029155218159883693,4.741937139259391,0
2.0769152641296387,0.7487678825349204,[2.30649301],0.005,0.1,-0.2504307072714458,4.7005767272991,0
2.0863711833953857,0.7524804581529171,[2.30663007],0.005,0.1,-0.2864711276902945,4.6642319843214155,0
2.094109058380127,0.7554114389039671,[2.30676725],0.005,0.1,-0.23380456208322623,4.636593019264783,0
2.103172779083252,0.7587332170884905,[2.30690404],0.005,0.1,-0.15977533969615038,4.604384597556638,0
2.1111488342285156,0.762054995273014,[2.30703999],0.005,0.1,-0.3670539496816957,4.572976749935659,0
2.119033098220825,0.7653767734575373,[2.30717475],0.005,0.1,-0.34508773871921794,4.540877050356035,0
2.1318471431732178,0.7706525388094273,[2.30730843],0.005,0.1,-0.24933722262973046,4.489269714566509,0
2.141258716583252,0.7743651144274242,[2.30744152],0.005,0.1,-0.1450287116747313,4.453961810145674,0
2.1509530544281006,0.7782730887621575,[2.30757424],0.005,0.1,-0.05604279891447727,4.417093640458316,0
2.1595234870910645,0.781594866946681,[2.30770636],0.005,0.1,0.01177442738968747,4.3867396297057235,0
2.1702096462249756,0.7864798348650976,[2.30783749],0.005,0.1,0.05974877052843392,4.340769655852367,0
2.18257737159729,0.7911694040667778,[2.30796771],0.005,0.1,0.09150159484529935,4.296310096129523,0
2.1899850368499756,0.7944911822513011,[2.30809731],0.005,0.1,0.11090003434315782,4.266525061649946,0
2.1984620094299316,0.7978129604358245,[2.3082261],0.005,0.1,0.12130385801255154,4.236171870363307,0
2.2062604427337646,0.8011347386203479,[2.30835377],0.005,0.1,0.12537904259184762,4.20662526451223,0
2.214952230453491,0.8046519155216081,[2.30847986],0.005,0.1,0.12513757180292068,4.1753068190119595,0
2.224438190460205,0.8083644911396048,[2.30860421],0.005,0.1,0.12205036657371016,4.140830190632935,0
2.2329647541046143,0.8116862693241282,[2.3087271],0.005,0.1,0.11716879944949377,4.111753376409971,0
2.240967273712158,0.8150080475086516,[2.3088484],0.005,0.1,0.11123091995517934,4.08271759568351,0
2.2517011165618896,0.8193068192768583,[2.30896798],0.005,0.1,0.10474633394219096,4.043474472194622,0
2.2619166374206543,0.823605591045065,[2.30908645],0.005,0.1,0.37409918344398085,4.005425751264996,0
2.2709009647369385,0.8271227679463251,[2.30920429],0.005,0.1,0.40056709589624506,3.97464711122844,0
2.2792489528656006,0.8308353435643218,[2.30932193],0.005,0.1,0.33899035010184353,3.9417658507491256,0
2.2884669303894043,0.8345479191823186,[2.30943977],0.005,0.1,0.25669492185175313,3.910418292954338,0
2.2959160804748535,0.8376742986501053,[2.30955749],0.005,0.1,0.1802838701562104,3.884303133565849,0
2.3049585819244385,0.841386874268102,[2.30967464],0.005,0.1,0.11812228109151393,3.8523276901013386,0
2.3129801750183105,0.8445132537358887,[2.30979106],0.005,0.1,0.07094225354314411,3.8263931379422766,0
2.322490692138672,0.848421228070622,[2.30990662],0.005,0.1,0.03669918699468405,3.7930160785365206,0
2.3315815925598145,0.8519384049718822,[2.31002146],0.005,0.1,0.012687614288496083,3.7632261116215266,0
2.339979648590088,0.8556509805898791,[2.31013571],0.005,0.1,-0.0036194699576998857,3.732763405380492,0
2.3486011028289795,0.8591681574911391,[2.31024927],0.005,0.1,-0.014303929273622014,3.7032999870003525,0
2.3570187091827393,0.8622945369589258,[2.31036227],0.005,0.1,-0.020976208940614062,3.6773490252809706,0
2.36590313911438,0.8656163151434492,[2.31047484],0.005,0.1,-0.30087547879531445,3.650664943499069,0
2.373889446258545,0.8689380933279726,[2.3105869],0.005,0.1,-0.3359241127938704,3.623243645027219,0
2.3830835819244385,0.8724552702292327,[2.31069861],0.005,0.1,-0.2814405122335023,3.5944957582553974,0
2.392935037612915,0.8767540419974394,[2.31081037],0.005,0.1,-0.20510213010485195,3.559585495630218,0
2.400937795639038,0.8802712188986994,[2.31092224],0.005,0.1,0.14226878432427634,3.531967816296575,0
2.4129111766815186,0.8853515855338528,[2.3110343],0.005,0.1,0.23316611532210973,3.4904618319156544,0
2.4223577976226807,0.8890641611518495,[2.31114706],0.005,0.1,0.22141046618156585,3.4610326417077513,0
2.433928966522217,0.8939491290702664,[2.31126095],0.005,0.1,0.17617720517905566,3.4225738058431308,0
2.4439537525177,0.8978571034049997,[2.3113761],0.005,0.1,0.1266443462852606,3.3920520586389387,0
2.452974557876587,0.9013742803062598,[2.31149263],0.005,0.1,0.08361852790485648,3.3649308956794397,0
2.4648947715759277,0.90665004565815,[2.31161082],0.005,0.1,0.049859459727256,3.323717235908539,0
2.4729740619659424,0.9099718238426734,[2.31173088],0.005,0.1,0.024900194551902063,3.299169599361796,0
2.482365846633911,0.9136843994606699,[2.31185253],0.005,0.1,0.007217923991965887,3.2711057162308403,0
2.49145770072937,0.9172015763619301,[2.31197555],0.005,0.1,-0.0048481379832181854,3.244736912775764,0
2.499915361404419,0.9207187532631901,[2.31209969],0.005,0.1,-0.012755051363151774,3.219181457838412,0
2.510298490524292,0.9250175250313969,[2.31222474],0.005,0.1,-0.017667344736829523,3.186465224343992,0
2.5219058990478516,0.9295116955163404,[2.31235097],0.005,0.1,0.25556833308808424,3.1533757693602826,0
2.5328946113586426,0.9340058660012838,[2.31247855],0.005,0.1,0.2873476991764108,3.1205350548290967,0
2.542597770690918,0.9379138403360172,[2.31260741],0.005,0.1,0.2318918809387206,3.092215293543834,0
2.5515594482421875,0.941626415954014,[2.31273747],0.005,0.1,0.1561002362418429,3.0655938053528025,0
2.563542366027832,0.9467067825891673,[2.31286889],0.005,0.1,0.08628766508273462,3.0286087349766424,0
2.57146954536438,0.949833162056954,[2.31300179],0.005,0.1,0.030629292141899328,3.0073170530382654,0
2.5790863037109375,0.952764142808004,[2.31313554],0.005,0.1,-0.010263889619502808,2.987495222239998,0
2.5876588821411133,0.9558905222757909,[2.31326939],0.005,0.1,-0.03850980861102043,2.9656500840312305,0
2.595888376235962,0.9596030978937875,[2.3134029],0.005,0.1,-0.05685446667898461,2.9403753684943097,0
2.6079065799713135,0.9644880658122044,[2.31353594],0.005,0.1,-0.06784318009648682,2.9055537892945726,0
2.618295192718506,0.9685914388636743,[2.31366886],0.005,0.1,-0.07356130562606045,2.877297890465171,0
2.631002187728882,0.9736718054988278,[2.31380221],0.005,0.1,-0.07561312233757267,2.842000813257412,0
2.6393325328826904,0.9771889824000878,[2.31393619],0.005,0.1,-0.0751871849663976,2.818996637423911,0
2.6481995582580566,0.980706159301348,[2.3140705],0.005,0.1,-0.07314209266152369,2.795489463910649,0
2.657464027404785,0.9846141336360814,[2.31420488],0.005,0.1,-0.0700864948939999,2.7694866439913834,0
2.6648952960968018,0.9877405131038681,[2.3143391],0.005,0.1,-0.06644504000464763,2.7495107821910607,0
2.674931764602661,0.9918438861553381,[2.31447276],0.005,0.1,-0.06250947507099777,2.722330316910497,0
2.683645248413086,0.9957518604900715,[2.31460576],0.005,0.1,-0.05847685033956225,2.696680390197499,0
2.6926066875457764,0.9992690373913317,[2.31473825],0.005,0.1,-0.054477448848141125,2.673848050664456,0
2.6998913288116455,1.0022000181423816,[2.31487012],0.005,0.1,-0.05059490213725356,2.6556484015782265,0
2.711824893951416,1.0068895873440618,[2.31500128],0.005,0.1,-0.046880527715112745,2.6247747681075984,0
2.7211837768554688,1.0106021629620585,[2.31513208],0.005,0.1,-0.043363469577493846,2.601163326399849,0
2.7304141521453857,1.014510137296792,[2.31526286],0.005,0.1,0.23598053298392452,2.5765551441375583,0
2.73992657661438,1.0180273141980518,[2.31539342],0.005,0.1,0.2721953250886432,2.555152091261322,0
2.7513036727905273,1.0225214846829955,[2.31552364],0.005,0.1,0.2199753570253343,2.526416178684442,0
2.759497880935669,1.025647864150782,[2.31565359],0.005,0.1,0.14656148583570855,2.5077760114400416,0
2.771237373352051,1.0309236295026722,[2.31578334],0.005,0.1,0.07851307553535933,2.4745901949941547,0
2.781463146209717,1.0350270025541424,[2.31591315],0.005,0.1,0.02417938469196578,2.449574858150963,0
2.7903010845184326,1.038739578172139,[2.31604324],0.005,0.1,-0.015704917842307018,2.4272127219128734,0
2.7987818717956543,1.0416705589231892,[2.3161734],0.005,0.1,-0.043170040845463276,2.410381487679461,0
2.807931900024414,1.0455785332579226,[2.31630317],0.005,0.1,-0.060899774178804746,2.3869898342493676,0
2.819882869720459,1.0506588998930757,[2.31643241],0.005,0.1,-0.0713952654150287,2.356637567286481,0
2.827906608581543,1.053980678077599,[2.31656124],0.005,0.1,-0.07671044417605463,2.337090188641653,0
2.838075637817383,1.0580840511290694,[2.31668971],0.005,0.1,-0.07842715302543905,2.313149252780118,0
2.8468880653381348,1.0616012280303293,[2.31681786],0.005,0.1,-0.07771785404552672,2.2927783299479154,0
2.8583309650421143,1.0660953985152728,[2.31694596],0.005,0.1,-0.07542953310226783,2.266339249534878,0
2.8659937381744385,1.0692217779830595,[2.31707423],0.005,0.1,-0.07216239366876998,2.2492343271298147,0
2.8790411949157715,1.074302144618213,[2.31720264],0.005,0.1,-0.06833488244974792,2.2197578565360194,0
2.8869972229003906,1.0776239228027364,[2.31733135],0.005,0.1,-0.3402724997366973,2.2012336613151593,0
2.8948757648468018,1.0811410997039963,[2.31746005],0.005,0.1,-0.36921671144254564,2.181657183821208,0
2.903308868408203,1.084853675321993,[2.31758787],0.005,0.1,-0.30998704578986447,2.1611672619555455,0
2.9114179611206055,1.08798005478978,[2.31771452],0.005,0.1,-0.22989918355218114,2.1441067952104587,0
2.9204649925231934,1.09149723169104,[2.31784015],0.005,0.1,-0.15555288563672076,2.1249540616001785,0
2.9289581775665283,1.0948190098755635,[2.31796471],0.005,0.1,-0.0953145334093563,2.1074913986280053,0
2.936964511871338,1.0981407880600869,[2.31808777],0.005,0.1,-0.04992045221576573,2.090018388082268,0
2.9474222660064697,1.1024395598282934,[2.31820915],0.005,0.1,-0.017332056295283404,2.0661274972464976,0
2.9549543857574463,1.1055659392960802,[2.31832913],0.005,0.1,0.0051490984179232355,2.0500092349026686,0
2.9639227390289307,1.109278514914077,[2.31844771],0.005,0.1,0.02004251288579943,2.0302077627895865,0
2.9728684425354004,1.1126002930986003,[2.31856492],0.005,0.1,0.02942241609122974,2.012645389045909,0
2.983153820037842,1.1168990648668071,[2.31868102],0.005,0.1,0.03489171806799599,1.990047068928171,0
2.9921858310699463,1.1204162417680672,[2.3187962],0.005,0.1,0.31368229813547727,1.9717854082318624,0
3.0014054775238037,1.1243242161028004,[2.31891061],0.005,0.1,0.3477095722789519,1.95160759365128,0
3.0112287998199463,1.1280367917207974,[2.3190244],0.005,0.1,0.29228536496031876,1.9326265532069993,0
3.0244181156158447,1.1337033545061608,[2.31913782],0.005,0.1,0.21508095562188673,1.9032304747792501,0
3.0344386100769043,1.137806727557631,[2.3192513],0.005,0.1,0.14295118753992228,1.8825662069239437,0
3.045328378677368,1.1424962967593109,[2.31936499],0.005,0.1,-0.19159366405105854,1.8591810744831416,0
3.0548641681671143,1.1464042710940443,[2.31947883],0.005,0.1,-0.2687351670823038,1.8398452319195384,0
3.065035104751587,1.1503122454287777,[2.31959274],0.005,0.1,-0.5211494439751199,1.8206882846490073,0
3.0738658905029297,1.1540248210467743,[2.31970666],0.005,0.1,-0.4997506884353753,1.8026200624249402,0
3.0840518474578857,1.1577373966647713,[2.31982051],0.005,0.1,-0.38825289174359656,1.784708964250984,0
3.0918891429901123,1.1610591748492947,[2.31993423],0.005,0.1,-0.2642687504713643,1.7688511729404572,0
3.102259874343872,1.1653579466175013,[2.32004776],0.005,0.1,-0.4326881277589868,1.7483303025072727,0
3.1108040809631348,1.1686797248020246,[2.32016086],0.005,0.1,-0.3820311391265233,1.7330461332481848,0
3.119917869567871,1.172587699136758,[2.320273],0.005,0.1,-0.26587201483838874,1.7150476012389195,0
3.131743907928467,1.1768864709049651,[2.32038389],0.005,0.1,-0.14750097230577947,1.6942894510188902,0
3.139971971511841,1.180403647806225,[2.32049367],0.005,0.1,-0.049138178512052724,1.6784200262301516,0
3.149035692214966,1.1837254259907481,[2.3206023],0.005,0.1,0.02468268650912088,1.6630795721028833,0
3.159327507019043,1.1880241977589552,[2.32070972],0.005,0.1,0.07627889387343631,1.6433628015859616,0
3.1689929962158203,1.1925183682438982,[2.32081609],0.005,0.1,0.3860384950250986,1.6229119286518112,0
3.1799066066741943,1.1970125387288422,[2.32092155],0.005,0.1,0.4394015631385899,1.602671189824308,0
3.1904637813568115,1.2013113104970485,[2.32102638],0.005,0.1,0.3947931459145604,1.5830679845527107,0
3.1987557411193848,1.2046330886815722,[2.32113083],0.005,0.1,0.3223759919334434,1.5689366682225194,0
3.2089004516601562,1.2089318604497787,[2.3212348],0.005,0.1,0.25089517206974177,1.550024966107419,0
3.2172422409057617,1.2122536386343021,[2.32133821],0.005,0.1,0.19028646550110767,1.5356110312971296,0
3.2278382778167725,1.2163570116857723,[2.32144114],0.005,0.1,0.14241079607554913,1.5179036475836452,0
3.2369015216827393,1.2202649860205057,[2.32154366],0.005,0.1,0.10602261224803042,1.5011636702040847,0
3.248961925506592,1.2251499539389223,[2.32164583],0.005,0.1,0.0789748823632828,1.4803353190385165,0
3.260143518447876,1.2294487257071294,[2.32174789],0.005,0.1,0.059126148737856744,1.4618562178346175,0
3.2689383029937744,1.2333567000418626,[2.32185021],0.005,0.1,0.044657237511875635,1.4456468283228379,0
3.2798502445220947,1.2376554718100692,[2.32195292],0.005,0.1,0.03413383538134965,1.4279602548228048,0
3.29055118560791,1.241954243578276,[2.32205595],0.005,0.1,0.02647072755979063,1.410372221343089,0
3.3008501529693604,1.2460576166297461,[2.32215926],0.005,0.1,0.020866976261094353,1.3937407283493135,0
3.309011697769165,1.2493793948142695,[2.3222628],0.005,0.1,0.016740646794355735,1.3804583123365883,0
3.319859027862549,1.253873565299213,[2.32236665],0.005,0.1,0.013673161994668875,1.362155379778858,0
3.327860116958618,1.257390742200473,[2.32247075],0.005,0.1,0.011365369345733853,1.3482390735978071,0
3.337773084640503,1.261494115251943,[2.32257452],0.005,0.1,0.009604293740609681,1.332303778196499,0
3.348869800567627,1.2657928870201498,[2.32267762],0.005,0.1,0.008238613863538989,1.3155711215481865,0
3.3599114418029785,1.2700916587883566,[2.32278033],0.005,0.1,0.007160867221235769,1.2986896294583767,0
3.3698785305023193,1.2743904305565632,[2.32288302],0.005,0.1,0.006294676535953758,1.2823859845885257,0
3.3794198036193848,1.27810300617456,[2.3229858],0.005,0.1,0.005585646980608043,1.2684299908016805,0
3.3869218826293945,1.2812293856423467,[2.32308862],0.005,0.1,0.004994911160816903,1.256804875907872,0
3.3977341651916504,1.285332758693817,[2.32319128],0.005,0.1,0.004494566795704846,1.2419315532929147,0
3.4108619689941406,1.2904131253289703,[2.32329359],0.005,0.1,0.004064459106818956,1.2226825009338955,0
3.4225175380706787,1.2954934919641234,[2.32339587],0.005,0.1,0.003689914579247747,1.203722508889152,0
3.4301817417144775,1.2984244727151737,[2.32349839],0.005,0.1,0.0033601458749207436,1.1936039765063944,0
3.4398624897003174,1.3025278457666438,[2.3236009],0.005,0.1,0.003067129289058079,1.1789000168475285,0
3.4487900733947754,1.3058496239511672,[2.32370315],0.005,0.1,0.002804814485116194,1.167096908796844,0
3.458847761154175,1.310148395719374,[2.3238051],0.005,0.1,0.27860692737269,1.1519251430880515,0
3.4678707122802734,1.313665572620634,[2.32390673],0.005,0.1,0.31151774172104085,1.13963536147431,0
3.4764339923858643,1.3173781482386306,[2.32400785],0.005,0.1,0.25622629031289285,1.1271087504314024,0
3.4848835468292236,1.3206999264231545,[2.324108],0.005,0.1,0.17996436961500223,1.1159534664103345,0
3.4928760528564453,1.3238263058909407,[2.32420679],0.005,0.1,0.10928015030300374,1.1051072181462867,0
3.5028738975524902,1.3281250776591476,[2.32430424],0.005,0.1,0.05251059070290603,1.0903600399960354,0
3.5128848552703857,1.3322284507106177,[2.32440051],0.005,0.1,0.010377640765640819,1.0764287388349305,0
3.5225205421447754,1.3361364250453511,[2.32449576],0.005,0.1,-0.019161592061309546,1.0633089608869852,0
3.532836437225342,1.3400443993800844,[2.3245901],0.005,0.1,-0.038803254636895615,1.0503204834548323,0
3.5425751209259033,1.3443431711482912,[2.32468367],0.005,0.1,-0.051060344646538344,1.0361680539023537,0
3.5511317253112793,1.3478603480495512,[2.32477656],0.005,0.1,-0.05799803105228675,1.0247152170730425,0
3.559478282928467,1.350986727517338,[2.32486871],0.005,0.1,-0.061208732707954766,1.0149743915056098,0
3.568861961364746,1.3545039044185982,[2.32495993],0.005,0.1,-0.06187480716692463,1.003641351521134,0
3.578376531600952,1.358216480036595,[2.32505021],0.005,0.1,-0.06085245983546361,0.9917654682731775,0
3.587655544281006,1.3619290556545915,[2.32513969],0.005,0.1,-0.05875045716233924,0.9800313709598438,0
3.5972185134887695,1.3662278274227981,[2.32522849],0.005,0.1,-0.05599518049121146,0.9665629570319691,0
3.6073381900787354,1.3701358017575318,[2.3253167],0.005,0.1,-0.05288110999432633,0.9544105555100921,0
3.617114782333374,1.374239174809002,[2.3254044],0.005,0.1,-0.049608607960060225,0.9417888513166175,0
3.628429651260376,1.3789287440106817,[2.32549183],0.005,0.1,-0.04631156306163402,0.9272107897025899,0
3.636064052581787,1.381859724761732,[2.32557916],0.005,0.1,-0.0430773151350329,0.9187570876174909,0
3.6452713012695312,1.3855723003797287,[2.32566627],0.005,0.1,-0.03996086715776661,0.9076743782072672,0
3.653857946395874,1.3890894772809885,[2.32575289],0.005,0.1,-0.0369949454739069,0.8975711963045668,0
3.661834716796875,1.3926066541822488,[2.32583867],0.005,0.1,-0.034197079030803934,0.8874559176795214,0
3.6737186908721924,1.3974916221006655,[2.32592345],0.005,0.1,-0.03157455605108116,0.872726215575224,0
3.6838693618774414,1.401399596435399,[2.32600753],0.005,0.1,-0.029127878360101167,0.8614252527432404,0
3.693850517272949,1.4053075707701321,[2.32609115],0.005,0.1,-0.026853157072961424,0.8502283748263927,0
3.702881097793579,1.4088247476713924,[2.3261744],0.005,0.1,-0.024743764907655813,0.8402733270303738,0
3.7123451232910156,1.4129281207228626,[2.32625736],0.005,0.1,-0.02279146805202038,0.8287700068559787,0
3.7260143756866455,1.4183992847914892,[2.3263402],0.005,0.1,0.2550511650066112,0.8132921895215305,0
3.7342748641967773,1.4217210629760126,[2.32642319],0.005,0.1,0.2898414123826918,0.8042546297601465,0
3.744229555130005,1.4258244360274828,[2.32650644],0.005,0.1,0.2362805476189634,0.7931690622056881,0
3.7518575191497803,1.4289508154952695,[2.32658989],0.005,0.1,0.16161182247983732,0.7847813307478239,0
3.761172294616699,1.432663391113266,[2.3266735],0.005,0.1,0.09239408220658228,0.7749201241038172,0
3.769559621810913,1.4361805680145263,[2.3267571],0.005,0.1,0.036974200725584085,0.7659217447415487,0
3.777881622314453,1.4393069474823132,[2.32684041],0.005,0.1,-0.003916683151651654,0.7576558422674528,0
3.788567304611206,1.4436057192505198,[2.3269233],0.005,0.1,-0.3083513213446941,0.7463999270734031,0
3.7964813709259033,1.4469274974350432,[2.32700569],0.005,0.1,-0.36006589163590574,0.7380350414848873,0
3.8040904998779297,1.4500538769028297,[2.3270874],0.005,0.1,-0.31625804100778665,0.7299512354723807,0
3.812857151031494,1.45357105380409,[2.32716826],0.005,0.1,-0.24622036597085226,0.7212445930193452,0
3.8220374584198,1.4572836294220868,[2.32724815],0.005,0.1,-0.17808920133968664,0.7117752275014734,0
3.831825017929077,1.4611916037568202,[2.32732709],0.005,0.1,-0.12137978392298052,0.7019209642774391,0
3.8399553298950195,1.4645133819413436,[2.32740513],0.005,0.1,-0.07766640101145535,0.6939331302296509,0
3.848863363265991,1.4680305588426035,[2.32748218],0.005,0.1,-0.04551128715165745,0.6851830555888119,0
3.859621286392212,1.4723293306108103,[2.32755843],0.005,0.1,-0.02264127211410743,0.6744020646111476,0
3.870234489440918,1.476628102379017,[2.32763447],0.005,0.1,-0.006834666488979848,0.6638206335615077,0
3.8794641494750977,1.4809268741472237,[2.32771063],0.005,0.1,0.0037762822343879654,0.6538993905260763,0
3.8878443241119385,1.484248652331747,[2.32778683],0.005,0.1,0.010652833791153227,0.6460820281325422,0
3.8976542949676514,1.4881566266664805,[2.32786286],0.005,0.1,0.014892530658996567,0.6372257191916395,0
3.911123514175415,1.4934323920183705,[2.32793864],0.005,0.1,0.017298907544195517,0.6246970317505272,0
3.918840169906616,1.4965587714861572,[2.32801427],0.005,0.1,0.01845015689623486,0.617837627775367,0
3.929358959197998,1.5010529419711007,[2.32808982],0.005,0.1,0.018757115923004455,0.6073540690226596,0
3.938847303390503,1.504570118872361,[2.32816535],0.005,0.1,0.018508805858864944,0.5997716939729477,0
3.9496114253997803,1.5090642893573043,[2.32824093],0.005,0.1,0.017906772389332828,0.5895541505893782,0
3.9607458114624023,1.5135584598422478,[2.32831671],0.005,0.1,0.01709034507373678,0.5797234745007751,0
3.973938226699829,1.5190296239108745,[2.32839295],0.005,0.1,0.016154919988876502,0.5676922128608971,0
3.981989622116089,1.5225468008121346,[2.32846987],0.005,0.1,0.01516504934848679,0.5602724991474846,0
3.9920637607574463,1.526454775146868,[2.32854749],0.005,0.1,0.014163742068755435,0.5520926553846032,0
3.999805450439453,1.5295811546146547,[2.32862557],0.005,0.1,0.013179035669559911,0.5458430729647844,0
4.0088582038879395,1.5332937302326515,[2.3287038],0.005,0.1,0.012228620541556136,0.5381535004821415,0
4.017758369445801,1.537006305850648,[2.32878189],0.005,0.1,0.011323082630851354,0.530766673702578,0
4.03062105178833,1.5424774699192747,[2.32885972],0.005,0.1,0.010468170395497278,0.5193509187594969,0
4.041271448135376,1.5469716404042184,[2.32893755],0.005,0.1,-0.26637198477115226,0.5100999196458271,0
4.049851894378662,1.550098019872005,[2.3290156],0.005,0.1,-0.30024493518404194,0.5041853578621401,0
4.061481237411499,1.5549829877904218,[2.32909385],0.005,0.1,-0.24584364586555024,0.4943913487769008,0
4.068810224533081,1.5575231711079984,[2.32917212],0.005,0.1,-0.17040417257369367,0.4894792100933287,0
4.078392028808594,1.5614311454427319,[2.32925002],0.005,0.1,-0.37651741357556534,0.4820469071155502,0
4.087292194366455,1.564948322343992,[2.32932733],0.005,0.1,-0.3535725441481253,0.4754083375054423,0
4.095829963684082,1.568660897961989,[2.329404],0.005,0.1,-0.256987617823973,0.4686706009157121,0
4.108820915222168,1.5739366633138787,[2.32948],0.005,0.1,-0.15195787776668374,0.45860313840919575,0
4.117558002471924,1.577453840215139,[2.32955554],0.005,0.1,-0.06234106376505932,0.45216793211262213,0
4.127834320068359,1.5813618145498722,[2.32963077],0.005,0.1,0.006033686151563262,0.44517336397953633,0
4.137427568435669,1.5854651876013421,[2.32970567],0.005,0.1,0.05450488471478799,0.4378060572944125,0
4.148821115493774,1.5901547568030223,[2.32978024],0.005,0.1,0.08670355339864184,0.42947766953967786,0
4.156805992126465,1.5934765349875457,[2.32985453],0.005,0.1,0.10650427777056912,0.4236623936177497,0
4.165664911270142,1.5973845093222792,[2.32992858],0.005,0.1,0.11727267511023949,0.4168935582713516,0
4.1758317947387695,1.6014878823737493,[2.33000242],0.005,0.1,0.12167939554959975,0.409852330741046,0
4.18483304977417,1.6050050592750094,[2.33007611],0.005,0.1,0.12174022639704639,0.4039052140890426,0
4.193909645080566,1.6087176348930061,[2.33014952],0.005,0.1,0.394967599896654,0.3979195690594809,0
4.203810214996338,1.6126256092277396,[2.33022244],0.005,0.1,0.42346342828800226,0.39141179774609913,0
4.212799549102783,1.615947387412263,[2.3302948],0.005,0.1,0.08662157094203238,0.38590782646185107,0
4.222820520401001,1.620050760463733,[2.33036661],0.005,0.1,-0.0288601674882909,0.37929434227151015,0
4.2314229011535645,1.623567937364993,[2.33043784],0.005,0.1,0.22526226436248803,0.37364858798022993,0
4.238786935806274,1.6266943168327799,[2.33050838],0.005,0.1,0.27137247014119753,0.3688586959643192,0
4.248795747756958,1.63079768988425,[2.33057809],0.005,0.1,0.23848533038496822,0.3623476711470032,0
4.2588958740234375,1.6350964616524568,[2.33064696],0.005,0.1,-0.09249058172299066,0.3555969126503335,0
4.270100355148315,1.6397860308541365,[2.33071519],0.005,0.1,-0.1794174085685118,0.3481911911191,0
4.280206918716431,1.6438894039056067,[2.33078304],0.005,0.1,0.1069470357226463,0.34203965032680345,0
4.290216684341431,1.6479927769570768,[2.33085058],0.005,0.1,-0.09425805888142635,0.33592460865879026,0
4.298266410827637,1.6511191564248633,[2.33091768],0.005,0.1,-0.13706212064974593,0.33149447488399403,0
4.307135581970215,1.6548317320428605,[2.3309841],0.005,0.1,-0.11908353266129526,0.3260599064123006,0
4.317317008972168,1.6589351050943304,[2.33104974],0.005,0.1,-0.08351986077696803,0.32012075562027137,0
4.32640266418457,1.6622568832788538,[2.33111459],0.005,0.1,-0.04804865120684375,0.315381280843104,0
4.334824085235596,1.6655786614633772,[2.33117857],0.005,0.1,-0.018770160505741013,0.31083202137399474,0
4.345465421676636,1.669682034514847,[2.33124155],0.005,0.1,0.0031766034124128158,0.3050227719096133,0
4.353807210922241,1.6733946101328439,[2.33130343],0.005,0.1,0.018554546921035607,0.3000271865010683,0
4.363042831420898,1.677302584467577,[2.33136411],0.005,0.1,0.028672866428068648,0.29466251039773356,0
4.371388912200928,1.6806243626521005,[2.33142353],0.005,0.1,0.3108693915817199,0.2901967108588197,0
4.3797996044158936,1.6843369382700975,[2.33148167],0.005,0.1,0.3472889667968345,0.28537099226097423,0
4.391416072845459,1.6890265074717774,[2.33153847],0.005,0.1,0.2934811772393,0.2790587779054367,0
4.402760028839111,1.6937160766734578,[2.33159404],0.005,0.1,0.21732188211408235,0.2729680400886456,0
4.4128172397613525,1.6978194497249277,[2.33164847],0.005,0.1,0.14582780568440984,0.2677377280515297,0
4.422789812088013,1.7017274240596612,[2.33170175],0.005,0.1,0.08766987052818434,0.26281402829718836,0
4.431880235671997,1.7056353983943944,[2.33175386],0.005,0.1,0.04380414209534344,0.2579675793846778,0
4.442842960357666,1.710129568879338,[2.33180478],0.005,0.1,0.012349342924461385,0.252452740263993,0
4.4528679847717285,1.7142329419308078,[2.33186479],0.005,0.1,0.2667574423820972,0.25435702364197676,0
4.462600946426392,1.7181409162655412,[2.33195012],0.005,0.1,0.2856364073138833,0.24032082077187059,0
4.4739110469818115,1.7224396880337483,[2.33206004],0.005,0.1,-0.054378008975266456,0.23563646595713347,0
4.483157157897949,1.7263476623684817,[2.33218653],0.005,0.1,-0.16866245913614958,0.23060774413849516,0
4.493873119354248,1.7304510354199514,[2.33232929],0.005,0.1,0.08951449451519389,0.22601959514945572,0
4.503005743026733,1.7343590097546853,[2.33248888],0.005,0.1,0.14145786538741692,0.22178075721479096,0
4.511438369750977,1.7378761866559451,[2.33266415],0.005,0.1,0.11542728775437522,0.21807410631558963,0
4.518827676773071,1.7408071674069951,[2.33285315],0.005,0.1,-0.20818857867883614,0.21529618949589463,0
4.531761407852173,1.7462783314756218,[2.33305371],0.005,0.1,-0.2876032708605495,0.20939755104336397,0
4.542611122131348,1.7503817045270922,[2.3332642],0.005,0.1,-0.269845154168435,0.20532732501987935,0
4.55288028717041,1.7546804762952988,[2.33348284],0.005,0.1,-0.22093329334035855,0.20113843571878037,0
4.560819864273071,1.7576114570463488,[2.33370721],0.005,0.1,-0.1686319809378125,0.19864005142987592,0
4.569854021072388,1.7613240326643456,[2.33393477],0.005,0.1,-0.12315293071350061,0.1951484520837742,0
4.578336000442505,1.7648412095656056,[2.33416333],0.005,0.1,0.18900452639401244,0.19192377468193722,0
4.5882532596588135,1.7689445826170758,[2.33439104],0.005,0.1,0.24941609967213085,0.1881668835183024,0
4.598224639892578,1.7730479556685457,[2.33461611],0.005,0.1,0.2142943062382694,0.18444990407912515,0
4.607247352600098,1.776565132569806,[2.3348369],0.005,0.1,0.15251237780072485,0.1813599326769629,0
4.61675763130188,1.7806685056212759,[2.33505193],0.005,0.1,0.09205430376143589,0.17771371820865395,0
4.627867937088013,1.7849672773894825,[2.33525994],0.005,0.1,0.04240489326084278,0.17386547578472283,0
4.636235237121582,1.7886798530074792,[2.33545965],0.005,0.1,0.0051604016956223984,0.17103226175610753,0
4.6438515186309814,1.7918062324752662,[2.33564884],0.005,0.1,-0.021075177395400234,0.16959320957502969,0
4.653760671615601,1.796105004243473,[2.33582535],0.005,0.1,-0.03852822451366202,0.16502072158769318,0
4.662938594818115,1.7998175798614697,[2.33598918],0.005,0.1,-0.04937487869006789,0.1611207041670646,0
4.672271728515625,1.8033347567627296,[2.33614123],0.005,0.1,-0.0554409115013416,0.15840265130903716,0
4.681448221206665,1.8070473323807266,[2.33628155],0.005,0.1,-0.05814974706091128,0.1553070571088576,0
4.69186806678772,1.8113461041489332,[2.33641002],0.005,0.1,-0.05856508938440305,0.15167104995153405,0
4.7017810344696045,1.8150586797669297,[2.33652687],0.005,0.1,-0.05746023077180479,0.14858844322297335,0
4.711805105209351,1.8189666541016634,[2.33663242],0.005,0.1,-0.05538626782487424,0.1453568369643784,0
4.721707820892334,1.8228746284363966,[2.33672713],0.005,0.1,-0.052729671028383655,0.14216461737063205,0
4.731046438217163,1.8265872040543936,[2.33681152],0.005,0.1,-0.04975746347127073,0.13916900401964663,0
4.739812135696411,1.8304951783891268,[2.33688615],0.005,0.1,-0.04665125912346689,0.13605510742487872,0
4.748019218444824,1.8336215578569135,[2.33695163],0.005,0.1,-0.043532271525605085,0.13359206631771023,0
4.75677752494812,1.8373341334749105,[2.33700861],0.005,0.1,0.23555897157217867,0.13071218275594168,0
4.766285181045532,1.841046709092907,[2.33705775],0.005,0.1,-0.004417482263997213,0.12784150284239318,0
4.773879289627075,1.8441730885606937,[2.33709972],0.005,0.1,-0.08984683881809705,0.12547223233254595,0
4.784778594970703,1.848667259045637,[2.33713514],0.005,0.1,-0.10820229023627555,0.12210501366178689,0
4.7938551902771,1.8523798346636338,[2.33716466],0.005,0.1,-0.10017398094839483,0.11933548956809269,0
4.803757429122925,1.8566786064318406,[2.3371889],0.005,0.1,-0.08397339170646301,0.11621183632803812,0
4.8128557205200195,1.8601957833331009,[2.33720849],0.005,0.1,-0.06721175957486948,0.11367811352330018,0
4.822787761688232,1.8642991563845706,[2.337224],0.005,0.1,-0.05264764062288593,0.11078767987886137,0
4.833845138549805,1.8685979281527776,[2.33723598],0.005,0.1,0.23511182785056067,0.1078167628080386,0
4.843952894210815,1.872505902487511,[2.33724495],0.005,0.1,0.27730619824705705,0.1051591287412557,0
4.852875232696533,1.8762184781055076,[2.33725138],0.005,0.1,0.22908400230852322,0.10266652260688479,0
4.863530158996582,1.8805172498737142,[2.33725572],0.005,0.1,0.1581608812107186,0.09984554808934647,0
4.873812198638916,1.8850114203586577,[2.33725837],0.005,0.1,0.09150552464558992,0.09693145018517338,0
4.8838067054748535,1.8891147934101278,[2.33725968],0.005,0.1,0.037790839711676905,0.09432039788276449,0
4.8937976360321045,1.8928273690281245,[2.33726001],0.005,0.1,-0.27804300857480113,0.09198131952049128,0
4.903754711151123,1.8971261407963316,[2.33725967],0.005,0.1,-0.3388959205047102,0.0893426953614175,0
4.912755489349365,1.9006433176975914,[2.3372589],0.005,0.1,-0.30201616661509156,0.08721349284136065,0
4.921154022216797,1.9041604945988515,[2.33725796],0.005,0.1,-0.23704945357125803,0.08513980629845455,0
4.930107355117798,1.9076776715001116,[2.33725702],0.005,0.1,-0.1725378217152506,0.08308590082115858,0
4.937785863876343,1.9106086522511616,[2.33725624],0.005,0.1,-0.394397841872458,0.08140632015164422,0
4.9477643966674805,1.9147120253026317,[2.33725575],0.005,0.1,-0.38554499636694184,0.0790802867881965,0
4.95775294303894,1.918619999637365,[2.33725566],0.005,0.1,-0.299458108807577,0.07690437112203205,0
4.96776819229126,1.922332575255362,[2.3372561],0.005,0.1,-0.2012648710375711,0.07488256955597837,0
4.976684331893921,1.9258497521566218,[2.33725719],0.005,0.1,-0.3914532849021122,0.07298867945990244,0
4.988767862319946,1.930539321358302,[2.337259],0.005,0.1,-0.6336673525400192,0.07051820232349519,0
4.997873783111572,1.9340564982595623,[2.33726159],0.005,0.1,-0.8390089996112474,0.06867734345601081,0
5.007457494735718,1.9377690738775588,[2.33726503],0.005,0.1,-0.7073563466424339,0.06680234371907592,0
5.016272306442261,1.9414816494955554,[2.33726935],0.005,0.1,-0.7597556166437153,0.06494651479483785,0
5.029007434844971,1.9461712186972357,[2.33727461],0.005,0.1,-1.1283850368202621,0.06261750539650261,0
5.037805795669556,1.949492996881759,[2.33728085],0.005,0.1,-1.239221995399001,0.06104757799838909,0
5.048199892044067,1.9534009712164924,[2.33728807],0.005,0.1,-0.9550817355898814,0.059194916583882366,0
5.059739828109741,1.9573089455512258,[2.33729628],0.005,0.1,-0.8623228396752176,0.05741165971414475,0
5.069501161575317,1.9606307237357492,[2.33730547],0.005,0.1,-0.8384650590822595,0.05590009521263649,0
5.07774806022644,1.9637571032035361,[2.3373156],0.005,0.1,-1.1073031949051453,0.054529926333533894,0
5.089128732681274,1.9680558749717427,[2.33732662],0.005,0.1,-1.1299841719900723,0.05262899760607922,0
5.097324848175049,1.970986855722793,[2.33733849],0.005,0.1,-1.0555333482514568,0.05139284775871718,0
5.107353925704956,1.9741132351905792,[2.33735117],0.005,0.1,-0.9512853409789543,0.05006815671407214,0
5.117324352264404,1.9774350133751026,[2.33736461],0.005,0.1,-0.845834337898457,0.04869290575065134,0
5.126734733581543,1.980756791559626,[2.33737881],0.005,0.1,-1.0259200083771345,0.04733188833209728,0
5.134788990020752,1.9831015761604662,[2.33739373],0.005,0.1,-0.9753828105717357,0.04640935387881131,0
5.142782926559448,1.9860325569115163,[2.33740926],0.005,0.1,-0.8484825230348498,0.04525400671562424,0
5.152745723724365,1.9895497338127766,[2.33742536],0.005,0.1,-0.4348842252814223,0.04389916461458151,0
5.162342548370361,1.992676113280563,[2.33744206],0.005,0.1,-0.2783725937867446,0.042718367717386525,0
5.17095422744751,1.995607094031613,[2.33745936],0.005,0.1,-0.5070779673645267,0.04161874774133056,0
5.179744720458984,1.9985380747826633,[2.3374772],0.005,0.1,-0.5342459003089185,0.040574594435609,0
5.191500663757324,2.0022506504006596,[2.33749556],0.005,0.1,-0.7609842789848427,0.03920141239287872,0
5.199775218963623,2.004790833718237,[2.33751444],0.005,0.1,-0.7237338782113903,0.038328200865108776,0
5.211087465286255,2.0085034093362335,[2.33753385],0.005,0.1,-0.5998718600636412,0.037011432119529744,0
5.2187347412109375,2.0104573965036003,[2.33755383],0.005,0.1,-0.4644562222486782,0.03637648434795912,0
5.233940839767456,2.0149515669885436,[2.33757445],0.005,0.1,-0.6215141750975239,0.03482267504710265,0
5.245999336242676,2.0184687438898035,[2.33759585],0.005,0.1,-0.5594110833188243,0.0336935473281366,0
5.255776882171631,2.0213997246408537,[2.33761813],0.005,0.1,-0.7078631492869478,0.03276414671820295,0
5.265178442001343,2.024135306675167,[2.33764127],0.005,0.1,-0.6113753660454528,0.031911152877572194,0
5.274803876876831,2.0268708887094804,[2.33766524],0.005,0.1,-0.44701312578188956,0.0310776926743495,0
5.2849037647247314,2.029606470743794,[2.33769003],0.005,0.1,-0.2866599784977984,0.030259501501701643,0
5.294736385345459,2.032342052778107,[2.33771563],0.005,0.1,-0.430663297073846,0.02944313315241445,0
5.303777456283569,2.0346868373789473,[2.33774204],0.005,0.1,-0.3641024478837903,0.02875935352813353,0
5.311863899230957,2.036836223263051,[2.3377692],0.005,0.1,-0.2380172686446162,0.028170752809499034,0
5.32152247428894,2.0393764065806272,[2.337797],0.005,0.1,-0.11386523196130335,0.027457578521178024,0
5.330167531967163,2.0417211911814674,[2.33782536],0.005,0.1,-0.012558171367247448,0.0268018032446834,0
5.338728189468384,2.043870577065571,[2.33785424],0.005,0.1,0.06229516346954562,0.02624707753912987,0
5.350665092468262,2.0468015578166208,[2.33788359],0.005,0.1,-0.16237763664677055,0.0254159871466167,0
5.359060525894165,2.0489509437007243,[2.33791345],0.005,0.1,-0.16282312887743705,0.024879450084733357,0
5.368780851364136,2.0514911270183007,[2.33794378],0.005,0.1,-0.0890289068985721,0.02421625814518216,0
5.378769636154175,2.053835911619141,[2.33797455],0.005,0.1,-0.2803204119161392,0.023606166447139854,0
5.3907928466796875,2.056962291086928,[2.33800591],0.005,0.1,-0.241221930451526,0.022800038215915985,0
5.398757457733154,2.0587208795375576,[2.33803793],0.005,0.1,-0.13247192165250324,0.022401932952461616,0
5.409774541854858,2.0612610628551344,[2.33807062],0.005,0.1,-0.020366959663813647,0.02176609448384,0
5.420658349990845,2.063801246172711,[2.33810402],0.005,0.1,-0.2042756016886078,0.021169059733211943,0
5.430424213409424,2.065559834623341,[2.33813822],0.005,0.1,-0.17006831532206645,0.020753354499715583,0
5.438725471496582,2.067318423073971,[2.33817313],0.005,0.1,-0.07008626463935314,0.020382994229388895,0
5.44770359992981,2.069272410241338,[2.33820859],0.005,0.1,0.03291970569920469,0.019939199061558253,0
5.458276271820068,2.071617194842178,[2.33824458],0.005,0.1,0.11693320733418662,0.01939299384341858,0
5.4681947231292725,2.0737665807262813,[2.33828127],0.005,0.1,-0.09857298943071971,0.018923750744607296,0
5.478051424026489,2.075720567893648,[2.33831869],0.005,0.1,-0.0923571161432002,0.01850777905278932,0
5.488408088684082,2.077869953777751,[2.33835681],0.005,0.1,-0.014819466829688606,0.018057112680011995,0
5.496984958648682,2.0794331435116447,[2.3383956],0.005,0.1,0.07112947459652463,0.017732106530882922,0
5.507747411727905,2.0813871306790115,[2.33843503],0.005,0.1,0.1426029995169517,0.017337528168770676,0
5.516738653182983,2.0831457191296416,[2.33847499],0.005,0.1,-0.08191412508532961,0.01699395475154006,0
5.529877662658691,2.0852951050137447,[2.33851542],0.005,0.1,-0.0820606559797233,0.016546400071732147,0
5.5390708446502686,2.087053693464375,[2.3385563],0.005,0.1,-0.28498564663717424,0.01621787462742383,0
5.548390626907349,2.088812281915005,[2.33859755],0.005,0.1,-0.23519136567507956,0.01587656479473751,0
5.5563647747039795,2.0901800729321613,[2.33863907],0.005,0.1,-0.11066009624620081,0.015613888799692166,0
5.566318035125732,2.091547863949318,[2.33868086],0.005,0.1,-0.26043489624621696,0.015352211395855695,0
5.574710845947266,2.0929156549664754,[2.33872283],0.005,0.1,-0.19091546016872923,0.015112396160094854,0
5.586406469345093,2.094674243417105,[2.33876492],0.005,0.1,-0.06170098740694638,0.014770469913002682,0
5.593703746795654,2.096042034434262,[2.33880715],0.005,0.1,0.06292494919128806,0.014540035800448143,0
5.60375714302063,2.097214426734682,[2.33884945],0.005,0.1,0.16163934980092856,0.014327797772522763,0
5.61470627784729,2.098777616468575,[2.33889176],0.005,0.1,-0.04472353216993284,0.014049487772245855,0
5.624356985092163,2.1001454074857318,[2.33893414],0.005,0.1,-0.30957566917111956,0.013794073133176982,0
5.632735252380371,2.1013177997861514,[2.33897666],0.005,0.1,-0.263186172553201,0.01360538051438907,0
5.641539573669434,2.1022947933698353,[2.33901923],0.005,0.1,-0.39827099987533177,0.013435322362535605,0
5.651731729507446,2.103662584386992,[2.33906177],0.005,0.1,-0.28530683063775697,0.013205298807672329,0
5.659709930419922,2.104639577970675,[2.33910419],0.005,0.1,-0.3865487543741813,0.013049865099226631,0
5.671740531921387,2.106007368987832,[2.33914642],0.005,0.1,-0.2568521298070633,0.012810134326594832,0
5.6826066970825195,2.107179761288252,[2.33918856],0.005,0.1,-0.350391785475022,0.012617058726419448,0
5.691890239715576,2.1081567548719353,[2.3392307],0.005,0.1,-0.2177979276973487,0.012459599901838002,0
5.7025792598724365,2.1091337484556187,[2.33927282],0.005,0.1,-0.3110066961142628,0.012303278891567885,0
5.71271014213562,2.1101107420393017,[2.33931494],0.005,0.1,-0.4554821638132531,0.012145011463697581,0
5.721637010574341,2.111087735622985,[2.33935708],0.005,0.1,-0.3075110241738287,0.011992956888191252,0
5.730625152587891,2.111673931773195,[2.33939925],0.005,0.1,-0.3658348208915168,0.01190111028376528,0
5.738707542419434,2.1122601279234052,[2.33944138],0.005,0.1,-0.19907568821045243,0.011819847534443066,0
5.750317335128784,2.113041722790352,[2.33948338],0.005,0.1,-0.26517353889253176,0.011691864601197635,0
5.759711742401123,2.113627918940562,[2.33952535],0.005,0.1,-0.39051066412125435,0.011603527072623071,0
5.767713785171509,2.114214115090772,[2.33956729],0.005,0.1,-0.5064226539910633,0.011520254378665048,0
5.777458906173706,2.1146049125242454,[2.33960907],0.005,0.1,-0.3151610406735012,0.011462749212271257,0
5.786318063735962,2.1151911086744555,[2.33965063],0.005,0.1,-0.33358566085050534,0.011375918919069203,0
5.794805288314819,2.1153865073911917,[2.33969193],0.005,0.1,-0.4120255424489268,0.011352102589519294,0
5.807764053344727,2.115972703541402,[2.33973295],0.005,0.1,-0.7659808138906585,0.01126263070000844,0
5.81770133972168,2.116168102258139,[2.33977381],0.005,0.1,-0.8561704098426208,0.01123715368191184,0
5.827785015106201,2.1163635009748756,[2.33981464],0.005,0.1,-0.8340173901379224,0.011213078018109921,0
5.83681583404541,2.116558899691612,[2.33985543],0.005,0.1,-0.4938525535753009,0.011189545452535794,0
5.846636056900024,2.116754298408349,[2.3398962],0.005,0.1,-0.3860313599671281,0.011166456702718326,0
5.858745574951172,2.116754298408349,[2.33993703],0.005,0.1,-0.36887846985622186,0.011174546709422034,0
5.866760015487671,2.116754298408349,[2.339978],0.005,0.1,-0.37975328095424027,0.011179984266226933,0
5.874793291091919,2.116754298408349,[2.340019],0.005,0.1,-0.3930297583614589,0.01118801134804106,0
5.884721279144287,2.116754298408349,[2.34005997],0.005,0.1,-0.1238023248338363,0.011195854810647513,0
5.89472222328186,2.116754298408349,[2.3401009],0.005,0.1,-0.0893145761361254,0.011204211536028356,0
5.904179096221924,2.116754298408349,[2.34014179],0.005,0.1,0.1401444563860923,0.011213453464177892,0
5.912709951400757,2.116754298408349,[2.34018266],0.005,0.1,0.38710529264396565,0.011221914787883269,0
5.923444032669067,2.116754298408349,[2.34022352],0.005,0.1,0.5881338873039887,0.011229802769691821,0
5.93168830871582,2.116754298408349,[2.3402643],0.005,0.1,1.0051576202151309,0.011232585683813004,0
5.9411962032318115,2.116754298408349,[2.34030484],0.005,0.1,1.4004353869474326,0.01124006232183812,0
5.94924783706665,2.116754298408349,[2.34034509],0.005,0.1,1.6968029522476462,0.011247022303660271,0
5.958670139312744,2.116754298408349,[2.34038506],0.005,0.1,1.8846499598527142,0.011252900549579245,0
5.966720819473267,2.116754298408349,[2.34042473],0.005,0.1,1.9792466169167442,0.011258801606001609,0
5.975792169570923,2.116754298408349,[2.34046403],0.005,0.1,2.002092336861401,0.011261757199919963,0
5.984914302825928,2.116754298408349,[2.34050287],0.005,0.1,1.9734684602217953,0.011268562402426591,0
5.9926841259002686,2.116754298408349,[2.34054122],0.005,0.1,1.9100282885209197,0.011274526836152845,0
6.001689434051514,2.116558899691612,[2.34057903],0.005,0.1,1.8245105629712288,0.01130693541662374,0
6.010522842407227,2.116754298408349,[2.34061625],0.005,0.1,1.726238106181013,0.011285017452131296,0
6.018744468688965,2.116754298408349,[2.34065288],0.005,0.1,1.6218155354473098,0.011290602802782261,0
6.029130935668945,2.116558899691612,[2.34068895],0.005,0.1,1.515791130037841,0.01132554506455912,0
6.039069414138794,2.116558899691612,[2.34072452],0.005,0.1,1.411206077330121,0.011331482349251862,0
6.046993970870972,2.116558899691612,[2.34075959],0.005,0.1,1.3100211832788713,0.01133676962773867,0
6.05576491355896,2.116558899691612,[2.34079416],0.005,0.1,1.2134360159853954,0.011339195240866623,0
6.065708637237549,2.116558899691612,[2.34082814],0.005,0.1,1.1221219103018567,0.011344454328478684,0
6.075700998306274,2.116558899691612,[2.34086151],0.005,0.1,1.03638930361297,0.011350713539017605,0
6.0867018699646,2.116558899691612,[2.34089433],0.005,0.1,0.9563064632278929,0.011355407297351794,0
6.095005989074707,2.116558899691612,[2.34092663],0.005,0.1,0.8817829097070702,0.011360304243683426,0
6.102675676345825,2.116558899691612,[2.34095839],0.005,0.1,0.8126275268090117,0.011363157139617315,0
6.113674640655518,2.116558899691612,[2.34098957],0.005,0.1,0.748588687280406,0.011368373382727129,0
6.126683712005615,2.116558899691612,[2.34102022],0.005,0.1,0.6893816899798342,0.011375400964969803,0
6.134708642959595,2.116558899691612,[2.34105044],0.005,0.1,0.6347072950840393,0.011379475898331852,0
6.144360780715942,2.116558899691612,[2.3410803],0.005,0.1,0.5842640456517767,0.011383527033695722,0
6.154446840286255,2.116558899691612,[2.34110981],0.005,0.1,0.5377562739030778,0.011388152160786423,0
6.164736986160278,2.116558899691612,[2.34113901],0.005,0.1,0.49489912731390395,0.011392579863179743,0
6.172804832458496,2.116558899691612,[2.34116786],0.005,0.1,0.4554215503502733,0.011394232526661658,0
6.183743476867676,2.116558899691612,[2.34119629],0.005,0.1,0.41906787582495325,0.011399160276744761,0
6.19279146194458,2.116558899691612,[2.34122424],0.005,0.1,0.3855984815346809,0.0114018092419286,0
6.201574325561523,2.116558899691612,[2.34125167],0.005,0.1,0.35478982861683006,0.011406820472367242,0
6.210437774658203,2.116558899691612,[2.3412786],0.005,0.1,0.3264341005318879,0.011411402513511049,0
6.217759370803833,2.116558899691612,[2.34130504],0.005,0.1,0.300338593372899,0.011413866565728202,0
6.228291749954224,2.116558899691612,[2.341331],0.005,0.1,0.27632496059180034,0.011419947341242192,0
6.238701820373535,2.116558899691612,[2.34135652],0.005,0.1,0.25422838206168885,0.011422587427547913,0
6.246680736541748,2.116558899691612,[2.34138164],0.005,0.1,0.23389670433637677,0.011426596510630969,0
6.257187366485596,2.116558899691612,[2.3414064],0.005,0.1,0.2151895829859822,0.011432454131412547,0
6.26728367805481,2.116558899691612,[2.34143092],0.005,0.1,0.19797764684905517,0.011435679017495839,0
6.276065111160278,2.116558899691612,[2.34145527],0.005,0.1,0.18214169645469175,0.011439562389061514,0
6.285772323608398,2.1163635009748756,[2.34147947],0.005,0.1,0.16757194368690626,0.01147259125052566,0
6.295637607574463,2.116558899691612,[2.34150357],0.005,0.1,0.1541672962565156,0.011447213902100153,0
6.305131435394287,2.116558899691612,[2.34152757],0.005,0.1,0.14183468820146197,0.011449944582064726,0
6.313675880432129,2.116558899691612,[2.34155146],0.005,0.1,0.1304884560973094,0.011452135360845533,0
6.324126720428467,2.1163635009748756,[2.3415752],0.005,0.1,0.12004975967596827,0.011487573097393865,0
6.331778049468994,2.116558899691612,[2.34159884],0.005,0.1,0.11044604494843599,0.011459965057319525,0
6.340956449508667,2.116558899691612,[2.34162235],0.005,0.1,0.10161054758515961,0.01146360191862812,0
6.350988149642944,2.116558899691612,[2.34164573],0.005,0.1,0.0934818341411745,0.011467566917426824,0
6.360684156417847,2.116558899691612,[2.34166897],0.005,0.1,0.0860033786638642,0.011469765324509966,0
6.371660947799683,2.116558899691612,[2.34169208],0.005,0.1,0.07912317224854565,0.011475293980408521,0
6.382253170013428,2.116558899691612,[2.34171512],0.005,0.1,0.07279336318311658,0.01147911678303664,0
6.390639543533325,2.116558899691612,[2.34173816],0.005,0.1,0.06696992542858596,0.011482349415261404,0
6.399684429168701,2.116558899691612,[2.34176119],0.005,0.1,0.06161235330438243,0.01148427930945338,0
6.40890645980835,2.116558899691612,[2.34178416],0.005,0.1,0.056683380377090295,0.011489907848588502,0
6.417037725448608,2.116558899691612,[2.34180712],0.005,0.1,0.05214872068286411,0.011491493716485347,0
6.425297737121582,2.116558899691612,[2.34183002],0.005,0.1,0.047976830543393786,0.011495402829964526,0
6.4347052574157715,2.1163635009748756,[2.34185286],0.005,0.1,0.044138689360533404,0.011528785635532222,0
6.442712068557739,2.116558899691612,[2.34187561],0.005,0.1,0.04060759789411851,0.011501644959998,0
6.452800512313843,2.116558899691612,[2.34189827],0.005,0.1,0.03735899264028848,0.011506738212625765,0
6.461832046508789,2.116558899691612,[2.34192089],0.005,0.1,0.034370275033455064,0.011509738962775658,0
6.470827341079712,2.116558899691612,[2.34194346],0.005,0.1,0.03162065429385139,0.011511658011288783,0
6.480473518371582,2.116558899691612,[2.34196589],0.005,0.1,0.02909100283449422,0.011515202292789682,0
6.4894914627075195,2.116558899691612,[2.34198817],0.005,0.1,0.02676372322664033,0.011519401190146978,0
6.497718811035156,2.116558899691612,[2.34201031],0.005,0.1,0.02462262580174305,0.011521583468462234,0
6.50609564781189,2.116558899691612,[2.34203225],0.005,0.1,0.022652816040867378,0.01152501775286776,0
6.5152459144592285,2.1163635009748756,[2.34205396],0.005,0.1,0.020840590969882625,0.011557871141486941,0
6.523702621459961,2.116558899691612,[2.34207539],0.005,0.1,0.019173343840891234,0.011531034821673525,0
6.532687187194824,2.116558899691612,[2.3420965],0.005,0.1,0.017639476437639415,0.011534140969750592,0
6.542278289794922,2.116558899691612,[2.34211727],0.005,0.1,0.016228318395441893,0.011537249968708856,0
6.551725149154663,2.116558899691612,[2.34213769],0.005,0.1,0.01493005297477608,0.01154043205171506,0
6.56267786026001,2.116558899691612,[2.3421578],0.005,0.1,0.013735648772472683,0.011544370474559537,0
6.571767568588257,2.116558899691612,[2.3421776],0.005,0.1,0.012636796895649949,0.011546054028269767,0
6.58150577545166,2.1163635009748756,[2.34219705],0.005,0.1,0.011625853161480517,0.01157881389773377,0
6.590283632278442,2.1163635009748756,[2.34221612],0.005,0.1,0.010695784920799853,0.011582087386910295,0
6.598662614822388,2.1163635009748756,[2.34223476],0.005,0.1,0.009840122135702296,0.011584156326686966,0
6.60924506187439,2.1163635009748756,[2.34225296],0.005,0.1,0.009052912370842634,0.011587479966230657,0
6.616989612579346,2.1163635009748756,[2.34227071],0.005,0.1,0.008328679385372802,0.011589756915438584,0
6.625523090362549,2.1163635009748756,[2.34228799],0.005,0.1,0.007662385037481262,0.011592401053786873,0
6.6352434158325195,2.1163635009748756,[2.3423048],0.005,0.1,0.00704939423653956,0.01159490712745155,0
6.644369840621948,2.1163635009748756,[2.34232114],0.005,0.1,0.0064854426990561655,0.01159740555554197,0
6.654263257980347,2.1163635009748756,[2.34233702],0.005,0.1,0.005966607284139508,0.011599859591785415,0
6.663208484649658,2.1163635009748756,[2.34235244],0.005,0.1,0.005489278702113824,0.011602282561672778,0
6.670761346817017,2.1163635009748756,[2.34236743],0.005,0.1,0.005050136406438558,0.011604097368695554,0
6.681455135345459,2.1163635009748756,[2.34238195],0.005,0.1,0.004646125494269164,0.011606369843222308,0
6.692687511444092,2.1163635009748756,[2.342396],0.005,0.1,0.004274435454969614,0.011608583144764704,0
6.702671766281128,2.1163635009748756,[2.34240962],0.005,0.1,0.003932480618741423,0.011610717240148869,0
6.712651491165161,2.116168102258139,[2.34242334],0.005,0.1,0.003617882169360687,0.011675311067647956,0
6.722671031951904,2.116168102258139,[2.34244148],0.005,0.1,0.003328451595894827,0.012778524738668667,0
6.730635643005371,2.116168102258139,[2.34246836],0.005,0.1,0.003062175468281341,0.011694134224163807,0
6.7396674156188965,2.116168102258139,[2.34250103],0.005,0.1,0.0028172014308595053,0.011654547150899136,0
6.747970104217529,2.116168102258139,[2.34253466],0.005,0.1,0.0025918253164192114,0.011671996479559243,0
6.756652593612671,2.116168102258139,[2.34256697],0.005,0.1,0.0023844792911256038,0.011701321171154007,0
6.766698122024536,2.116168102258139,[2.34259544],0.005,0.1,0.002193720947849508,0.011863862306599532,0
6.776037216186523,2.116168102258139,[2.34261524],0.005,0.1,0.0020182232720313137,0.012623991876532004,0
6.7856409549713135,2.116168102258139,[2.34262052],0.005,0.1,0.001856765410275644,0.012612767275755828,0
6.793632507324219,2.115972703541402,[2.34260784],0.005,0.1,0.0017082241774583767,0.01268884407323536,0
6.802708387374878,2.116168102258139,[2.34257419],0.005,0.1,0.0015715662432650539,0.013718671150659553,0
6.812728404998779,2.116168102258139,[2.34251357],0.005,0.1,0.0014458409438061954,0.015221884461915032,0
6.821651935577393,2.115972703541402,[2.34241819],0.005,0.1,0.0013301736683033398,0.01720319458917544,0
6.831728219985962,2.115972703541402,[2.34227976],0.005,0.1,0.0012237597748402228,0.019689754121609233,0
6.841167449951172,2.115972703541402,[2.3420896],0.005,0.1,0.0011258589928538091,0.022722966825675837,0
6.851662874221802,2.115972703541402,[2.34183875],0.005,0.1,0.001035790273426066,0.026236018395533578,0
6.861778497695923,2.115972703541402,[2.34151825],0.005,0.1,0.000952927051552375,0.03024093092574587,0
6.870806932449341,2.115972703541402,[2.34111925],0.005,0.1,0.0008766928874284626,0.0346471225277207,0
6.880656719207764,2.115972703541402,[2.3406332],0.005,0.1,0.0008065574564343789,0.039397886505994476,0
6.889986515045166,2.115972703541402,[2.34005204],0.005,0.1,0.0007420328599197623,0.04438441925140689,0
6.897697925567627,2.115972703541402,[2.33936817],0.005,0.1,0.0006826702311262761,0.04980362680401041,0
6.907409191131592,2.115972703541402,[2.33857453],0.005,0.1,0.0006280566126362394,0.05548163058115054,0
6.921190023422241,2.115972703541402,[2.33765968],0.005,0.1,0.0005778120836253875,0.08202224891893072,0
6.930706739425659,2.115972703541402,[2.33661319],0.005,0.1,0.0005315871169353895,0.06340958139313084,0
6.938737154006958,2.115972703541402,[2.33544035],0.005,0.1,0.0004890601475805804,0.05205922503098205,0
6.9487624168396,2.115972703541402,[2.33415048],0.005,0.1,0.00044993533577415007,0.06402887148698119,0
6.958188533782959,2.115972703541402,[2.33274146],0.005,0.1,0.0004139405089122291,0.0756508160226824,0
6.9663615226745605,2.115972703541402,[2.33120591],0.005,0.1,0.0003808252681992587,0.08685664436302372,0
6.974739074707031,2.115972703541402,[2.32954311],0.005,0.1,0.00035035924674332343,0.06980368552584668,0
6.98775839805603,2.115972703541402,[2.32775184],0.005,0.1,0.00032233050700386154,0.11762896667769066,0
6.997721910476685,2.115972703541402,[2.32581828],0.005,0.1,0.00029654406644355583,0.12538311189287066,0
7.005841493606567,2.115972703541402,[2.32373044],0.005,0.1,0.00027282054112807297,0.1330274792056456,0
7.014986753463745,2.115972703541402,[2.32148417],0.005,0.1,0.0002509948978378283,0.14153317084764147,0
7.0251145362854,2.115972703541402,[2.31907566],0.005,0.1,0.00023091530601080325,0.15061358903466354,0
7.033828973770142,2.115972703541402,[2.31650139],0.005,0.1,0.00021244208152993924,0.15993295110556816,0
7.044632434844971,2.115972703541402,[2.31374982],0.005,0.1,0.0001954467150075448,0.227423102508563,0
7.056387424468994,2.115972703541402,[2.31080279],0.005,0.1,0.0001798109778069414,0.22009151859406323,0
7.065647125244141,2.115972703541402,[2.30766202],0.005,0.1,0.0001654260995823863,0.1603258348971696,0
7.073675632476807,2.115972703541402,[2.30434614],0.005,0.1,0.00015219201161579561,0.17658611015656114,0
7.084818601608276,2.116168102258139,[2.30086246],0.005,0.1,0.0001400166506865318,0.1907147700567556,0
7.092714786529541,2.116168102258139,[2.29721821],0.005,0.1,0.0001288153186316094,0.1440293464819775,0
7.1007421016693115,2.1163635009748756,[2.29342936],0.005,0.1,0.2761568697718221,0.1677182924555251,0
7.11152720451355,2.116558899691612,[2.28949048],0.005,0.1,0.3092719921258125,0.254984343229842,0
7.120630502700806,2.116754298408349,[2.2853878],0.005,0.1,0.5302043728697735,0.18379585356990125,0
7.1317315101623535,2.1169496971250856,[2.28111958],0.005,0.1,0.7632743059995151,0.2704446765963291,0
7.143378973007202,2.117145095841822,[2.27667427],0.005,0.1,0.6707715923521524,0.26289169313258104,0
7.151760816574097,2.1173404945585586,[2.27204238],0.005,0.1,0.7589991026060157,0.2595390525297578,0
7.160300970077515,2.117731291992032,[2.2672375],0.005,0.1,0.879550528776568,0.1847692540489479,0
7.169901609420776,2.117926690708769,[2.26228315],0.005,0.1,0.9770508785545695,0.20080113539255057,0
7.180596351623535,2.1185128868589786,[2.25718888],0.005,0.1,1.036879104733695,0.21217456236373658,0
7.1916728019714355,2.118903684292452,[2.25195189],0.005,0.1,1.3368053545618261,0.2189787776710742,0
7.201821565628052,2.119489880442662,[2.24657007],0.005,0.1,1.3649771566041689,0.22159677056027927,0
7.210365533828735,2.120076076592872,[2.24104211],0.005,0.1,1.2839116581921939,0.22114810007979605,0
7.218791961669922,2.1204668740263455,[2.23537946],0.005,0.1,1.4437056135125748,0.15784135809744232,0
7.2267982959747314,2.1208576714598184,[2.22960438],0.005,0.1,1.357332634383071,0.17096815425614417,0
7.2364661693573,2.121443867610029,[2.22372404],0.005,0.1,1.1918167767827141,0.17757941362239052,0
7.245325088500977,2.1220300637602385,[2.21773265],0.005,0.1,1.017963123937421,0.1784905165933834,0
7.25363564491272,2.1224208611937123,[2.21163796],0.005,0.1,0.8622413375766108,0.1267986166980978,0
7.264026165008545,2.1230070573439224,[2.20544624],0.005,0.1,0.45555989590275875,0.18484702026939545,0
7.272731781005859,2.1235932534941324,[2.19915024],0.005,0.1,0.315910560063986,0.1257244485307339,0
7.283727645874023,2.1239840509276053,[2.19275707],0.005,0.1,0.00894964971402784,0.12652242428605956,0
7.292725086212158,2.124570247077816,[2.18627261],0.005,0.1,-0.29367041045860687,0.12167965015381434,0
7.301042795181274,2.1249610445112888,[2.17968884],0.005,0.1,-0.5338708605158418,0.11279602962054612,0
7.310580015182495,2.125351841944762,[2.17299907],0.005,0.1,-0.9779660199575336,0.10047548408769155,0
7.320626974105835,2.1257426393782355,[2.16619773],0.005,0.1,-1.3916016032876024,0.08547593457333577,0
7.332716703414917,2.126133436811709,[2.1592803],0.005,0.1,-1.7001392230375765,0.06821770616731239,0
7.342796087265015,2.1263288355284455,[2.15224323],0.005,0.1,-1.8958114800858024,0.049646858530992814,0
7.352719306945801,2.1263288355284455,[2.14508341],0.005,0.1,-1.9952136237438813,0.030055367154648772,0
7.362192153930664,2.1265242342451827,[2.13779857],0.005,0.1,-2.296826179789052,0.008105346228262025,0
7.371723651885986,2.1265242342451827,[2.13038787],0.005,0.1,-2.57868218881681,-0.014593497548196922,0
7.381597518920898,2.1263288355284455,[2.12285113],0.005,0.1,-3.0457181214025644,-0.038051302797777,0
7.390870809555054,2.1263288355284455,[2.11518846],0.005,0.1,-2.8950198253685193,-0.06340614561157426,0
7.39870810508728,2.126133436811709,[2.1074155],0.005,0.1,-2.815341905739619,-0.061053278729414684,0
7.410227060317993,2.1257426393782355,[2.09954594],0.005,0.1,-3.0159256088524655,-0.1276548774091434,0
7.420478820800781,2.125351841944762,[2.09156191],0.005,0.1,-2.6803748242331253,-0.15345452079035285,0
7.430666208267212,2.1247656457945525,[2.08344898],0.005,0.1,-2.755855605108266,-0.17931840371606178,0
7.43949294090271,2.1239840509276053,[2.07521073],0.005,0.1,-2.640238574766373,-0.20579099179513471,0
7.448754549026489,2.1233978547773957,[2.06685101],0.005,0.1,-2.7294107817590305,-0.23442907382177586,0
7.457319736480713,2.1222254624769756,[2.05837378],0.005,0.1,-3.1108678341423897,-0.2619290695430653,0
7.465598106384277,2.1210530701765555,[2.04979876],0.005,0.1,-3.4766333527790048,-0.2059915557497432,0
7.476014137268066,2.119489880442662,[2.04115882],0.005,0.1,-4.002169508453547,-0.2508861217638113,0
7.483683109283447,2.118317488142242,[2.0324822],0.005,0.1,-4.43127390557469,-0.20383362712350694,0
7.49366569519043,2.1163635009748756,[2.02379294],0.005,0.1,-4.970660513800409,-0.2606365871982416,0
7.502604722976685,2.1144095138075087,[2.01509531],0.005,0.1,-5.0,-0.3137259316409425,0
7.510676622390747,2.1126509253568786,[2.00637679],0.005,0.1,-5.0,-0.36288474383114994,0
7.521084547042847,2.109915343322565,[1.99762641],0.005,0.1,-5.0,-0.40486859136573505,0
7.529420614242554,2.1075705587217253,[1.98883468],0.005,0.1,-5.0,-0.4445364595365666,0
7.538628816604614,2.1044441792539383,[1.98000964],0.005,0.1,-5.0,-0.3371201219773269,0
7.547924041748047,2.1015131985028885,[1.97115794],0.005,0.1,-5.0,-0.5598106212924852,0
7.557585716247559,2.097605224168155,[1.96226905],0.005,0.1,-5.0,-0.41118318046415275,0
7.570533037185669,2.0925248575330015,[1.95333402],0.005,0.1,-5.0,-0.6391238330520281,0
7.58139443397522,2.0884214844815316,[1.94432904],0.005,0.1,-5.0,-0.6409139764960804,0
7.5916266441345215,2.083927313996588,[1.93523437],0.005,0.1,-5.0,-0.6456725072296715,0
7.601624011993408,2.0796285422283813,[1.92605031],0.005,0.1,-5.0,-0.6562454085561779,0
7.6117103099823,2.075915966610385,[1.91677782],0.005,0.1,-4.389004548419148,-0.6729349071776995,0
7.624093055725098,2.070444802541758,[1.90740175],0.005,0.1,-3.5929201038639045,-0.9195996550903136,0
7.635338068008423,2.0659506320568144,[1.89787683],0.005,0.1,-2.017262927754065,-1.140656658176613,0
7.6436378955841064,2.0626288538722912,[1.88818277],0.005,0.1,-0.18971268073272562,-0.780687320181676,0
7.654607057571411,2.058134683387348,[1.87835426],0.005,0.1,1.9260658597142144,-0.7877563049148636,0
7.66668438911438,2.0528589180354575,[1.86840524],0.005,0.1,3.4335048379639597,-1.0707042292960685,0
7.676050901412964,2.0487555449839876,[1.85833203],0.005,0.1,4.69348137294193,-0.7495040608754407,0
7.685588359832764,2.044847570649254,[1.84816643],0.005,0.1,5.0,-0.7913777460416955,0
7.6956422328948975,2.040744197597784,[1.8379362],0.005,0.1,5.0,-0.8329446418855894,0
7.706519365310669,2.0360546283961036,[1.82763151],0.005,0.1,5.0,-1.1697807101131272,0
7.716380834579468,2.0321466540613704,[1.81724475],0.005,0.1,5.0,-0.8260846695604009,0
7.728789806365967,2.027066287426217,[1.80678717],0.005,0.1,5.0,-1.187845821028263,0
7.738577127456665,2.0227675156580105,[1.79625183],0.005,0.1,5.0,-1.1532845788115913,0
7.749830722808838,2.018273345173067,[1.78563359],0.005,0.1,5.0,-1.1354801486580992,0
7.76165771484375,2.0133883772546506,[1.77492881],0.005,0.1,5.0,-1.495957600107381,0
7.773606061935425,2.0085034093362335,[1.76411824],0.005,0.1,4.898781910020759,-1.392681238296844,0
7.785736560821533,2.0034230427010797,[1.75318669],0.005,0.1,4.668142720033204,-1.7353780254187663,0
7.793628215789795,2.0001012645165566,[1.74215696],0.005,0.1,4.383633669300231,-1.7910439113745669,0
7.801657438278198,1.9967794863320332,[1.73110108],0.005,0.1,4.0832316390149535,-1.6327407582182585,0
7.8109517097473145,1.992676113280563,[1.72004571],0.005,0.1,3.7857896753997906,-1.9875889315031903,0
7.819717168807983,1.9887681389458298,[1.70897884],0.005,0.1,3.5003853502344713,-1.354037773016207,0
7.83061146736145,1.9840785697441496,[1.69792481],0.005,0.1,3.2310793422287,-1.3518250342581222,0
7.8426477909088135,1.9791936018257328,[1.68690387],0.005,0.1,2.979352181762568,-1.3623006120340573,0
7.852802276611328,1.9750902287742627,[1.67589805],0.005,0.1,2.7453613445115685,-1.8371208470172737,0
7.865648031234741,1.9698144634223727,[1.66485719],0.005,0.1,2.528595526279511,-2.234133663872697,0
7.87366795539856,1.9664926852378493,[1.65377381],0.005,0.1,2.328218523320209,-2.294859794965941,0
7.883709669113159,1.9621939134696424,[1.64269409],0.005,0.1,2.143251727161157,-2.627064035501762,0
7.89365029335022,1.9580905404181725,[1.63163965],0.005,0.1,1.9726716881360957,-1.7599869583705816,0
7.905334711074829,1.9535963699332293,[1.62061097],0.005,0.1,1.8154623320653718,-2.237975710026091,0
7.914713144302368,1.9496883955984958,[1.60959062],0.005,0.1,1.6706425655744628,-2.0587034022467674,0
7.9256041049957275,1.9451942251135523,[1.59856365],0.005,0.1,1.5372802917747412,-1.9394335981016335,0
7.936611890792847,1.9403092571951355,[1.58753483],0.005,0.1,1.4144987991422047,-1.865716698590642,0
7.94562029838562,1.9365966815771387,[1.57650819],0.005,0.1,1.3014788160559478,-1.8299661164296936,0
7.9551451206207275,1.9322979098089321,[1.56546965],0.005,0.1,1.1974580900373675,-2.387845487907985,0
7.963560581207275,1.9289761316244087,[1.55440739],0.005,0.1,1.1017295656575898,-1.6650071485038862,0
7.975040912628174,1.9240911637059919,[1.54334654],0.005,0.1,1.013638795049814,-1.7096188697882089,0
7.9865782260894775,1.9194015945043117,[1.53230827],0.005,0.1,0.9325809620314522,-1.7566110714282284,0
7.995023965835571,1.9160798163197883,[1.52129276],0.005,0.1,0.8579977516460965,-1.8061413014265315,0
8.002572298049927,1.9129534368520016,[1.51031731],0.005,0.1,0.7893742067019465,-1.337909308670598,0
8.013827323913574,1.908459266367058,[1.49941338],0.005,0.1,0.7262356570888895,-1.5111563978845335,0
8.025651693344116,1.9035742984486415,[1.48855419],0.005,0.1,0.6681447725138091,-2.911530879896944,0
8.03429889678955,1.9000571215473812,[1.47768161],0.005,0.1,0.6146987668800262,-2.01507692763266,0
8.04250693321228,1.8963445459293846,[1.46679894],0.005,0.1,0.2894884084546032,-2.035157240077915,0
8.052597761154175,1.8922411728779145,[1.45592656],0.005,0.1,0.2111243953082609,-2.0648981651924596,0
8.063579797744751,1.887747002392971,[1.44506409],0.005,0.1,0.22460057509589487,-2.094426645797031,0
8.074577569961548,1.8830574331912913,[1.43421108],0.005,0.1,0.2623936159475311,-2.12478536139625,0
8.086848020553589,1.8779770665561377,[1.42336693],0.005,0.1,0.021648925229858285,-2.154188897291462,0
8.094626903533936,1.8742644909381412,[1.41254844],0.005,0.1,0.012735148759140835,-1.5920458723317876,0
8.105873823165894,1.8697703204531975,[1.40176941],0.005,0.1,0.08001172242029295,-2.4222077719231065,0
8.113662719726562,1.8668393397021477,[1.39102353],0.005,0.1,0.15807889915924844,-1.7711771067831727,0
8.124135971069336,1.8623451692172042,[1.38030501],0.005,0.1,0.222890939718927,-2.6105804677796587,0
8.13319206237793,1.8588279923159439,[1.36959113],0.005,0.1,0.2684458474459189,-2.563650475045666,0
8.140579223632812,1.8557016128481572,[1.35888006],0.005,0.1,0.2959231757633397,-1.8701513752855827,0
8.15260362625122,1.8504258474962672,[1.34820512],0.005,0.1,0.308807753021362,-2.0345385412407344,0
8.16367793083191,1.8459316770113239,[1.33757653],0.005,0.1,0.5868780614016801,-2.177306173323466,0
8.171622037887573,1.8426098988268003,[1.32698472],0.005,0.1,0.3383855605169042,-2.295442479016696,0
8.181395530700684,1.838701924492067,[1.31642108],0.005,0.1,0.23953114316940236,-2.389199170190823,0
8.191620826721191,1.8345985514405967,[1.30587796],0.005,0.1,0.48080651397760515,-2.4660059866769317,0
8.201181173324585,1.8304951783891268,[1.29534865],0.005,0.1,0.503953318271882,-2.531368702924616,0
8.210278511047363,1.8263918053376569,[1.28482724],0.005,0.1,0.44641739151357596,-2.591287018639468,0
8.217613220214844,1.8232654258698702,[1.27432614],0.005,0.1,0.3684764427422036,-1.9324536226321851,0
8.228657245635986,1.8189666541016634,[1.26385557],0.005,0.1,0.018313780157574955,-2.9282256954602586,0
8.238375663757324,1.8152540784836664,[1.25338869],0.005,0.1,0.19888358561175268,-2.914888101677166,0
8.247607946395874,1.8113461041489332,[1.24290264],0.005,0.1,0.2376160200319714,-2.908420254505853,0
8.25559139251709,1.8080243259644098,[1.232431],0.005,0.1,-0.05557209347964956,-2.9505203658153074,0
8.26459527015686,1.8045071490631495,[1.22203703],0.005,0.1,-0.12322765705762603,-2.9594943879229216,0
8.272587299346924,1.801185370878626,[1.21173817],0.005,0.1,-0.10392845059242864,-2.9774009493954816,0
8.282562255859375,1.7972773965438928,[1.20151286],0.005,0.1,0.2169888436840421,-2.9999686513737718,0
8.291644811630249,1.7931740234924227,[1.19134192],0.005,0.1,0.2954106505203551,-3.0259545071169036,0
8.302685260772705,1.7884844542907428,[1.18120837],0.005,0.1,0.2773038392957603,-3.051919132340744,0
8.312642335891724,1.7841856825225362,[1.17109736],0.005,0.1,0.2282274611167071,-3.0817315877609412,0
8.321560621261597,1.7804731069045392,[1.16099603],0.005,0.1,0.17576466469891788,-3.1169914263874823,0
8.330307960510254,1.7769559300032791,[1.1508934],0.005,0.1,0.1300701969512353,-3.1550008402692447,0
8.337577104568481,1.7736341518187557,[1.14079771],0.005,0.1,0.09367623754397193,-2.357596874612825,0
8.34802508354187,1.769335380050549,[1.13071589],0.005,0.1,0.06606777925915926,-3.502383067723984,0
8.355957746505737,1.7662090005827624,[1.12063608],0.005,0.1,0.045741046058760226,-2.5864769995988133,0
8.36365556716919,1.7630826211149755,[1.11058331],0.005,0.1,0.031072215091013006,-2.028976386896672,0
8.37163519859314,1.7595654442137154,[1.10059593],0.005,0.1,0.020639439944882876,-2.3989788404297188,0
8.381994724273682,1.7554620711622455,[1.09067049],0.005,0.1,0.013305228771766226,-2.695918087959763,0
8.389631032943726,1.7523356916944586,[1.08080329],0.005,0.1,0.008202592575580892,-2.1230536891546863,0
8.397573232650757,1.749209312226672,[1.0710255],0.005,0.1,0.004689593288302379,-1.768548063528527,0
8.406596422195435,1.7454967366086753,[1.06136234],0.005,0.1,0.002299651830841795,-2.228928468703899,0
8.41649603843689,1.7413933635572052,[1.0517986],0.005,0.1,0.0006978280495732937,-2.6057925495136476,0
8.428060531616211,1.7361175982053152,[1.04228513],0.005,0.1,-0.0003542492581785041,-3.8592197436706694,0
8.436343908309937,1.7327958200207916,[1.03277973],0.005,0.1,-0.0010251625218369808,-2.8613713751722165,0
8.446629762649536,1.728497048252585,[1.02328168],0.005,0.1,-0.0014335654929502444,-3.0968436867964275,0
8.455570697784424,1.7249798713513247,[1.01379026],0.005,0.1,0.2743757188792294,-3.2921283990813586,0
8.463563919067383,1.7216580931668013,[1.00428729],0.005,0.1,0.3073924662400114,-3.4461054414988963,0
8.473563194274902,1.7173593213985947,[0.99475761],0.005,0.1,0.252268125089658,-3.561950252024547,0
8.482593059539795,1.7140375432140713,[0.98518873],0.005,0.1,0.17620876075627023,-3.66123295062147,0
8.49157977104187,1.710129568879338,[0.97557064],0.005,0.1,0.10574509305221044,-3.7414478980632597,0
8.50143027305603,1.7062215945446046,[0.9658955],0.005,0.1,0.04920239540991572,-3.808691468822099,0
8.510403394699097,1.702313620209871,[0.95615746],0.005,0.1,0.007294933934599783,-3.8692517188620412,0
8.520224571228027,1.698210247158401,[0.94635241],0.005,0.1,-0.022025103021877428,-3.921980503046549,0
8.529897689819336,1.6943022728236676,[0.93647778],0.005,0.1,-0.04145688102525208,-3.973354035361498,0
8.538095474243164,1.6907850959224076,[0.92653229],0.005,0.1,-0.05351511925277356,-4.024900281026411,0
8.546569108963013,1.6872679190211477,[0.91653327],0.005,0.1,-0.06026583097815792,-3.04909243150582,0
8.557558059692383,1.682773748536204,[0.90649611],0.005,0.1,-0.06330169397037323,-4.453038266369831,0
8.565590620040894,1.6788657742014708,[0.89641679],0.005,0.1,-0.06380494137431936,-3.327658789432981,0
8.575324773788452,1.6747624011500006,[0.88630998],0.005,0.1,-0.06263141025559787,-3.5973256662174666,0
8.585362195968628,1.6704636293817938,[0.87618837],0.005,0.1,-0.06038935044207733,-3.8143791341595192,0
8.596554517745972,1.666164857613587,[0.86604547],0.005,0.1,-0.05750454354810877,-3.982979303771235,0
8.608193397521973,1.661475288411907,[0.85585864],0.005,0.1,-0.05427083088149605,-5.341100940722933,0
8.6176016330719,1.65776271279391,[0.84560937],0.005,0.1,-0.05088792599214035,-3.898108429760223,0
8.626626968383789,1.6540501371759135,[0.83530037],0.005,0.1,-0.04748907802418998,-5.296617554003237,0
8.635980129241943,1.6499467641244434,[0.8249348],0.005,0.1,-0.04416100856250241,-3.890390403019132,0
8.643587589263916,1.64662498593992,[0.81455098],0.005,0.1,-0.04095813087480207,-3.0489040690797733,0
8.654588460922241,1.6423262141717134,[0.80419905],0.005,0.1,-0.03791261412853773,-3.4774737959194706,0
8.665401935577393,1.63783204368677,[0.79386879],0.005,0.1,-0.035041464417626914,-5.011983181057907,0
8.67354440689087,1.6345102655022465,[0.78353394],0.005,0.1,-0.03235148176418475,-3.766698868167154,0
8.682592630386353,1.6304068924507764,[0.77320733],0.005,0.1,-0.02984271382622131,-4.042917545471911,0
8.69353699684143,1.625912721965833,[0.76290002],0.005,0.1,-0.027510850368960407,-4.259718122558476,0
8.70551061630249,1.6208323553306796,[0.75258694],0.005,0.1,0.2506894856717553,-5.70063508495924,0
8.713581800460815,1.6173151784294195,[0.7422476],0.005,0.1,0.28581477252984666,-4.194906928845161,0
8.722908973693848,1.6137980015281594,[0.73188313],0.005,0.1,0.23256631177777087,-5.630406326641939,0
8.731972694396973,1.610085425910163,[0.72147895],0.005,0.1,0.158187916096779,-5.379722700172978,0
8.739611625671387,1.6069590464423762,[0.71104094],0.005,0.1,0.08923932155493654,-4.010160434011245,0
8.748857736587524,1.6030510721076425,[0.70060921],0.005,0.1,0.03406848408410784,-4.218446874326657,0
8.756592273712158,1.5997292939231191,[0.69021827],0.005,0.1,-0.006592278299309855,-3.3299941335582948,0
8.76866865158081,1.5948443260047027,[0.67988101],0.005,0.1,-0.034776144312203314,-4.829562312127561,0
8.778253078460693,1.590936351669969,[0.66957574],0.005,0.1,-0.053170201419551776,-4.812551410305827,0
8.787670612335205,1.586832978618499,[0.65928463],0.005,0.1,-0.06427902679192055,-4.789696553668791,0
8.79611325263977,1.5829250042837657,[0.64902565],0.005,0.1,-0.07015998240337615,-3.6850965470984995,0
8.805571556091309,1.579212428665769,[0.63883019],0.005,0.1,-0.07239826259676391,-3.9836315153253343,0
8.815903902053833,1.5747182581808254,[0.62870833],0.005,0.1,-0.0721695489176856,-4.214463727999138,0
8.824357748031616,1.571396479996302,[0.61865195],0.005,0.1,-0.07032388422362258,-4.395982662624034,0
8.833550453186035,1.5676839043783053,[0.60866955],0.005,0.1,-0.06746435098397305,-3.485361554581134,0
8.842591762542725,1.5637759300435718,[0.59878346],0.005,0.1,-0.06401209117631704,-3.8677818250638025,0
8.853667736053467,1.559086360841892,[0.5889796],0.005,0.1,-0.060256757683145076,-5.343316656122277,0
8.865129947662354,1.554787589073685,[0.57919718],0.005,0.1,-0.05639426673471862,-6.605472483172475,0
8.872570514678955,1.551856608322635,[0.56941624],0.005,0.1,-0.052554413165061264,-6.686225077977138,0
8.883534908294678,1.5473624378376918,[0.55966748],0.005,0.1,-0.04882076805166172,-7.690525856527998,0
8.89359164237976,1.5430636660694848,[0.5499604],0.005,0.1,-0.045244865416119814,-5.487547517512656,0
8.905869483947754,1.5377879007175947,[0.54028668],0.005,0.1,-0.041856238974184265,-6.749407418685854,0
8.913524389266968,1.5344661225330716,[0.53063908],0.005,0.1,-0.03866947962283422,-4.965117266441766,0
8.924259185791016,1.529971952048128,[0.52101178],0.005,0.1,-0.03568917199599846,-6.325891780605515,0
8.933198928833008,1.5262593764301313,[0.51138477],0.005,0.1,-0.3089516898882163,-5.963656949151108,0
8.940649271011353,1.5231329969623446,[0.50175774],0.005,0.1,-0.3394987392407063,-4.50396903444861,0
8.948582887649536,1.5200066174945577,[0.49216289],0.005,0.1,-0.2820134834756223,-4.660942365900688,0
8.956608295440674,1.5164894405932978,[0.48262804],0.005,0.1,0.07231849742231852,-3.7360269202326526,0
8.964540481567383,1.5131676624087744,[0.47317705],0.005,0.1,0.17800586579478284,-4.070650881747663,0
8.976480722427368,1.5082826944903576,[0.46381585],0.005,0.1,-0.0946253611249118,-4.282578287930114,0
8.986554145812988,1.5041793214388874,[0.45453569],0.005,0.1,-0.16010137860182747,-4.39816954622788,0
8.996610641479492,1.5000759483874173,[0.44533112],0.005,0.1,-0.14451175877434572,-4.43026125707337,0
9.008066654205322,1.4953863791857371,[0.436187],0.005,0.1,-0.10404689039680073,-5.371527354075729,0
9.016052722930908,1.4920646010012137,[0.42709339],0.005,0.1,-0.3380503139717671,-4.0670054386240215,0
9.027004957199097,1.487375031799534,[0.41805886],0.005,0.1,-0.3358769136298442,-4.868817215128992,0
9.036057233810425,1.483857854898274,[0.40909376],0.005,0.1,-0.25403699908804356,-3.7324787099090915,0
9.044908285140991,1.4797544818468038,[0.40022088],0.005,0.1,-0.15904560674783785,-3.684629519360637,0
9.053946495056152,1.4758465075120701,[0.39146235],0.005,0.1,-0.0759592558202273,-3.611172096987588,0
9.064226388931274,1.4713523370271269,[0.38282729],0.005,0.1,-0.2876195835124688,-3.5087278120296683,0
9.07255482673645,1.4684213562760768,[0.37432556],0.005,0.1,0.0015552749006956523,-3.4056902286362525,0
9.08254623413086,1.46412258450787,[0.36596729],0.005,0.1,0.12099881716383137,-3.291011931245069,0
9.091520071029663,1.4606054076066102,[0.35777154],0.005,0.1,0.16164261679059277,-2.737543198294656,0
9.100972652435303,1.456697433271877,[0.34976406],0.005,0.1,0.16725086595795996,-2.7818384845077797,0
9.11162543296814,1.4520078640701966,[0.34195739],0.005,0.1,0.1585050901441036,-2.785999021132995,0
9.122604370117188,1.447513693585253,[0.33435301],0.005,0.1,0.14489695460918997,-2.7623295869445474,0
9.131605863571167,1.443410320533783,[0.32695225],0.005,0.1,0.1305699215404126,-2.724240641616667,0
9.141220569610596,1.4396977449157864,[0.31975621],0.005,0.1,0.1171667006903605,-2.676639531144967,0
9.150455951690674,1.4361805680145263,[0.3127657],0.005,0.1,0.10520155892793341,-2.623800989101295,0
9.159614086151123,1.4324679923965296,[0.30598119],0.005,0.1,0.09471043685936774,-2.567432208173207,0
9.167521238327026,1.4289508154952695,[0.29940944],0.005,0.1,0.08555073708307032,-2.27133029741404,0
9.17752981185913,1.4248474424437991,[0.29306202],0.005,0.1,0.07753348939729637,-2.295307796468171,0
9.18687915802002,1.4207440693923294,[0.28694086],0.005,0.1,0.07047698647218378,-2.298883077726133,0
9.19499921798706,1.4176176899245425,[0.28104585],0.005,0.1,0.06422485507817599,-2.108370180183021,0
9.202522039413452,1.414491310456756,[0.27538764],0.005,0.1,0.05864893802109068,-1.9954279906535655,0
9.213567018508911,1.4098017412550756,[0.26996776],0.005,0.1,0.053646398965107464,-2.21173143309225,0
9.223583459854126,1.4058937669203424,[0.26476845],0.005,0.1,0.04913521325843805,-2.195473949682102,0
9.233503341674805,1.4019857925856087,[0.25977887],0.005,0.1,0.04504974605551025,-2.032611748952922,0
9.242552995681763,1.398468615684349,[0.25499971],0.005,0.1,0.041337002026650714,-2.0522076802914992,0
9.25159239768982,1.3947560400663521,[0.25042503],0.005,0.1,0.03795365220097803,-2.0560477995921156,0
9.261745691299438,1.3900664708646722,[0.24604356],0.005,0.1,0.03486375994921428,-2.04410884061576,0
9.271537780761719,1.386158496529939,[0.24184488],0.005,0.1,0.03203707544473702,-2.0286897138726756,0
9.280649900436401,1.3822505221952053,[0.2378194],0.005,0.1,0.029447768985356546,-2.0082424295389485,0
9.288597345352173,1.3791241427274186,[0.23396233],0.005,0.1,0.027073493255975224,-1.9056226897873987,0
9.300574779510498,1.374239174809002,[0.2302689],0.005,0.1,0.024894687891114417,-1.9870530059100642,0
9.30957293510437,1.3703312004742685,[0.22672621],0.005,0.1,0.02289406074827606,-1.9550413591838793,0
9.319831609725952,1.3660324287060617,[0.22331923],0.005,0.1,0.021056197421142196,-1.9992046954176987,0
9.32883596420288,1.362319853088065,[0.22003549],0.005,0.1,0.019367263705723604,-1.9437150543679707,0
9.337589740753174,1.3586072774700682,[0.21687102],0.005,0.1,0.017814775566764834,-1.8424501360243806,0
9.346558094024658,1.3548947018520714,[0.21382879],0.005,0.1,0.016387418342973817,-1.8289545684410409,0
9.357130765914917,1.3507913288006015,[0.21090736],0.005,0.1,0.015074902126348023,-1.8126053740426382,0
9.365656614303589,1.347469550616078,[0.20810168],0.005,0.1,0.013867843969638858,-1.798729796014929,0
9.376542568206787,1.3429753801311346,[0.20540708],0.005,0.1,0.012757670230331945,-1.778852532765015,0
9.386609077453613,1.3386766083629278,[0.20281916],0.005,0.1,0.011736534241156196,-1.7594967149664626,0
9.39634370803833,1.334377836594721,[0.2003338],0.005,0.1,0.010797245834572198,-1.740692288555344,0
9.405222654342651,1.330860659693461,[0.19794711],0.005,0.1,0.009933210196792195,-1.725559413911124,0
9.412537336349487,1.327929678942411,[0.19565768],0.005,0.1,0.009138374199417088,-1.6897792851285793,0
9.423520803451538,1.3234355084574676,[0.19346392],0.005,0.1,0.2844455385141037,-1.7022183106839148,0
9.43357515335083,1.3191367366892608,[0.19136157],0.005,0.1,0.04085911988983831,-1.6618073009618841,0
9.445515155792236,1.3142517687708442,[0.18934664],0.005,0.1,0.22805679701663223,-1.666266800057226,0
9.454499959945679,1.3107345918695839,[0.18741541],0.005,0.1,0.23962435307817712,-1.6330194194240608,0
9.463560104370117,1.3068266175348506,[0.18556616],0.005,0.1,0.18956568226814685,-1.6220912738540403,0
9.471508502960205,1.3035048393503272,[0.18379705],0.005,0.1,0.12689972567216395,-1.6127143296582718,0
9.480809450149536,1.2995968650155938,[0.18210415],0.005,0.1,0.07055795809824839,-1.600028407410309,0
9.489238500595093,1.296079688114334,[0.18048379],0.005,0.1,0.02611081973132355,-1.5886188287829102,0
9.500655174255371,1.2915855176293904,[0.17893251],0.005,0.1,-0.006374621578033757,-1.5725472382912036,0
9.509493350982666,1.2878729420113935,[0.17744853],0.005,0.1,-0.02875966712711333,-1.551735580701199,0
9.522853374481201,1.2824017779427668,[0.17602862],0.005,0.1,-0.043294110581576326,-1.5511726719711674,0
9.530517578125,1.2792753984749798,[0.17466674],0.005,0.1,-0.05201958657820929,-1.5285820834649275,0
9.538530349731445,1.2759536202904564,[0.17336167],0.005,0.1,-0.05659249957512555,-1.5119681336089281,0
9.550519704818726,1.2708732536553033,[0.17211355],0.005,0.1,-0.05828032382181737,-1.5010256202646395,0
9.560725927352905,1.2667698806038332,[0.17091819],0.005,0.1,-0.058019098998193776,-1.4860607964020704,0
9.570076942443848,1.2632527037025731,[0.16977176],0.005,0.1,-0.05648368390244206,-1.4739274206794344,0
9.577507972717285,1.2601263242347864,[0.16867325],0.005,0.1,-0.05415190420044191,-1.4599451815122986,0
9.586525917053223,1.2564137486167894,[0.16762264],0.005,0.1,-0.05135691038816119,-1.4485565303034862,0
9.596521854400635,1.2519195781318462,[0.16661842],0.005,0.1,-0.04832752753213214,-1.4335428210393608,0
9.6065194606781,1.2476208063636394,[0.1656579],0.005,0.1,-0.04521832381619946,-1.419127143293049,0
9.617869853973389,1.2429312371619592,[0.16473761],0.005,0.1,-0.04213154660364393,-1.4055981347348714,0
9.627468347549438,1.2390232628272257,[0.16385438],0.005,0.1,-0.03913289983637429,-1.389274591565376,0
9.637972116470337,1.2347244910590192,[0.16300639],0.005,0.1,-0.036262779160151484,-1.3768678381375714,0
9.646953344345093,1.2306211180075495,[0.16219098],0.005,0.1,-0.03354421346378964,-1.3623226997702027,0
9.655532598495483,1.2274947385397625,[0.1614066],0.005,0.1,-0.030988445391749594,-1.350561848529111,0
9.664478778839111,1.2237821629217658,[0.16065267],0.005,0.1,-0.028598832743654497,-1.3399272385334295,0
9.676503658294678,1.2187017962866122,[0.15992678],0.005,0.1,-0.02637356255233718,-1.3219100691077326,0
9.686603784561157,1.214598423235142,[0.15922752],0.005,0.1,-0.024307529217864506,-1.3069934365343328,0
9.696327686309814,1.210495050183672,[0.1585551],0.005,0.1,-0.022393626134147998,-1.2934531786164618,0
9.707965612411499,1.2056100822652553,[0.15790798],0.005,0.1,0.2554147326150919,-1.2777425370182598,0
9.717575550079346,1.2018975066472588,[0.15728384],0.005,0.1,0.29017418145631374,-1.2646759240538155,0
9.728691101074219,1.1974033361623153,[0.15668132],0.005,0.1,0.23658549584977595,-1.2503512692707501,0
9.737488985061646,1.1934953618275819,[0.15609915],0.005,0.1,0.16189153526619765,-1.2368453205105552,0
9.748068571090698,1.1890011913426384,[0.15553606],0.005,0.1,0.09265083022767111,-1.222472272748619,0
9.755796432495117,1.1856794131581152,[0.15499086],0.005,0.1,0.03720999746915943,-1.2113943477731757,0
9.763550519943237,1.182162236256855,[0.15446374],0.005,0.1,-0.003700038160606999,-1.2001858739946307,0
9.773511409759521,1.1782542619221215,[0.15395538],0.005,0.1,-0.03211384988734115,-1.1875542888173893,0
9.783113241195679,1.174541686304125,[0.15346416],0.005,0.1,-0.05071988709063803,-1.175877291196982,0
9.790506362915039,1.171610705553075,[0.15298792],0.005,0.1,-0.062024035183574036,-1.166663898413111,0
9.799647808074951,1.1678981299350781,[0.15252603],0.005,0.1,-0.06808489842320972,-1.1548640061653166,0
9.807450532913208,1.1641855543170812,[0.1520785],0.005,0.1,-0.07048884114340676,-1.143196657895599,0
9.816248893737793,1.160668377415821,[0.15164518],0.005,0.1,-0.07041264024584953,-1.1320627205779306,0
9.826496839523315,1.1565650043643512,[0.15122464],0.005,0.1,-0.06870735959086455,-1.11896652851875,0
9.835890054702759,1.1528524287463542,[0.150815],0.005,0.1,-0.06597703026346455,-1.1073141391463661,0
9.845012187957764,1.1493352518450946,[0.15041579],0.005,0.1,-0.06264367347246802,-1.0963680389878638,0
9.852582931518555,1.1462088723773076,[0.15002717],0.005,0.1,-0.05899775554691976,-1.087071760708622,0
9.861501216888428,1.1423008980425742,[0.14964919],0.005,0.1,-0.05523594427533032,-1.0748048240748096,0
9.872636795043945,1.1376113288408942,[0.14928129],0.005,0.1,-0.05148872815655034,-1.0599879941392778,0
9.881190776824951,1.1338987532228972,[0.14892238],0.005,0.1,-0.04784031800167461,-1.0485535143955682,0
9.891558408737183,1.1295999814546906,[0.14857158],0.005,0.1,-0.04434283748056233,-1.035296735923256,0
9.902456998825073,1.1251058109697472,[0.14822818],0.005,0.1,-0.04102636355087638,-1.021480575517852,0
9.911540985107422,1.1213932353517506,[0.14789159],0.005,0.1,-0.0379059874275796,-1.0103260683429551,0
9.923590421676636,1.1167036661500704,[0.14756093],0.005,0.1,-0.03498675441217897,-0.9959350115261462,0
9.936593055725098,1.111037103364707,[0.14723464],0.005,0.1,-0.03226710269761409,-0.9786333422685443,0
9.945705652236938,1.1077153251801837,[0.14691155],0.005,0.1,-0.3057796044338375,-0.9690298522279214,0
9.956133127212524,1.1036119521287135,[0.14659167],0.005,0.1,-0.06052540964096986,-0.9571388547836699,0
9.965030670166016,1.09970397779398,[0.1462759],0.005,0.1,0.02986130966073533,-0.946256788630683,0
9.97351884841919,1.09618680089272,[0.14596578],0.005,0.1,0.052848889471016756,-0.9366644981201824,0
9.983492851257324,1.09208342784125,[0.14566226],0.005,0.1,-0.22690624015116906,-0.9244664726541004,0
9.991543531417847,1.0889570483734634,[0.1453654],0.005,0.1,-0.27222981302189697,-0.9162466604430901,0
10.001198291778564,1.08504907403873,[0.1450756],0.005,0.1,-0.2301881880170043,-0.9051837255271326,0
10.009671211242676,1.0813364984207332,[0.14479319],0.005,0.1,-0.1652406197908839,-0.8948206541081144,0
10.02019190788269,1.0768423279357897,[0.14451813],0.005,0.1,-0.3793128480517203,-0.8822496820293354,0
10.02811861038208,1.0733251510345296,[0.1442504],0.005,0.1,-0.3619656135565008,-0.8726511458051192,0
10.036043405532837,1.0700033728500062,[0.14399031],0.005,0.1,-0.26905369924521166,-0.8641217374455293,0
10.045904874801636,1.0660953985152728,[0.14373834],0.005,0.1,-0.16623457736135036,-0.853383653289718,0
10.053503513336182,1.0631644177642228,[0.14349487],0.005,0.1,0.19827220681001456,-0.8459498977593071,0
10.062479257583618,1.059451842146226,[0.14326013],0.005,0.1,0.023330143406273332,-0.8358513944200504,0
10.072460412979126,1.055348469094756,[0.14303405],0.005,0.1,-0.01631705891220983,-0.824763404665256,0
10.083039045333862,1.0508542986098126,[0.14281604],0.005,0.1,0.27136781686503797,-0.8122731705700575,0
10.091538667678833,1.0473371217085525,[0.14260555],0.005,0.1,0.3304987219102905,-0.8034578909679295,0
10.101337194442749,1.0430383499403457,[0.14240255],0.005,0.1,0.024796032079666047,-0.7921453220772092,0
10.11350679397583,1.0383487807386655,[0.14220676],0.005,0.1,-0.06455875693949516,-0.7794906907690944,0
10.124149322509766,1.034050008970459,[0.14201748],0.005,0.1,-0.06649740690044384,-0.7684474467822223,0
10.133501768112183,1.0301420346357255,[0.14183448],0.005,0.1,0.23691661196951058,-0.7588491787883432,0
10.142452716827393,1.0260386615842554,[0.14165796],0.005,0.1,0.026085807916587475,-0.7483833963486324,0
10.151550531387329,1.0223260859662586,[0.14148779],0.005,0.1,-0.03454864636364276,-0.7390231825020165,0
10.161168336868286,1.0186135103482619,[0.14132362],0.005,0.1,-0.03488474594752848,-0.7297185016864299,0
10.171542882919312,1.014510137296792,[0.14116506],0.005,0.1,-0.015322299446825983,-0.7195162064118389,0
10.181065797805786,1.0107975616787952,[0.14101174],0.005,0.1,0.007114481651315754,-0.7103598871878163,0
10.190128803253174,1.0068895873440618,[0.14086328],0.005,0.1,0.02612843630132023,-0.7007864882568426,0
10.198455810546875,1.0035678091595384,[0.14071946],0.005,0.1,0.040114048215944414,-0.693115195331531,0
10.209390640258789,0.9992690373913317,[0.14058007],0.005,0.1,0.049341898927449564,-0.6822769221217506,0
10.219907999038696,0.9949702656231248,[0.14044443],0.005,0.1,0.3307307157878847,-0.6719532458528111,0
10.231456756591797,0.9898898989879715,[0.14031171],0.005,0.1,0.09024600059799524,-0.6595909929066796,0
10.242967128753662,0.9850049310695548,[0.14018119],0.005,0.1,0.0023655116454174008,-0.6482173357974063,0
10.251820087432861,0.981292355451558,[0.1400526],0.005,0.1,0.2563308499812517,-0.6400139463042751,0
10.26272177696228,0.9769935836833512,[0.1399259],0.005,0.1,0.2930028005417048,-0.6297659986124159,0
10.270482301712036,0.9734764067820911,[0.13980081],0.005,0.1,0.24922257602540196,-0.6222058066266696,0
10.280916690826416,0.9691776350138844,[0.13967729],0.005,0.1,0.18486432288023644,-0.6124957651527408,0
10.290093898773193,0.9656604581126244,[0.13955528],0.005,0.1,0.12388964073957234,-0.6046690361799595,0
10.300641059875488,0.9613616863444175,[0.13943457],0.005,0.1,0.07410298238022575,-0.5951870425055424,0
10.309515237808228,0.9574537120096842,[0.13931494],0.005,0.1,0.036489096978203184,-0.5866690484518183,0
10.323230743408203,0.9521779466577941,[0.13919604],0.005,0.1,0.009503613531014766,-0.5749522708983404,0
10.332439661026001,0.9484653710397973,[0.13907758],0.005,0.1,-0.009046325994016759,-0.5674545827387465,0
10.341497659683228,0.9447527954218007,[0.13895971],0.005,0.1,-0.021246975954526216,-0.5596185878699886,0
10.35346007347107,0.9394770300699106,[0.13884237],0.005,0.1,-0.02883006747125513,-0.5482918164822409,0
10.363569259643555,0.9351782583017039,[0.13872516],0.005,0.1,-0.03313955697127647,-0.5395031851188528,0
10.372537851333618,0.931465682683707,[0.13860813],0.005,0.1,-0.03517846893322531,-0.5323322161152092,0
10.384068012237549,0.9271669109155003,[0.13849153],0.005,0.1,0.24036163965063412,-0.5233212485771239,0
10.392561197280884,0.9234543352975034,[0.1383754],0.005,0.1,0.2740068728648363,-0.5162724780861366,0
10.40398383140564,0.9187647660958235,[0.13825977],0.005,0.1,0.2200812794250657,-0.5067035865943895,0
10.411556243896484,0.9156383866280366,[0.13814468],0.005,0.1,0.14556276720302824,-0.5009568393816791,0
10.42346978187561,0.9109488174263566,[0.13803015],0.005,0.1,0.07682509924897496,-0.49158871478737504,0
10.43249225616455,0.9072362418083599,[0.13791607],0.005,0.1,0.02208711886941505,-0.484592733799124,0
10.442128419876099,0.9033282674736265,[0.13780235],0.005,0.1,-0.018007791265434742,-0.477280637769329,0
10.449480772018433,0.9000064892891031,[0.13768928],0.005,0.1,-0.045553506360724465,-0.4713970009996193,0
10.458007574081421,0.8966847111045797,[0.13757741],0.005,0.1,-0.06327805270879205,-0.46551892800913497,0
10.467501878738403,0.8927767367698464,[0.13746722],0.005,0.1,-0.07371318228166575,-0.458250028416348,0
10.478463411331177,0.888282566284903,[0.13735876],0.005,0.1,-0.07893388684664115,-0.4499888569022364,0
10.486428022384644,0.8849607881003796,[0.13725189],0.005,0.1,-0.08053640604962477,-0.4439926934015763,0
10.496332883834839,0.8808574150489095,[0.1371465],0.005,0.1,-0.07970295404486138,-0.43669131270004236,0
10.504448175430298,0.8771448394309127,[0.13704251],0.005,0.1,-0.07728703974353354,-0.43015323190067434,0
10.512474060058594,0.8738230612463893,[0.13694014],0.005,0.1,-0.07389315182314848,-0.42438832165796414,0
10.525813102722168,0.8681564984610259,[0.13683954],0.005,0.1,-0.06994247728030241,-0.4141314774608301,0
10.535550117492676,0.8644439228430292,[0.13674039],0.005,0.1,-0.0657238358809076,-0.40816968898167416,0
10.54416561126709,0.8609267459417691,[0.13664253],0.005,0.1,-0.061431764988924956,-0.40230606950142234,0
10.55501937866211,0.8564325754568256,[0.13654585],0.005,0.1,-0.05719436208994864,-0.3946388807283957,0
10.565601825714111,0.8521338036886189,[0.13644995],0.005,0.1,-0.05309333649049312,-0.3876385505891369,0
10.576040029525757,0.8478350319204122,[0.13635458],0.005,0.1,-0.04917829920744393,-0.3807010922942984,0
10.585684061050415,0.8439270575856788,[0.13625969],0.005,0.1,-0.0454768676556309,-0.37447436396290235,0
10.5960853099823,0.8398236845342087,[0.13616519],0.005,0.1,-0.04200176673223616,-0.367993840752137,0
10.60652494430542,0.8353295140492653,[0.13607102],0.005,0.1,-0.038755792245833615,-0.3609736622365887,0
10.615426301956177,0.8314215397145318,[0.13597712],0.005,0.1,-0.035735262117569104,-0.35494797051408805,0
10.62647533416748,0.8267319705128519,[0.13588339],0.005,0.1,-0.032932402651621076,-0.34775107200953637,0
10.635836839675903,0.8228239961781183,[0.13578973],0.005,0.1,0.24570137207306017,-0.341832809438904,0
10.64642882347107,0.8183298256931749,[0.13569601],0.005,0.1,0.2812255081697575,-0.33512476550447595,0
10.657697916030884,0.8140310539249681,[0.13560196],0.005,0.1,-0.04769431100683527,-0.3285760824131513,0
10.66548466682434,0.8107092757404448,[0.13550732],0.005,0.1,-0.1548596267271397,-0.3240868204101248,0
10.675791025161743,0.8066059026889748,[0.13541223],0.005,0.1,-0.1684002668269058,-0.31816937815405016,0
10.684967994689941,0.802893327070978,[0.13531675],0.005,0.1,0.12883812312273968,-0.31286275477768427,0
10.693489789962769,0.7991807514529814,[0.13522093],0.005,0.1,-0.08395071017707603,-0.3079307204269569,0
10.705055236816406,0.794686580968038,[0.13512481],0.005,0.1,-0.14349266283536527,-0.3013669590390145,0
10.71544098854065,0.7901924104830944,[0.13502802],0.005,0.1,0.13538412271073277,-0.2952115387504753,0
10.725576877593994,0.785698239998151,[0.13493025],0.005,0.1,0.192582183553633,-0.28915802001883495,0
10.735322952270508,0.7817902656634177,[0.13483141],0.005,0.1,0.1652210772792822,-0.2839806036430083,0
10.745466947555542,0.7776868926119475,[0.13473145],0.005,0.1,0.11384787645798516,-0.27861798445586683,0
10.755149126052856,0.7735835195604776,[0.13463011],0.005,0.1,0.06313751483109542,-0.2730870928678103,0
10.764204025268555,0.7700663426592175,[0.1345272],0.005,0.1,0.02151790595597404,-0.26892724235353116,0
10.774707555770874,0.7653767734575373,[0.13442296],0.005,0.1,-0.009524969718339809,-0.26302167500466467,0
10.78641414642334,0.7606872042558572,[0.13431742],0.005,0.1,-0.03114969128720059,-0.2569659953005204,0
10.79926586151123,0.7556068376207038,[0.13421021],0.005,0.1,-0.04525927384055558,-0.25080763893826097,0
10.80914306640625,0.7516988632859705,[0.13410123],0.005,0.1,-0.053725049659753624,-0.2461790647388755,0
10.816498517990112,0.7487678825349204,[0.13399083],0.005,0.1,-0.058120321708975006,-0.24300075995650242,0
10.829357147216797,0.7432967184662935,[0.1338793],0.005,0.1,-0.05967234599437426,-0.23634421162075975,0
10.841504096984863,0.7382163518311402,[0.13376654],0.005,0.1,-0.05929789173366443,-0.23052285027378083,0
10.851565599441528,0.7339175800629335,[0.13365227],0.005,0.1,-0.05766268298981171,-0.22547718261187574,0
10.859526872634888,0.7305958018784101,[0.13353647],0.005,0.1,-0.05524024876790454,-0.2221137690813153,0
10.868608236312866,0.7268832262604134,[0.13341955],0.005,0.1,-0.05236170745898137,-0.21805497311598362,0
10.879520893096924,0.72238905577547,[0.13330186],0.005,0.1,-0.0492548820272733,-0.21316997602956236,0
10.889509677886963,0.7184810814407364,[0.13318347],0.005,0.1,-0.04607378735569573,-0.209000785943997,0
10.900246143341064,0.7137915122390565,[0.13306428],0.005,0.1,-0.04292030052819165,-0.20386883778274822,0
10.908421277999878,0.7102743353377963,[0.13294423],0.005,0.1,-0.039859822317360016,-0.20050334545815138,0
10.919206142425537,0.7059755635695895,[0.13282367],0.005,0.1,-0.036932465873353235,-0.1961081689787426,0
10.929440259933472,0.7020675892348561,[0.13270287],0.005,0.1,-0.03416098277213518,-0.19217177304574568,0
10.938430309295654,0.6981596149001227,[0.1325821],0.005,0.1,-0.03155634088332081,-0.18850984046053604,0
10.947538614273071,0.694447039282126,[0.13246178],0.005,0.1,-0.3051599874118385,-0.18485979934449903,0
10.956534385681152,0.6907344636641293,[0.13234208],0.005,0.1,-0.3360177304426901,-0.18123230566204776,0
10.966400623321533,0.6870218880461326,[0.13222293],0.005,0.1,-0.27881610860603934,-0.17769096136473767,0
10.976230382919312,0.6831139137113991,[0.1321043],0.005,0.1,-0.47682024580644367,-0.17403610914076392,0
10.988420963287354,0.6776427496427724,[0.13198599],0.005,0.1,-0.43761964872043574,-0.1687868623046881,0
10.997453689575195,0.673734775308039,[0.13186786],0.005,0.1,-0.32423580485585946,-0.16548389242936098,0
11.00652265548706,0.6698268009733056,[0.13175017],0.005,0.1,-0.20461705620450332,-0.16199566226022813,0
11.019145488739014,0.6649418330548889,[0.13163298],0.005,0.1,-0.10326282578123422,-0.1575075308323408,0
11.026740074157715,0.661815453587102,[0.131516],0.005,0.1,-0.025807920098418924,-0.15487204213963754,0
11.035526990890503,0.6582982766858421,[0.13139937],0.005,0.1,0.029544665979479634,-0.1521008345085604,0
11.043562889099121,0.6549764985013187,[0.13128353],0.005,0.1,0.0669087777979407,-0.1493071795553857,0
11.052424669265747,0.6512639228833219,[0.13116885],0.005,0.1,0.09057851432589638,-0.14640019676014113,0
11.063609838485718,0.6465743536816418,[0.13105552],0.005,0.1,0.10425446989796067,-0.14232523191578636,0
11.07143235206604,0.6430571767803818,[0.13094352],0.005,0.1,0.11086294280489331,-0.13967356780531698,0
11.08238935470581,0.6389538037289116,[0.13083297],0.005,0.1,0.11260972112759762,-0.13637068637502742,0
11.093481063842773,0.6344596332439683,[0.13072398],0.005,0.1,0.11110782925935883,-0.13282843903535613,0
11.104729652404785,0.6299654627590249,[0.13061629],0.005,0.1,0.10751193109345276,-0.12918511399384305,0
11.11342167854309,0.6260574884242914,[0.13050971],0.005,0.1,0.10263484037807188,-0.12644316230995203,0
11.125261306762695,0.6213679192226114,[0.13040422],0.005,0.1,0.09704023481325562,-0.12276406430931756,0
11.13772964477539,0.6160921538707212,[0.13029947],0.005,0.1,0.0911130817064204,-0.1187797896544824,0
11.149104595184326,0.6114025846690411,[0.130195],0.005,0.1,0.08511165040080695,-0.11549252523281736,0
11.160706043243408,0.6065176167506244,[0.13009056],0.005,0.1,0.07920523365856691,-0.11195417738836763,0
11.169261932373047,0.6033912372828377,[0.12998608],0.005,0.1,0.07350116798279933,-0.11003240375068353,0
11.178394079208374,0.5998740603815778,[0.12988197],0.005,0.1,0.06806401781299151,-0.10783325946844576,0
11.189480304718018,0.5953798898966343,[0.12977856],0.005,0.1,0.06292910475467024,-0.10463428168068357,0
11.20070481300354,0.5906903206949541,[0.12967567],0.005,0.1,0.05811199627027597,-0.10156783927820284,0
11.209580659866333,0.5867823463602206,[0.12957308],0.005,0.1,0.05361512751548782,-0.09906768566925625,0
11.219964742660522,0.5826789733087506,[0.12947077],0.005,0.1,0.049432399486783435,-0.09647150417875934,0
11.23051643371582,0.5781848028238072,[0.12936869],0.005,0.1,0.04555235430359371,-0.09368748830156526,0
11.239753723144531,0.5746676259225473,[0.12926677],0.005,0.1,0.04196035332969937,-0.09154608907384919,0
11.248423337936401,0.5709550503045504,[0.12916513],0.005,0.1,0.03864005853639495,-0.08948617820511341,0
11.257392168045044,0.5672424746865538,[0.12906418],0.005,0.1,0.035574428441445,-0.08742803050896313,0
11.266427993774414,0.5633345003518203,[0.12896427],0.005,0.1,0.03274637695613163,-0.08508131804778335,0
11.276001930236816,0.5592311273003503,[0.12886533],0.005,0.1,0.30617755872055696,-0.08266610367396321,0
11.284752368927002,0.5559093491158269,[0.12876709],0.005,0.1,0.33689979867277425,-0.08076281552364503,0
11.292505741119385,0.5527829696480401,[0.12866948],0.005,0.1,0.2795897361865459,-0.07918140706892174,0
11.300729990005493,0.5496565901802534,[0.12857262],0.005,0.1,0.20146710735330292,-0.07743170096280742,0
11.309246063232422,0.54633481199573,[0.12847642],0.005,0.1,0.1290685263462878,-0.07561520856919904,0
11.319326877593994,0.5424268376609965,[0.1283806],0.005,0.1,0.3467583564932586,-0.07351046859536213,0
11.33044171333313,0.5375418697425798,[0.12828492],0.005,0.1,0.3362961273472761,-0.07096722093927516,0
11.341782808303833,0.5332430979743731,[0.12818897],0.005,0.1,0.25032120511857536,-0.06864694243440275,0
11.352318048477173,0.5293351236396396,[0.12809227],0.005,0.1,0.42940093615786934,-0.06673013585228373,0
11.36314082145691,0.5248409531546963,[0.12799437],0.005,0.1,0.378611945739491,-0.06444297473649985,0
11.370425462722778,0.5219099724036462,[0.12789508],0.005,0.1,0.5349501515209134,-0.06322781521229484,0
11.380808115005493,0.5178065993521761,[0.12779459],0.005,0.1,0.4458212938833501,-0.0613198419277975,0
11.389846086502075,0.514289422450916,[0.12769312],0.005,0.1,0.28923666924946734,-0.05971549182237145,0
11.398928880691528,0.510772245549656,[0.12759063],0.005,0.1,0.41324988597082996,-0.05813145779822495,0
11.406426906585693,0.5078412647986059,[0.12748732],0.005,0.1,0.5990940977999027,-0.056966319456325194,0
11.415261268615723,0.504324087897346,[0.12738351],0.005,0.1,0.4863100009538628,-0.055397704860187004,0
11.428439617156982,0.4992437212621924,[0.1272791],0.005,0.1,0.2929608471037146,-0.053081825162300984,0
11.437394857406616,0.49572654436093233,[0.12717381],0.005,0.1,0.38292891364315285,-0.05175219274120843,0
11.446400880813599,0.492404766176409,[0.12706778],0.005,0.1,0.5424360455419008,-0.05037178269974398,0
11.456390142440796,0.4886921905584123,[0.12696115],0.005,0.1,0.411480809200388,-0.04887817968739094,0
11.469497919082642,0.48361182392325885,[0.12685365],0.005,0.1,0.20694041548000752,-0.046753785734748525,0
11.479207754135132,0.47989924830526204,[0.12674486],0.005,0.1,0.2911233505833771,-0.04536637682855548,0
11.488393545150757,0.4765774701207387,[0.12663464],0.005,0.1,0.4487869596913264,-0.04414888324839569,0
11.498428583145142,0.4726694957860053,[0.12652331],0.005,0.1,0.5947698165820443,-0.04285465319120957,0
11.50746202468872,0.4693477176014819,[0.12641132],0.005,0.1,0.4260791309718467,-0.041638970339059576,0
11.516501426696777,0.4660259394169585,[0.12629888],0.005,0.1,0.18300184537068218,-0.04046881850526841,0
11.525384426116943,0.46309495866590844,[0.12618599],0.005,0.1,0.23599909637081318,-0.0394558560864625,0
