t_s,q_rad,q_des_rad,K,B,Kff,jerk,tau_Nm,reward
0.0057544708251953125,-0.03790735104691403,[0.00058148],9.825212432529046,0.9790254919034855,1.9737818648793566,0.0,9.998999999999999,1.2435806958713442
0.015765666961669922,-0.03790735104691403,[0.00280764],9.650424865058092,0.9580509838069711,1.9475637297587132,0.0,10.098989999999999,1.2178159531732509
0.025646448135375977,-0.03790735104691403,[0.00696995],9.475637297587138,0.9370764757104565,1.92134559463807,0.0,10.099989899999999,1.1684495208698196
0.03508615493774414,-0.03790735104691403,[0.01270608],9.300849730116184,0.9161019676139419,1.8951274595174268,0.0,10.099999898999998,1.0990897515253897
0.0445561408996582,-0.03790735104691403,[0.01968952],9.12606216264523,0.8951274595174274,1.8689093243967834,0.0,10.099999998989999,1.0150558405524004
0.055364131927490234,-0.03790735104691403,[0.02762829],8.951274595174274,0.8741529514209129,1.84269118927614,0.0,-2.9632370140937776,0.923592247518235
0.06488442420959473,-0.03790735104691403,[0.03626333],8.77648702770332,0.8531784433243983,1.8164730541554968,0.0,-10.028632370140937,0.8327851813506537
0.07363200187683105,-0.03790735104691403,[0.04536786],8.601699460232366,0.8322039352278838,1.7902549190348536,0.0,-10.099286323701408,0.7498356381087298
0.08261823654174805,-0.03790735104691403,[0.0547452],8.426911892761412,0.8112294271313693,1.7640367839142101,0.0,-10.099992863237013,0.6796222691821008
0.09128570556640625,-0.03790735104691403,[0.06422467],8.252124325290458,0.7902549190348547,1.7378186487935667,0.0,-10.09999992863237,0.6241592776719166
0.09993243217468262,-0.03829814848038737,[0.07365975],8.077336757819502,0.7692804109383402,1.7116005136729235,0.0,-10.099999999286322,0.5815194005304373
0.11017894744873047,-0.03790735104691403,[0.0829273],7.902549190348549,0.7483059028418256,1.6853823785522803,0.0,-10.099999999992862,0.5539227745845204
0.11765670776367188,-0.03790735104691403,[0.09192642],7.727761622877595,0.727331394745311,1.659164243431637,0.0,-10.099999999999927,0.5343428464478959
0.1286027431488037,-0.03790735104691403,[0.10057634],7.55297405540664,0.7063568866487966,1.6329461083109935,0.0,-10.099999999999998,0.5215895383930907
0.137603759765625,-0.03790735104691403,[0.10881245],7.378186487935686,0.685382378552282,1.6067279731903503,0.0,-10.099999999999998,0.5134962976562396
0.1476917266845703,-0.03790735104691403,[0.11658467],7.203398920464732,0.6644078704557674,1.5805098380697071,0.0,-10.099999999999998,0.5084502688395923
0.15767931938171387,-0.03829814848038737,[0.12385593],7.028611352993777,0.643433362359253,1.5542917029490637,0.0,-5.100499999999999,0.5052016005571015
0.1656184196472168,-0.03790735104691403,[0.13060145],6.853823785522822,0.6224588542627384,1.5280735678284203,0.0,-5.050504999999999,0.5034168253370371
0.17905688285827637,-0.03790735104691403,[0.13680812],6.679036218051868,0.6014843461662238,1.501855432707777,0.0,-5.050005049999999,0.5022314601239797
0.1889045238494873,-0.03829814848038737,[0.14247109],6.504248650580913,0.6,1.475637297587134,0.0,-5.0500000505,0.501450998354302
0.19664883613586426,-0.03790735104691403,[0.14759422],6.329461083109958,0.6,1.4494191624664907,0.0,-5.050000000504999,0.5010259187803741
0.20659732818603516,-0.03829814848038737,[0.15218954],6.154673515639004,0.6,1.4232010273458477,0.0,-6.575720812616399,0.5007051418180658
0.21606850624084473,-0.03790735104691403,[0.1562733],5.97988594816805,0.6,1.3969828922252046,0.0,-4.473275369051991,0.5005307471461566
0.22662973403930664,-0.03790735104691403,[0.15986517],5.805098380697095,0.6,1.3707647571045614,0.0,-2.6294494159758175,0.5004005012618706
0.23666691780090332,-0.03790735104691403,[0.16298824],5.63031081322614,0.6,1.3445466219839184,0.0,-1.3663895669242632,0.500312218311449
0.24779200553894043,-0.03829814848038737,[0.16566746],5.455523245755186,0.6,1.3183284868632752,0.0,-0.9746747579962226,0.5002434998916094
0.25833821296691895,-0.03829814848038737,[0.16792901],5.280735678284231,0.6,1.292110351742632,0.0,-0.563628152015686,0.5002022657836775
0.2669234275817871,-0.03829814848038737,[0.16980205],5.105948110813277,0.6,1.2658922166219888,0.0,0.02186679222676608,0.5001731870588393
0.2766110897064209,-0.03790735104691403,[0.17131786],5.0,0.6,1.2396740815013456,0.0,0.4180315528795516,0.5001576649798508
0.2856004238128662,-0.03790735104691403,[0.17250759],5.0,0.6,1.2134559463807026,0.0,0.9055907745065698,0.5001426824367267
0.29778003692626953,-0.03771195233017736,[0.1734011],5.0,0.6,1.1872378112600595,0.0,1.174981035584667,0.500134527221562
0.3075680732727051,-0.036734958746494004,[0.17402615],5.0,0.6,1.1610196761394163,0.552076719357362,1.3058620973150246,0.4999117484916681
0.31760334968566895,-0.03517176901260064,[0.17440907],5.0,0.6,1.1348015410187733,1.4464410047162883,0.9933517878456639,0.4985980323481676
0.32558226585388184,-0.03302238312849727,[0.17457673],5.0,0.6,1.10858340589813,3.0918504590889704,0.7420969372237475,0.49311482814016266
0.33559346199035645,-0.029309807510500538,[0.17455677],5.0,0.6,1.082365270777487,5.0,0.46708747410037893,0.4819775369280477
0.3455784320831299,-0.0255972318925038,[0.17437433],5.0,0.6,1.0561471356568437,5.0,0.540016464618373,0.48206828885715086
0.35558080673217773,-0.02188465627450707,[0.17405145],5.0,0.6,1.0299290005362005,5.0,0.6072830335055626,0.48219487328423327
0.36669373512268066,-0.01739048578956365,[0.173608],5.0,0.6,1.0037108654155575,5.0,0.6473550362627354,0.48241025107707586
0.3760392665863037,-0.013677910171566917,[0.17306173],5.0,0.6,0.9774927302949143,5.0,0.7835878788830272,0.48266764676972873
0.3846559524536133,-0.009965334553570182,[0.17242966],5.0,0.6,0.9512745951742712,5.0,0.8537280442125648,0.48302145116011896
0.39461708068847656,-0.0062527589355734475,[0.17172864],5.0,0.6,0.9250564600536281,5.0,1.0220859371815505,0.4835043641171584
0.4098021984100342,-0.00019539871673667023,[0.17097323],5.0,0.6,0.898838324932985,5.0,0.7851636280422883,0.48458404705459057
0.4186124801635742,0.0035171769012600643,[0.17017514],5.0,0.6,0.8726201898123418,5.0,0.9392004099083565,0.48560022494036464
0.42856764793395996,0.0072297525192568,[0.16934617],5.0,0.6,0.8464020546916986,3.675600335166904,0.9840042734313925,0.49525790653671925
0.4380004405975342,0.010942328137253534,[0.16849802],5.0,0.6,0.8201839195710555,1.1480679337379107,1.0958424394509416,0.5059994293575318
0.4462926387786865,0.0144595050385136,[0.16764087],5.0,0.6,0.7939657844504124,-1.5764572274870747,0.9844171021668442,0.5073134469450578
0.45560789108276367,0.017976681939773663,[0.16678286],5.0,0.6,0.7677476493297692,-3.5517984303250723,1.1163899186640536,0.5026273361747255
0.4656190872192383,0.022275453707980408,[0.16593028],5.0,0.6,0.741529514209126,-5.0,1.0182400269212397,0.49785774552701867
0.47716331481933594,0.026965022909660494,[0.16508785],5.0,0.6,0.715311379088483,-5.0,0.8264386209037069,0.5037569338516908
0.48563385009765625,0.030482199810920558,[0.16425948],5.0,0.6,0.6890932439678399,-5.0,0.7186294324104985,0.509628056113426
0.497128963470459,0.03517176901260064,[0.16344901],5.0,0.6,0.6628751088471967,-5.0,0.556861795060793,0.5189482950926482
0.5055985450744629,0.038493547197124035,[0.162659],5.0,0.6,0.6366569737265535,-5.0,0.4967076938704256,0.5275347793185667
0.5185813903808594,0.0433785151155408,[0.16189091],5.0,0.6,0.6104388386059104,-5.0,0.3921243383705288,0.5419950403897783
0.5275943279266357,0.046895692016800855,[0.16114689],5.0,0.6,0.5842207034852673,-5.0,0.38884063935945135,0.5552175649019105
0.5395128726959229,0.05178065993521762,[0.16042962],5.0,0.6,0.5580025683646241,-5.0,0.24927598948044793,0.576065529286922
0.5486466884613037,0.05549323555321435,[0.15974055],5.0,0.6,0.531784433243981,-5.0,0.34842479393192805,0.5955106828777775
0.5592164993286133,0.059987406038157755,[0.15908012],5.0,0.6,0.5055662981233379,-5.0,0.3293591120017154,0.6220459759927185
0.5676054954528809,0.06291838678920783,[0.1584484],5.0,0.6,0.4793481630026947,-5.0,0.4508747540190571,0.6429180209711027
0.5801515579223633,0.06780335470762457,[0.1578452],5.0,0.6,0.4531300278820516,-4.841021668577597,0.4740771484643504,0.6804561960629041
0.5885891914367676,0.07112513289214797,[0.1572701],5.0,0.6,0.42691189276140845,-4.571760295272225,0.5788398768773648,0.7113664849932442
0.5976147651672363,0.07503310722688138,[0.15672291],5.0,0.6,0.4006937576407653,-4.26328631986528,0.543479791067553,0.7499031234305001
0.606670618057251,0.07894108156161479,[0.15620316],5.0,0.6,0.3744756225201221,-3.673598146391952,0.5408247523089305,0.7930957749547012
0.615267276763916,0.0826536571796115,[0.15570971],5.0,0.6,0.3482574873994789,-3.3373549360230585,0.47015946860216834,0.8356659692680454
0.6236083507537842,0.08578003664739824,[0.15524136],5.0,0.6,0.3220393522788358,-3.382597314190339,0.4481536375657629,0.8725474592512085
0.6344552040100098,0.09027420713234166,[0.15479685],5.0,0.6,0.2958212171581926,-3.225452472565488,0.37555644062878385,0.9272174071909017
0.6456518173217773,0.09476837761728506,[0.15437488],5.0,0.6,0.2696030820375494,-2.7182526767268484,0.3197215461722014,0.9858855487990381
0.6566834449768066,0.0992625481022285,[0.15397371],5.0,0.6,0.24338494691690624,-2.4381224743986865,0.24820625438903332,1.045140837172686
0.6656715869903564,0.10277972500348855,[0.15359166],5.0,0.6,0.21716681179626307,-2.5311143096091397,0.2332121515208373,1.0919359300453502
0.6743121147155762,0.10629690190474862,[0.15322795],5.0,0.6,0.19094867667561988,-2.420171260823081,0.20898483084799102,1.1393703602841327
0.6828844547271729,0.10981407880600867,[0.15288173],5.0,0.6,0.16473054155497668,-2.235598303529565,0.18264284900159952,1.1863618208851854
0.6905684471130371,0.11274505955705873,[0.15255246],5.0,0.6,0.13851240643433352,-1.759519838261407,0.1601590556576837,1.2260854426989454
0.6986086368560791,0.11587143902484545,[0.15224027],5.0,0.6,0.11229427131369034,-1.534955629445867,0.14589542942045677,1.2658094290746904
0.7095789909362793,0.12036560950978886,[0.15194391],5.0,0.6,0.08607613619304716,-1.691665103008397,0.09762800552099025,1.3170654608892363
0.7257978916168213,0.12700916587883565,[0.15166035],5.0,0.6,0.05985800107240398,-1.6450315614049886,0.038177250886850256,1.3835486237943564
0.7345960140228271,0.1301355453466224,[0.15138659],5.0,0.6,0.0336398659517608,-1.2460032034072213,0.02213077951451161,1.4124831498779604
0.7465651035308838,0.1346297158315658,[0.15112109],5.0,0.6,0.0074217308311176206,-1.3464437834666212,0.004233392251854375,1.4457120709526756
0.7556345462799072,0.13834229144956253,[0.15086318],5.0,0.6,0.0,-1.5724723259674545,-0.012307735535558136,1.4672946326532783
0.7655391693115234,0.1418594683508226,[0.15061228],5.0,0.6,0.0,-1.7771251013876612,-0.029276108695012567,1.4824490359255809
0.7737612724304199,0.14498584781860932,[0.15036779],5.0,0.6,0.0,-2.190723710940155,-0.04469949932563757,1.4906638493348534
0.7851712703704834,0.1485030247198694,[0.15012915],5.0,0.6,0.0,-2.566730458736942,-0.06209872701282544,1.494591067168337
0.794623613357544,0.15123860675418274,[0.14989582],5.0,0.6,0.0,-3.6565056584981948,-0.07518917326221133,1.4897851930795114
0.8035638332366943,0.15338799263828612,[0.14966731],5.0,0.6,0.0,-4.44914058425679,-0.08541433232502316,1.4827148435453026
0.8137664794921875,0.15592817595586284,[0.14944348],5.0,0.6,0.0,-5.0,-0.09352415171878921,1.4733570624452628
0.823075532913208,0.15807756183996624,[0.14922453],5.0,0.6,0.0,-5.0,-0.10453492059389854,1.4661790435081348
0.8307714462280273,0.15983615029059628,[0.14901056],5.0,0.6,0.0,-5.0,-0.10971317546138801,1.458565949172466
0.8405575752258301,0.16159473874122632,[0.14880158],5.0,0.6,0.0,-5.0,-0.1186353725660034,1.4495290199167425
0.8503532409667969,0.16315792847511965,[0.14859726],5.0,0.6,0.0,-5.0,-0.12578652123949868,1.440215861882415
0.8595762252807617,0.16452571949227635,[0.14839697],5.0,0.6,0.0,-5.0,-0.13201223953807426,1.43103502183352
0.8685331344604492,0.1655027130759597,[0.14820016],5.0,0.6,0.0,-5.0,-0.13596500700944655,1.4236136971977666
0.8771543502807617,0.16647970665964307,[0.14800633],5.0,0.6,0.0,-5.0,-0.14000822243075,1.4157560710662382
0.8866589069366455,0.16726130152658972,[0.14781508],5.0,0.6,0.0,-5.0,-0.14216000641339588,1.408890200551355
0.8966879844665527,0.1680428963935364,[0.14762582],5.0,0.6,0.0,-5.0,-0.14727176071716622,1.4017414671215522
0.9055671691894531,0.16843369382700976,[0.14743813],5.0,0.6,0.0,-5.0,-0.14339803813121074,1.397343891566075
0.916438102722168,0.16862909254374644,[0.14725222],5.0,0.6,0.0,-5.0,-0.14247835109972126,1.394389984263225
0.9266171455383301,0.16882449126048307,[0.14706835],5.0,0.6,0.0,-5.0,-0.1414619876426258,1.3914088042827575
0.9365777969360352,0.16862909254374644,[0.14688649],5.0,0.6,0.0,-5.0,-0.1385487855932978,1.3915159575757798
0.9465720653533936,0.16843369382700976,[0.14670666],5.0,0.6,0.0,-4.672638171638042,-0.13567740284319013,1.3939155228678988
0.9565699100494385,0.1680428963935364,[0.14652895],5.0,0.6,0.0,-3.846667483868287,-0.13198905106993933,1.4006910996255286
0.9645285606384277,0.16784749767679974,[0.14635369],5.0,0.6,0.0,-2.6948808045603645,-0.12722065902138918,1.4063663185597863
0.9736940860748291,0.16726130152658972,[0.1461814],5.0,0.6,0.0,-1.9007206350695705,-0.12357640278791185,1.412280151415095
0.985755443572998,0.16647970665964307,[0.14601213],5.0,0.6,0.0,-1.3497979863224019,-0.12101874566365553,1.4182751531418523
0.9935240745544434,0.1660889092261697,[0.14584572],5.0,0.6,0.0,-0.6896371870020362,-0.11526261600886128,1.4209573832819846
1.0015537738800049,0.165307314359223,[0.14568247],5.0,0.6,0.0,0.4406201105333843,-0.11088269537121909,1.4257204332249458
1.0112040042877197,0.16472111820901303,[0.14552264],5.0,0.6,0.0,0.9501354332785867,-0.10722083498064436,1.4282636335707501
1.019606351852417,0.16393952334206632,[0.1453663],5.0,0.6,0.0,1.4276006632990943,-0.10258008217666031,1.4318184511377339
1.030608892440796,0.1627671310416463,[0.14520146],5.0,0.6,0.0,1.5108578021200885,-0.2244270627725145,1.4384586177254004
1.0396394729614258,0.16179013745796297,[0.14501181],5.0,0.6,0.0,1.709269145252061,-0.12178267564675738,1.4430830523225096
1.0514500141143799,0.16042234644080625,[0.14480817],5.0,0.6,0.0,1.8865507572340698,-0.032557765263714025,1.4497668559272783
1.0606098175048828,0.15924995414038626,[0.1446116],5.0,0.6,0.0,2.276744840101112,-0.054643289997770295,1.4542052587798393
1.0704295635223389,0.15788216312322959,[0.14442544],5.0,0.6,0.0,2.3580005650884823,-0.06384687383589487,1.460309408449785
1.0811281204223633,0.15670977082280954,[0.14424559],5.0,0.6,0.0,2.2960435443099234,-0.06711475189710761,1.465497599640356
1.0888617038726807,0.1555373785223895,[0.14406986],5.0,0.6,0.0,2.44822969048964,-0.060699482664041224,1.4696001085365773
1.0985918045043945,0.1543649862219695,[0.14389792],5.0,0.6,0.0,2.8871141720485856,-0.05363133885169962,1.4721598753275391
1.1083447933197021,0.1529971952048128,[0.14373025],5.0,0.6,0.0,3.0242437363601704,-0.045927016057358654,1.4762092055126592
1.1166925430297852,0.1522156003378661,[0.14356743],5.0,0.6,0.0,3.277901034941263,-0.040038954627235245,1.4772184549830076
1.126530408859253,0.15084780932070943,[0.14341004],5.0,0.6,0.0,3.481550564807438,-0.03342241681952919,1.4800548079951263
1.1380000114440918,0.14948001830355273,[0.14325827],5.0,0.6,0.0,3.8646639353738266,-0.02835979826284187,1.4812924789854578
1.1457850933074951,0.1485030247198694,[0.14311207],5.0,0.6,0.0,4.186397155013584,-0.022222510212525696,1.4813268141307407
1.1546263694763184,0.14752603113618606,[0.14297158],5.0,0.6,0.0,4.376999888463238,-0.017973062430645784,1.481800139212793
1.1655502319335938,0.14596284140229268,[0.14283686],5.0,0.6,0.0,4.436640087342695,-0.010880416328963206,1.4836075634745374
1.1753599643707275,0.14479044910187266,[0.14270775],5.0,0.6,0.0,4.389539031255337,-0.005706949559799321,1.4849934705342283
1.1836457252502441,0.1438134555181893,[0.14258415],5.0,0.6,0.0,4.264342023350208,2.8461453343835186e-05,1.486342772153748
1.1931333541870117,0.1424456645010326,[0.14246596],5.0,0.6,0.0,4.362651805860212,0.004316090543697996,1.4860307915899424
1.201406717300415,0.14146867091734927,[0.14235286],5.0,0.6,0.0,4.185861734857971,0.010039954110095695,1.4869693362909664
1.2109496593475342,0.1404916773336659,[0.14224465],5.0,0.6,0.0,4.179887643375608,0.013884381348872585,1.486547533491092
1.2197914123535156,0.1399054811834559,[0.1421411],5.0,0.6,0.0,4.179892722959778,0.015652272352986357,1.4861628012048327
1.2306218147277832,0.13892848759977253,[0.14204178],5.0,0.6,0.0,4.131663417830866,0.019487811034532142,1.4855160824505003
1.2393152713775635,0.1385376901662992,[0.14194628],5.0,0.6,0.0,4.3035246074635545,0.020255120308661126,1.4840807925796344
1.2489938735961914,0.1379514940160892,[0.14185419],5.0,0.6,0.0,4.73799737476836,0.021837286357620524,1.4805238251274258
1.2581932544708252,0.13756069658261585,[0.14176512],5.0,0.6,0.0,5.0,0.022332385771934155,1.4782028732019554
1.2660932540893555,0.13736529786587917,[0.14167881],5.0,0.6,0.0,5.0,0.02339617107148273,1.4780176979653374
1.2745614051818848,0.13716989914914252,[0.14159514],5.0,0.6,0.0,5.0,0.02245903828586807,1.4778231713071732
1.2837841510772705,0.13677910171566918,[0.14151395],5.0,0.6,0.0,5.0,0.023951165931767056,1.4772583491627995
1.295924186706543,0.1365837029989325,[0.1414349],5.0,0.6,0.0,5.0,0.02071539554455773,1.4770362974722258
1.3075566291809082,0.13638830428219584,[0.14135738],5.0,0.6,0.0,5.0,0.019839399508849873,1.4768058913003643
1.3175454139709473,0.13638830428219584,[0.14128083],5.0,0.6,0.0,5.0,0.018117737241376955,1.4769561371257578
1.3265104293823242,0.1365837029989325,[0.14120491],5.0,0.6,0.0,4.501463304538573,0.015711780780289755,1.4808793306050623
1.3362665176391602,0.1365837029989325,[0.14112931],5.0,0.6,0.0,3.841017554868401,0.014365463450237119,1.485013305118506
1.347498893737793,0.1365837029989325,[0.14105373],5.0,0.6,0.0,3.20782957152191,0.012976921625085177,1.4884101157540404
1.3578507900238037,0.1365837029989325,[0.1409779],5.0,0.6,0.0,2.3891919912305473,0.011936072460777176,1.4919144474569983
1.3661127090454102,0.1365837029989325,[0.14090158],5.0,0.6,0.0,1.637710477083525,0.011027400115382592,1.4942855560253097
1.3777203559875488,0.13677910171566918,[0.14082459],5.0,0.6,0.0,1.0309821781979056,0.009082054104407673,1.4959415472445465
1.3865344524383545,0.13677910171566918,[0.14074672],5.0,0.6,0.0,0.297732645597677,0.008300482779225446,1.49679056423463
1.3965723514556885,0.13677910171566918,[0.14066782],5.0,0.6,0.0,-0.06447374513310566,0.007404896580106126,1.4969770533813553
1.407785415649414,0.13716989914914252,[0.14058755],5.0,0.6,0.0,-0.5136497046801675,0.0029935544440416397,1.4974703019500755
1.419553279876709,0.13736529786587917,[0.1405055],5.0,0.6,0.0,-0.8993226366159588,0.0020359751741440436,1.4974280755602603
1.4275789260864258,0.13736529786587917,[0.14042169],5.0,0.6,0.0,-0.9044395052750464,0.0035218186532479153,1.4975248851629555
1.4365887641906738,0.13736529786587917,[0.14033647],5.0,0.6,0.0,-1.0512302021291975,0.002720709599633795,1.497414037165179
1.4455983638763428,0.13736529786587917,[0.14024999],5.0,0.6,0.0,-1.203134876834314,0.0018264056414938426,1.4972607126520645
1.453864336013794,0.13736529786587917,[0.14016219],5.0,0.6,0.0,-1.3133867456914599,0.001166287178570122,1.4971542700374938
1.463594913482666,0.13756069658261585,[0.14007306],5.0,0.6,0.0,-1.373517915034405,-0.00028697082432565694,1.4973360272438763
1.4718763828277588,0.13736529786587917,[0.13998277],5.0,0.6,0.0,-1.6656414416568839,0.0020851722102855916,1.4965697293687712
1.4840888977050781,0.13736529786587917,[0.1398915],5.0,0.6,0.0,-1.6809369802865401,-0.0006255979948447394,1.4966255483289006
1.491492509841919,0.13756069658261585,[0.13979926],5.0,0.6,0.0,-1.8600548703581157,0.00015289454412500318,1.4964294123973745
1.502502679824829,0.13756069658261585,[0.13970622],5.0,0.6,0.0,-1.7595321403574113,-0.000645752667209715,1.4967804429773444
1.5125372409820557,0.13736529786587917,[0.13961257],5.0,0.6,0.0,-1.5669500637092748,-0.00026105046180106037,1.4971660493237267
1.522831916809082,0.13736529786587917,[0.13951832],5.0,0.6,0.0,-1.362512071239302,-0.000830577493386508,1.4976933009023696
1.5325820446014404,0.13736529786587917,[0.13942352],5.0,0.6,0.0,-1.1767495475891208,-0.0012460303889943682,1.4981233642818417
1.5405216217041016,0.13736529786587917,[0.13932824],5.0,0.6,0.0,-1.0181744098213779,-0.001618592978568686,1.4984585608850478
1.5495479106903076,0.13736529786587917,[0.13923273],5.0,0.6,0.0,-0.8862647935657949,-0.00028881238421714817,1.4987184260509356
1.5590524673461914,0.13736529786587917,[0.13913724],5.0,0.6,0.0,-0.7773691248028982,-0.0026456446084768786,1.4989226036846108
1.5685622692108154,0.13736529786587917,[0.13904184],5.0,0.6,0.0,-0.6872456946999621,-0.0013151398557330852,1.4990865350186982
1.577089786529541,0.13736529786587917,[0.13894678],5.0,0.6,0.0,-0.6120434288286908,-0.0018759795046446317,1.499221135868369
1.586498498916626,0.13736529786587917,[0.13885228],5.0,0.6,0.0,-0.5485896872096145,-0.002226035739993835,1.4993338953375606
1.5966687202453613,0.13736529786587917,[0.13875845],5.0,0.6,0.0,-0.4943921050608526,-0.0027733884028991345,1.4994299871485632
1.6045868396759033,0.13736529786587917,[0.13866547],5.0,0.6,0.0,-0.4475398416090666,-0.0017322153405183146,1.4995128939440194
1.6155107021331787,0.13736529786587917,[0.13857366],5.0,0.6,0.0,-0.40658422273423805,-0.0023935203236422737,1.4995849741475284
1.6245088577270508,0.13756069658261585,[0.13848318],5.0,0.6,0.0,-0.3704298803265962,-0.0038504792769618944,1.4997276832289919
1.6341896057128906,0.13736529786587917,[0.13839409],5.0,0.6,0.0,-0.3382457154349212,-0.003229210942352363,1.499703180205744
1.6425426006317139,0.13736529786587917,[0.13830644],5.0,0.6,0.0,-0.3093959904475866,-0.00348137916064211,1.4997516133190507
1.6515259742736816,0.13736529786587917,[0.13822039],5.0,0.6,0.0,-0.2833886509716726,-0.002676202137779591,1.4997939939922735
1.6608293056488037,0.13736529786587917,[0.13813609],5.0,0.6,0.0,-0.2598372903191994,-0.004407349365266702,1.4998309269641503
1.6697349548339844,0.13736529786587917,[0.13805353],5.0,0.6,0.0,-0.23843346588801323,-0.0034484790752177257,1.4998629550327844
1.6775774955749512,0.13736529786587917,[0.13797281],5.0,0.6,0.0,-0.21892667317135128,-0.0038996147259562786,1.49989051137303
1.6885673999786377,0.13736529786587917,[0.137889],5.0,0.6,0.0,-0.2011098952048754,-0.05944154786318794,1.4999150427427148
1.6975226402282715,0.13736529786587917,[0.13779006],5.0,0.6,0.0,-0.18480917105913106,-0.07393509933752038,1.4999384915023604
1.7065684795379639,0.13736529786587917,[0.13766925],5.0,0.6,0.0,-0.16987604377864463,-0.04418920241670274,1.4999600414129761
1.715238332748413,0.13736529786587917,[0.13753036],5.0,0.6,0.0,-0.1561820643467196,-0.027509733056210014,1.4999763928773464
1.7244899272918701,0.13736529786587917,[0.13737958],5.0,0.6,0.0,-0.14361476184193664,-0.01772997664693185,1.4999846060283444
1.7334997653961182,0.13716989914914252,[0.1372215],5.0,0.6,0.0,-0.13207465964149906,-0.010915796184274898,1.4999864825701612
1.7415361404418945,0.13677910171566918,[0.13705995],5.0,0.6,0.0,-0.3975113991201269,-0.003534872985655837,1.4998666117979824
1.750699520111084,0.1365837029989325,[0.13689876],5.0,0.6,0.0,-0.42089320465035174,0.004703896646659358,1.4998482935524777
1.7609529495239258,0.13638830428219584,[0.13674302],5.0,0.6,0.0,-0.6328784196213245,0.022355597355019196,1.4996767665913053
1.7696952819824219,0.13638830428219584,[0.13659852],5.0,0.6,0.0,-0.8577222005522782,0.024486055265317063,1.4994438160430494
1.7782578468322754,0.13619290556545915,[0.13647044],5.0,0.6,0.0,-0.7576550952601553,0.0387925538110479,1.4995574608115512
1.7877979278564453,0.13619290556545915,[0.13636478],5.0,0.6,0.0,-0.8389259331452649,0.05351110176072886,1.4994704594729997
1.7990601062774658,0.13619290556545915,[0.13629048],5.0,0.6,0.0,-0.6770406586588483,0.08641587009648265,1.4996569909942854
1.8103694915771484,0.13619290556545915,[0.13625852],5.0,0.6,0.0,-0.18345447055863212,0.10015642769500781,1.4999740862895035
1.8213016986846924,0.13619290556545915,[0.13627857],5.0,0.6,0.0,0.32535948963288985,0.11491451855234071,1.4999197373468656
1.8326342105865479,0.13638830428219584,[0.13635875],5.0,0.6,0.0,0.7384978261258284,0.12961925992376944,1.4995940096413232
1.8425848484039307,0.13677910171566918,[0.13650719],5.0,0.6,0.0,1.033470353940655,0.14372812175441996,1.499190779122129
1.8539607524871826,0.13756069658261585,[0.13673471],5.0,0.6,0.0,1.4979854265077055,0.18394372612978047,1.4981959415789863
1.863253116607666,0.1379514940160892,[0.13705445],5.0,0.6,0.0,1.91085950957914,0.1909913138377289,1.4971283574941516
1.8715856075286865,0.13834229144956253,[0.13747213],5.0,0.6,0.0,2.481767163813145,0.16821686730171675,1.4952846452631365
1.8819055557250977,0.1393192850332459,[0.13799016],5.0,0.6,0.0,2.689269608012599,0.213578643034265,1.4942919969569974
1.8925440311431885,0.14029627861692923,[0.13861733],5.0,0.6,0.0,2.9840972345655583,0.21768243863951428,1.4928513649112216
1.9019393920898438,0.1412732722006126,[0.13935712],5.0,0.6,0.0,3.4912555136551813,0.18944620554882444,1.4902743752725527
1.9114811420440674,0.14225026578429595,[0.14020496],5.0,0.6,0.0,3.928529123670717,0.2036890061998586,1.487806089827301
1.9215118885040283,0.14361805680145262,[0.14116022],5.0,0.6,0.0,3.937037175178715,0.21402303603464892,1.4873862543819287
1.9324936866760254,0.14537664525208266,[0.14222572],5.0,0.6,0.0,4.310698460315987,0.22015157254523576,1.4843733469832818
1.9425289630889893,0.14693983498597601,[0.14340757],5.0,0.6,0.0,4.403176701303335,0.2560523727041949,1.4832816255087806
1.9520761966705322,0.14830762600313271,[0.14471027],5.0,0.6,0.0,4.610743375549841,0.22217907260542535,1.4818377885430345
1.963566780090332,0.1504570118872361,[0.14613265],5.0,0.6,0.0,4.484563577013689,0.2562237820456444,1.4815179926953104
1.9725046157836914,0.1522156003378661,[0.14767727],5.0,0.6,0.0,4.22107681303922,0.252745581479372,1.4828002052921894
1.9809699058532715,0.15397418878849614,[0.14934075],5.0,0.6,0.0,3.912786769592283,0.21911692392848905,1.4844476643659912
1.9905657768249512,0.15592817595586284,[0.15111027],5.0,0.6,0.0,3.325653377496353,0.22709687768557307,1.4872026867213337
1.9984779357910156,0.15788216312322959,[0.15297389],5.0,0.6,0.0,2.996418290782411,0.19820250591449043,1.4885542072295912
2.007345199584961,0.15983615029059628,[0.15492049],5.0,0.6,0.0,3.0528624650663976,0.21372359003375715,1.4882890463243665
2.016489267349243,0.16257173232490962,[0.1569445],5.0,0.6,0.0,2.634059899339597,0.22097395328130992,1.488548586560344
2.025888681411743,0.16491651692574968,[0.15904496],5.0,0.6,0.0,2.662268371382723,0.22657161437101395,1.4878803446974476
2.035498857498169,0.1674567002433264,[0.16122021],5.0,0.6,0.0,2.2450308480855927,0.22907072281520394,1.4885135560895724
2.044572114944458,0.16999688356090312,[0.16346789],5.0,0.6,0.0,2.0127328332170116,0.2301201309976676,1.4885041164324848
2.054239273071289,0.1727324655952165,[0.16578495],5.0,0.6,0.0,1.8599691688888416,0.22891457596242312,1.4878242202286818
2.062528610229492,0.1754680476295299,[0.16816314],5.0,0.6,0.0,1.7395210316303975,0.19461170343782241,1.4871369686521856
2.0750277042388916,0.1791806232475266,[0.17059449],5.0,0.6,0.0,1.3554510281092336,0.2284134242711379,1.4839980639326977
2.082637071609497,0.18172080656510334,[0.1730806],5.0,0.6,0.0,0.9432026719831954,0.22507474557853957,1.4845184652146255
2.091998815536499,0.18465178731615337,[0.17561734],5.0,0.6,0.0,0.8649280015972455,0.18873190471027385,1.4832517001522207
2.104401111602783,0.18895055908436015,[0.17819575],5.0,0.6,0.0,0.6226475496950448,0.21638859722138595,1.4768438418270258
2.1134986877441406,0.1918815398354102,[0.18081652],5.0,0.6,0.0,0.36611875140970596,0.21021118515797832,1.4757106745691968
2.1226799488067627,0.19520331801993357,[0.18347503],5.0,0.6,0.0,0.4253873919249588,0.171786255878945,1.4727297356424023
2.1344165802001953,0.19969748850487698,[0.18616216],5.0,0.6,0.0,0.293938757654333,0.1979394295970208,1.4639578378447553
2.1425647735595703,0.20243307053919038,[0.18887411],5.0,0.6,0.0,-0.15351122335642278,0.1624379683417467,1.4638811628964163
2.152524709701538,0.2061456461571871,[0.1916071],5.0,0.6,0.0,-0.3398176472665409,0.19116146894686786,1.458521273550666
2.1625239849090576,0.20985822177518385,[0.19436174],5.0,0.6,0.0,-0.6785981731588189,0.18062043953920562,1.4527642301091075
2.1715469360351562,0.2133753986764439,[0.1971337],5.0,0.6,0.0,-0.9939638818918857,0.1410937431596733,1.447874110178805
2.1795225143432617,0.21650177814423063,[0.19991021],5.0,0.6,0.0,-1.229942968257722,0.14437631713417706,1.4453072896980725
2.189791440963745,0.22021435376222737,[0.20268456],5.0,0.6,0.0,-1.6568025798713402,0.14323229717004865,1.4383525723848734
2.198590040206909,0.22373153066348742,[0.20545105],5.0,0.6,0.0,-1.7681024037710984,0.10792304039489484,1.4330275922590905
2.20916485786438,0.22763950499822086,[0.20820485],5.0,0.6,0.0,-2.011466140319395,0.14581754159782553,1.4242388038500364
2.2165799140930176,0.2305704857492709,[0.21094633],5.0,0.6,0.0,-2.503016112791223,0.11153559794297362,1.421227911993281
2.226320266723633,0.23428306136726765,[0.21367174],5.0,0.6,0.0,-2.398974645749968,0.115229405198792,1.4142783704678195
2.2367794513702393,0.23799563698526438,[0.21637827],5.0,0.6,0.0,-2.6462096375316353,0.1168137072206818,1.4055869666025387
2.2456328868865967,0.24131741516978775,[0.21906826],5.0,0.6,0.0,-2.927826484965405,0.1188701134194118,1.3993976539409712
2.2540183067321777,0.2442483959208378,[0.22174428],5.0,0.6,0.0,-3.131873171087176,0.12189943529543276,1.3964250806729117
2.2615344524383545,0.24717937667188783,[0.22440456],5.0,0.6,0.0,-3.2345909168502645,0.08993578483988982,1.3937330540618431
2.269536256790161,0.25030575613967454,[0.22703927],5.0,0.6,0.0,-3.2463492811206964,0.063790920575424,1.3896050861946865
2.2806396484375,0.25460452790788135,[0.22964528],5.0,0.6,0.0,-3.187628443965659,0.11342248922568204,1.3753494028060835
2.2910590171813965,0.25851250224261474,[0.23223435],5.0,0.6,0.0,-3.0791187216834697,0.11228962770713866,1.36399637151337
2.299811363220215,0.26163888171040145,[0.23481718],5.0,0.6,0.0,-3.2142827606424387,0.1139198289552991,1.3583590505205176
2.3090121746063232,0.2651560586116615,[0.23739411],5.0,0.6,0.0,-3.363657190191157,0.0788578417419419,1.3487958458047413
2.3181116580963135,0.26828243807944824,[0.23996115],5.0,0.6,0.0,-3.1728239779345175,0.09008956766667801,1.3443489043240318
2.3265271186828613,0.27121341883049827,[0.24251532],5.0,0.6,0.0,-3.146666687288798,0.06176100439124494,1.3408177732539617
2.335479497909546,0.2745351970150217,[0.24505449],5.0,0.6,0.0,-2.864706568698391,0.07741222226194093,1.3343743032395325
2.3445820808410645,0.2780523739162818,[0.24758705],5.0,0.6,0.0,-2.79561224289621,0.11730748684097698,1.32479906591678
2.3538260459899902,0.2811787533840685,[0.25013017],5.0,0.6,0.0,-2.7746412773594704,0.11409590414256217,1.3189463830757673
2.3624918460845947,0.2843051328518552,[0.25268854],5.0,0.6,0.0,-2.4638164622732712,0.0790367404418127,1.3142963683700262
2.3710665702819824,0.28723611360290524,[0.25525617],5.0,0.6,0.0,-2.3651879846298836,0.08715374769585771,1.3108723868549188
2.3814690113067627,0.2905578917874287,[0.25783759],5.0,0.6,0.0,-2.3252438825796835,0.11713751346700305,1.3032399765687726
2.3908119201660156,0.29368427125521535,[0.26044113],5.0,0.6,0.0,-2.2838826022692613,0.08156095158759846,1.2978317462025397
2.398496389389038,0.29622445457279206,[0.26305868],5.0,0.6,0.0,-1.9464786829120069,0.05209899365563151,1.2997114488016135
2.4090325832366943,0.2999370301907889,[0.26568294],5.0,0.6,0.0,-1.8305363939432766,0.0928294311573367,1.288344783384603
2.4164371490478516,0.3024772135083655,[0.26831699],5.0,0.6,0.0,-1.5099289884577076,0.0608348912159699,1.2901550531596384
2.4252164363861084,0.3054081942594156,[0.27095827],5.0,0.6,0.0,-1.4422540343131618,0.06789085120999731,1.2871616991523984
2.435441493988037,0.308729972443939,[0.27360409],5.0,0.6,0.0,-1.4515745223761711,0.06986762666810589,1.2797578229878388
2.4442670345306396,0.31166095319498904,[0.27625187],5.0,0.6,0.0,-1.4664977558294376,0.03783108601100064,1.2766103095579258
2.4540929794311523,0.31498273137951244,[0.27889449],5.0,0.6,0.0,-1.4627916858724128,0.04677795962172427,1.2690972030725196
2.4621989727020264,0.31752291469708915,[0.28153017],5.0,0.6,0.0,-1.4362376332785634,0.05511229018133499,1.2702161573789543
2.4715421199798584,0.32045389544813924,[0.28416172],5.0,0.6,0.0,-1.3901369486691249,0.058303488879685644,1.2669792502456385
2.4815661907196045,0.32358027491592595,[0.28679111],5.0,0.6,0.0,-1.3298197352424745,0.058419573144982924,1.261539422357136
2.491446018218994,0.3263158569502393,[0.28941964],5.0,0.6,0.0,-1.5364655929435584,0.05908639510258328,1.259897256582887
2.5019686222076416,0.32944223641802606,[0.29205219],5.0,0.6,0.0,-1.4953348997904636,0.08372932871504757,1.2544220673431727
2.514040946960449,0.3331548120360227,[0.29469661],5.0,0.6,0.0,-1.6403293298427093,0.0705879290077164,1.24193235145913
2.522813320159912,0.33549959663686285,[0.29735464],5.0,0.6,0.0,-1.5219847962202668,0.06543990948136791,1.2457886590586222
2.531496286392212,0.3382351786711762,[0.30001883],5.0,0.6,0.0,-1.3230667601282613,0.02965792293168379,1.2453940857600352
2.5405569076538086,0.34097076070548954,[0.30267843],5.0,0.6,0.0,-1.1201216819769781,0.033991976319431794,1.2448947421793088
2.5485458374023438,0.34331554530632963,[0.30532426],5.0,0.6,0.0,-0.9409980009475898,0.005593549082245644,1.2486025632530526
2.557757616043091,0.3458557286239063,[0.30795269],5.0,0.6,0.0,-1.0683246928543997,0.0502877518328527,1.249416699501543
2.568934679031372,0.34898210809169306,[0.31056891],5.0,0.6,0.0,-0.9812780773914369,0.04693535781485169,1.243729877792516
2.578901529312134,0.35152229140926977,[0.31317742],5.0,0.6,0.0,-0.8299667769646746,0.046785105998114807,1.244714946872402
2.586617946624756,0.35347627857663644,[0.31577409],5.0,0.6,0.0,-0.676751793737021,0.017931338239435646,1.2522068331683285
2.5949273109436035,0.3558210631774765,[0.31835171],5.0,0.6,0.0,-0.5439136499359385,0.02966520766811484,1.2549663167712692
2.602477550506592,0.35757965162810657,[0.32090462],5.0,0.6,0.0,-0.43634913195318914,0.00722744319387046,1.2639927339626311
2.6115355491638184,0.3599244362289466,[0.32342445],5.0,0.6,0.0,-0.6281621499958392,-0.01139262248727457,1.2658008289848608
2.6212494373321533,0.3624646195465233,[0.32590927],5.0,0.6,0.0,-0.5963539557320525,0.04962521854106462,1.2652103785843378
2.63053297996521,0.3646140054306266,[0.32836696],5.0,0.6,0.0,-0.7674654002254858,0.024497244055830904,1.2684807339186175
2.6389706134796143,0.36695879003146675,[0.33080089],5.0,0.6,0.0,-0.686157849463664,0.04338336922001585,1.2695618843007066
2.6475071907043457,0.36871737848209674,[0.33321059],5.0,0.6,0.0,-0.8068242823595082,0.023615036548793867,1.2766465606062427
2.658078908920288,0.37145296051641014,[0.33560163],5.0,0.6,0.0,-0.9599178243546196,0.08183449197394876,1.2726335721178643
2.6676714420318604,0.37340694768377686,[0.33798994],5.0,0.6,0.0,-1.35888446828704,0.09236989990921952,1.2767485632645899
2.6765377521514893,0.37516553613440684,[0.34039052],5.0,0.6,0.0,-1.1928352557192814,0.1029904818884845,1.2841077913789976
2.6848361492156982,0.3769241245850368,[0.34280712],5.0,0.6,0.0,-1.1381246243564176,0.07928425157865994,1.2913534784261065
2.693378448486328,0.3786827130356669,[0.34523846],5.0,0.6,0.0,-0.839964180929492,0.10040709219219966,1.299027103861336
2.7019543647766113,0.38063670020303364,[0.3476898],5.0,0.6,0.0,-0.5099838120978971,0.1162096258489973,1.3046562219065112
2.7094767093658447,0.382199889936927,[0.35016609],5.0,0.6,0.0,-0.2263338916188295,0.09608413467181977,1.3144195315731226
2.718409776687622,0.3841538771042937,[0.35266631],5.0,0.6,0.0,-0.008779853700902035,0.11890193308949253,1.3201292011994297
2.7264175415039062,0.3861078642716604,[0.35518991],5.0,0.6,0.0,0.4222997607510409,0.09906149575898864,1.3258479243741805
2.734529495239258,0.3878664527222904,[0.35773666],5.0,0.6,0.0,0.8351618869720703,0.1260612236325027,1.33344847641064
2.744049549102783,0.3902112373231304,[0.36031901],5.0,0.6,0.0,1.1536922353570573,0.16473609750619642,1.335359367816279
2.7514283657073975,0.3915790283402871,[0.36295385],5.0,0.6,0.0,1.6435210379401046,0.1499312414097544,1.3468370386758668
2.7595417499542236,0.3937284142243905,[0.36564297],5.0,0.6,0.0,2.0757182178288773,0.16152723598621133,1.3508590127158906
2.767467737197876,0.39548700267502057,[0.36838127],5.0,0.6,0.0,2.3823319324172374,0.14325085384228442,1.3591351561798932
2.77547550201416,0.3974409898423873,[0.37116406],5.0,0.6,0.0,2.285624822539437,0.16310704877195967,1.3671418800264843
2.7854807376861572,0.40017657187670064,[0.37399359],5.0,0.6,0.0,2.3260336198684897,0.17301372450939512,1.3678632350370123
2.7934908866882324,0.40232595776080404,[0.37687137],5.0,0.6,0.0,2.6510420240659154,0.15400938567017747,1.373253553514247
2.8033463954925537,0.4050615397951174,[0.37979176],5.0,0.6,0.0,2.6980890409099674,0.16997401047727764,1.3747167902398956
2.8114264011383057,0.4072109256792208,[0.38274963],5.0,0.6,0.0,2.8903548490135975,0.1516689151230593,1.3810319757420262
2.820507049560547,0.40994650771353414,[0.38574025],5.0,0.6,0.0,2.78212798649629,0.171176906663086,1.38368865966988
2.8304498195648193,0.41248669103111085,[0.38875929],5.0,0.6,0.0,2.8403584117581095,0.1516058410174969,1.3875402069831302
2.838437795639038,0.41483147563195094,[0.39180281],5.0,0.6,0.0,2.90704000194386,0.17475510889413823,1.3931157949440678
2.850238084793091,0.41834865253321096,[0.39488052],5.0,0.6,0.0,2.9288888850765806,0.19919038895276903,1.3893540168156882
2.8604795932769775,0.4214750320009977,[0.39801349],5.0,0.6,0.0,2.897003682122082,0.19893399932545638,1.3895459461166606
2.8707032203674316,0.4247968101855211,[0.40121234],5.0,0.6,0.0,2.543071888144688,0.19796502577506572,1.3899280315121707
2.8807373046875,0.42792318965330783,[0.40447875],5.0,0.6,0.0,2.398209629734606,0.19827223575071687,1.3916352610174876
2.8887875080108643,0.43046337297088455,[0.40781342],5.0,0.6,0.0,2.0433747156395627,0.20195024505890477,1.3993856935464546
2.898439884185791,0.43378515115540794,[0.41121625],5.0,0.6,0.0,1.9398651031830503,0.20210130874644308,1.400352612818624
2.9074578285217285,0.43671613190645797,[0.41468662],5.0,0.6,0.0,1.9136706829826795,0.20452685663636588,1.4047829468571442
2.918459177017212,0.4406241062411914,[0.41823029],5.0,0.6,0.0,1.894384646331067,0.19581163215717945,1.4019047703069059
2.9264633655548096,0.4431642895587681,[0.42185147],5.0,0.6,0.0,1.8582548403899786,0.20512236248299423,1.410593283827939
2.935500383377075,0.44609527030981816,[0.42553934],5.0,0.6,0.0,1.801266945781824,0.2097006907341982,1.416553723017863
2.943783760070801,0.44902625106086824,[0.42927732],5.0,0.6,0.0,1.7267752432490666,0.19725937080821435,1.4227459922300514
2.9531967639923096,0.4525434279621283,[0.43305095],5.0,0.6,0.0,1.640079435126756,0.20663162012246386,1.424825926464354
2.963442325592041,0.45645140229686165,[0.43685477],5.0,0.6,0.0,1.8222835150050682,0.21017403108463267,1.4236039901834947
2.9744091033935547,0.4605547753483318,[0.44069811],5.0,0.6,0.0,1.758548821783945,0.20836970603008978,1.421874879072692
2.9829518795013428,0.46407195224959186,[0.44458871],5.0,0.6,0.0,1.8826672091540817,0.21032137500904063,1.4242594359801304
2.9934756755828857,0.4679799265843252,[0.44851866],5.0,0.6,0.0,1.469023069007061,0.21226066803442525,1.4254457802121268
3.0026018619537354,0.47149710348558527,[0.4524811],5.0,0.6,0.0,1.219221864478036,0.21508362824070856,1.4291262802753442
3.0131139755249023,0.47599127397052876,[0.45648452],5.0,0.6,0.0,1.0550096517047851,0.20120080046794436,1.4258931751688546
3.0209426879882812,0.4791176534383154,[0.46053592],5.0,0.6,0.0,0.9368972988833904,0.21572505502068157,1.4326212914172374
3.0286550521850586,0.4824394316228388,[0.46462638],5.0,0.6,0.0,0.8448276804159367,0.22005135446029955,1.4379797655368085
3.039339303970337,0.4869336021077822,[0.46874814],5.0,0.6,0.0,0.4924607580755933,0.21809440596754495,1.4358172321885654
3.048039674758911,0.49025538029230564,[0.47289435],5.0,0.6,0.0,0.1173182900359181,0.21169682964159445,1.441489615779648
3.0567078590393066,0.49396795591030235,[0.47705178],5.0,0.6,0.0,0.08074970540686338,0.22004168618863493,1.4443706305127617
3.06579852104187,0.49768053152829916,[0.48121665],5.0,0.6,0.0,-0.11685741382800016,0.224772282135555,1.4472211922934173
3.073504686355591,0.5006115122793491,[0.48538579],5.0,0.6,0.0,-0.6034096592640549,0.21715170496507902,1.454422947864657
3.082432270050049,0.5039332904638726,[0.48954921],5.0,0.6,0.0,-1.0833163927929024,0.23049710918885916,1.4585912543909583
3.0932528972625732,0.5082320622320793,[0.49371363],5.0,0.6,0.0,-1.1808628357249291,0.22846035283081165,1.4576823416570384
3.102773904800415,0.5121400365668127,[0.49790003],5.0,0.6,0.0,-1.3986234465776468,0.23096204610287094,1.4588017941690188
3.111518383026123,0.5160480109015461,[0.50211112],5.0,0.6,0.0,-1.596935022079907,0.2353785535609599,1.4600027407403309
3.1212358474731445,0.5199559852362795,[0.50633412],5.0,0.6,0.0,-1.7321415885889662,0.2391622646517039,1.4613406772607345
3.1315112113952637,0.5242547570044862,[0.51056605],5.0,0.6,0.0,-1.8005533955023365,0.2390256330417597,1.4608098886214695
3.1410579681396484,0.5281627313392196,[0.51481238],5.0,0.6,0.0,-1.8128524057664497,0.2398808443536418,1.4625410445145521
3.1504507064819336,0.5316799082404797,[0.51908606],5.0,0.6,0.0,-1.7829920546900375,0.21325444350650113,1.4664159327242183
3.1598753929138184,0.5353924838584764,[0.52339835],5.0,0.6,0.0,-1.7238339513102185,0.24663562752193446,1.4694309497833613
3.1674468517303467,0.5383234646095265,[0.52773507],5.0,0.6,0.0,-1.6457960039151756,0.24883844044255868,1.4758144474564654
3.1765024662017822,0.54223143894426,[0.53207649],5.0,0.6,0.0,-1.8327947643840323,0.25639264437223375,1.4770923271565202
3.1847565174102783,0.54574861584552,[0.53642248],5.0,0.6,0.0,-1.4955353237658937,0.260432194825958,1.4810928887339485
3.192634105682373,0.5486795965965701,[0.54078173],5.0,0.6,0.0,-1.3116359719087554,0.26482019313498334,1.4863232155540853
3.2042577266693115,0.5529783683647768,[0.54516235],5.0,0.6,0.0,-1.1963198138226296,0.2612328262493526,1.4867920823402017
3.2130956649780273,0.5566909439827735,[0.54956333],5.0,0.6,0.0,-1.1106416764011569,0.2710766343284755,1.4889734821332863
3.2223386764526367,0.5602081208840336,[0.55397586],5.0,0.6,0.0,-1.0374581276270909,0.2753312468849258,1.4914613114101423
3.2314085960388184,0.5641160952187669,[0.55839297],5.0,0.6,0.0,-0.9697532131330104,0.27538161227731084,1.4927710255280684
3.24151873588562,0.5684148669869737,[0.56281841],5.0,0.6,0.0,-0.9050393140732913,0.2534680095390535,1.493146138813961
3.2494165897369385,0.5717366451714971,[0.56726501],5.0,0.6,0.0,-0.8427236910359603,0.2838424818329874,1.4954804964546153
3.26047945022583,0.5762308156564405,[0.57174477],5.0,0.6,0.0,-0.782907596962477,0.22275345473484975,1.4955270956722067
3.26883864402771,0.5797479925577007,[0.57626882],5.0,0.6,0.0,-0.7258665179257708,0.2801833062886411,1.4971899439315959
3.2795023918151855,0.5838513656091707,[0.58083777],5.0,0.6,0.0,-0.6718464005327949,0.2693670262937131,1.4978494056531317
3.289478302001953,0.5877593399439041,[0.58545309],5.0,0.6,0.0,-0.6210006982873756,0.2567808983369815,1.498649820198957
3.2984161376953125,0.5916673142786375,[0.59012641],5.0,0.6,0.0,-0.5733858327666075,0.24293667444207095,1.499280560799468
3.3088388442993164,0.5959660860468443,[0.59487895],5.0,0.6,0.0,-0.5289774911270004,0.22763579179968416,1.4995554034424938
3.3166065216064453,0.5992878642313676,[0.59972937],5.0,0.6,0.0,-0.21165314551642184,0.245156813555565,1.4999276694784767
3.324990749359131,0.6024142436991544,[0.60467309],5.0,0.6,0.0,-0.14023999422563974,0.22842003771775993,1.4989654047431127
3.3341500759124756,0.6061268193171511,[0.60970677],5.0,0.6,0.0,-0.1598958663204465,0.2286682845608991,1.4974210367930678
3.341506004333496,0.6088624013514644,[0.61482743],5.0,0.6,0.0,-0.20322259785144436,0.30268272880537866,1.4928782125612756
3.3504488468170166,0.6125749769694612,[0.62001045],5.0,0.6,0.0,-0.2435005959558951,0.3377579653575635,1.4889595106495768
3.3595120906829834,0.6160921538707212,[0.62524677],5.0,0.6,0.0,-0.2722220751056149,0.2681658199996396,1.4833231348814726
3.369495153427124,0.6200001282054547,[0.63055159],5.0,0.6,0.0,-0.28849860921219395,0.30586959216875953,1.4779174533264525
3.377413034439087,0.6231265076732413,[0.63592659],5.0,0.6,0.0,-0.2942133462240918,0.2714950323473477,1.4676982177255833
3.3858869075775146,0.6268390832912382,[0.64137376],5.0,0.6,0.0,-0.29191082438464255,0.29285452737451884,1.4585653430568915
3.3943991661071777,0.6303562601924982,[0.64690668],5.0,0.6,0.0,-0.28396129445182255,0.31311509705778456,1.446630249711206
3.4024875164031982,0.6338734370937583,[0.65252463],5.0,0.6,0.0,-0.27229630306682473,0.3258090486418446,1.432736498306136
3.411686658859253,0.6373906139950184,[0.65821447],5.0,0.6,0.0,-0.25838372582052316,0.31989285940324996,1.416878070788715
3.4198861122131348,0.6407123921795417,[0.66397684],5.0,0.6,0.0,-0.24329021089379277,0.3446542474690331,1.3973619590522175
3.4292409420013428,0.6442295690808018,[0.6698238],5.0,0.6,0.0,-0.5038030790180708,0.3654829379324938,1.3770175369360147
3.4384913444519043,0.6479421446987986,[0.67575232],5.0,0.6,0.0,-0.5214797609142305,0.3558124284791682,1.3564858380571911
3.4470789432525635,0.6516547203167954,[0.68175865],5.0,0.6,0.0,-0.17530850447508872,0.410192885335416,1.3342045105273372
3.4546971321105957,0.6545857010678453,[0.68785057],5.0,0.6,0.0,-0.05168540824031208,0.38511455902583414,1.3014659770803951
3.462510347366333,0.6575166818188953,[0.69400895],5.0,0.6,0.0,-0.02259098297710821,0.4369690292728857,1.266180350700209
3.4726946353912354,0.661815453587102,[0.70020412],5.0,0.6,0.0,-0.02919163877099093,0.4007764495123956,1.2447260534274198
3.4804434776306152,0.6649418330548889,[0.70642221],5.0,0.6,0.0,-0.045681686399172604,0.4779080918038707,1.2088391781192014
3.4919931888580322,0.6696314022565689,[0.7126624],5.0,0.6,0.0,-0.06167482891194709,0.4563654074160371,1.1905013361709706
3.5005364418029785,0.6729531804410924,[0.71894629],5.0,0.6,0.0,-0.07372917295305026,0.47174352390554236,1.1550266366266553
3.508587121963501,0.6766657560590891,[0.72527899],5.0,0.6,0.0,-0.08134014844316215,0.45832277389888615,1.1233437205306844
3.5184874534606934,0.6805737303938224,[0.73163982],5.0,0.6,0.0,-0.08509819213527915,0.46940012427914224,1.0935949339597553
3.5275349617004395,0.6844817047285559,[0.73802134],5.0,0.6,0.0,0.19015797449730032,0.48787350478955477,1.0636362491123759
3.5394954681396484,0.689171273930236,[0.74443814],5.0,0.6,0.0,0.2246377898216146,0.5359842649863304,1.0428325193072294
3.5475800037384033,0.6922976533980226,[0.75090084],5.0,0.6,0.0,0.1723408016351616,0.5074180425218562,1.0031279849073118
3.5590779781341553,0.6967918238829661,[0.75740541],5.0,0.6,0.0,0.09997002085400258,0.5553544142022788,0.9795932326670893
3.5675008296966553,0.7001136020674896,[0.76394672],5.0,0.6,0.0,0.03368628695554684,0.5274863822540041,0.942667978086074
3.5754518508911133,0.7034353802520129,[0.77050851],5.0,0.6,0.0,-0.0184477438494282,0.5464759078755217,0.906666657739172
3.5834765434265137,0.7065617597197996,[0.77707573],5.0,0.6,0.0,-0.05589873147912753,0.56517173651537,0.869926723008339
3.591777801513672,0.7098835379043231,[0.78364525],5.0,0.6,0.0,-0.08083530677906903,0.5816497815930701,0.8368314931383969
3.6019794940948486,0.7137915122390565,[0.79021339],5.0,0.6,0.0,-0.09603426832038416,0.594326002025398,0.8109625293144698
3.6098053455352783,0.7175040878570531,[0.79676615],5.0,0.6,0.0,-0.10405750431882022,0.6732069380738892,0.7846419780729625
3.617361068725586,0.7204350686081032,[0.80327115],5.0,0.6,0.0,0.16904130787780566,0.7180720307329372,0.753485844331228
3.6257851123809814,0.7239522455093631,[0.80970105],5.0,0.6,0.0,0.20270578990265592,0.7196722641265448,0.7297635003368675
3.635374069213867,0.72766482112736,[0.81605276],5.0,0.6,0.0,0.15044369654863757,0.7181697927059245,0.7095975354741182
3.645433187484741,0.7315727954620934,[0.82233347],5.0,0.6,0.0,-0.19740064037737304,0.7191072625579974,0.6925016454109194
3.6555490493774414,0.7356761685135634,[0.82854881],5.0,0.6,0.0,-0.2959248683544348,0.7236855311679701,0.6780962130712057
3.663408041000366,0.7389979466980869,[0.83470295],5.0,0.6,0.0,-0.2918973195139901,0.7362838471303554,0.6600473146279677
3.6713614463806152,0.742515123599347,[0.8407898],5.0,0.6,0.0,-0.2521105649838683,0.7930393784068192,0.644871380132209
3.6798112392425537,0.7458369017838703,[0.84679479],5.0,0.6,0.0,-0.20534350280262714,0.8004616348024742,0.6301926569470291
3.6904170513153076,0.7499402748353403,[0.85272273],5.0,0.6,0.0,-0.1627504013384699,0.749190415374684,0.6208736463416358
3.6990103721618652,0.7532620530198638,[0.85858606],5.0,0.6,0.0,-0.1276409996873386,0.8248408677827032,0.6087459594406758
3.7063870429992676,0.7563884324876504,[0.86436937],5.0,0.6,0.0,-0.10008044369349514,0.8459282377064953,0.5970961834210564
3.7160463333129883,0.7599056093889106,[0.87005093],5.0,0.6,0.0,-0.07898615631581005,0.8576011116842168,0.5883498271512085
3.7234175205230713,0.763227387573434,[0.87562113],5.0,0.6,0.0,-0.06303408815847841,0.8613924263846497,0.5799377175323623
3.733156204223633,0.767330760624904,[0.88107218],5.0,0.6,0.0,-0.05101229848209185,0.8739294232305735,0.5752117466688024
3.7464041709899902,0.7728019246935308,[0.88641266],5.0,0.6,0.0,-0.04192805093329463,0.8653579890783523,0.5756606425469519
3.7574849128723145,0.7772960951784743,[0.8916644],5.0,0.6,0.0,-0.035012562372649776,0.8737698534318802,0.5730921483457492
3.7663826942443848,0.7806178733629977,[0.89683061],5.0,0.6,0.0,-0.02968920628420738,0.8842910745342463,0.567132321812128
3.7776920795440674,0.7855028412814143,[0.90190578],5.0,0.6,0.0,-0.025533684033244405,0.8864158559885712,0.5665410561451671
3.7864627838134766,0.7890200181826744,[0.90689829],5.0,0.6,0.0,-0.022237349297277127,0.8961182289138827,0.5620966440773213
3.7964043617248535,0.7931233912341445,[0.91181447],5.0,0.6,0.0,-0.019577128349341635,0.9003185808511804,0.5597540038742643
3.808333396911621,0.7978129604358245,[0.91665786],5.0,0.6,0.0,-0.017392252481101336,0.8989876729505885,0.5593189971173396
3.8163907527923584,0.8009393399036113,[0.92143063],5.0,0.6,0.0,-0.015566857113751961,0.9005580081476681,0.5548236446305701
3.826266050338745,0.8050427129550815,[0.92612218],5.0,0.6,0.0,-0.014017237302017569,0.9001217945594268,0.5532876841751637
3.836195707321167,0.8089506872898149,[0.93072284],5.0,0.6,0.0,-0.012682638135923095,0.899368334281134,0.5515247227497212
3.8454108238220215,0.8126632629078115,[0.93522977],5.0,0.6,0.0,-0.011518657801568286,0.8983470822550331,0.5495629405613709
3.855393171310425,0.8165712372425449,[0.93964018],5.0,0.6,0.0,-0.010492549100928908,0.8952113568520803,0.5483545603948686
3.8655781745910645,0.820674610294015,[0.94395137],5.0,0.6,0.0,-0.009579885130322856,0.8899885897930182,0.5478620101640336
3.8745810985565186,0.8243871859120117,[0.94816081],5.0,0.6,0.0,-0.008762197895622156,0.8856537278859031,0.5467013074239714
3.8826093673706055,0.8277089640965352,[0.95226187],5.0,0.6,0.0,-0.008025307369645377,0.8534387009998633,0.5449283378990009
3.890787363052368,0.8312261409977952,[0.9562448],5.0,0.6,0.0,-0.2833964985741572,0.8576312422226375,0.5438361833680317
3.8983798027038574,0.8343525204655821,[0.96010208],5.0,0.6,0.0,-0.31591484810543624,0.82833444674179,0.5422416914287593
3.9066545963287354,0.8376742986501053,[0.96383224],5.0,0.6,0.0,-0.26026511802974595,0.8681078971407576,0.5414038200503405
3.9154372215270996,0.8409960768346287,[0.96743881],5.0,0.6,0.0,-0.18367553361855588,0.8335023897636898,0.5408369689467795
3.924393653869629,0.8445132537358887,[0.97091783],5.0,0.6,0.0,-0.38872959042473465,0.8037561537082081,0.5408285317261239
3.933643341064453,0.8482258293538855,[0.97426291],5.0,0.6,0.0,-0.36480951414599244,0.8131070547354872,0.54160865311467
3.9425272941589355,0.8515476075384089,[0.97747744],5.0,0.6,0.0,-0.26732686733710787,0.8187634469376149,0.5418805475875399
3.9580657482147217,0.8581911639074556,[0.98057615],5.0,0.6,0.0,-0.16147085330313363,0.8583630313393122,0.5499863535409674
3.965721368789673,0.8613175433752424,[0.98357603],5.0,0.6,0.0,-0.07109360744954481,0.8174674667585886,0.5503124649966503
3.9754045009613037,0.8648347202765025,[0.98648187],5.0,0.6,0.0,-0.0020190783727872946,0.8118810181880763,0.5518393389783587
3.984825611114502,0.8685472958944992,[0.98929553],5.0,0.6,0.0,0.04709604431767661,0.8068929245050652,0.5541467414645864
3.993360996246338,0.8720644727957593,[0.99202375],5.0,0.6,0.0,0.07988721230874701,0.80403941011047,0.5562398150865212
4.0013954639434814,0.8753862509802827,[0.99467025],5.0,0.6,0.0,0.10023309842066773,0.7704200223434856,0.5580841017330013
4.009763956069946,0.8790988265982794,[0.9972362],5.0,0.6,0.0,0.11150308822516602,0.7783555191732411,0.5613329250516471
4.017404556274414,0.8822252060660662,[0.99972432],5.0,0.6,0.0,0.11637130429713421,0.7513245620003761,0.5632052676278355
4.027886390686035,0.8867193765510096,[1.00214314],5.0,0.6,0.0,0.11685673252195827,0.798878322900492,0.5696219685112658
4.0361433029174805,0.890041154735533,[1.0045062],5.0,0.6,0.0,0.11443639090696509,0.7665070725717595,0.5727604215138431
4.044450759887695,0.8933629329200563,[1.00681792],5.0,0.6,0.0,0.11016701961958593,0.7409185780577456,0.5761899801114014
4.05440354347229,0.8974663059715264,[1.00907973],5.0,0.6,0.0,0.3808297967654719,0.7609293125493027,0.5826768262731457
4.06345272064209,0.9009834828727865,[1.01130427],5.0,0.6,0.0,0.40798648080940214,0.778095887881859,0.587549638392711
4.071562051773071,0.9041098623405732,[1.01350406],5.0,0.6,0.0,0.07064023545769993,0.7517910094835687,0.5913133182413788
4.0806732177734375,0.9080178366753067,[1.01569246],5.0,0.6,0.0,-0.04478948968931848,0.8094669836161511,0.5983935354974543
4.088403701782227,0.9111442161430933,[1.01788841],5.0,0.6,0.0,0.20974538600236975,0.7799773936676372,0.6023676693335037
4.097505569458008,0.9148567917610901,[1.02010397],5.0,0.6,0.0,0.2564919324719626,0.794112347575844,0.6090615955024101
4.10643196105957,0.9183739686623502,[1.02234512],5.0,0.6,0.0,0.22437088991324783,0.7665007330649353,0.6150572229293682
4.116971015930176,0.9224773417138202,[1.02462527],5.0,0.6,0.0,-0.10577332858403835,0.8114977812633598,0.6240702950030486
4.124391078948975,0.9256037211816069,[1.02696413],5.0,0.6,0.0,-0.19184596859748843,0.7901282290275796,0.6280927953602408
4.13410210609436,0.9295116955163404,[1.02937271],5.0,0.6,0.0,-0.18067160711333796,0.7976654712274887,0.6360649615454821
4.14282751083374,0.9330288724176004,[1.03186233],5.0,0.6,0.0,0.13789957913499112,0.7999346250397046,0.641747156957694
4.152427673339844,0.9367414480355971,[1.03445154],5.0,0.6,0.0,-0.05880749673661967,0.7959770475099056,0.6481589347730821
4.161422252655029,0.9406494223703306,[1.03715758],5.0,0.6,0.0,-0.10731577895577912,0.7868207494684922,0.6552342140139048
4.16978645324707,0.9441665992715907,[1.03998731],5.0,0.6,0.0,-0.09759968664978952,0.7849981137734008,0.659395587468011
4.17841362953186,0.9476837761728507,[1.04293823],5.0,0.6,0.0,-0.06981020704497594,0.7824851607613713,0.6628860682950465
4.188823461532593,0.9519825479410575,[1.04602725],5.0,0.6,0.0,-0.0406433753703925,0.7081392277474813,0.6705224484170202
4.198723077774048,0.9556951235590542,[1.04928791],5.0,0.6,0.0,-0.01608701384301258,0.6978928882534006,0.6734401093192226
4.207441329956055,0.9592123004603142,[1.05272926],5.0,0.6,0.0,0.002512111772865035,0.7591598731903392,0.6739331362016464
4.217593669891357,0.9631202747950476,[1.05634907],5.0,0.6,0.0,0.01562902821692112,0.6827851665675986,0.6758150772402052
4.228545904159546,0.9676144452799911,[1.06016484],5.0,0.6,0.0,0.30033927052327014,0.6791053228006139,0.6802360841200487
4.240835189819336,0.9726948119151444,[1.06420065],5.0,0.6,0.0,0.3387651867942387,0.7098358441896775,0.687285754719517
4.248705863952637,0.9758211913829312,[1.06846478],5.0,0.6,0.0,0.2865214437487699,0.6716348481095883,0.6796208732011446
4.260153770446777,0.9805107605846113,[1.07294077],5.0,0.6,0.0,0.2115701242571421,0.6746227109921068,0.6810747281274553
4.270488262176514,0.9846141336360814,[1.07761247],5.0,0.6,0.0,0.14100887436203474,0.680783939693031,0.6773160659891162
4.279021501541138,0.9877405131038681,[1.0824745],5.0,0.6,0.0,0.08357575786481955,0.6918712992164756,0.6661379089034858
4.28643798828125,0.9908668925716548,[1.08750934],5.0,0.6,0.0,0.0402792833618487,0.7483075773887845,0.6544383605864563
4.295544385910034,0.9945794681896515,[1.09268928],5.0,0.6,0.0,0.009277786336133492,0.7272141742434243,0.6458600910734842
4.304943323135376,0.9984874425243848,[1.09799982],5.0,0.6,0.0,-0.011985776942969772,0.7084446689091323,0.6379942242810558
4.313735723495483,1.0022000181423816,[1.10343775],5.0,0.6,0.0,-0.02592981920931544,0.7168909225167686,0.6287581242993194
4.324449062347412,1.0064987899105884,[1.1089987],5.0,0.6,0.0,-0.03455644984844238,0.7273464447899496,0.6223030146136551
4.336346864700317,1.0111883591122686,[1.1146774],5.0,0.6,0.0,-0.039417136724002766,0.7352844934218435,0.6174190420918347
4.344973087310791,1.0147055360135286,[1.12046793],5.0,0.6,0.0,-0.04166865356063021,0.7487024053944158,0.606762452358928
4.353445529937744,1.0182227129147887,[1.1263639],5.0,0.6,0.0,-0.0421522056031111,0.7621733820139488,0.5964320078209013
4.364155530929565,1.0223260859662586,[1.13235865],5.0,0.6,0.0,-0.041468771626474804,0.772902584742544,0.5887929840940549
4.373883008956909,1.0264294590177288,[1.13844544],5.0,0.6,0.0,-0.04004179534773933,0.7838521642154891,0.5813063859620404
4.383148670196533,1.0301420346357255,[1.14460674],5.0,0.6,0.0,-0.038166022396554714,0.8280048703296242,0.5727701994128387
4.393823623657227,1.0344408064039323,[1.15082715],5.0,0.6,0.0,-0.036044141508804625,0.8189694355651234,0.5665920203998851
4.402939796447754,1.0379579833051924,[1.15711495],5.0,0.6,0.0,-0.03381364153603729,0.8302516811204839,0.5584437268789794
4.410668849945068,1.0406935653395057,[1.16346563],5.0,0.6,0.0,-0.03156619751427778,0.849081381765493,0.5490649156975727
4.418348550796509,1.0438199448072925,[1.16984209],5.0,0.6,0.0,-0.029361517502742365,0.9187959816795375,0.5417384810877042
4.42637300491333,1.0469463242750792,[1.17620189],5.0,0.6,0.0,-0.02723715849459801,0.9513016942015453,0.5353868261609035
4.435472726821899,1.0510496973265493,[1.1825318],5.0,0.6,0.0,-0.02521544515923773,0.8721317350475624,0.5315076906456969
4.444371700286865,1.0545668742278094,[1.18884362],5.0,0.6,0.0,-0.023308323922268247,0.9391106281847118,0.52715853831225
4.457282304763794,1.0598426395796994,[1.19514816],5.0,0.6,0.0,-0.021520754488897627,0.9138549242615058,0.5256931708744453
4.46542501449585,1.0631644177642228,[1.20145524],5.0,0.6,0.0,-0.01985306987478278,0.9182099687690186,0.5218209662221716
4.4744462966918945,1.0666815946654828,[1.20776228],5.0,0.6,0.0,-0.018302611410692702,0.917363939925653,0.5186713456151429
4.483426332473755,1.0703941702834796,[1.21406763],5.0,0.6,0.0,-0.016864855538166065,0.9390808393556566,0.51610821641213
4.494003057479858,1.0744975433349495,[1.22039342],5.0,0.6,0.0,-0.015534185249438257,0.9952064107545213,0.514162836884123
4.502418756484985,1.0782101189529465,[1.22677024],5.0,0.6,0.0,-0.014304413650518728,1.0027447678071153,0.5121062343410393
4.512713432312012,1.0827042894378898,[1.23321226],5.0,0.6,0.0,0.26286922460898715,1.0081102420124533,0.5107235306384146
4.521047830581665,1.0860260676224132,[1.23969589],5.0,0.6,0.0,0.29704100628991137,1.0237894398154512,0.5088238386681662
4.529379606246948,1.0891524470901999,[1.24617738],5.0,0.6,0.0,0.24290905955760128,1.037603506325149,0.5071727200532369
4.537647247314453,1.0922788265579866,[1.25264315],5.0,0.6,0.0,0.16771347344074722,1.0523311963359419,0.5058172024983797
4.546412944793701,1.09560060474251,[1.25909362],5.0,0.6,0.0,0.09800999512290015,1.0279375825497923,0.5047600623854936
4.556864976882935,1.0998993765107168,[1.26552912],5.0,0.6,0.0,0.042142516455329404,1.0866437817479173,0.5041404063360093
4.564366579055786,1.1030257559785035,[1.27196137],5.0,0.6,0.0,0.0008393404244821344,1.0606194634025066,0.5033198080620358
4.573974847793579,1.1067383315965003,[1.27838832],5.0,0.6,0.0,-0.027936598796516346,1.081273502836799,0.5027588142727991
4.5825676918029785,1.1102555084977603,[1.28480757],5.0,0.6,0.0,-0.046876100127272245,1.1003662840909665,0.5022554421173875
4.595396995544434,1.115726672566387,[1.29123897],5.0,0.6,0.0,-0.058487250002969116,1.1443050100632166,0.5021077783918995
4.603353261947632,1.1190484507509104,[1.29769816],5.0,0.6,0.0,-0.06483070523369566,1.1132905178132606,0.5016866736918498
4.611410856246948,1.1221748302186971,[1.30416376],5.0,0.6,0.0,-0.06749473783208274,1.1707003800637872,0.5013247243060388
4.6204071044921875,1.1256920071199572,[1.31060573],5.0,0.6,0.0,-0.06765789329524116,1.154287918233923,0.5010681764985383
4.628373861312866,1.128818386587744,[1.31702008],5.0,0.6,0.0,-0.06617287206330975,1.1473643377031695,0.5008351736782771
4.638347148895264,1.1327263609224774,[1.32341356],5.0,0.6,0.0,-0.06364521750485663,1.1638425313785152,0.5006914824759287
4.649516582489014,1.1372205314074209,[1.32979087],5.0,0.6,0.0,-0.06049834677125805,1.1752189562739819,0.5005984246898804
4.659499883651733,1.1415193031756277,[1.33616503],5.0,0.6,0.0,-0.057024013707464516,1.2192141818428843,0.5005094740544469
4.668430805206299,1.1450364800768875,[1.34254579],5.0,0.6,0.0,-0.05342007289090946,1.207869238636327,0.5004067980708939
4.678128004074097,1.148944454411621,[1.34891989],5.0,0.6,0.0,-0.04981810625848971,1.2153905247509091,0.500334275110505
4.691310405731201,1.1544156184802479,[1.3552847],5.0,0.6,0.0,-0.046303331698329425,1.2397338437369232,0.5003112881166677
4.7013258934021,1.1581281940982444,[1.36165668],5.0,0.6,0.0,-0.04292880017154717,1.2423508934852399,0.5002509592216968
4.710809707641602,1.1622315671497148,[1.36803868],5.0,0.6,0.0,-0.03972544228957603,1.2453904965681795,0.5002082149739686
4.719345331192017,1.1657487440509746,[1.37442234],5.0,0.6,0.0,-0.3127474946900334,1.2533335126063252,0.5000922988546124
4.729058265686035,1.1698521171024447,[1.38079048],5.0,0.6,0.0,-0.34304860963033573,1.3385115310185507,0.5000489304385564
4.737553358078003,1.1733692940037048,[1.38711866],5.0,0.6,0.0,-0.28531978755422666,1.3447836011518177,0.5000469320374693
4.745304584503174,1.1763002747547546,[1.39338632],5.0,0.6,0.0,-0.20678996450265652,1.3904785425059474,0.5000488286855719
4.75450873374939,1.1800128503727516,[1.39957648],5.0,0.6,0.0,-0.13400140594275095,1.395991109988446,0.5000516000372788
4.765351057052612,1.1841162234242217,[1.40568433],5.0,0.6,0.0,-0.07528334380424045,1.3982412806141318,0.5000502170335215
4.775312900543213,1.1882195964756916,[1.41171536],5.0,0.6,0.0,-0.031349013194035255,1.401750772047989,0.5000451213798963
4.785353660583496,1.192127570810425,[1.41767448],5.0,0.6,0.0,-0.0001463787936448989,1.4080634559161282,0.5000381386726936
4.794326543807983,1.1956447477116852,[1.42356607],5.0,0.6,0.0,0.021029905436717886,1.4181236196819882,0.5000304206336023
4.805966854095459,1.2003343169133653,[1.4294025],5.0,0.6,0.0,0.03470185204325232,1.3523952009695501,0.5000267933909645
4.813335418701172,1.2036560950978887,[1.4352026],5.0,0.6,0.0,0.04294330985517346,1.3931744405868227,0.5000206649228389
4.8213279247283936,1.2067824745656754,[1.44096481],5.0,0.6,0.0,0.0473549535727886,1.4694723785732817,0.5000155707778247
4.830648422241211,1.210495050183672,[1.44667046],5.0,0.6,0.0,0.04912692540270029,1.4778013558066487,0.5000124960834142
4.838682413101196,1.213621429651459,[1.45231187],5.0,0.6,0.0,0.04912272513229582,1.4896901568580776,0.5000094595535451
4.846338748931885,1.2169432078359823,[1.45788266],5.0,0.6,0.0,0.04795792279540886,1.511239022016192,0.5000073594946611
4.856740236282349,1.221241979604189,[1.4633692],5.0,0.6,0.0,0.04606522396349483,1.5178516627414254,0.5000065084665646
4.8643388748168945,1.2243683590719758,[1.46876019],5.0,0.6,0.0,0.04374497255078041,1.5204978547947716,0.5000050640380009
4.87412428855896,1.2282763334067093,[1.47404629],5.0,0.6,0.0,-0.2348354023737951,1.53334221669224,0.49996461830120076
4.882953643798828,1.2317935103079691,[1.47922711],5.0,0.6,0.0,-0.2705848813264718,1.5435738070223015,0.49995031146555774
4.892345666885376,1.2358968833594395,[1.48430952],5.0,0.6,0.0,-0.21810339219918767,1.5489518985001667,0.49996895634460203
4.901380300521851,1.2392186615439627,[1.48929862],5.0,0.6,0.0,-0.14456577357799985,1.5571594149994243,0.49998813978787293
4.910444021224976,1.2429312371619592,[1.49419797],5.0,0.6,0.0,-0.07648543951486468,1.5625359142056916,0.49999892746706703
4.920360326766968,1.2466438127799562,[1.49900357],5.0,0.6,0.0,-0.022179789277233006,1.5494416893007474,0.5000025738310657
4.92913293838501,1.2499655909644793,[1.5037054],5.0,0.6,0.0,-0.25839986298394985,1.5600190606687598,0.49995285522121874
4.939436912536621,1.254459761449423,[1.50830105],5.0,0.6,0.0,-0.2641482477619336,1.5614706958928566,0.4999505932098415
4.949615478515625,1.2583677357841563,[1.51279441],5.0,0.6,0.0,-0.19142277662392182,1.563405831701064,0.4999751082586757
4.9576849937438965,1.2616895139686797,[1.51718837],5.0,0.6,0.0,-0.1049494900776746,1.5663580433184048,0.49999393831888456
4.966341495513916,1.265011292153203,[1.52147975],5.0,0.6,0.0,-0.02921993753286377,1.5405267886029397,0.5000012997937869
4.974789381027222,1.2685284690544634,[1.52566057],5.0,0.6,0.0,0.029012156930388014,1.5483017173509177,0.5000011812644332
4.984315395355225,1.27224104467246,[1.52972959],5.0,0.6,0.0,0.07019782606021868,1.5513298997931475,0.499998074513077
4.993367671966553,1.2761490190071934,[1.53369122],5.0,0.6,0.0,0.09722689518526066,1.550529323669182,0.4999946962832667
5.0023863315582275,1.27986159462519,[1.53754929],5.0,0.6,0.0,0.11339529323278635,1.5489417003219141,0.4999921355358434
5.0129313468933105,1.284160366393397,[1.54131168],5.0,0.6,0.0,0.1216338160455217,1.566727353869811,0.49999079113677947
5.023374795913696,1.2884591381616035,[1.54498951],5.0,0.6,0.0,0.12429399390572858,1.5536300385696575,0.4999904230015042
5.031398296356201,1.2915855176293904,[1.54858351],5.0,0.6,0.0,0.12316098297090655,1.5186065758992748,0.49999054152470035
5.039608716964722,1.2947118970971772,[1.5520817],5.0,0.6,0.0,0.11954390552603723,1.4878912001913254,0.49999112622221614
5.049061298370361,1.2986198714319104,[1.55547065],5.0,0.6,0.0,0.11437967651309212,1.4596556674675383,0.4999921221923565
5.059316158294678,1.3027232444833805,[1.5587445],5.0,0.6,0.0,0.10832591208958564,1.4737730578630845,0.4999932910488375
5.067332983016968,1.3056542252344305,[1.56190803],5.0,0.6,0.0,0.10183602155924969,1.4868505968039354,0.4999942586360147
5.077877044677734,1.3099529970026373,[1.56497493],5.0,0.6,0.0,0.09521674536455747,1.5195148433998773,0.49999549516913955
5.088305234909058,1.3144471674875808,[1.56796219],5.0,0.6,0.0,0.08867086851858265,1.5089503939640057,0.4999967628820174
5.09641432762146,1.3177689456721042,[1.57088123],5.0,0.6,0.0,0.0823282924413804,1.5050217108246757,0.49999767918113325
5.105093717575073,1.3210907238566276,[1.57373445],5.0,0.6,0.0,0.0762683291571681,1.4694656988480528,0.49999852685442087
5.113351345062256,1.3246079007578877,[1.57652087],5.0,0.6,0.0,0.07053554026634294,1.4763168874546417,0.49999937197061517
5.1228187084198,1.3285158750926211,[1.57924536],5.0,0.6,0.0,0.06515090493628241,1.4794330940740792,0.5000003044069375
5.131271600723267,1.3316422545604079,[1.58191333],5.0,0.6,0.0,0.06011964490620088,1.4487317049234005,0.5000009364031499
5.142428159713745,1.3361364250453511,[1.58453104],5.0,0.6,0.0,0.055436675389606976,1.4917794406933491,0.5000020856641035
5.151817560195923,1.3398490006633477,[1.58711478],5.0,0.6,0.0,0.05109037952185696,1.4904887221867418,0.5000029481464016
5.162287473678589,1.3441477724315547,[1.58968],5.0,0.6,0.0,0.047065204229628246,1.4864433294062678,0.5000041535952664
5.171221971511841,1.3476649493328146,[1.59223666],5.0,0.6,0.0,0.043343430617438714,1.4868515679035863,0.5000049769306583
5.1824095249176025,1.3521591198177578,[1.59479464],5.0,0.6,0.0,0.03990636816518846,1.4824590605875827,0.5000065136934371
5.190319299697876,1.355090100568808,[1.59736357],5.0,0.6,0.0,0.03673514815432399,1.4856572650121684,0.5000069697507049
5.200604438781738,1.358802676186805,[1.5999527],5.0,0.6,0.0,0.03381123943387804,1.4850081904441883,0.5000080382647824
5.209775686264038,1.3629060492382747,[1.60257075],5.0,0.6,0.0,0.03111677273258509,1.4819861026240284,0.500009533324785
5.219679355621338,1.3668140235730084,[1.60522583],5.0,0.6,0.0,0.028634733761914034,1.4796601236833706,0.5000109487277048
5.228923082351685,1.371112795341215,[1.60792525],5.0,0.6,0.0,0.026349067119747795,1.4749298753103424,0.5000129399598081
5.23733115196228,1.374239174809002,[1.61066926],5.0,0.6,0.0,0.024244720223934715,1.4472012548486626,0.5000135151450648
5.245388507843018,1.3775609529935253,[1.61345189],5.0,0.6,0.0,0.022307647554034568,1.4569523651282852,0.5000143112937006
5.254352807998657,1.3810781298947854,[1.61627399],5.0,0.6,0.0,0.020524789221501014,1.4614712888783241,0.5000153617982344
5.265254497528076,1.385376901662992,[1.619142],5.0,0.6,0.0,0.018884033518072905,1.4591725145944894,0.5000176611555752
5.273366928100586,1.3886986798475154,[1.6220546],5.0,0.6,0.0,0.01737417004265787,1.4315304793907375,0.5000184004494262
5.282321214675903,1.392411255465512,[1.62500379],5.0,0.6,0.0,0.01598483788451332,1.439575647144766,0.500019808204285
5.290374040603638,1.3955376349332989,[1.62798202],5.0,0.6,0.0,0.014706471865956503,1.4128214173471132,0.500020114883632
5.302082061767578,1.4002272041349793,[1.63098793],5.0,0.6,0.0,0.01353024882546128,1.447030078531734,0.5000235621456616
5.312314748764038,1.4039397797529758,[1.63402531],5.0,0.6,0.0,0.012448035215663785,1.4165779690663693,0.5000251047168661
5.321632385253906,1.4076523553709723,[1.63709583],5.0,0.6,0.0,0.01145233680585784,1.443312415528373,0.5000266554368616
5.329751253128052,1.410974133555496,[1.64019914],5.0,0.6,0.0,0.010536250946678634,1.413591735370297,0.5000272119928166
5.339541673660278,1.4150775066069659,[1.64332791],5.0,0.6,0.0,0.009693421630641852,1.4109550754557059,0.5000297703834856
5.349640607833862,1.4187900822249626,[1.64647393],5.0,0.6,0.0,0.008917997432022848,1.407303272066783,0.500031363288954
5.3593244552612305,1.4225026578429594,[1.6496336],5.0,0.6,0.0,0.008204592309669112,1.4011080413316803,0.5000329931394132
5.368865966796875,1.4266060308944293,[1.65280171],5.0,0.6,0.0,0.007548249195527209,1.390632007506925,0.5000359250094543
5.378279209136963,1.4303186065124263,[1.65597152],5.0,0.6,0.0,0.006944406249240254,1.3800159677678208,0.5000377396959234
5.386319875717163,1.4338357834136866,[1.65913867],5.0,0.6,0.0,0.006388865641869513,1.3913099130363131,0.5000389567755862
5.395384311676025,1.437548359031683,[1.66229715],5.0,0.6,0.0,0.005877764715387751,1.3458761730799977,0.5000409552217522
5.407296180725098,1.4420425295166264,[1.66543218],5.0,0.6,0.0,0.005407549365532509,1.3267001540427084,0.5000462681290333
5.416516304016113,1.4453643077011498,[1.66852911],5.0,0.6,0.0,0.004974949495400474,1.3129241487371497,0.5000472104379698
5.424944162368774,1.4486860858856732,[1.6715774],5.0,0.6,0.0,0.004576956391166228,1.2965255492781447,0.5000483797076546
5.432340145111084,1.4518124653534599,[1.6745664],5.0,0.6,0.0,0.004210801878681562,1.2793330181657458,0.5000489783321913
5.442849397659302,1.45591583840493,[1.67748537],5.0,0.6,0.0,0.0038739391275748286,1.2558652288245966,0.5000544179265013
5.450796842575073,1.4588468191559802,[1.68032376],5.0,0.6,0.0,0.0035640249767412277,1.236634871451384,0.500054868051652
5.458398103713989,1.4621685973405036,[1.68306989],5.0,0.6,0.0,0.0032789036641697046,1.2001300965543207,0.5000577368493501
5.467727899551392,1.4656857742417637,[1.68571039],5.0,0.6,0.0,0.003016591850957103,1.169631684825436,0.5000623794614122
5.476876497268677,1.469593748576497,[1.68823397],5.0,0.6,0.0,0.002775264838807011,1.1541673176005922,0.5000704371035705
5.486414432525635,1.4733063241944937,[1.69063298],5.0,0.6,0.0,0.0025532438868984984,1.1267976648064535,0.5000789862871085
5.496682643890381,1.4776050959627003,[1.69290173],5.0,0.6,0.0,0.002348984540607614,1.1126066282759517,0.5000941546706698
5.506282567977905,1.4815130702974335,[1.69503612],5.0,0.6,0.0,0.0021610658925902805,1.0837132268925385,0.5001096244620249
5.51537561416626,1.4852256459154307,[1.69703212],5.0,0.6,0.0,0.001988180701809258,1.0595755205936472,0.5001268609008618
5.525366544723511,1.489133620250164,[1.6988857],5.0,0.6,0.0,0.0018291263021149862,1.0317987365080088,0.5001508532103985
5.535315036773682,1.4928461958681607,[1.7005934],5.0,0.6,0.0,0.0016827962374471959,1.0029058078729627,0.5001783448231932
5.546305418014526,1.4969495689196308,[1.70215178],5.0,0.6,0.0,0.0015481725660787937,0.9702970424780667,0.5002200627263172
5.555322170257568,1.5004667458208907,[1.7035575],5.0,0.6,0.0,0.0014243187801731352,0.9392659895374462,0.5002614736893726
5.5643017292022705,1.5039839227221508,[1.70480731],5.0,0.6,0.0,0.0013103732913364858,0.9072326203689208,0.5003140336660029
5.574044942855835,1.5076964983401473,[1.70589812],5.0,0.6,0.0,0.0012055434375423141,0.8735831509393058,0.5003871186424178
5.5843729972839355,1.5117998713916176,[1.70682709],5.0,0.6,0.0,0.0011090999691455842,0.83742555282801,0.500496898363873
5.595288515090942,1.516294041876561,[1.70758923],5.0,0.6,0.0,0.0010203719762857365,0.7747345775632085,0.5006629766919178
5.605324983596802,1.5202020162112944,[1.70818027],5.0,0.6,0.0,0.0009387422214067629,0.7705662393951159,0.5008526465182248
5.616944789886475,1.525086984129711,[1.70859852],5.0,0.6,0.0,0.2769020025246908,0.6993290287422244,0.5011311490599437
5.6290857791900635,1.5295811546146547,[1.70883599],5.0,0.6,0.0,0.03391915458134691,0.6357573127164223,0.5016173133548621
5.6377198696136475,1.5330983315159148,[1.70888609],5.0,0.6,0.0,-0.054366269284425596,0.6427307375428384,0.5020676746011545
5.645364761352539,1.5362247109837017,[1.70875665],5.0,0.6,0.0,-0.0754124968313635,0.6436579254466059,0.5025926221133435
5.654330253601074,1.5397418878849616,[1.70845842],5.0,0.6,0.0,-0.0699039699676755,0.599472331107,0.5033656506030081
5.663298606872559,1.5432590647862214,[1.70799369],5.0,0.6,0.0,0.2199857750304485,0.5573124005613633,0.5043580467231346
5.673176527023315,1.5473624378376918,[1.70736055],5.0,0.6,0.0,-0.008349327939594184,0.5143988292084752,0.5059766931408844
5.6831583976745605,1.5512704121724252,[1.706557],5.0,0.6,0.0,-0.08403061077715018,0.47366567574524066,0.5080390958576265
5.692306041717529,1.5545921903569486,[1.70558093],5.0,0.6,0.0,-0.09516955246347743,0.4369339891534396,0.5104603408264411
5.703300952911377,1.5586955634084183,[1.70442428],5.0,0.6,0.0,-0.08226742674917176,0.3728402791551132,0.5142967313181657
5.712270975112915,1.5622127403096786,[1.70307986],5.0,0.6,0.0,-0.0630882720966336,0.36961593723142416,0.5188948456183957
5.722293853759766,1.5665115120778854,[1.70155285],5.0,0.6,0.0,-0.044774894244833885,0.32779393241398297,0.526061671143603
5.73200249671936,1.5706148851293553,[1.6998472],5.0,0.6,0.0,-0.029682539583682617,0.28920035298782437,0.5354292722836769
5.7413153648376465,1.574327460747352,[1.69796006],5.0,0.6,0.0,-0.018138711300574678,0.2548886378650352,0.5470281344284843
5.752985954284668,1.5788216312322956,[1.69588113],5.0,0.6,0.0,-0.28575153102814,0.22692674406965063,0.5644718026758706
5.761362791061401,1.5817526119833456,[1.69360147],5.0,0.6,0.0,-0.31293897761576067,0.19273104440236805,0.5818453635929745
5.771270990371704,1.5858559850348157,[1.69112846],5.0,0.6,0.0,-0.2537885714693088,0.15991649627644489,0.6089464571421273
5.779286623001099,1.5889823645026022,[1.68848465],5.0,0.6,0.0,-0.1750304910527063,0.13104010976067268,0.6380269707516943
5.7913596630096436,1.5934765349875457,[1.68568986],5.0,0.6,0.0,-0.102822408907684,0.13734983669450726,0.6825552538667513
5.800255060195923,1.596798313172069,[1.68273619],5.0,0.6,0.0,-0.5972858122640754,0.10912342713342875,0.7280415681781756
5.809684991836548,1.599924692639856,[1.67960848],5.0,0.6,0.0,-0.8970635978883457,0.08472661141367739,0.7802607368114767
5.8187572956085205,1.6028556733909058,[1.67630173],5.0,0.6,0.0,-1.0664300721595512,0.06409420793346866,0.839135408708896
5.827662706375122,1.6059820528586928,[1.67281157],5.0,0.6,0.0,-1.4248656728764029,0.04488253838996979,0.9078196785451332
5.838027000427246,1.608913033609743,[1.66913418],5.0,0.6,0.0,-2.3110570994553568,0.028950502132284953,0.9802108618522228
5.849481582641602,1.6122348117942664,[1.66526639],5.0,0.6,0.0,-3.1710768457185328,0.013237388021535137,1.0623704108660306
5.858252286911011,1.6145795963951064,[1.6612056],5.0,0.6,0.0,-3.8212126369812904,0.0008126226574851343,1.1366439460480793
5.868535280227661,1.6171197797126828,[1.65694985],5.0,0.6,0.0,-4.510423802428983,-0.03849080796204859,1.2132048516952048
5.878337383270264,1.619464564313523,[1.65249774],5.0,0.6,0.0,-5.0,-0.07806019573832543,1.28566604653327
5.888693809509277,1.6216139501976263,[1.64783691],5.0,0.6,0.0,-5.0,-0.155705176934457,1.3532413455477412
5.898845911026001,1.6233725386482565,[1.64294572],5.0,0.6,0.0,-5.0,-0.18406615437548543,1.4079720990857088
5.90828800201416,1.624740329665413,[1.63782988],5.0,0.6,0.0,-5.0,-0.17420583262836792,1.4480452641578214
5.918606996536255,1.6257173232490965,[1.63250654],5.0,0.6,0.0,-5.0,-0.25663354521099363,1.4725557266567806
5.926630973815918,1.6263035193993067,[1.62697942],5.0,0.6,0.0,-5.0,-0.24382745516934462,1.481640699310414
5.93530797958374,1.6264989181160432,[1.6212778],5.0,0.6,0.0,-5.0,-0.2895241680721959,1.4762948841083414
5.944237470626831,1.6264989181160432,[1.6154398],5.0,0.6,0.0,-5.0,-0.2921801527363974,1.457567974174716
5.95308780670166,1.6263035193993067,[1.60947322],5.0,0.6,0.0,-5.0,-0.3361523571632287,1.426655129723342
5.962738275527954,1.6255219245323598,[1.60337231],5.0,0.6,0.0,-5.0,-0.37476542588233375,1.3882712238549222
5.9722900390625,1.624740329665413,[1.59713233],5.0,0.6,0.0,-5.0,-0.4112758281822177,1.3403422254522777
5.982288122177124,1.6233725386482565,[1.59074954],5.0,0.6,0.0,-5.0,-0.4437678353277714,1.2900078044265095
5.9917521476745605,1.621809348914363,[1.58422112],5.0,0.6,0.0,-5.0,-0.4744711900437592,1.2355722141200627
6.001249551773071,1.6198553617469964,[1.57754518],5.0,0.6,0.0,-5.0,-0.5031987135187235,1.1807839272900305
6.01197361946106,1.6171197797126828,[1.57072063],5.0,0.6,0.0,-5.0,-0.5278574657940552,1.131866484507023
6.020555257797241,1.6147749951118429,[1.56374722],5.0,0.6,0.0,-5.0,-0.5546577299339256,1.0757968848480146
6.029155492782593,1.6120394130775293,[1.5566397],5.0,0.6,0.0,-5.0,-0.5325694161350604,1.0230082191975693
6.038307428359985,1.6091084323264795,[1.54942559],5.0,0.6,0.0,-5.0,-0.5700788351812341,0.9721936733648044
6.047946453094482,1.6055912554252194,[1.54211439],5.0,0.6,0.0,-5.0,-0.6013113221877248,0.9284345985488508
6.0552496910095215,1.6026602746741694,[1.53471477],5.0,0.6,0.0,-4.980112581942984,-0.5845795020679383,0.8790732548458677
6.06426215171814,1.599338496489646,[1.52724891],5.0,0.6,0.0,-4.9757583567756765,-0.6257757820801495,0.8355788582168959
6.073908090591431,1.5954305221549125,[1.51972107],5.0,0.6,0.0,-4.641485662540675,-0.6592949382024954,0.8020013127884107
6.084258556365967,1.5911317503867057,[1.51212017],5.0,0.6,0.0,-4.484831564898693,-0.6869731411439445,0.7721652083965354
6.0954954624176025,1.586246782468289,[1.50442177],5.0,0.6,0.0,-3.5332018760968134,-0.7591509238450548,0.7528832513527577
6.106990575790405,1.5813618145498722,[1.49657516],5.0,0.6,0.0,-2.4640012653006576,-0.8166612075810328,0.7329610339961049
6.1152355670928955,1.5782354350820853,[1.48856861],5.0,0.6,0.0,-0.15033112009659977,-0.8407958869538034,0.7002654030240392
6.126236200332642,1.573741264597142,[1.48045439],5.0,0.6,0.0,2.1262648610391914,-0.8389724078139948,0.6720805735987467
6.13623833656311,1.569637891545672,[1.47226229],5.0,0.6,0.0,4.484931265954093,-0.8460658356570029,0.6353564314331658
6.144240140914917,1.5661207146444118,[1.4639873],5.0,0.6,0.0,5.0,-0.8610624186084416,0.6058842956535767
6.153235673904419,1.5620173415929417,[1.45562551],5.0,0.6,0.0,5.0,-0.8768127373457247,0.5856821704519992
6.163264751434326,1.557913968541472,[1.44717407],5.0,0.6,0.0,5.0,-0.8951499475265031,0.5677959750917451
6.173195838928223,1.5540059942067386,[1.43863109],5.0,0.6,0.0,5.0,-0.9165270423949462,0.5515214289759719
6.182282447814941,1.5504888173054785,[1.43001138],5.0,0.6,0.0,5.0,-0.8889894765246491,0.5365925135285569
6.192830801010132,1.5461900455372717,[1.42132785],5.0,0.6,0.0,5.0,-0.9782244385704896,0.5259726081555712
6.202301740646362,1.5420866724858016,[1.41256003],5.0,0.6,0.0,5.0,-0.9979209909833268,0.5166264189794784
6.210251092910767,1.5389602930180148,[1.40370717],5.0,0.6,0.0,5.0,-0.9710192020278794,0.507498532155429
6.219252347946167,1.5350523186832816,[1.39480112],5.0,0.6,0.0,5.0,-1.0098477788223847,0.5012957595981371
6.228927373886108,1.5309489456318115,[1.38585307],5.0,0.6,0.0,5.0,-1.0446574623320377,0.49657007604909137
6.237720251083374,1.527627167447288,[1.37685656],5.0,0.6,0.0,5.0,-1.0806896004009359,0.4923378520533277
6.246268033981323,1.524109990546028,[1.36782258],5.0,0.6,0.0,5.0,-1.0604834310205427,0.48929004274461807
6.257630348205566,1.5192250226276112,[1.35876045],5.0,0.6,0.0,5.0,-1.1549161235037,0.4875327659458682
6.266312122344971,1.5155124470096146,[1.34966185],5.0,0.6,0.0,5.0,-1.1273002120688431,0.4858135902840154
6.277413845062256,1.5106274790911975,[1.3405198],5.0,0.6,0.0,5.0,-1.2173979436050022,0.48479823699793306
6.286557912826538,1.5073057009066742,[1.33131211],5.0,0.6,0.0,4.94486137927849,-1.2425481774549219,0.48416561432646243
6.295617341995239,1.5035931252886776,[1.32202046],5.0,0.6,0.0,4.738307391276837,-1.2672638609023763,0.4849322148430894
6.303522348403931,1.5004667458208907,[1.31264637],5.0,0.6,0.0,4.465383224036202,-1.2965022902647532,0.4862378936937557
6.312304735183716,1.4969495689196308,[1.30320842],5.0,0.6,0.0,4.16935885216766,-1.2702939806160165,0.48777484720049163
6.321255207061768,1.4934323920183705,[1.29373947],5.0,0.6,0.0,3.8721085388381122,-1.3152841588354116,0.4893064802620657
6.331344127655029,1.4893290189669006,[1.2842509],5.0,0.6,0.0,3.58447572942462,-1.3536165541535208,0.49074880901051104
6.3406572341918945,1.4856164433489039,[1.27473579],5.0,0.6,0.0,3.587614640986265,-1.390895524871785,0.4906472435664772
6.350229978561401,1.4817084690141706,[1.26518838],5.0,0.6,0.0,3.364695918134683,-1.4250780236556668,0.49172785123766255
6.3592448234558105,1.4776050959627003,[1.25560397],5.0,0.6,0.0,2.7949264836474903,-1.4567354799505063,0.4942710979908942
6.367297172546387,1.4740879190614404,[1.24599565],5.0,0.6,0.0,2.464226554441192,-1.4349963568259783,0.4955303387723137
6.3756020069122314,1.4705707421601801,[1.23639148],5.0,0.6,0.0,2.2437692738311736,-1.4835008493960813,0.49628357026953107
6.3832433223724365,1.4676397614091303,[1.22681512],5.0,0.6,0.0,2.3498101377777947,-1.4748229892516498,0.49591573305706327
6.392584323883057,1.46353638835766,[1.21726962],5.0,0.6,0.0,2.2365995587898215,-1.5822130459546242,0.49629545767501465
6.40233039855957,1.4596284140229265,[1.20772388],5.0,0.6,0.0,1.7714224708003496,-1.6124131374583668,0.4976726436207766
6.4117419719696045,1.4557204396881933,[1.19816837],5.0,0.6,0.0,1.5360771036595475,-1.5865577422713504,0.49824837528078375
6.420932769775391,1.4522032627869332,[1.18862842],5.0,0.6,0.0,1.6770586048236282,-1.6333655896781285,0.4979116559095679
6.431229829788208,1.4477090923019897,[1.17910859],5.0,0.6,0.0,1.6162678094240353,-1.6707201181215638,0.4980597043346826
6.4402756690979,1.4438011179672565,[1.16959581],5.0,0.6,0.0,1.4826613719437178,-1.7072118671842695,0.4983665651469102
6.449383735656738,1.4404793397827331,[1.16009564],5.0,0.6,0.0,1.3332015843714786,-1.6890367672411553,0.4986787803406239
6.459098815917969,1.436375966731263,[1.15062927],5.0,0.6,0.0,1.1910359586958188,-1.7360143085614221,0.49894521342430026
6.468973398208618,1.4324679923965296,[1.14119752],5.0,0.6,0.0,1.063938090524856,-1.7783034633193704,0.49915811759449713
6.478795289993286,1.4281692206283225,[1.1317839],5.0,0.6,0.0,0.9530733781366707,-1.8141998819176726,0.49932430506793063
6.488409519195557,1.4240658475768528,[1.12237425],5.0,0.6,0.0,0.857063156726618,-1.8479435551738816,0.49945350649965575
6.497878313064575,1.4201578732421194,[1.11295646],5.0,0.6,0.0,0.7737932655987452,-1.8806210033708612,0.4995544906551513
6.506232738494873,1.416836095057596,[1.10353706],5.0,0.6,0.0,0.7011615209488344,-1.8596109469092028,0.49963416912303815
6.515318870544434,1.4131235194395992,[1.09413817],5.0,0.6,0.0,0.6373413526968812,-1.906706098938602,0.4996977143923498
6.524238109588623,1.4094109438216025,[1.08476146],5.0,0.6,0.0,0.5808362477805662,-1.9486371806412948,0.49974892479691035
6.533259391784668,1.405698368203606,[1.07539131],5.0,0.6,0.0,0.5304525282191626,-1.9865702043320028,0.49979058486475497
6.54127311706543,1.4027673874525557,[1.06601427],5.0,0.6,0.0,0.48524737111997396,-2.02565251336748,0.4998247505810339
6.549234390258789,1.3994456092680323,[1.05663571],5.0,0.6,0.0,0.7205140822077276,-2.0055916241791283,0.4996137008693857
6.558411121368408,1.3957330336500358,[1.04727681],5.0,0.6,0.0,0.7167075310798079,-2.05339637353204,0.4996177702152202
6.5663158893585205,1.392411255465512,[1.03795519],5.0,0.6,0.0,0.6280421438598385,-2.042293270959547,0.49970646714329964
6.574208974838257,1.388894078564252,[1.0286852],5.0,0.6,0.0,0.24532376958506175,-2.097213042104765,0.4999552011954212
6.583539247512817,1.3849861042295188,[1.01944456],5.0,0.6,0.0,0.11373129903442387,-2.1983750370519726,0.49999037141693664
6.59323787689209,1.3810781298947854,[1.01018033],5.0,0.6,0.0,0.3626775229778799,-2.2225320573635376,0.4999020948743626
6.604115724563599,1.376583959409842,[1.00086474],5.0,0.6,0.0,0.40646693404474654,-2.2443779398330994,0.49987702871663353
6.616242170333862,1.3716989914914248,[0.99149162],5.0,0.6,0.0,0.370998260054123,-2.265299458236436,0.4998975514247245
6.624234914779663,1.368181814590165,[0.98207328],5.0,0.6,0.0,0.31229555161252354,-2.238054297539707,0.4999274049946832
6.633306980133057,1.3642738402554317,[0.97263753],5.0,0.6,0.0,0.2535174520623133,-2.281142755281889,0.4999521588489969
6.642865180969238,1.359975068487225,[0.9631912],5.0,0.6,0.0,0.2028407060649125,-2.318277268372241,0.4999693730604875
6.652002573013306,1.3564578915859649,[0.95372332],5.0,0.6,0.0,0.16196708917826025,-2.3560715082842245,0.499980472270581
6.661850929260254,1.3525499172512316,[0.94422482],5.0,0.6,0.0,0.13007246200357053,-2.3896304403759605,0.49998740576111034
6.6702494621276855,1.3490327403499716,[0.93470531],5.0,0.6,0.0,0.10556817913528092,-2.3678502256235077,0.499991703992539
6.678246021270752,1.3461017595989213,[0.92519004],5.0,0.6,0.0,0.0868325827290338,-2.4197168733190146,0.49999438732784285
6.688587427139282,1.3416075891139778,[0.91568339],5.0,0.6,0.0,0.07247227568795629,-2.458721174468124,0.49999609025192215
6.696939945220947,1.3380904122127177,[0.90617202],5.0,0.6,0.0,0.061379602852009316,-2.4983751597569626,0.49999719551187455
6.704696416854858,1.3347686340281941,[0.89664471],5.0,0.6,0.0,0.05271016083475345,-2.5362256712949125,0.49999793179082747
6.7132508754730225,1.331446855843671,[0.88709207],5.0,0.6,0.0,0.04583567119436774,-2.572347346849066,0.49999843608484995
6.721280813217163,1.3281250776591476,[0.87754025],5.0,0.6,0.0,0.04029528119671505,-2.6035472860903415,0.49999879131110486
6.730223894119263,1.324412502041151,[0.86804518],5.0,0.6,0.0,0.03575360200918586,-2.6357669550447516,0.4999990484187742
6.738210678100586,1.3210907238566276,[0.85863656],5.0,0.6,0.0,0.031967383523996765,-2.6127600199535506,0.4999992392875433
6.746271848678589,1.3177689456721042,[0.84933834],5.0,0.6,0.0,0.02876019629488913,-2.6047092634305122,0.49999938427030394
6.758071422576904,1.312493180320214,[0.8401523],5.0,0.6,0.0,0.026003700348254825,-2.709755618706755,0.4999994966422468
6.768159627914429,1.3081944085520072,[0.83102761],5.0,0.6,0.0,0.02360401682019843,-2.738853083942592,0.4999995852577054
6.77801513671875,1.304091035500537,[0.82192037],5.0,0.6,0.0,0.02149191855947243,-2.7669797993004477,0.4999996561596039
6.788228750228882,1.3001830611658038,[0.81281006],5.0,0.6,0.0,0.019615818401577785,-2.7951636812961627,0.4999997135693982
6.797223329544067,1.2966658842645435,[0.80367928],5.0,0.6,0.0,0.017936778842042526,-2.824892161694139,0.4999997605055365
6.806215763092041,1.292953308646547,[0.79451346],5.0,0.6,0.0,0.016424968965362847,-2.853479052387675,0.4999997991759582
6.817821025848389,1.2880683407281304,[0.78528347],5.0,0.6,0.0,0.2910955109742572,-2.932655188796536,0.4999369260110665
6.826209306716919,1.2847465625436068,[0.7759654],5.0,0.6,0.0,0.046939501819559165,-2.8907602718492798,0.49999835985246693
6.8367204666137695,1.2802523920586635,[0.76655698],5.0,0.6,0.0,-0.042413929413627885,-2.976962198944655,0.4999986608688503
6.847524881362915,1.2755628228569833,[0.75704013],5.0,0.6,0.0,0.21160354820997704,-2.9892151961662683,0.49996666978682586
6.855200290679932,1.27224104467246,[0.7474179],5.0,0.6,0.0,0.24934553547964133,-2.955212344333965,0.4999537203816545
6.865180253982544,1.2681376716209898,[0.73772832],5.0,0.6,0.0,0.20728369084839807,-2.9935076414473616,0.4999680167162687
6.874227285385132,1.26462049471973,[0.72798713],5.0,0.6,0.0,0.14502935853488796,-3.0326986831421245,0.49998434288549726
6.884234189987183,1.2605171216682596,[0.71819086],5.0,0.6,0.0,0.08636101602475299,-3.0670625046867515,0.49999444812409305
6.894695520401001,1.256218349900053,[0.70833703],5.0,0.6,0.0,0.038958015115979974,-3.099113664649968,0.4999988702045322
6.903446912765503,1.2525057742820562,[0.69842409],5.0,0.6,0.0,0.0037215281940807324,-3.133305974614003,0.49999998969022236
6.913445949554443,1.2484024012305863,[0.68845119],5.0,0.6,0.0,-0.29698542672594636,-3.1651730122278137,0.49993434792773045
6.924222230911255,1.2439082307456428,[0.67841807],5.0,0.6,0.0,-0.070399006428388,-3.194944634983136,0.49999631074960266
6.933509826660156,1.2403910538443828,[0.66832499],5.0,0.6,0.0,0.007730889231107735,-3.229447049027613,0.49999995550967713
6.942260980606079,1.2368738769431225,[0.65817263],5.0,0.6,0.0,0.023120333111059828,-3.264126688945383,0.499999602081
6.950196266174316,1.233552098758599,[0.64797947],5.0,0.6,0.0,0.015105913183565117,-3.2419717140789435,0.49999983013630367
6.959113597869873,1.2298395231406025,[0.63779644],5.0,0.6,0.0,0.0008969179380005372,-3.2342846160970944,0.4999999994011582
6.968895435333252,1.2257361500891324,[0.62766626],5.0,0.6,0.0,-0.012617784478607931,-3.2944967447828764,0.49999988148513286
6.978265762329102,1.2216327770376625,[0.61758906],5.0,0.6,0.0,-0.023189717731280365,-3.346279789696844,0.4999995996890902
6.986769437789917,1.2181156001364022,[0.60754638],5.0,0.6,0.0,-0.030527135382478837,-3.3946148712896425,0.4999993062891622
6.996203660964966,1.2144030245184054,[0.59752175],5.0,0.6,0.0,-0.035062604031641964,-3.4374800142418462,0.49999908484509403
7.007953882217407,1.2095180565999888,[0.58748279],5.0,0.6,0.0,-0.037413354810439024,-3.530404173136092,0.4999989580196523
7.018217325210571,1.2052192848317822,[0.577384],5.0,0.6,0.0,-0.03816502352927481,-3.548743744131907,0.4999989157304202
7.0273072719573975,1.2013113104970485,[0.56720495],5.0,0.6,0.0,-0.03780099048586299,-3.5722120814431313,0.499998936316132
7.035655736923218,1.1977941335957885,[0.55696482],5.0,0.6,0.0,-0.3127316155461817,-3.5411997825832064,0.49992720213636016
7.045241594314575,1.194081557977792,[0.54671638],5.0,0.6,0.0,-0.34427916268912717,-3.5279481187313695,0.499911775372537
7.056087493896484,1.1895873874928484,[0.53648708],5.0,0.6,0.0,-0.2873319748332826,-3.6409333929552887,0.4999385463191656
7.065221071243286,1.1858748118748517,[0.52626487],5.0,0.6,0.0,-0.20926146430241216,-3.616374399880309,0.4999674034949302
7.074192523956299,1.182162236256855,[0.51605818],5.0,0.6,0.0,-0.13671150329941642,-3.664077763247898,0.4999860873214526
7.084235906600952,1.1780588632053848,[0.5058759],5.0,0.6,0.0,-0.35412147347406564,-3.7036928280677754,0.4999066593845495
7.0939507484436035,1.1743462875873882,[0.49569373],5.0,0.6,0.0,-0.3433028297943346,-3.794012945197204,0.49991227500732666
7.104842185974121,1.1698521171024447,[0.48547815],5.0,0.6,0.0,-0.2569304807951832,-3.8054928932129712,0.4999508620998659
7.114193439483643,1.1657487440509746,[0.47522185],5.0,0.6,0.0,-0.15955741922343195,-3.8206007463177514,0.49998104898605383
7.12246298789978,1.1622315671497148,[0.46493982],5.0,0.6,0.0,-0.35126668054993476,-3.839564252013253,0.49990815813393435
7.130239248275757,1.1587143902484545,[0.45466371],5.0,0.6,0.0,-0.3193821303523707,-3.8121023343672693,0.4999240732299032
7.1382951736450195,1.155588010780668,[0.44443855],5.0,0.6,0.0,0.05831250786130707,-3.849130831904879,0.4999974687851173
7.147651672363281,1.1516800364459343,[0.43429119],5.0,0.6,0.0,0.19885790338257603,-3.877897945260883,0.4999705639451476
7.155577659606934,1.1485536569781476,[0.42424608],5.0,0.6,0.0,0.23395132276728045,-3.864734637133089,0.4999592582207879
7.163622856140137,1.1452318787936242,[0.41433951],5.0,0.6,0.0,0.2256140402797066,-3.9036990078652942,0.49996211018670034
7.1748528480529785,1.140737708308681,[0.40457994],5.0,0.6,0.0,0.20216878697853852,-3.9684725495490922,0.499969575624502
7.183303594589233,1.1370251326906842,[0.39496415],5.0,0.6,0.0,0.17588733975878584,-3.945515910235858,0.49997697149022274
7.193220615386963,1.132921759639214,[0.38551528],5.0,0.6,0.0,0.15157546499199986,-3.968942212257756,0.49998289759974596
7.203772306442261,1.1286229878710075,[0.37624526],5.0,0.6,0.0,0.13069814318084105,-4.021104629667588,0.4999872843083416
7.211208820343018,1.1254966084032205,[0.36715449],5.0,0.6,0.0,0.11332506084725445,-4.001831505931198,0.49999044007587645
7.220372676849365,1.1219794315019607,[0.35826459],5.0,0.6,0.0,0.09902132853874704,-4.0268795156829205,0.49999270103967275
7.228638172149658,1.1184622546007006,[0.34960354],5.0,0.6,0.0,0.08723538013450319,-4.132767666014549,0.49999433513543995
7.238187789916992,1.1145542802659671,[0.34119387],5.0,0.6,0.0,0.0774526637825646,-4.151569148138375,0.4999955344243242
7.247194766998291,1.1106463059312337,[0.33304485],5.0,0.6,0.0,-0.20679408738581054,-4.172690735093763,0.4999681676218716
7.256474733352661,1.1071291290299736,[0.32515462],5.0,0.6,0.0,-0.2468914863156909,-4.19802826370437,0.49995462682213004
7.265223741531372,1.1032211546952402,[0.31752115],5.0,0.6,0.0,-0.197791590192347,-4.221568779942724,0.4999708787728422
7.273220777511597,1.0998993765107168,[0.31014942],5.0,0.6,0.0,-0.12692564624295874,-4.254226668089263,0.4999880077621458
7.28252911567688,1.09618680089272,[0.30304289],5.0,0.6,0.0,-0.06099245648904238,-4.262396478913685,0.4999972307783214
7.2936460971832275,1.0916926304077768,[0.29618897],5.0,0.6,0.0,-0.00844301016142707,-4.280303906155057,0.49999994693584215
7.301848649978638,1.0885662509399898,[0.28958259],5.0,0.6,0.0,0.02991379210256955,-4.29541328363686,0.49999933388482415
7.309297561645508,1.08563527018894,[0.28323821],5.0,0.6,0.0,0.05605380504268413,-4.2904990405423975,0.49999766107736415
7.3189308643341064,1.0815318971374697,[0.27716595],5.0,0.6,0.0,0.07262076370141149,-4.307286424712303,0.49999607421425296
7.32895827293396,1.0772331253692629,[0.27135965],5.0,0.6,0.0,0.08208602757193022,-4.317248290934441,0.49999498416807536
7.338261842727661,1.0733251510345296,[0.26580634],5.0,0.6,0.0,0.08648111325439078,-4.324894743316664,0.4999944326721022
7.348726987838745,1.0690263792663228,[0.26049389],5.0,0.6,0.0,0.36340912160032274,-4.327809919986083,0.49990169952229024
7.3608293533325195,1.0641414113479062,[0.25540597],5.0,0.6,0.0,0.3950771403201619,-4.342586168973618,0.49988382303720175
7.368663311004639,1.0608196331633828,[0.25052312],5.0,0.6,0.0,0.337013593139871,-4.341563369918904,0.49991545950361366
7.376143932342529,1.0576932536955959,[0.24583806],5.0,0.6,0.0,0.25704439258630846,-4.314653833754253,0.4999508185211386
7.387361288070679,1.053003684493916,[0.24134896],5.0,0.6,0.0,0.18213118704066694,-4.334293690520622,0.49997530752700003
7.395581007003784,1.0496819063093925,[0.23704855],5.0,0.6,0.0,0.12089394669676326,-4.301008018463229,0.49998912044675675
7.404207706451416,1.045773931974659,[0.23293373],5.0,0.6,0.0,0.07424471545278302,-4.297715548345896,0.499995896674326
7.412171840667725,1.0426475525068724,[0.22900487],5.0,0.6,0.0,0.040265240489894334,-4.265894011279995,0.4999987931126206
7.420711994171143,1.0393257743223492,[0.22526074],5.0,0.6,0.0,0.016338344406633846,-4.271162272921731,0.4999998012886462
7.428328990936279,1.036394793571299,[0.22169518],5.0,0.6,0.0,-1.5711544431116359e-06,-4.27385142977923,0.49999999999999817
7.436534404754639,1.0330730153867755,[0.21830146],5.0,0.6,0.0,-0.01079387617699568,-4.241568396162032,0.49999991327156673
7.44527530670166,1.0295558384855157,[0.2150795],5.0,0.6,0.0,-0.017619786137651153,-4.21445835615919,0.4999997688957988
7.4542436599731445,1.025647864150782,[0.21202775],5.0,0.6,0.0,-0.021660156562272704,-4.221730856342642,0.4999996507553946
7.464184761047363,1.021544491099312,[0.20913677],5.0,0.6,0.0,-0.02377599099682934,-4.221316966766953,0.4999995791922323
7.472838401794434,1.0180273141980518,[0.20639423],5.0,0.6,0.0,-0.02458480440803401,-4.218636733593592,0.49999955007513514
7.480217933654785,1.0150963334470018,[0.20379168],5.0,0.6,0.0,-0.024524064848687417,-4.188475324169436,0.4999995522955691
7.488826036453247,1.0113837578290052,[0.20132396],5.0,0.6,0.0,0.2521377787076916,-4.18792982152434,0.4999526781224084
7.496847867965698,1.0082573783612183,[0.19898288],5.0,0.6,0.0,0.2862354144522709,-4.185664745331702,0.4999390144535048
7.5042195320129395,1.0051309988934318,[0.19676048],5.0,0.6,0.0,-0.04372436016206971,-4.155060760616357,0.4999985768424431
7.514218807220459,1.0010276258419617,[0.19465177],5.0,0.6,0.0,0.1243831479439432,-4.151014735602896,0.4999884833873087
7.52419638633728,0.9969242527904917,[0.19264912],5.0,0.6,0.0,0.14339693709177387,-4.142609128214502,0.49998469336318174
7.533170700073242,0.9930162784557581,[0.19074294],5.0,0.6,0.0,0.1090691655519106,-4.132103682831144,0.49999114462798777
7.542644500732422,0.9893037028377615,[0.1889246],5.0,0.6,0.0,0.06277885807659102,-4.120585378698861,0.4999970661883772
7.55214262008667,0.9853957285030279,[0.18718641],5.0,0.6,0.0,-0.25535993352522707,-4.10624590151904,0.49995146096839965
7.560175895690918,0.9820739503185046,[0.18552355],5.0,0.6,0.0,-0.32148488773043293,-4.073185272011238,0.4999230702381264
7.568691968917847,0.9785567734172447,[0.18393356],5.0,0.6,0.0,-0.014001466663588924,-4.066097060589798,0.49999985406694525
7.579204797744751,0.9744534003657744,[0.18241186],5.0,0.6,0.0,0.0794916591594414,-4.053669209263166,0.49999529621182526
7.588754177093506,0.9705454260310411,[0.18095217],5.0,0.6,0.0,0.08536231609776457,-4.040197771520127,0.4999945757874422
7.599054336547852,0.966442052979571,[0.17954896],5.0,0.6,0.0,0.06087876544370423,-4.024549761123572,0.49999724109243
7.609371662139893,0.9621432812113643,[0.17819731],5.0,0.6,0.0,0.030542489383843328,-4.006999645504541,0.4999993055911663
7.619183540344238,0.9580399081598941,[0.17689292],5.0,0.6,0.0,0.003719018322065554,-3.9897629400291845,0.4999999897041239
7.628787517547607,0.9541319338251608,[0.17563197],5.0,0.6,0.0,-0.016921498248359947,-3.9731187265598207,0.4999997868505534
7.64136815071106,0.9492469659067441,[0.17440962],5.0,0.6,0.0,-0.03144634734530211,-3.9672356112507288,0.4999992638831314
7.652132987976074,0.9449481941385374,[0.17322017],5.0,0.6,0.0,-0.040864874019209976,-3.943095775842506,0.49999875689886136
7.660720348358154,0.9408448210870671,[0.17206045],5.0,0.6,0.0,-0.046359266316611206,-3.9211236112708647,0.499998400150651
7.668832063674927,0.9377184416192806,[0.17093072],5.0,0.6,0.0,-0.0489898416124417,-3.8901421226150625,0.49999821343850265
7.678048849105835,0.933810467284547,[0.16983254],5.0,0.6,0.0,-0.04961058042831589,-3.8757919591837537,0.4999981678775516
7.686707258224487,0.9300978916665504,[0.16876565],5.0,0.6,0.0,-0.04887088455734175,-3.861518876955136,0.49999822210420497
7.694714069366455,0.926776113482027,[0.16772834],5.0,0.6,0.0,-0.04724722031814596,-3.8484613995503483,0.49999833827757995
7.703193187713623,0.9232589365807669,[0.16672033],5.0,0.6,0.0,-0.04508044782593229,-3.820596456227639,0.4999984871967054
7.712445259094238,0.9195463609627701,[0.16574253],5.0,0.6,0.0,-0.04260951587583963,-3.80900804266105,0.4999986484899234
7.721635341644287,0.9160291840615101,[0.16479431],5.0,0.6,0.0,-0.039998807460327475,-3.7969824194893325,0.4999988090315829
7.7301623821258545,0.9123166084435134,[0.1638749],5.0,0.6,0.0,-0.037359139932360286,-3.770336221082754,0.4999989610372832
7.741875410079956,0.9074316405250966,[0.16298354],5.0,0.6,0.0,-0.03476337472136466,-3.765889863222391,0.4999991003985552
7.750511407852173,0.9039144636238364,[0.16211716],5.0,0.6,0.0,-0.03225778094981668,-3.7503349794232173,0.4999992254038825
7.758162260055542,0.9007880841560499,[0.16127415],5.0,0.6,0.0,-0.02987019182704713,-3.724987429970544,0.49999933582517464
7.768573522567749,0.8966847111045797,[0.16045531],5.0,0.6,0.0,-0.027615799832512576,-3.7100196338268274,0.49999943229635707
7.77731728553772,0.8929721354865829,[0.15966012],5.0,0.6,0.0,-0.02550124219425777,-3.695829565901144,0.4999995159066275
7.7891316413879395,0.888282566284903,[0.15888593],5.0,0.6,0.0,-0.02352746226364904,-3.6868807141698907,0.49999958794359667
7.797179222106934,0.8847653893836429,[0.15813047],5.0,0.6,0.0,-0.021691701394574204,-3.6584067143332115,0.4999996497374074
7.806170225143433,0.8808574150489095,[0.1573947],5.0,0.6,0.0,-0.01998887681163266,-3.631956203564456,0.4999997025709875
7.81513524055481,0.8773402381476494,[0.15668032],5.0,0.6,0.0,-0.018412527861935275,-3.620531462521115,0.499999747632515
7.827257871627808,0.8716736753622859,[0.15598579],5.0,0.6,0.0,-0.01695546003219849,-3.6071100380393704,0.4999997859941046
7.836951494216919,0.8677657010275525,[0.15530787],5.0,0.6,0.0,-0.015610178090419235,-3.588424767230806,0.4999998186062529
7.8465964794158936,0.8640531254095558,[0.15464471],5.0,0.6,0.0,-0.014369172636318744,-3.570799953966841,0.4999998463013214
7.854266405105591,0.8611221446585058,[0.15399653],5.0,0.6,0.0,-0.01322510517595403,-3.5479481384783664,0.49999986980182765
7.865776777267456,0.856237176740089,[0.15336346],5.0,0.6,0.0,0.263867436373823,-3.5369306259406814,0.49994817303686767
7.875154256820679,0.8521338036886189,[0.15274314],5.0,0.6,0.0,0.2979630347706942,-3.525726499412093,0.49993391502176404
7.884814977645874,0.848421228070622,[0.1521335],5.0,0.6,0.0,-0.03227846231904058,-3.496788135164938,0.4999992244103342
7.893772125244141,0.8447086524526255,[0.15153525],5.0,0.6,0.0,-0.14066491848183466,-3.4799081312866367,0.4999852710470018
7.904932498931885,0.8404098806844187,[0.15094896],5.0,0.6,0.0,0.12070571390525553,-3.460359750250293,0.49998915429910834
7.916189432144165,0.8359157101994752,[0.1503736],5.0,0.6,0.0,0.1739908804062551,-3.4475029972158455,0.4999774653996714
7.924144744873047,0.8327893307316886,[0.149809],5.0,0.6,0.0,-0.12797790498681447,-3.4345582631630025,0.4999878081005208
7.935138940811157,0.8280997615300084,[0.14925718],5.0,0.6,0.0,-0.20939029912645968,-3.4102520696802956,0.4999673633468727
7.9431281089782715,0.8247779833454851,[0.14871903],5.0,0.6,0.0,0.07423586287211106,-3.393391584057365,0.49999589765278507
7.954739809036255,0.819502217993595,[0.14819312],5.0,0.6,0.0,0.14458627913435373,-3.374783504225416,0.49998443840601864
7.9631805419921875,0.815985041092335,[0.14767817],5.0,0.6,0.0,-0.1448780688486293,-3.3481222092104033,0.4999843755338861
7.972429513931274,0.8122724654743383,[0.14717446],5.0,0.6,0.0,-0.21742764829692832,-3.3307263146963115,0.4999648098653094
7.980252981185913,0.8091460860065515,[0.14668282],5.0,0.6,0.0,-0.2037371204023224,-3.309487618210735,0.4999691017713079
7.989465713500977,0.8056289091052914,[0.14620322],5.0,0.6,0.0,0.11360472688024142,-3.302632673497266,0.49999039283373453
7.9981513023376465,0.8021117322040313,[0.1457349],5.0,0.6,0.0,0.1910257316208278,-3.279240950840575,0.4999728369444558
8.006152868270874,0.7989853527362445,[0.14527778],5.0,0.6,0.0,-0.10184843429600357,-3.26636881889187,0.49999227831580095
8.016159534454346,0.7948819796847746,[0.14483174],5.0,0.6,0.0,-0.1810510127501237,-3.248466841327717,0.4999755995410484
8.025171518325806,0.7913648027835144,[0.14439601],5.0,0.6,0.0,-0.1742302379819365,-3.232944406713653,0.49997740335716157
8.0336012840271,0.787456828448781,[0.14397045],5.0,0.6,0.0,-0.13891512782629867,-3.208820576218094,0.4999856352020252
8.041491985321045,0.7841350502642577,[0.14355551],5.0,0.6,0.0,-0.09946773107157404,-3.1959361242591324,0.49999263508227226
8.05155611038208,0.7802270759295242,[0.14315086],5.0,0.6,0.0,-0.0649911306424989,-3.1793183782166543,0.49999685577588227
8.061162948608398,0.7765145003115275,[0.14275561],5.0,0.6,0.0,-0.03788578714408051,-3.163166729636772,0.49999893153859015
8.072161197662354,0.7720203298265842,[0.14236894],5.0,0.6,0.0,-0.017849374196334124,-3.1427872370241445,0.49999976283392794
8.081338882446289,0.7677215580583774,[0.14199016],5.0,0.6,0.0,-0.2797202425341731,-3.122795970547881,0.49994175895314474
8.091149091720581,0.763813583723644,[0.14161862],5.0,0.6,0.0,-0.3032147878728345,-3.10481769829861,0.49993156508864556
8.099177837371826,0.7601010081056472,[0.14125428],5.0,0.6,0.0,-0.24184961613692446,-3.0818628762332145,0.4999564609878937
8.110203981399536,0.7558022363374406,[0.14089811],5.0,0.6,0.0,-0.16191680273914896,-3.0577864912704658,0.4999804843941269
8.119179010391235,0.7524804581529171,[0.14055035],5.0,0.6,0.0,-0.089249441638907,-3.0508948070210833,0.4999940705403813
8.129190683364868,0.7485724838181836,[0.14021012],5.0,0.6,0.0,-0.03165736148796635,-3.0274846436100655,0.499999253970876
8.139195919036865,0.744273712049977,[0.13987714],5.0,0.6,0.0,0.010517871306579215,-3.0090753627260196,0.49999991765023866
8.14881682395935,0.7401703389985068,[0.13955112],5.0,0.6,0.0,0.0395893705656031,-2.991037378007992,0.49999883328881195
8.157541036605835,0.7366531620972468,[0.13923129],5.0,0.6,0.0,0.05844281032031043,-2.9754618895634666,0.4999974574602335
8.166155815124512,0.7329405864792501,[0.13891745],5.0,0.6,0.0,0.06972256763732321,-2.953460583057255,0.49999638130610013
8.175646781921387,0.7290326121445166,[0.1386094],5.0,0.6,0.0,0.07558377450748796,-2.94206023521719,0.49999574732709345
8.184452533721924,0.7255154352432566,[0.13830603],5.0,0.6,0.0,0.07767957353443311,-2.9253636417910087,0.4999955082209028
8.19341230392456,0.7219982583419965,[0.1380064],5.0,0.6,0.0,0.07723255453831546,-2.908614188698918,0.4999955597691847
8.201162815093994,0.7188718788742098,[0.13771062],5.0,0.6,0.0,0.0751248910935508,-2.8891128180034022,0.4999957988076922
8.210188627243042,0.7147685058227398,[0.13741921],5.0,0.6,0.0,0.0719814574976945,-2.870920914027308,0.49999614302989687
8.219416379928589,0.7108605314880063,[0.13713218],5.0,0.6,0.0,0.06823798080640375,-2.8534381346303768,0.4999965337689784
8.22922396659851,0.7069525571532729,[0.13684905],5.0,0.6,0.0,0.06419369504003486,-2.8356585466197046,0.49999693246100246
8.240846633911133,0.7024583866683295,[0.13656901],5.0,0.6,0.0,0.06005063870668709,-2.8191305810301897,0.49999731563992095
8.24930739402771,0.6987458110503327,[0.13629137],5.0,0.6,0.0,0.055942351289631265,-2.795972556904684,0.49999767036922
8.258575916290283,0.6952286341490728,[0.13601643],5.0,0.6,0.0,0.051954525857306574,-2.779780526840663,0.49999799066395867
8.267080068588257,0.6919068559645494,[0.13574444],5.0,0.6,0.0,0.0481397217060059,-2.764686703319227,0.4999982749047603
8.27510142326355,0.6885850777800259,[0.1354756],5.0,0.6,0.0,0.04452776653543004,-2.7448171817012397,0.49999852406287054
8.284132957458496,0.6852632995955026,[0.13521046],5.0,0.6,0.0,0.041133067020668455,-2.7306911445878232,0.4999987405285863
8.293534517288208,0.6811599265440325,[0.13494912],5.0,0.6,0.0,0.037959719930609113,-2.7122814882495216,0.49999892736439566
8.302404880523682,0.6772519522092991,[0.13469118],5.0,0.6,0.0,0.03500506762923124,-2.6944890707882516,0.4999990878460959
8.311786413192749,0.673148579157829,[0.13443634],5.0,0.6,0.0,0.03226215817554975,-2.6753317095740408,0.4999992251936504
8.322552680969238,0.6688498073896222,[0.13418434],5.0,0.6,0.0,0.029721436816889435,-2.655132662184743,0.49999934242394417
8.330149173736572,0.6657234279218355,[0.13393534],5.0,0.6,0.0,0.027371899841172033,-2.636506845863871,0.49999944227987314
8.338165044784546,0.6622062510205755,[0.13368985],5.0,0.6,0.0,0.02520187346406782,-2.6211621183859224,0.4999995272058183
8.347389698028564,0.6582982766858421,[0.1334479],5.0,0.6,0.0,0.023199532029784725,-2.6035362464804157,0.4999995993501813
8.357017040252686,0.6545857010678453,[0.13320913],5.0,0.6,0.0,0.021353235635296362,-2.5865920334746275,0.4999996605827479
8.367985725402832,0.6500915305829019,[0.13297325],5.0,0.6,0.0,0.01965174323084786,-2.5654541164829454,0.4999997125192875
8.37835431098938,0.6455973600979584,[0.13273999],5.0,0.6,0.0,0.0180843403493572,-2.5439901711503716,0.49999975654880346
8.386598825454712,0.6424709806301717,[0.1325092],5.0,0.6,0.0,0.016640908757499927,-2.5293158546643935,0.4999997938607629
8.394121885299683,0.6395399998791217,[0.13228106],5.0,0.6,0.0,0.01531195701828747,-2.511761423639475,0.4999998254708385
8.403151750564575,0.6360228229778616,[0.13205611],5.0,0.6,0.0,0.014088625137900858,-2.496071985356786,0.49999985224443777
8.412987470626831,0.6319194499263915,[0.13183445],5.0,0.6,0.0,0.2890010320862447,-2.4774441037543187,0.49993783034440975
8.421385049819946,0.6282068743083947,[0.1316158],5.0,0.6,0.0,0.3210894175535796,-2.4602413488478727,0.49992325937535687
8.430170059204102,0.6244942986903982,[0.13140028],5.0,0.6,0.0,0.26503860185461975,-2.4392828028285787,0.49994771197601934
8.438141345977783,0.6211725205058746,[0.13118829],5.0,0.6,0.0,0.18807615514073653,-2.4247022492617702,0.499973669281167
8.447732210159302,0.6172645461711412,[0.13097984],5.0,0.6,0.0,0.11674611425390695,-2.4070881582691954,0.4999898541803501
8.457142353057861,0.6137473692698813,[0.13077456],5.0,0.6,0.0,0.05938146244079612,-2.390726467953061,0.49999737513293496
8.467666864395142,0.6092531987849378,[0.13057216],5.0,0.6,0.0,0.01670037220472084,-2.3695265726284487,0.49999979238492426
8.475141525268555,0.6061268193171511,[0.13037271],5.0,0.6,0.0,-0.013343608525201221,-2.3514968484635794,0.4999998674580969
8.483096837997437,0.6030004398493644,[0.13017654],5.0,0.6,0.0,-0.033449960353114434,-2.337711727945933,0.4999991670910509
8.491111278533936,0.6000694590983143,[0.12998391],5.0,0.6,0.0,-0.046134789303083276,-2.32156094337265,0.49999841560643327
8.50126314163208,0.595575288613371,[0.1297947],5.0,0.6,0.0,-0.05346615291418291,-2.304580198198572,0.4999978720391996
8.512215852737427,0.5912765168451641,[0.1296082],5.0,0.6,0.0,-0.05703914776509418,-2.2838193857420617,0.499997578125249
8.524111986160278,0.5861961502100108,[0.12942385],5.0,0.6,0.0,-0.05803860908044722,-2.259243692541171,0.49999749250787334
8.533112049102783,0.5826789733087506,[0.12924144],5.0,0.6,0.0,0.21871532804033167,-2.24253774828735,0.49996439183028135
8.543120622634888,0.5785756002572806,[0.12906078],5.0,0.6,0.0,0.25365966778935006,-2.2228823528033024,0.499952105161549
8.553121328353882,0.5742768284890738,[0.1288817],5.0,0.6,0.0,0.20105797661895564,-2.2020325694240213,0.4999699090276257
8.562137842178345,0.5707596515878138,[0.1287041],5.0,0.6,0.0,0.127848089095368,-2.185301474964642,0.49998783282166837
8.57011866569519,0.5672424746865538,[0.12852811],5.0,0.6,0.0,0.060378063906422634,-2.1653395896157033,0.4999972862873302
8.580119371414185,0.562943702918347,[0.12835414],5.0,0.6,0.0,0.00685104240822473,-2.145450616208471,0.4999999650602357
8.593092918395996,0.5572771401329836,[0.12818173],5.0,0.6,0.0,-0.032098410325720396,-2.124437798522633,0.4999992330388047
8.60409665107727,0.5529783683647768,[0.12800993],5.0,0.6,0.0,-0.058568308974247876,-2.0993592453293637,0.4999974465289626
8.613827466964722,0.54926579274678,[0.12783877],5.0,0.6,0.0,-0.07528769075642289,-2.0813029022563017,0.49999578057962263
8.622809648513794,0.54574861584552,[0.12766853],5.0,0.6,0.0,-0.08478727127985222,-2.0644773033363353,0.49999464862151466
8.632751226425171,0.5416452427940499,[0.1274992],5.0,0.6,0.0,-0.08913970824322884,-2.0445084224462944,0.4999940851120344
8.641457319259644,0.5379326671760531,[0.12733076],5.0,0.6,0.0,-0.08993812545827161,-2.0267801931354374,0.4999939786797921
8.649130582809448,0.5350016864250031,[0.12716345],5.0,0.6,0.0,-0.08836119153801351,-2.01005118574747,0.49999418797761624
8.65914011001587,0.5308983133735331,[0.12699769],5.0,0.6,0.0,-0.08525867769855466,-1.9909318800705686,0.4999945889504566
8.668120861053467,0.527381136472273,[0.12683364],5.0,0.6,0.0,0.19480705905644863,-1.9747211396505966,0.49997175095395924
8.679131507873535,0.5226915672705928,[0.12667116],5.0,0.6,0.0,0.2324664192194962,-1.952676184210239,0.49995977373997874
8.689651250839233,0.5181973967856495,[0.12650986],5.0,0.6,0.0,-0.0939123090204388,-1.9335512339300969,0.4999934347864327
8.698759317398071,0.514289422450916,[0.12634916],5.0,0.6,0.0,-0.19833403597361146,-1.9141710052876741,0.4999707188279574
8.70620059967041,0.5115538404166027,[0.12618932],5.0,0.6,0.0,0.06697288771908254,-1.901365963991634,0.4999966611011763
8.718106985092163,0.5062780750647126,[0.12603129],5.0,0.6,0.0,0.1240820870867918,-1.875391417934346,0.4999885390698151
8.727731466293335,0.5025654994467159,[0.12587537],5.0,0.6,0.0,-0.17422647338178687,-1.856890080890807,0.4999774043340955
8.736797332763672,0.4988529238287191,[0.12572132],5.0,0.6,0.0,-0.252171848669369,-1.8386257143627267,0.49995266533427785
8.746440887451172,0.4951403482107224,[0.12556895],5.0,0.6,0.0,0.03471376483882582,-1.8207636964750074,0.49999910296568467
8.755772829055786,0.491232373875989,[0.12541804],5.0,0.6,0.0,0.10811176531581812,-1.801720912942641,0.499991299410164
8.765126705169678,0.4873243995412556,[0.12526866],5.0,0.6,0.0,0.0975237931223849,-1.7803748262981598,0.49999292014248625
8.775118112564087,0.4834164252065221,[0.12512107],5.0,0.6,0.0,0.06073376692839163,-1.7622078119481481,0.4999972542259166
8.78309965133667,0.4800946470219988,[0.12497523],5.0,0.6,0.0,0.0217679791199594,-1.7465596558120304,0.49999964728084073
8.794628620147705,0.47520967910358203,[0.12483069],5.0,0.6,0.0,-0.010756119994202893,-1.7256807179434608,0.49999991389895837
8.803761720657349,0.47130170476884864,[0.12468683],5.0,0.6,0.0,-0.03489734307719561,-1.706146858872075,0.49999909348827026
8.812870740890503,0.4673937304341152,[0.12454337],5.0,0.6,0.0,-0.051333679575503395,-1.6868061017810685,0.49999803846093777
8.82173466682434,0.46407195224959186,[0.12440029],5.0,0.6,0.0,-0.06155013450388819,-1.6704964820648358,0.49999718000195675
8.830097913742065,0.4607501740650684,[0.12425784],5.0,0.6,0.0,-0.06708405951629802,-1.6517193390278333,0.49999665015335304
8.841856241226196,0.45586520614665166,[0.12411624],5.0,0.6,0.0,-0.06925375542927376,-1.6308510479694187,0.4999964300820366
8.85149097442627,0.45176183309518164,[0.12397526],5.0,0.6,0.0,-0.06909688228363838,-1.6105225413626358,0.4999964464273363
8.859083414077759,0.4486354536273949,[0.12383493],5.0,0.6,0.0,-0.0673914972113206,-1.592813915674376,0.499996619918358
8.868136405944824,0.4451182767261348,[0.12369572],5.0,0.6,0.0,-0.06470281649583572,-1.5762145277936002,0.4999968846734374
8.876967668533325,0.4417964985416114,[0.12355781],5.0,0.6,0.0,-0.061431930121223055,-1.5604798551981305,0.4999971923250379
8.886287689208984,0.437888524206878,[0.12342117],5.0,0.6,0.0,0.21818050090445348,-1.5419031263401815,0.49996456833098246
8.8961181640625,0.43417594858888126,[0.12328575],5.0,0.6,0.0,0.25499202172347085,-1.5240783275922394,0.4999516047526471
8.906056642532349,0.4298771768206745,[0.12315156],5.0,0.6,0.0,-0.07247080343899084,-1.5029638858342171,0.49999609714460347
8.916005849838257,0.42577380376920443,[0.12301858],5.0,0.6,0.0,-0.17810402190668673,-1.4830143449215836,0.49997639832227875
8.92410159111023,0.42225662686794435,[0.12288702],5.0,0.6,0.0,-0.19010054724702216,-1.4637878367894495,0.4999731158403525
8.932121753692627,0.4191302474001577,[0.12275721],5.0,0.6,0.0,-0.16738551101858962,-1.4492013329826021,0.4999791673618233
8.940141677856445,0.4158084692156343,[0.12262963],5.0,0.6,0.0,-0.13580058271626283,-1.4332361721964222,0.4999863063133585
8.951107501983643,0.41131429873069086,[0.12250466],5.0,0.6,0.0,-0.10573107855096907,-1.4138153699088227,0.4999917352571676
8.9644455909729,0.40603853337880075,[0.12238185],5.0,0.6,0.0,-0.08059397380667406,-1.3897072707476126,0.4999952674736944
8.974071741104126,0.4019351603273307,[0.12226043],5.0,0.6,0.0,-0.060854023891573364,-1.3687662293423342,0.49999740405629844
8.985101461410522,0.3974409898423873,[0.12214013],5.0,0.6,0.0,-0.04587230002869011,-1.346202186104628,0.4999986947494666
8.999080896377563,0.3917744270570238,[0.12202072],5.0,0.6,0.0,-0.034718784888204436,-1.3198550673078593,0.49999958082065077
9.009101629257202,0.3878664527222904,[0.12190183],5.0,0.6,0.0,-0.02650049541442455,-1.2999355004402409,0.5000001947663768
9.019429206848145,0.38356768095408367,[0.12178316],5.0,0.6,0.0,-0.020470817660272422,-1.2802512740513738,0.500000803534646
9.027124643325806,0.38063670020303364,[0.12166461],5.0,0.6,0.0,-0.016045861841315984,-1.263213500489634,0.5000013034532927
9.038168907165527,0.3763379284348269,[0.12154647],5.0,0.6,0.0,-0.2888241774275983,-1.2418635894929537,0.4999402037940289
9.048154830932617,0.3724299541000935,[0.12142896],5.0,0.6,0.0,-0.31952981663722957,-1.2227479769593768,0.499927374005891
9.057111740112305,0.3685219797653601,[0.12131231],5.0,0.6,0.0,-0.2626196248040491,-1.2016140447869432,0.49995358043894644
9.068069458007812,0.3636370118469433,[0.12119685],5.0,0.6,0.0,-0.18515863632569246,-1.178128622221861,0.4999823263048741
9.078174114227295,0.3595336387954733,[0.12108272],5.0,0.6,0.0,-0.11357597550269166,-1.158592836820037,0.5000019137512586
9.09000825881958,0.3548440695937931,[0.12096963],5.0,0.6,0.0,-0.0561239300349701,-1.1377875042258125,0.5000153994428412
9.100107431411743,0.3507406965423231,[0.12085719],5.0,0.6,0.0,-0.013464344190075903,-1.1172992996733613,0.5000255582113768
9.10915493965149,0.347223519641063,[0.12074524],5.0,0.6,0.0,0.01648832047600218,-1.0998125236831262,0.500034856482321
9.11865782737732,0.34331554530632963,[0.12063383],5.0,0.6,0.0,0.03646049039022801,-1.080789126577742,0.5000483181607522
9.127243280410767,0.33979836840506955,[0.12052296],5.0,0.6,0.0,0.048986702825908474,-1.0633831507680584,0.5000648446716259
9.137063980102539,0.3356949953535995,[0.12041269],5.0,0.6,0.0,0.05614749615687375,-1.043186935475021,0.500091928287286
9.147132635116577,0.3315916223021294,[0.12030307],5.0,0.6,0.0,0.0595463038493515,-1.0229916082486625,0.5001299078867829
9.156127214431763,0.3280744454008694,[0.12019414],5.0,0.6,0.0,0.06037342305849998,-1.0058636231955649,0.500173671196465
9.164149522781372,0.32475266721634594,[0.12008608],5.0,0.6,0.0,0.05949082484952958,-0.9879287594854381,0.5002273077530286
9.17235016822815,0.3216262877485592,[0.11997921],5.0,0.6,0.0,0.057511501393441564,-0.9731229144221608,0.5002914267624189
9.18046498298645,0.31830450956403583,[0.1198738],5.0,0.6,0.0,0.054864965847727064,-0.955621746085885,0.5003779073226811
9.189136981964111,0.31498273137951244,[0.11977003],5.0,0.6,0.0,0.05184805017261261,-0.9403304059125761,0.5004877567474764
9.198980808258057,0.3106839596113057,[0.11966792],5.0,0.6,0.0,0.048662909472105026,-0.9196833721423014,0.5006755174488002
9.213141202926636,0.3048219981092056,[0.11956716],5.0,0.6,0.0,0.045444822132808746,-0.8928652183377206,0.5010433242208907
9.2220778465271,0.30130482120794555,[0.11946736],5.0,0.6,0.0,0.04228222470473507,-0.8753621089061863,0.501341503556777
9.232093334197998,0.2972014481564754,[0.11936831],5.0,0.6,0.0,0.0392310018429289,-0.855011113361747,0.5017899550479594
9.243685960769653,0.292707277671532,[0.11927003],5.0,0.6,0.0,-0.23971375776564743,-0.8326133404700863,0.50239640008947
9.254063367843628,0.28860390462006197,[0.11917251],5.0,0.6,0.0,-0.2755818071091335,-0.8122990684602669,0.5031537412991816
9.263084650039673,0.2852821264355385,[0.11907575],5.0,0.6,0.0,0.052981114991994566,-0.7961152043930594,0.5039841305616596
9.273274421691895,0.2811787533840685,[0.11897975],5.0,0.6,0.0,0.15978972164051702,-0.7760340042928239,0.5051674569902385
9.281814813613892,0.27746617776607174,[0.11888449],5.0,0.6,0.0,0.17298232679035502,-0.757955780486084,0.5065189557502554
