t_s,q_rad,q_des_rad,jerk
0.005330801010131836,-0.033803977995443955,0.000430234976901184,0.0
0.01531076431274414,-0.033803977995443955,0.0020777348530678754,0.0
0.025144338607788086,-0.03360857927870728,0.005159115363656372,0.0
0.03367185592651367,-0.03341318056197061,0.00940725193457799,0.0
0.042330265045166016,-0.03321778184523394,0.014581842852210593,0.276038359678681
0.05130743980407715,-0.0328269844117606,0.020468403377262214,0.5852013225188036
0.060307979583740234,-0.03243618697828726,0.026876330782623727,0.8392670287670616
0.07004475593566895,-0.03165459211134058,0.03363696307571838,1.5693244492177276
0.0784153938293457,-0.030677598527657227,0.040602385996833704,2.0190700386866487
0.08711886405944824,-0.02989600366071055,0.047645629264121046,2.8209514354734746
0.09533357620239258,-0.02872361136029053,0.054659082170744486,3.826050039280169
0.10432314872741699,-0.027355820343133833,0.06155217134464181,4.659703248552627
0.11336565017700195,-0.02579263060924047,0.06824920279052148,4.947802132361984
0.12236642837524414,-0.02383864344187377,0.07468805570219059,5.0
0.13309931755065918,-0.02129846012429706,0.08081893554999696,5.0
0.14176130294799805,-0.019149074240193686,0.08660379065127892,5.0
0.15140056610107422,-0.01621809348914363,0.09201634133405404,5.0
0.16037940979003906,-0.013287112738093578,0.09703989781357576,5.0
0.17163753509521484,-0.009379138403360172,0.10166472980052538,5.0
0.18033313751220703,-0.006057360218836778,0.10588711238532693,5.0
0.189835786819458,-0.002344784600840043,0.10970910056717763,5.0
0.19851422309875488,0.0011723923004200215,0.11313760355221808,5.0
0.2083125114440918,0.005080366635153426,0.11618421212194348,5.0
0.21800613403320312,0.008988340969886831,0.11886364292265122,5.0
0.22632145881652832,0.012114720437673556,0.1211930836668537,4.554578435932597
0.23630404472351074,0.016022694772406962,0.12319227537063672,3.290779123984382
0.24428606033325195,0.019149074240193686,0.12488150331774077,1.4120179776434727
0.25238728523254395,0.02286164985819042,0.12628125960361805,-0.3247404772988144
0.2615947723388672,0.026574225476187156,0.12741264584243725,-1.9579314331228013
0.26931166648864746,0.029309807510500538,0.12829769025495988,-3.2239721954267084
0.2782878875732422,0.0328269844117606,0.1289589212103689,-4.368593543912898
0.28835082054138184,0.03712575617996735,0.12941766454883982,-5.0
0.29862427711486816,0.04122912923143742,0.12969397250275874,-5.0
0.30681896209716797,0.04435550869922414,0.12980724191108348,-5.0
0.31537795066833496,0.04787268560048421,0.1297766956723765,-5.0
0.32733869552612305,0.05217145736869095,0.12962054606693849,-5.0
0.3363759517669678,0.05588403298668769,0.12935467249140484,-5.0
0.3459169864654541,0.059987406038157755,0.1289934528663707,-5.0
0.35329222679138184,0.06291838678920783,0.12855158284737223,-4.933249186741909
0.3644070625305176,0.06741255727415124,0.1280443519335513,-4.742849009376328
0.3743014335632324,0.07151593032562131,0.12748504976090652,-4.491895582355083
0.3886425495147705,0.07737789182772142,0.12688349302671773,-3.939184053411835
0.39712977409362793,0.08050427129550815,0.1262481258112868,-3.6230897571866
0.40633082389831543,0.0840214481967682,0.1255882365246295,-3.39976704909317
0.4157142639160156,0.08832021996497495,0.12491265627147777,-3.207950902326805
0.4251673221588135,0.09203279558297167,0.12422865582557348,-3.024229525365426
0.4346184730529785,0.0959407699177051,0.12354262207186816,-2.841730971599544
0.4443795680999756,0.09945794681896515,0.12286011638160613,-2.6602001204589447
0.45281457901000977,0.10297512372022523,0.12218593512944774,-2.481549329834895
0.46067261695861816,0.10571070575453859,0.12152456722668947,-2.3079909769577287
0.4723536968231201,0.11040027495621868,0.12088016470398799,-2.141352584358238
0.480318546295166,0.11372205314074207,0.1202557299078731,-1.982907482549717
0.48833322525024414,0.11665303389179212,0.1196536257081569,-2.1094486596075877
0.49838995933532715,0.12056100822652555,0.11907604194785446,-2.2783992109041944
0.509495735168457,0.12427358384452228,0.11852427093615149,-2.6776025451071064
0.5193874835968018,0.12759536202904564,0.11799854668972055,-3.0429674113660345
0.5278143882751465,0.1301355453466224,0.11749858852589312,-3.567539717100168
0.5383024215698242,0.13306652609767244,0.11702429203855465,-4.276935963329113
0.5476267337799072,0.13521591198177582,0.11657593384687044,-5.0
0.556290864944458,0.13716989914914252,0.11615401598672781,-5.0
0.5642640590667725,0.13892848759977253,0.11575868674314567,-5.0
0.5737149715423584,0.14068707605040257,0.11538930401096976,-5.0
0.5832698345184326,0.1424456645010326,0.1150448388071115,-5.0
0.5929341316223145,0.144008854234926,0.1147239972513502,-5.0
0.601942777633667,0.14537664525208266,0.11442526928796806,-5.0
0.6092889308929443,0.14615824011902934,0.11414755138436854,-5.0
0.6185653209686279,0.1471352337027127,0.11389025409910566,-5.0
0.6268885135650635,0.14772142985292272,0.11365263890397456,-5.0
0.6342637538909912,0.14811222728639603,0.11343348969011278,-4.860422685205815
0.6442599296569824,0.14869842343660605,0.113231403044141,-5.0
0.6528701782226562,0.14889382215334274,0.1130451867855235,-5.0
0.6627464294433594,0.1490892208700794,0.11287384521875142,-5.0
0.6732828617095947,0.14889382215334274,0.11271625132631394,-5.0
0.681767463684082,0.14869842343660605,0.1125712015213744,-4.505011281895175
0.6892759799957275,0.1485030247198694,0.11243761978255465,-4.002220167349712
0.6975162029266357,0.14811222728639603,0.11231465703492272,-3.5444203509058245
0.7052538394927979,0.14752603113618606,0.11220174085867897,-2.5934799340067345
0.7171225547790527,0.1465490375525027,0.11209824758350466,-2.185381883121172
0.7261927127838135,0.14596284140229268,0.11200336966521739,-1.7273547614840505
0.7342815399169922,0.14498584781860932,0.11191648918035403,-1.0435090153595474
0.742271900177002,0.14420425295166264,0.11183723182197959,-0.6803966154081088
0.7530500888824463,0.14283646193450597,0.1117652569867518,-0.2053485898515734
0.7622981071472168,0.1416640696340859,0.11170031583669777,-0.05809059430642613
0.7707011699676514,0.14068707605040257,0.11164338575994387,0.23237543923184095
0.7822933197021484,0.1391238863165092,0.11159974943965746,0.5109774093608437
0.7933435440063477,0.13736529786587917,0.11157899782670798,0.7266930478352182
0.8026342391967773,0.13580210813198582,0.11159082691221577,1.1484913593113453
0.8103752136230469,0.1346297158315658,0.11164177242139517,1.818763075680497
0.8193213939666748,0.1332619248144091,0.11173406755287978,2.143828085728228
0.828331470489502,0.13169873508051574,0.11187132669925369,2.546286607081333
0.8382954597473145,0.1299401466298857,0.11206150282989408,2.5906049210540214
0.8483054637908936,0.1281815581792557,0.11230823103798113,3.032171068900115
0.8583662509918213,0.12642296972862566,0.11260891434012138,3.205329038657207
0.8673644065856934,0.12466438127799562,0.11295987643732529,3.220695612351907
0.8811795711517334,0.1221241979604189,0.11335498030330877,3.14368536016431
0.8895256519317627,0.12056100822652555,0.11378394869888657,3.5659142129936336
0.897475004196167,0.11919321720936885,0.11423536749933838,3.7498452453662274
0.9070179462432861,0.11743462875873882,0.11469928034768784,4.053137700135258
0.9153263568878174,0.1162622364583188,0.1151673506125318,4.288601314108194
0.9267637729644775,0.11469904672442544,0.1156323237212672,4.406022738920637
0.9346990585327148,0.11372205314074207,0.11608774303349385,4.962328954599366
0.9425244331359863,0.11254966084032206,0.11652806378187976,5.0
0.952880859375,0.11176806597337538,0.11694871949172814,5.0
0.9606382846832275,0.11079107238969202,0.11734616740553554,5.0
0.9694712162017822,0.11000947752274534,0.1177178033868845,5.0
0.9779701232910156,0.10942328137253533,0.11806170976243345,5.0
0.9872832298278809,0.10903248393906198,0.11837658248192824,5.0
0.9953415393829346,0.10844628778885199,0.11866165541926196,5.0
1.0043373107910156,0.10805549035537865,0.11891662890693443,5.0
1.0143251419067383,0.10786009163864198,0.1191413838737518,5.0
1.0232923030853271,0.1076646929219053,0.11933595577688097,5.0
1.0320563316345215,0.10746929420516863,0.11950071584927766,5.0
1.0443098545074463,0.10727389548843196,0.1196360855699459,5.0
1.0548174381256104,0.10746929420516863,0.11974253833609959,4.740101559640154
1.0652735233306885,0.10746929420516863,0.11982107528968991,4.587294651201657
1.0743200778961182,0.1076646929219053,0.119873378891032,4.16691863315207
1.0842363834381104,0.1076646929219053,0.1199014661636206,3.4142154219606162
1.095278024673462,0.10786009163864198,0.11990716566240424,2.6565458796403467
1.107273817062378,0.10825088907211532,0.11989172519920437,2.009355841181753
1.1164822578430176,0.10844628778885199,0.11985612526181422,1.2205556805008868
1.1243362426757812,0.10864168650558867,0.11980231424134552,0.5213824228278192
1.1323800086975098,0.10883708522232532,0.11973299779050536,-0.02234464219280996
1.1449689865112305,0.10942328137253533,0.11965003371375837,-0.13640339544043656
1.153789758682251,0.10961868008927202,0.1195544961330616,-0.36483930811348714
1.1612696647644043,0.11000947752274534,0.11944780278028233,-0.5823237710162921
1.1712493896484375,0.11040027495621868,0.1193316390089602,-0.747971933889347
1.1799824237823486,0.1109864711064287,0.11920719796286952,-0.8564799940002701
1.1872732639312744,0.11118186982316537,0.11907521351439941,-0.9156946496727132
1.1952855587005615,0.11157266725663871,0.11893686666218507,-0.9367977087421223
1.2067668437957764,0.11215886340684872,0.11879341926318546,-0.9303776799772685
1.2142751216888428,0.11235426212358537,0.11864531538625755,-1.1811888499140504
1.2263929843902588,0.11235426212358537,0.1184925622181625,-1.7290384370244885
1.2360434532165527,0.11254966084032206,0.11833473184545942,-2.2476945116695624
1.2472898960113525,0.11254966084032206,0.11817142282804054,-2.631433286978191
1.2564897537231445,0.11254966084032206,0.11800262014254764,-3.1432794848267913
1.264326572418213,0.11254966084032206,0.11782871007467928,-3.5614061413241025
1.2733197212219238,0.11254966084032206,0.11765044471189157,-3.5511358073972428
1.2822248935699463,0.11254966084032206,0.11746812948540304,-3.638297735989814
1.291062593460083,0.11254966084032206,0.11728170234507428,-3.420574154170498
1.3003358840942383,0.11254966084032206,0.11709156550368244,-3.1049980286941774
1.3095812797546387,0.11254966084032206,0.11689815789186808,-2.780612871656472
1.318253993988037,0.11254966084032206,0.1167015663472534,-2.2056186721546056
1.3273365497589111,0.11254966084032206,0.116502312275907,-1.6327098348187787
1.3353285789489746,0.11254966084032206,0.11630093322731484,-1.149732645176399
1.3462176322937012,0.11254966084032206,0.11609761270342898,-0.7736823203812437
1.3542346954345703,0.11254966084032206,0.11589292077162112,-0.4942278199334004
1.363222360610962,0.11254966084032206,0.11568773873524874,-0.29304279617128004
1.374018669128418,0.11254966084032206,0.11548222296369834,-0.15176918486271065
1.3822462558746338,0.11254966084032206,0.11527622960485193,-0.054807804294459916
1.3902082443237305,0.11254966084032206,0.11507062432587159,0.010120069318973947
1.4002909660339355,0.11254966084032206,0.11486648926022575,0.05227541687457704
1.408217191696167,0.11254966084032206,0.11466415834336291,0.07846119000149851
1.4178085327148438,0.11254966084032206,0.1144636555735956,0.09358792898825202
1.4272541999816895,0.11254966084032206,0.11426505919240453,0.10115652342652878
1.4390170574188232,0.11254966084032206,0.11406825556400162,0.10363948409580533
1.447234869003296,0.11254966084032206,0.11387322748464866,0.10276943435515165
1.4585776329040527,0.11254966084032206,0.11368031901238931,0.09975179150096279
1.46620774269104,0.11254966084032206,0.11348990159530577,0.09541895430849978
1.4753265380859375,0.11254966084032206,0.11330255326580932,0.09034083615397853
1.4842529296875,0.11254966084032206,0.11311901195410795,0.08490348994518576
1.4933645725250244,0.11254966084032206,0.11293990308997852,0.079364726203246
1.5020041465759277,0.11254966084032206,0.11276556647102283,0.0738932944121626
1.5149102210998535,0.11254966084032206,0.11259592349613633,0.06859639601661471
1.5233397483825684,0.11254966084032206,0.11243073194050193,0.06353895131738414
1.5312881469726562,0.11254966084032206,0.11227010516699078,0.058757057785412875
1.5392510890960693,0.11254966084032206,0.11211444211374869,0.05426736680694855
1.5472404956817627,0.11254966084032206,0.1119640343944938,0.050073597934938534
1.5555248260498047,0.11254966084032206,0.11181908996923898,0.0461710488916693
1.5642321109771729,0.11254966084032206,0.1116796180100532,0.042549704364775794
1.5732321739196777,0.11254966084032206,0.11154560462893495,0.03919636669988763
1.5852382183074951,0.11254966084032206,0.11141707462438485,0.03609610500049534
1.5933098793029785,0.11254966084032206,0.11129386138792689,0.03323323022487136
1.6022720336914062,0.11254966084032206,0.11117603447497251,0.03059194148337083
1.6131021976470947,0.11254966084032206,0.11106388659742489,0.028156745007942685
1.6223254203796387,0.11254966084032206,0.11095744797799878,0.025912716632425933
1.6303327083587646,0.11254966084032206,0.11085672617056536,0.02384565717683968
1.6382453441619873,0.11254966084032206,0.11076184654082812,0.021942175123910397
1.648226261138916,0.11254966084032206,0.11067279473399716,0.02018972048320627
1.6576175689697266,0.11254966084032206,0.11058946055396432,0.018576586405173973
1.6654908657073975,0.11235426212358537,0.11051176016098609,0.017091889986286038
1.675999402999878,0.11254966084032206,0.1104395375368699,0.01572554013339584
1.686211109161377,0.11254966084032206,0.11037252579295066,0.014468197865205347
1.6942174434661865,0.11254966084032206,0.11031045011883468,0.013311232695861859
1.7032158374786377,0.11254966084032206,0.11025308828009597,0.012246677542172027
1.7165417671203613,0.11254966084032206,0.11020001267396083,0.011267183762217688
1.7267048358917236,0.11254966084032206,0.11015048785858933,0.010365977357650893
1.7349441051483154,0.11235426212358537,0.11010384719142514,0.009536816976534737
1.745499610900879,0.11254966084032206,0.1100595646094462,0.00877395408366337
1.753321647644043,0.11254966084032206,0.11001711774632877,0.008072095482648416
1.7626218795776367,0.11254966084032206,0.1099760981509164,0.007426368252012299
1.7706389427185059,0.11254966084032206,0.10993619988792552,0.0068322870774348635
1.7822954654693604,0.11235426212358537,0.109896881833063,0.006285723911148827
1.7938218116760254,0.11254966084032206,0.1098573880383497,0.005782879858193183
1.802278757095337,0.11235426212358537,0.10981725594834729,0.005320259171493185
1.811265230178833,0.11254966084032206,0.10977629230737157,0.004894645229142573
1.8214311599731445,0.11254966084032206,0.10973414884431355,0.004503078364769382
1.8295600414276123,0.11254966084032206,0.10969034704394719,0.004142835423358586
1.837299108505249,0.11254966084032206,0.10964461043533529,0.0038114109189294277
1.8473222255706787,0.11254966084032206,0.10959684654215432,0.0035064996760227514
1.855311393737793,0.11235426212358537,0.10954697449326725,0.0032259808433662994
1.8632397651672363,0.11254966084032206,0.10949493581293192,0.0029679031748947537
1.8752105236053467,0.11254966084032206,0.10944034198901863,0.0027304714802016093
1.8848748207092285,0.11254966084032206,0.10938254755637275,0.0025120341532943852
1.8922839164733887,0.11254966084032206,0.1093214129074583,0.0023110716950870656
1.9022507667541504,0.11254966084032206,0.1092572419904125,0.002126186151319462
1.9132859706878662,0.11235426212358537,0.10919021296039226,0.0019560913935014607
1.9232292175292969,0.11235426212358537,0.10912041126210796,0.0017996041760226329
1.9312710762023926,0.11235426212358537,0.10904802433505718,0.0016556359077417213
1.9401004314422607,0.11254966084032206,0.10897333666494165,0.0015231850811830154
1.9482734203338623,0.11254966084032206,0.10889682271757434,0.0014013303069308177
1.9581785202026367,0.11254966084032206,0.10881910263677175,0.0012892239049460603
1.966644048690796,0.11254966084032206,0.10874070339088822,0.0011860860083491736
1.9741852283477783,0.11254966084032206,0.1086621519637841,0.0010911991387403967
1.98447847366333,0.11254966084032206,0.10858403215506833,0.0010039032153825764
1.9922094345092773,0.11254966084032206,0.10850687696578208,0.000923590963570958
2.00199556350708,0.11235426212358537,0.1084312764282084,0.0008497036902785719
2.013301134109497,0.11254966084032206,0.10835788613331655,0.0007817273977115888
2.021657705307007,0.11254966084032206,0.10828886212941358,0.0007191892077533747
2.029799461364746,0.11254966084032206,0.10822904949508444,0.0006616540724342038
2.0384130477905273,0.11235426212358537,0.10818693220213535,0.000608721747550237
2.048185110092163,0.11235426212358537,0.1081774047814985,0.0005600240083837558
2.058194637298584,0.11235426212358537,0.10822147117884627,0.0005152220881593315
2.068202495574951,0.11235426212358537,0.1083438488693976,0.0004740043214189792
2.076456308364868,0.11235426212358537,0.10857833587126448,0.00043608397592413705
2.08742094039917,0.11254966084032206,0.10895887937351442,0.00040119725800327917
2.098483085632324,0.11235426212358537,0.1095052655035648,0.0003691014774701677
2.10677170753479,0.11235426212358537,0.11023739800506147,0.00033957335934756036
2.115748167037964,0.11254966084032206,0.11118077728842786,0.00031240749065225906
2.124288558959961,0.11254966084032206,0.11235795184555451,0.00028741489143683125
2.1328847408294678,0.11254966084032206,0.1137879926520446,0.00026442170014761207
2.1449179649353027,0.11254966084032206,0.11548620773463737,0.00024326796415381194
2.1552278995513916,0.11254966084032206,0.1174640483292619,0.00022380652703411297
2.16469144821167,0.11254966084032206,0.119729173687899,0.00020590200488020816
2.174952745437622,0.11254966084032206,0.12228566189864555,0.00018942984449596867
2.1842329502105713,0.11254966084032206,0.12513434550387637,0.00017427545694061528
2.1937239170074463,0.11235426212358537,0.1282732497533792,0.00016033342038839274
2.2022058963775635,0.11254966084032206,0.13168776028760562,0.00014750674675944025
2.214229106903076,0.11254966084032206,0.1353632993775692,0.00013570620702016797
2.2266159057617188,0.11294045827379541,0.13931744600814538,0.27616320938914063
2.235161542892456,0.11313585699053208,0.14356342404001138,0.3092778245737463
2.246307849884033,0.1135266544240054,0.14807870543041945,0.806248098400554
2.2541704177856445,0.11391745185747876,0.1528315751140578,1.0724422054235698
2.2641687393188477,0.11450364800768877,0.1577938599635273,1.4769185596149899
2.273236036300659,0.11508984415789876,0.16296616077310971,1.8313482673828867
2.281184196472168,0.1156760403081088,0.16836119898489985,2.3563834909965937
2.2901978492736816,0.11665303389179212,0.17396470927431615,2.532282036655409
2.2981698513031006,0.11743462875873882,0.17975132395732293,2.8079888235763875
2.3074889183044434,0.11860702105915884,0.18571236820943296,3.305792068464563
2.3153188228607178,0.11977941335957885,0.191866981484724,3.464819891789168
2.323185920715332,0.12095180565999888,0.19821563061711855,3.7190072639158416
2.3321852684020996,0.12271039411062891,0.20471496114761326,4.186950682564394
2.3418617248535156,0.12485977999473229,0.21132572185975523,4.860609250137687
2.3521828651428223,0.12739996331230902,0.21803923433654937,5.0
2.3632214069366455,0.13033094406335904,0.22485797315744208,5.0
2.371177911758423,0.1326757286641991,0.23177916409934765,5.0
2.380535125732422,0.13541131069851248,0.2387950606033464,5.0
2.388212203979492,0.1379514940160892,0.24589383411822668,5.0
2.397549629211426,0.1412732722006126,0.253050047754717,5.0
2.406010389328003,0.14459505038513598,0.2602281887416048,5.0
2.4141836166381836,0.14791682856965938,0.267396847394595,5.0
2.4231555461883545,0.15182480290439276,0.2745291065604005,5.0
2.4311554431915283,0.15514658108891616,0.2816134283637355,4.991604990343915
2.4422664642333984,0.1594453528571229,0.28866389132925757,4.503143711254461
2.452549934387207,0.163548725908593,0.29570685304285976,3.898871011899428
2.4613287448883057,0.1668705040931164,0.30274490345828636,2.7732556765961527
2.4713237285614014,0.17077847842784977,0.309760140073524,1.1082791387486963
2.4815025329589844,0.1752726489127932,0.3167531828680658,-0.427325513792007
2.4909121990203857,0.17937602196426328,0.3237414279105261,-1.9004179887943882
2.4993066787719727,0.18289319886552335,0.3307449198712729,-3.3267273161920903
2.510598659515381,0.18699657191699343,0.3377861868724308,-4.151014610382503
2.5192060470581055,0.19070914753499016,0.3448900704917335,-4.85106240833815
2.527202606201172,0.19364012828604024,0.3520662553602952,-5.0
2.5382726192474365,0.19813429877098362,0.35932885549783733,-5.0
2.5501482486724854,0.2028238679726637,0.3667299401799602,-5.0
2.5623629093170166,0.20731803845760713,0.37431871769979747,-5.0
2.570636510848999,0.21063981664213055,0.3821241144493844,-5.0
2.581386089324951,0.2155247845605473,0.3901745406248765,-5.0
2.590247631072998,0.21904196146180732,0.3984973416543207,-4.8359520202331066
2.600261688232422,0.22294993579654077,0.4071181328586706,-4.56671727304583
2.608245849609375,0.22607631526432748,0.41603676262579664,-4.2599663814382245
2.617680549621582,0.22998428959906086,0.42523013890578054,-3.948298364155395
2.6266682147979736,0.23389226393379428,0.4347016475597589,-3.64688437531909
2.6346094608306885,0.2368232446848443,0.4444767661250692,-3.362278229017619
2.6441545486450195,0.24073121901957772,0.45457543719118276,-3.0968120370614143
2.653613567352295,0.24463919335431117,0.4649871526057454,-3.1268241021100125
2.665825128555298,0.24952416127272792,0.47569861281233594,-2.9327176246509863
2.6742055416107178,0.2528459394572513,0.48674115873317925,-2.6681325957258535
2.68393874168396,0.2563631163585114,0.4981331456791506,-2.399107037575728
2.6938045024871826,0.2604664894099814,0.5098340476990543,-2.150977200612741
2.7020246982574463,0.2639836663112415,0.5217780407933174,-1.9309087284876565
2.7142319679260254,0.26886863422965823,0.5339225867457182,-1.738518120802268
2.7222683429718018,0.2721904124141816,0.5462441531336795,-1.5707317834770542
2.7307369709014893,0.2755121905987051,0.5587127372236431,-1.423898643897819
2.7401559352874756,0.2790293674999651,0.5712934799847766,-1.2946239467861607
2.7491109371185303,0.2827419431179618,0.5839485442350708,-1.1800297732388025
2.759624719619751,0.2870407148861686,0.596638959211471,-1.0777752639743419
2.767228364944458,0.29036249307069195,0.6093259906822077,-0.9859891802014863
2.779226779937744,0.29544285970584544,0.6219718629536625,-0.9031814151913756
2.7892568111419678,0.29935083404057883,0.6345401535552242,-0.8281599671924293
2.799161195755005,0.3032588083753122,0.6469824724639476,-0.7599618687845963
2.8091394901275635,0.3071667827100456,0.6592420035096423,-0.6977989852172274
2.8181638717651367,0.31087935832804237,0.6712845672115304,-0.6410168008836081
2.829394578933716,0.31498273137951244,0.6831095209403338,-0.5890636151161177
2.8398375511169434,0.31928150314771914,0.6947314188841303,-0.5414677088012704
2.8472445011138916,0.3226032813322426,0.7061518990316922,-0.4978204561643896
2.856221914291382,0.3263158569502393,0.7173487820754944,-0.4577638025388758
2.8661012649536133,0.33041923000170936,0.7282937112350466,-0.4209809203534064
2.875997543334961,0.3343272043364428,0.7389809853466704,-0.38718916914261603
2.8853917121887207,0.3382351786711762,0.7494241667992957,-0.35613472480606784
2.893815517425537,0.34155695685569953,0.7596390379059865,-0.3275884210092639
2.902538299560547,0.34487873504022304,0.7696427376054551,-0.3013424751354955
2.912127733230591,0.3485913106582197,0.7794386915579707,-0.2772078645273617
2.922130584716797,0.35289008242642644,0.7890185701981088,-0.25501218551596244
2.9321300983428955,0.35679805676115983,0.798393033082849,-0.23459787526473935
2.9421350955963135,0.3607060310958933,0.8076033906873827,0.060217649479907986
2.9534552097320557,0.36500480286410003,0.8167018320874373,0.11061444411746281
2.9622018337249756,0.3685219797653601,0.825719340094326,0.07140564334996888
2.9702413082122803,0.37203915666662013,0.8346536177702425,0.009936645287720286
2.9821691513061523,0.3769241245850368,0.8434886810109131,-0.04714026641507796
2.993227481842041,0.3818090925034536,0.8522258742052904,-0.09139262988960097
3.0025758743286133,0.38532626940471365,0.8608805779394841,-0.12201082821580783
3.0132205486297607,0.38982043988965714,0.869464694334739,-0.14095723774371138
3.0249898433685303,0.3945100090913372,0.8779995203489017,-0.15085402661528158
3.037227153778076,0.39939497700975396,0.8865256849692312,-0.15414619943059743
3.0502216815948486,0.40486614107838076,0.8950728202547993,-0.1528364186476423
3.0594029426574707,0.40838331797964084,0.903636230798422,-0.1484596301310801
3.0682342052459717,0.41209589359763754,0.9121848477475616,-0.14214533938090373
3.079435110092163,0.4161992666491076,0.9206897171399943,-0.13470114408138642
3.08817720413208,0.419521044833631,0.9291359750612993,-0.12669110289499289
3.0964934825897217,0.4230382217348911,0.9375087959692159,-0.11850047392367666
3.104248523712158,0.42616460120267785,0.9457936128011355,-0.11038590950305469
3.114154100418091,0.4298771768206745,0.9539573899792161,-0.10251297419363117
3.1231753826141357,0.4333943537219346,0.9619618306659232,-0.09498354547647364
3.1311841011047363,0.43691153062319465,0.9697946398736748,-0.0878555147926414
3.141223192214966,0.4414057011081381,0.9774643193705872,-0.08115679392786976
3.1498100757598877,0.4447274792926615,0.9849782380549243,-0.07489518626206099
3.1582212448120117,0.44765846004371157,0.9923165615819116,-0.06906529226766064
3.1664962768554688,0.45117563694497165,0.9994549593924548,-0.0636533064271779
3.1755707263946533,0.45469281384623167,1.006392127754879,-0.058640324644848855
3.1853532791137695,0.45879618689770174,1.0131372190581431,-0.05400460481210634
3.194140672683716,0.46211796508222514,1.0196911789069438,0.22631526484100667
3.2031993865966797,0.4658305407002219,1.026048276281692,0.2633905126454089
3.212144613265991,0.4693477176014819,1.0322139144315248,0.21193600898004505
3.2234153747558594,0.47423268551989867,1.0382110281258963,0.13920804892996835
3.233193874359131,0.4779452611378954,1.0440691185264195,0.07177785174643578
3.2411563396453857,0.4812670393224188,1.0497989275977821,0.01800393744983434
3.2502212524414062,0.48537041237388884,1.0553956782673828,-0.021371657290179046
3.258577585220337,0.4886921905584123,1.0608667348738556,-0.04837317024494301
3.267144203186035,0.49220936745967236,1.0662304401872709,-0.06567946336050884
3.2759335041046143,0.49572654436093233,1.0714970011086482,-0.07578754643554927
3.2851345539093018,0.4992437212621924,1.0766597303695433,-0.08074781953599966
3.295106887817383,0.5033470943136626,1.0817162475747772,-0.08213907210124106
3.3066110610961914,0.5080366635153426,1.0866981178875132,-0.08113109320145104
3.3141117095947266,0.5105768468329194,1.091645648178165,-0.07856850464245367
3.324136257171631,0.5144848211676527,1.096574991621125,-0.07504940154374157
3.3332126140594482,0.5181973967856495,1.1015138441840655,0.20504802214527804
3.3421566486358643,0.5217145736869095,1.1064980760668315,-0.0335521410596933
3.3501317501068115,0.5248409531546963,1.1115361854355894,-0.11739791086420565
3.3604342937469482,0.529725921073113,1.116635913962631,-0.1340732948004825
3.3700106143951416,0.5332430979743731,1.1218154725041882,0.1516957476769707
3.379201889038086,0.5367602748756332,1.1270901561108648,0.20269706873806886
3.388123035430908,0.5402774517768932,1.1324724592879634,-0.11005779200202465
3.396686553955078,0.5437946286781532,1.1379600890312749,-0.2031596665587767
3.4061784744262695,0.5477026030128868,1.143538066642434,0.07063235227877182
3.4141347408294678,0.5512197799141467,1.149192751947022,0.13365777330398254
3.42561936378479,0.5557139503990901,1.1549237707924178,0.11523762655925932
3.4341557025909424,0.5590357285836136,1.1607538879325865,-0.20332937632329934
3.4421231746673584,0.562357506768137,1.1667006697756155,-0.00349926446125913
3.452167510986328,0.5660700823861337,1.1727648273082163,0.0492906285895263
3.4618053436279297,0.5701734554376038,1.178933118612123,0.044112003960390805
3.4714701175689697,0.5740814297723372,1.185180887211491,0.0207221112704151
3.4828195571899414,0.5789663976907539,1.191510035276091,-0.004336395459453961
3.4917232990264893,0.5822881758752773,1.1979331258965524,-0.02511904288586022
3.4992825984954834,0.5856099540598008,1.2044239640584813,-0.04027473209090724
3.5104053020477295,0.5897133271112708,1.2109597350942845,-0.32629402269337654
3.5214297771453857,0.5944028963129508,1.2175567178524054,-0.36523383978032964
3.5301432609558105,0.5977246744974742,1.224228402840627,-0.31283269507141487
3.5392067432403564,0.601437250115471,1.2309738892871986,-0.23722198581805742
3.5501391887664795,0.6057360218836778,1.2377919879362156,-0.1656571677096374
3.5591325759887695,0.6094485975016745,1.244668832494934,-0.10700455597801801
3.567138195037842,0.6125749769694612,1.2515797917145373,-0.062369616257029886
3.57751202583313,0.6166783500209313,1.2585278465929415,-0.029980570075375065
3.585139751434326,0.6196093307719813,1.2655268832752067,-0.007328853546925536
3.593095541000366,0.622735710239768,1.2725510818243495,0.007971562935299647
3.6031076908111572,0.6268390832912382,1.2795655491355298,0.017902122915834148
3.613887310028076,0.6313332537761815,1.2865756543674565,0.02400195723147939
3.622102737426758,0.6346550319607048,1.2935965600499788,0.027421305876293264
3.6311070919036865,0.6383676075787017,1.3006047777460992,0.028998806222049325
3.643132448196411,0.643447974213855,1.307578328793987,-0.24670283900339268
3.651777982711792,0.6467697523983785,1.3145303695317387,-0.28030626276333925
3.660562038421631,0.6504823280163752,1.321469668500032,-0.2262057335437964
3.6721274852752686,0.6545857010678453,1.3283899956756116,-0.15142916321410888
3.682588577270508,0.6588844728360521,1.3352836382903492,-0.08238530605094935
3.691533327102661,0.6624016497373121,1.342141734246905,-0.027317091715867547
3.7001068592071533,0.6661142253553088,1.3489457931690403,0.013115810005568156
3.711095094680786,0.6704129971235157,1.3556783897699152,0.040996500018200266
3.722135066986084,0.6747117688917224,1.3623411246153003,0.05904608875797905
3.732203722000122,0.6788151419431923,1.3689344038632105,0.06979208796233538
3.7401864528656006,0.6817461226942425,1.3754491745961197,0.07530708643182657
3.751075029373169,0.6866310906126593,1.3818775894974045,0.07718616791828603
3.76220703125,0.6911252610976026,1.3882131042583172,0.07661122463883573
3.7701034545898438,0.694447039282126,1.3944505025325513,0.07443598991220209
3.778775453567505,0.6977688174666494,1.4005706152675175,0.0712655240586294
3.7867941856384277,0.7010905956511728,1.406542979815734,0.06752179600568758
3.7941603660583496,0.7042169751189595,1.4123511918683143,0.06349452430249632
3.8040850162506104,0.708124949453693,1.4179909279184504,0.05937919887596102
3.8154594898223877,0.7126191199386365,1.4234753993187932,-0.2207334780837339
3.8290486335754395,0.7180902840072632,1.428839752769242,-0.25780873219902956
3.8417630195617676,0.7229752519256799,1.4341219701032508,-0.20648793309011748
3.850111722946167,0.7264924288269399,1.4393472706274464,-0.13397670147657265
3.8591525554656982,0.7300096057282001,1.4445154199282275,-0.0668115641854338
3.8674347400665283,0.73352678262946,1.4496122013959098,-0.013327506581210992
3.880387783050537,0.7388025479813501,1.4546411880624888,0.30178756217665703
3.8906242847442627,0.7429059210328203,1.459621117571439,0.36161614303728734
3.8985869884490967,0.7460323005006069,1.4645615207734994,0.32353565071492674
3.9080443382263184,0.7499402748353403,1.4694642077736082,0.25728130256036236
3.916893482208252,0.7538482491700736,1.4743242493559405,0.19145592334649125
3.9261744022369385,0.7575608247880705,1.4791310571475595,0.1359780231020343
3.9356207847595215,0.7612734004060673,1.4838846607244336,0.09274107585484787
3.9445247650146484,0.7645951785905907,1.4885941760132158,0.06054784253957305
3.9541938304901123,0.768503152925324,1.4932687674829055,0.037300825329801106
3.964228391647339,0.7726065259767941,1.4979094113429476,0.020903813071810242
3.9731953144073486,0.7763191015947909,1.5025100745970001,0.2856154486591658
3.9846718311309814,0.7810086707964708,1.5070835813558145,0.31108311302855896
3.9940695762634277,0.784525847697731,1.5116501254612713,-0.02509599459936243
4.004196405410767,0.7884338220324644,1.516210697160801,-0.13751182074733842
4.012118339538574,0.7917556002169878,1.5207665745148224,-0.15486672144170188
4.022102355957031,0.7956635745517212,1.5253273278335122,-0.13645617235071597
4.03110671043396,0.7991807514529814,1.5299006129374002,-0.10838967868792632
4.039621353149414,0.8026979283542414,1.5344920296784736,-0.08124592852469742
4.047245979309082,0.8058243078220281,1.5391050764198395,-0.05858166315711416
4.055501222610474,0.8091460860065515,1.543733298426317,-0.04096302235563428
4.066128492355347,0.8134448577747583,1.5483618012322709,-0.02782505814846658
4.0770792961120605,0.817743629542965,1.5529844096061785,-0.01829218430622102
4.0882792472839355,0.8222378000279084,1.5576090930836706,-0.011511889379855707
4.096684217453003,0.8257549769291685,1.5622404770821106,-0.006768038227775039
4.1041412353515625,0.8286859576802185,1.5668661446236585,-0.0035000372312926267
4.1137776374816895,0.8323985332982152,1.5714734672496382,-0.0012861797273690844
4.122097015380859,0.8359157101994752,1.5760508177838906,0.00018304480284353638
4.130168676376343,0.839042089667262,1.5805809329238667,0.0011311483172066698
4.139110803604126,0.8427546652852588,1.5850488252461712,0.0017177374168708408
4.147091388702393,0.8458810447530456,1.589441786673117,0.2780942137757964
4.1557183265686035,0.8492028229375689,1.5937605023542145,0.3113880130799589
4.164206027984619,0.8525246011220923,1.59801146871968,-0.019691647330849132
4.172162055969238,0.8554555818731422,1.602189050276359,-0.1289197668452408
4.181385517120361,0.8593635562078759,1.6062887143452005,0.13162704939759398
4.1897361278533936,0.8630761318258724,1.6103072307286113,0.18411961559661288
4.199575662612915,0.8669841061606058,1.614236958874056,0.15743569031665336
4.207052230834961,0.8701104856283925,1.6180721314458697,0.10843765229975869
4.218149185180664,0.874604656113336,1.621813637978995,0.06026284537728696
4.227067947387695,0.878121833014596,1.6254679452996321,0.02078317803788177
4.235710620880127,0.8814436111991195,1.6290361215765707,-0.008644915697720341
4.24448561668396,0.8851561868171162,1.6325196994285214,-0.029141325934750818
4.252053737640381,0.888282566284903,1.635926142264485,-0.04251772022906832
4.262693881988525,0.8925813380531097,1.639263544059551,-0.05054974183103324
4.272067308425903,0.8962939136711063,1.6425355055327102,-0.05472819441978481
4.28208589553833,0.9003972867225765,1.6457418165748914,-0.05621515346143147
4.294079303741455,0.9046960584907832,1.6488897931021265,-0.05587834752134034
4.303069591522217,0.9084086341087799,1.6519931897050593,-0.05434774221556755
4.313167333602905,0.91251200716025,1.6550657295690412,-0.0520713756155219
4.3231470584869385,0.9164199814949833,1.6581208554898659,-0.04936252702543611
4.3335466384887695,0.9207187532631901,1.6611780193778334,-0.046436750142281866
4.344933032989502,0.9254083224648704,1.6642616112215134,-0.0434397789548248
4.3554933071136475,0.929707094233077,1.667393962439662,-0.04046803037962117
4.3633081912994385,0.9328334737008638,1.6705813070553792,-0.03758341935026639
4.3759849071502686,0.9377184416192806,1.6738156972643534,-0.0348239416740225
4.3850603103637695,0.9412356185205405,1.6771051674657669,-0.03221117039584175
4.393510341644287,0.9447527954218007,1.6804640413952185,-0.029755531076044832
4.401083707809448,0.9478791748895873,1.68389013724905,0.24857836633404337
4.410399913787842,0.9519825479410575,1.687374163605914,0.28384032226662365
4.4180521965026855,0.9549135286921074,1.6909081791218168,0.23072725754903994
4.426080226898193,0.9582353068766308,1.6944853955159762,0.1564801913878192
4.4351279735565186,0.9615570850611541,1.6981079796008567,0.08765715703578209
4.444216251373291,0.965269660679151,1.7017854217338255,0.032605151568716455
4.452885150909424,0.9687868375804112,1.7055171855897278,-0.00794396337745392
4.461561918258667,0.9723040144816711,1.709293846587985,-0.036023488175620746
4.472207307815552,0.9767981849666146,1.713113939600624,-0.0543204133764146
4.481348752975464,0.980706159301348,1.7169821482409622,-0.06533908075811992
4.490149736404419,0.9844187349193447,1.720899877202041,-0.07113653335039725
4.500886678695679,0.9885221079708147,1.7248654795777882,-0.34933596006653445
4.51203727722168,0.9926254810222849,1.728874750770288,-0.3821605401749669
4.520487070083618,0.996142657923545,1.7329216290818104,-0.3251518229729934
4.5285680294036865,0.9994644361080682,1.7369988361613145,-0.24614661842979813
4.53647780418396,1.0023954168591185,1.7410923629965944,-0.17211577440475906
4.547075033187866,1.0066941886273253,1.7451887411988407,-0.387725505217123
4.555262804031372,1.0100159668118485,1.7492814899241318,-0.37494258653155627
4.564472436904907,1.013923941146582,1.7533583889442808,-0.2865466782195315
4.574118614196777,1.0176365167645787,1.7574026050861074,-0.18716004968841438
4.58312463760376,1.0213490923825752,1.7613996315264309,0.17516641160724572
4.591218709945679,1.0244754718503621,1.7653423143164573,0.27517711478900975
4.599079370498657,1.0277972500348853,1.7692246575976411,0.26841798487605273
4.608219385147095,1.0313144269361456,1.7730363684791683,0.2253421875715947
4.618481636047363,1.035808597421089,1.776778790345967,0.1760527186039646
4.628061294555664,1.0397165717558223,1.7804630322049548,-0.14402354583718457
4.63608455657959,1.0430383499403457,1.7840841385235817,-0.2127120259482726
4.6451096534729,1.0467509255583425,1.7876239739621027,-0.1848502839726015
4.65428352355957,1.0500727037428659,1.7910775429903418,-0.12897489805272033
4.6645896434783936,1.054176076794336,1.7944558322294124,-0.07314774333101148
4.672078609466553,1.057107057545386,1.797769158245633,-0.02706550553213351
4.682087421417236,1.0610150318801193,1.80101800056475,-0.26859032977665137
4.69054651260376,1.064923006214853,1.804204217371878,-0.27757346775655806
4.699050188064575,1.0682447843993763,1.8073305715895602,0.06939785474865096
4.711124420166016,1.0729343536010563,1.8104011387893313,0.18819082831843711
4.720266819000244,1.0764515305023163,1.8134314089203496,-0.06735694106585323
4.7280871868133545,1.079577909970103,1.8164306824863603,-0.11804171052680101
4.739027976989746,1.084267479171783,1.8194034706409994,-0.09171398728851404
4.7475266456604,1.0877846560730433,1.822360520790922,-0.04448994096883272
4.755076885223389,1.09091103554083,1.8253004558374804,0.0010240318738275155
4.763075828552246,1.0942328137253534,1.8282175892997063,0.037327417834348994
4.772108316421509,1.0977499906266135,1.8311202369661082,0.06331942247231052
4.780571699142456,1.1012671675278736,1.834022901165733,0.08029284837357388
4.788809061050415,1.10439354699566,1.8369392816983525,0.09017382681985103
4.79674506187439,1.1077153251801837,1.8398821411607313,0.09481156535902824
4.806208610534668,1.1112325020814438,1.8428562461938893,0.09574207154126405
4.8140692710876465,1.1143588815492305,1.8458523142333125,0.09415314787152475
4.822060585021973,1.1174852610170172,1.8488627630852286,0.09092502551228479
4.832873821258545,1.1219794315019607,1.851895377312842,0.0866913241170273
4.845275640487671,1.1270597981371138,1.854971216901237,0.08189793364796001
4.855543851852417,1.1313585699053208,1.8581225396988288,0.07685229228242993
4.863397121429443,1.1344849493731075,1.8613688949497753,0.07176187048029375
4.871082782745361,1.137806727557631,1.8646969144004517,0.06676306707419945
4.88073205947876,1.1415193031756277,1.8680870107820742,0.3379807403126678
4.889540672302246,1.1450364800768875,1.8715361462404185,0.36651463255286126
4.8981287479400635,1.1485536569781476,1.8750479621644551,0.031046372516639414
4.907081842422485,1.1522662325961444,1.8786172886094745,-0.08222580793717928
4.915457725524902,1.1557834094974044,1.882231533891416,0.1745959328947406
4.9260454177856445,1.1596913838321379,1.8858860690628974,0.22365827474909028
4.936071395874023,1.1635993581668713,1.8895896459446124,0.19381634588335014
4.944835186004639,1.1669211363513945,1.8933482309994583,0.14191141217967146
4.95612645149231,1.1718061042698116,1.8971516991516484,0.09106119137569951
4.96714186668396,1.1763002747547546,1.9009962341430886,0.04911939578174266
4.975747108459473,1.179817451656015,1.904877481453831,0.017425621518808356
4.987179279327393,1.184507020857695,1.908777416589595,-0.005155580223808248
4.9971349239349365,1.1886103939091652,1.9126918863264666,-0.02045023832103312
5.008121013641357,1.1931045643941083,1.916627925711144,-0.030247241466219935
5.019980192184448,1.1977941335957885,1.9205890590776333,-0.03604960222155381
5.02814507484436,1.2013113104970485,1.9245651685114509,-0.03903064435726289
5.0364649295806885,1.2044376899648352,1.9285352221336622,-0.04006845615937758
5.044552803039551,1.2079548668660955,1.9324862136874708,-0.03980254207771723
5.053056716918945,1.211276645050619,1.9364069069094987,-0.038689721432114126
5.064172267913818,1.2155754168188255,1.9402872503876802,-0.037051356138367415
5.0741424560546875,1.2196787898702957,1.9441236437904161,-0.03511043860003993
5.086084604263306,1.2245637577887123,1.9479126343280817,-0.033019548308112476
5.094080686569214,1.2274947385397625,1.95165094835988,-0.03088140136521141
5.105037689208984,1.2317935103079691,1.955335598420555,-0.028763708883528784
5.114479064941406,1.2357014846427024,1.9589684387967687,-0.026709799803285854
5.122170925140381,1.2388278641104893,1.9625466820711408,-0.024746154105849943
5.130188941955566,1.2423450410117491,1.9660591593725318,-0.022887712050950474
5.141260385513306,1.246839211496693,1.9695013963655978,0.25489676266383254
5.152070999145508,1.2511379832648997,1.9728746216659123,0.2896532488686703
5.162009954452515,1.2548505588828962,1.9761804099779365,0.23607515140805885
5.170082330703735,1.2581723370674196,1.9794206638695404,0.16140025470773572
5.177994012832642,1.2612987165352065,1.9825933758958347,0.09218361596880403
5.1861138343811035,1.2648158934364664,1.985693346157086,0.03676949426220833
5.194105863571167,1.2677468741875166,1.9887128350875047,-0.004112767766858438
5.205236196517944,1.27224104467246,1.9916463017395591,-0.03249878798108921
5.214110374450684,1.2761490190071934,1.9945028549345314,-0.05107768903442927
5.225679874420166,1.2808385882088735,1.9972997646598074,-0.06235577424941473
5.2330322265625,1.2837695689599238,2.000048296958277,-0.06839189128255643
5.243024826049805,1.2878729420113935,2.002754547225449,-0.07077252962951355
5.251077175140381,1.2913901189126538,2.00542877106993,-0.07067451219801656
5.260995149612427,1.295298093247387,2.0080758887283774,-0.06894889677149882
5.270884037017822,1.2992060675821204,2.0106919309035107,0.20983868471834483
5.280419588088989,1.3031140419168539,2.013278537019783,-0.029724204776510443
5.291041851043701,1.307217414968324,2.0158421207594546,-0.11428394678841497
5.301057577133179,1.3109299905863208,2.0183887237319866,-0.13149491696704
5.3106818199157715,1.314837964921054,2.0209240672211393,-0.12217155927779905
5.318269729614258,1.3175735469553675,2.023453607815726,-0.10460952726477414
5.326077461242676,1.320895325139891,2.0259778353429976,-0.08647611387475154
5.33463716506958,1.3242171033244143,2.0284930061405975,-0.07056635085901296
5.342248916625977,1.3275388815089375,2.0310012466237977,-0.05754866202637607
5.351284027099609,1.331446855843671,2.033504782962645,-0.047244998014688996
5.360015392303467,1.3349640327449313,2.036001147394736,0.23683235349742762
5.368112325668335,1.3380904122127177,2.038488633985193,0.27620978767665155
5.376588582992554,1.3414121903972414,2.0409661722487593,0.22599761852848496
5.386072158813477,1.3453201647319744,2.0434382672665183,0.15376593782470188
5.396450519561768,1.3496189365001814,2.0459140505974753,0.08632280247985934
5.404033184051514,1.352745315967968,2.048396338971883,0.032199900826370684
5.412113666534424,1.3560670941524915,2.050882476779173,-0.00773693307421907
5.422041416168213,1.359975068487225,2.0533753109189345,-0.03542501152045256
5.43272066116333,1.3640784415386948,2.0558872509307258,-0.053483155667296875
5.440029621124268,1.3672048210064816,2.0584283626981743,-0.06436761571382657
5.449581146240234,1.3707219979077419,2.0609963642793114,-0.0701016906826951
5.457019090652466,1.3738483773755286,2.063583625124239,-0.07224664712426263
5.46707558631897,1.3781471491437352,2.0661830939924157,-0.07196140591063035
5.47651219367981,1.381859724761732,2.0687929993677265,-0.07008430001172955
5.4870452880859375,1.3863538952466754,2.071415892219217,-0.0672102522047927
5.49677848815918,1.3900664708646722,2.074052982424943,-0.3397930948390651
5.507519721984863,1.394169843916142,2.076708800037432,-0.36916643927808335
5.5164220333099365,1.3978824195341388,2.0793862074580836,-0.3102153925835158
5.525822401046753,1.4017903938688723,2.082077757882116,-0.2303020061048362
5.535794734954834,1.405698368203606,2.084776159988882,-0.15605866557336678
5.547088384628296,1.4101925386885492,2.0874827539444034,-0.09587461055107449
5.556146144866943,1.4139051143065458,2.0901977940183607,-0.05050212059031322
5.565300703048706,1.4174222912078058,2.092912607325787,-0.017913702224865862
5.57571005821228,1.4217210629760126,2.0956191877659496,0.004581410024213842
5.583027362823486,1.4242612462935895,2.098306854208884,0.019497429456197434
5.593965530395508,1.4289508154952695,2.1009589217481053,0.02890496815554145
5.603020906448364,1.4324679923965296,2.103568995541829,0.034404484088163746
5.612069845199585,1.4365713654479997,2.1061393479700556,0.03718785485371205
5.621063709259033,1.4402839410659962,2.1086718909422855,0.03812153217169721
5.631002187728882,1.4441919154007297,2.111171808044565,0.03782475112315274
5.641029119491577,1.4480998897354633,2.113647055744523,0.03673425386628808
5.651068210601807,1.45239866150367,2.116100862179226,0.03515456342275647
5.6597490310668945,1.4557204396881933,2.118532544123903,0.03329563919639264
5.667076110839844,1.4586514204392433,2.1209382778686106,0.03130044962451932
5.676386833190918,1.4621685973405036,2.1233116643861103,-0.24677349644406618
5.686996936798096,1.466662767825447,2.125651153620482,-0.28191111071552655
5.696536064147949,1.4705707421601801,2.1279593384984072,-0.22876414610826534
5.704232454299927,1.4735017229112304,2.1302353518685897,-0.154542300624073
5.7140116691589355,1.477214298529227,2.1324753909662038,-0.08578198653200662
5.721985816955566,1.4803406779970136,2.134676681317412,-0.030815361387333158
5.729990482330322,1.483857854898274,2.136837363225328,0.009635821475493089
5.738088369369507,1.487375031799534,2.1389598106971284,0.03761167732184159
5.746998310089111,1.4908922087007939,2.1410499441100246,0.055803725130272694
5.755113840103149,1.4946047843187906,2.143109728641128,0.06671925296530246
5.767502784729004,1.499294353520471,2.145141173728835,-0.2036211996340653
5.778010129928589,1.5035931252886776,2.147153143712228,-0.2346795778650973
5.79103422164917,1.508673491923831,2.149160045927791,-0.17997188135120137
5.803085565567017,1.5135584598422478,2.15117726365159,-0.10588230853092445
5.811874151229858,1.5170756367435079,2.1532073230181865,-0.03835820267347095
5.820516109466553,1.5203974149280313,2.1552418626139875,0.014682541141155515
5.8299853801727295,1.5243053892627647,2.1572768313706954,0.05280571055945877
5.839485168457031,1.5280179648807612,2.1593118185843987,0.07824835030597145
5.846989870071411,1.5311443443485482,2.1613429611395465,0.09383477774269199
5.858041763305664,1.5354431161167548,2.163366549388268,0.10216006626976673
5.870033502578735,1.5403280840351714,2.1653852070413313,0.3813779021313006
5.879242181777954,1.5440406596531684,2.1674005248606565,0.4141568549164768
5.888065338134766,1.5479486339879014,2.169407221562083,0.3563846040629114
5.89723014831543,1.5516612096058984,2.1713974325717436,0.27615497805112366
5.90803599357605,1.5559599813741052,2.1733667623569195,0.20062384644393122
5.916335344314575,1.5594771582753653,2.175313658425892,0.13854905888317776
5.928093910217285,1.5639713287603085,2.177238425850283,0.09093883503522941
5.936376333236694,1.567293106944832,2.1791406996916822,0.05594087721354837
5.945972204208374,1.5712010812795654,2.1810150770360006,0.03098239051185224
5.953997611999512,1.5745228594640888,2.1828545991711654,0.2896652969765811
5.9657206535339355,1.579212428665769,2.1846555989135483,0.3110166365702316
5.974075555801392,1.5825342068502923,2.1864172462288227,-0.027880102208771435
5.9820685386657715,1.5854651876013421,2.1881370935602806,-0.1420134209507365
5.992079734802246,1.5895685606528125,2.189813428866833,-0.1603834268282699
6.0024189949035645,1.5936719337042826,2.191447347815659,-0.14250274372490226
6.0104820728302,1.596798313172069,2.1930403302922117,-0.11463663563452894
6.020961761474609,1.6009016862235392,2.1945941989861883,-0.08747414160793969
6.0324766635894775,1.605786654141956,2.1961130990827713,-0.06464939547565224
6.040715217590332,1.6091084323264795,2.197601035264887,-0.04678231318480672
6.049664735794067,1.6128210079444762,2.1990577676962015,-0.033344956527868536
6.057979583740234,1.615947387412263,2.2004814971641116,-0.023486929811549
6.06917667388916,1.620636956613943,2.2018732098595093,-0.01637262925448744
6.0780627727508545,1.624154133515203,2.203236251648627,-0.011297054075498133
6.089903831481934,1.6288437027168832,2.204573878184692,-0.007706743103303451
6.099292755126953,1.6325562783348797,2.205891280557741,-0.005184365373223946
6.110126495361328,1.6370504488198232,2.2071931213913603,-0.003422901531315302
6.118049383163452,1.64017682828761,2.208479406516496,-0.002200055273037824
6.1321985721588135,1.6462341885064469,2.2097503029997685,0.27468177567617064
6.143365144729614,1.6505329602746535,2.211012212792717,0.30838371082881866
6.150958061218262,1.6530731435922303,2.2122705371457485,0.25367774732592535
6.160906791687012,1.6569811179269638,2.213523621792833,0.17785444055366295
6.171055793762207,1.6612798896951704,2.2147699387923265,0.10750352424874632
6.18050479888916,1.6651878640299036,2.216010092849026,0.05099134948128749
6.189013242721558,1.6689004396479008,2.217244493712473,0.009060666500908487
6.197741508483887,1.6724176165491607,2.2184715108310504,-0.02031667435581959
6.209516286849976,1.676911787034104,2.219689762154001,-0.0398263441936573
6.219864130020142,1.681210558802311,2.220901978328701,-0.05197387056389927
6.229970932006836,1.6851185331370444,2.222110559050664,-0.05881907028045594
6.240305185317993,1.6896127036219875,2.2233155970714757,-0.06195050402501139
6.24998927116394,1.693520677956721,2.2245171333282556,-0.06254772666680683
6.2589874267578125,1.6970378548579812,2.225713462608212,-0.06146488831158399
6.267977952957153,1.7005550317592413,2.226901500062759,-0.05930923094307796
6.277030944824219,1.7040722086605014,2.2280808021802976,-0.05650598998099394
6.284983158111572,1.7070031894115512,2.2292530961084718,-0.053348771004778556
6.293057203292847,1.7103249675960746,2.23041799279365,-0.05003725746140311
6.301996469497681,1.7140375432140713,2.231573329476234,-0.046704801551173264
6.312035799026489,1.7179455175488048,2.2327194009227243,-0.043438311203152544
6.321051359176636,1.7216580931668013,2.2338585785932215,-0.040292435197835944
6.334365367889404,1.7271292572354282,2.234994977904828,-0.037299604229472885
6.341939210891724,1.730255636703215,2.236132132020318,-0.03447709639627749
6.350562572479248,1.7335774148877383,2.2372690509222797,-0.03183198394417785
6.358954668045044,1.7368991930722617,2.2384029237682794,-0.029364580363266585
6.367940902709961,1.7406117686902585,2.2395313968271306,-0.02707083075497518
6.379790782928467,1.7453013378919386,2.240656397988028,-0.024943960182393025
6.390432357788086,1.7496001096601452,2.2417833976203223,0.2530627571328086
6.401244401931763,1.7542896788618254,2.242914862397004,0.2880063960449819
6.409858465194702,1.7576114570463488,2.2440506707596914,0.234588355565544
6.420982837677002,1.7619102288145554,2.2451904389509316,0.1600522217462939
6.429068326950073,1.7652320069990788,2.246331730301388,0.09095730063630975
6.437453508377075,1.7685537851836022,2.2474704600382256,0.03565099742195378
6.446369171142578,1.7722663608015992,2.248604884170535,-0.00513498518832238
6.456957101821899,1.7767605312865427,2.249735260771297,-0.30947282772459556
6.469261407852173,1.7820362966384327,2.2508635074929004,-0.3610981454637896
6.480058431625366,1.7861396696899028,2.2519929900542754,-0.3172080421022252
6.489558219909668,1.7898522453078993,2.2531247997848713,-0.24709459627972713
6.497936725616455,1.7929786247756863,2.2542563540002045,-0.178893653735683
6.507188320159912,1.7968865991104195,2.2553855993785885,-0.12211999248589456
6.519336700439453,1.8015761683120999,2.256514555809131,-0.07834747154047216
6.527950048446655,1.8048979464966233,2.257643198595603,-0.046137927094230195
6.538032293319702,1.8088059208313563,2.258767945933111,-0.2992561790789794
6.548030614852905,1.8129092938828264,2.259889541076698,-0.3165280798097778
6.559555530548096,1.8177942618012435,2.261012327247256,-0.2507774573402885
6.567084312438965,1.8209206412690302,2.262136254010454,-0.16777687118144247
6.5750415325164795,1.8240470207368165,2.263257572325881,-0.09297858563061716
6.587073802947998,1.8289319886552335,2.2643749663385013,-0.033917372102633965
6.596298694610596,1.83264456427323,2.2654891516114737,0.009261882128868967
6.606996536254883,1.8371387347581736,2.266600685256257,0.31505030425608627
6.616270542144775,1.841046709092907,2.2677099955275892,0.09144175523313311
6.626049041748047,1.8451500821443771,2.268819167461113,0.01479406443005498
6.6342339515686035,1.8482764616121639,2.2699298564054713,-0.00014669754678247812
6.643102169036865,1.851793638513424,2.271039761741542,0.007622676704510065
6.652408838272095,1.8553108154146838,2.272145073349544,0.021137061593130706
6.661988258361816,1.8590233910326808,2.273242501324575,0.03367996203903214
6.671640396118164,1.862931365367414,2.2743308451271855,-0.23291562581359135
6.681946277618408,1.8674255358523575,2.275412126679021,0.016131061660841287
6.690002679824829,1.8705519153201442,2.2764876963646974,0.10766375875186388
6.701060771942139,1.8748506870883508,2.2775551371923406,0.12979377338709164
6.709015369415283,1.8779770665561377,2.278611889745497,-0.15222446346845458
6.719814777374268,1.882471237041081,2.2796568137735194,-0.20072991906125154
6.729457378387451,1.8863792113758147,2.2806884264958946,-0.16241946349596373
6.739031791687012,1.8904825844272846,2.281705022554701,-0.1014842375332922
6.75001859664917,1.8949767549122283,2.2827048246637816,-0.043623717585144654
6.760422468185425,1.899080127963698,2.2836860764177502,0.0027767328471434045
6.768997430801392,1.9025973048649583,2.284646150693529,0.036637634519067375
6.7783825397491455,1.9063098804829548,2.285582768196764,0.059587578558339745
6.786105155944824,1.909240861234005,2.2864950666541093,0.07394865392962656
6.794010400772095,1.9123672407017918,2.2873806258996745,0.08192812542212206
6.804973602294922,1.9166660124699986,2.288236667038298,0.0853534833770371
6.814764976501465,1.9205739868047318,2.2890638099504246,0.08563735696096278
6.82308030128479,1.9240911637059919,2.2898646241117424,0.08382808831286592
6.831012010574341,1.9274129418905153,2.2906397981151985,0.08068265184940517
6.84022331237793,1.9313209162252487,2.291388471262833,0.07673641045534522
6.849316596984863,1.9350334918432452,2.292111134622292,0.07236125881306285
6.859685659408569,1.939332263611452,2.2928094499884115,0.06781094177705321
6.869335651397705,1.943044839229449,2.2934852114178024,0.33929341009847025
6.877326488494873,1.9461712186972357,2.294140303889129,0.36796688572413805
6.8856892585754395,1.949492996881759,2.294775762215053,0.30859230270410476
6.896648168563843,1.954182566083439,2.2953919073952913,0.2284443079415195
6.904086112976074,1.9571135468344893,2.2959893452357294,0.1540940619074987
6.91196084022522,1.960044527585539,2.296568932298716,0.09388810896755968
6.923267126083374,1.9645386980704826,2.2971337576093345,0.04854909215496937
6.931451082229614,1.9674696788215327,2.2976877758823164,0.016029052863834516
6.940952301025391,1.9715730518730028,2.298232644512775,-0.006376816834392099
6.952000856399536,1.9762626210746828,2.2987700882153708,-0.02119228687905645
6.9620232582092285,1.9803659941261529,2.299302866987752,-0.030494401484202186
6.971362829208374,1.9840785697441496,2.299833517315,-0.03588788104500818
6.9800190925598145,1.9875957466454097,2.3003643005332917,-0.03856736443245688
6.9894797801971436,1.991503720980143,2.300896057019647,-0.039401030835359716
6.998108863830566,1.9950208978814032,2.301427270321132,-0.039009135182606305
7.005940198898315,1.9981472773491897,2.3019566357514716,-0.03782895909977678
7.0158140659332275,2.0022506504006596,2.3024862883776103,-0.03616524266496641
7.024920225143433,2.0059632260186566,2.3030190299137248,-0.03422794944747923
7.037036657333374,2.0108481939370733,2.3035559572615347,-0.032159914823862976
7.045302867889404,2.014169972121597,2.3040988441048547,-0.030056789068140497
7.053015470504761,2.0169055541559104,2.3046480089852164,-0.027981276392662728
7.061978816986084,2.020618129773907,2.3052015111496122,-0.025973227220645916
7.071013450622559,2.024330705391904,2.3057586539193813,-0.024056751912752323
7.081156253814697,2.028238679726637,2.3063198611417004,-0.02224521267466316
7.090430498123169,2.031755856627897,2.3068855513212796,-0.020544712754225314
7.100506782531738,2.0362500271128408,2.3074561978835177,-0.01895652592585037
7.10805869102478,2.0391810078638906,2.3080312304756827,-0.017478781099434043
7.11691689491272,2.043088982198624,2.308609198834568,-0.016107624741467617
7.1269941329956055,2.047192355250094,2.3091913549342844,-0.014838018081384796
7.135931730270386,2.0505141334346177,2.3097800498685004,-0.01366427947257286
7.146971940994263,2.0546175064860877,2.3103750158562844,-0.012580449358173613
7.155293703079224,2.058134683387348,2.310976106589994,-0.011580532108476309
7.165404558181763,2.0624334551555545,2.311584431645693,0.26537970698523267
7.175880670547485,2.0665368282070244,2.312200949119948,0.2993538081225561
7.185940504074097,2.070444802541758,2.312826474283376,0.24503904792432446
7.193996906280518,2.0737665807262813,2.313461654002282,0.1696746102385432
7.202932119369507,2.077283757627541,2.3141056632163783,0.09981532423929318
7.211921691894531,2.080996333245538,2.3147563903198467,0.043804177532102355
7.2238922119140625,2.0860766998806914,2.315414348538136,0.002368599420912325
7.2339394092559814,2.089984674215425,2.3160821174175616,-0.02652930895436026
7.242977142333984,2.0938926485501583,2.316759027128241,-0.32161949305443654
7.250922679901123,2.097214426734682,2.3174416818238632,-0.09042030168507222
7.262505769729614,2.101708597219625,2.3181288989740154,-0.008637093833052875
7.270404100418091,2.1044441792539383,2.318820325984113,0.009599002960491015
7.27993369102478,2.108352153588672,2.3195131531892454,0.003792883566839985
7.2899158000946045,2.1122601279234052,2.3202044977039953,-0.00869718135702296
7.3004913330078125,2.1163635009748756,2.3208924743876174,-0.020861998229852536
7.31071400642395,2.120271475309609,2.321575121155569,-0.03036042604564352
7.320173501968384,2.1239840509276053,2.3222504741087815,-0.03683125018748677
7.32892918586731,2.127892025262339,2.3229166341784637,-0.04065575435712877
7.336894750595093,2.131213803446862,2.3235705339376573,-0.04241361865126436
7.3471839427948,2.1351217777815954,2.3242088865822548,-0.04266306726567277
7.3560521602630615,2.138638954682856,2.3248303016008336,-0.04186745398733329
7.371925354003906,2.145087112335166,2.325434868012164,-0.040384087854618764
7.380974769592285,2.148799687953163,2.3260238507140483,-0.038476495813689185
7.39198112487793,2.1534892571548427,2.326597864917798,-0.03633302756834671
7.401336669921875,2.1572018327728397,2.3271564619348846,-0.03408486982100818
7.410098075866699,2.160523610957363,2.32769956243301,-0.03182113358813251
7.420875787734985,2.1648223827255695,2.328227462223416,-0.029600637364112645
7.428975343704224,2.1677533634766197,2.328740131961533,-0.02746075105720207
7.4389636516571045,2.1718567365280896,2.3292379981635816,-0.025423870529107342
7.447920799255371,2.1755693121460866,2.329722520549991,-0.023502078715866646
7.456606864929199,2.179281887764083,2.3301946446464465,-0.02170046096874426
7.464370965957642,2.18240826723187,2.330655702817795,-0.020019441111180328
7.471951723098755,2.1855346466996566,2.331107187501931,-0.018456414253633917
7.482757806777954,2.18944262103439,2.3315499288481085,-0.017006879274049966
7.496472597122192,2.1951091838197536,2.3319867690080924,-0.29170357745259545
7.503868103027344,2.1980401645708034,2.3324221614781093,-0.3235881874461406
7.511938571929932,2.201361942755327,2.3328572156157192,-0.26734617089590845
7.520317792892456,2.20468372093985,2.333290242463998,-0.19020520969237656
7.528232097625732,2.207810100407637,2.3337220668866747,-0.11870910842291128
7.536579608917236,2.2109364798754236,2.334155617280644,-0.061190401992285676
7.5443902015686035,2.2142582580599472,2.3345935190881217,-0.018366686097717834
7.551939487457275,2.217189238810997,2.3350369439287033,0.287847496736084
7.560466289520264,2.2205110169955207,2.335485792573042,0.3412001855464672
7.570021390914917,2.2244189913302543,2.3359409918461718,0.2989000601808059
7.579184055328369,2.228131566948251,2.3364041976134136,0.23024995174770096
7.587974548339844,2.2316487438495107,2.336876484053154,0.16339566994817334
7.597962141036987,2.235752116900981,2.337357418830358,0.10786120982725311
7.606900930404663,2.2396600912357143,2.337845309728025,-0.21080941448672758
7.614969968795776,2.2429818694202375,2.3383392973446284,-0.27509439239880673
7.62446665763855,2.2466944450382345,2.3388383126510903,-0.24195191365733631
7.632949113845825,2.249820824506021,2.339340192764214,-0.45686980154915735
7.642890453338623,2.2539241975574913,2.339843559534155,-0.4293079315001225
7.651910066604614,2.257245975742015,2.3403476614482073,-0.3237526395255239
7.661518096923828,2.2611539500767477,2.3408514720311464,-0.20925393949168467
7.671260356903076,2.265061924411482,2.341353796545764,-0.11111916779531911
7.679940938949585,2.268774500029478,2.341853344327702,-0.03556575763235918
7.690321922302246,2.2726824743642116,2.3423488081849015,0.01878809527743018
7.697947978973389,2.275613455115262,2.342838387394751,0.055763001555516126
7.708380699157715,2.279521429449995,2.3433204022293848,0.07944749880670118
7.715959787368774,2.2826478089177815,2.3437938900452115,0.09339905988778502
7.724981784820557,2.286360384535779,2.344257524902397,0.10044503019804382
7.734307527542114,2.2902683588705117,2.34470972324807,0.10272332555877783
7.745754718780518,2.295153326788929,2.345149726511247,0.10180087356054329
7.75385046005249,2.2982797062567153,2.3455774974885126,-0.1772369233690542
7.761864423751831,2.301601484441239,2.345992701439543,-0.21464547719080834
7.770851135253906,2.3053140600592354,2.3463952343061028,0.11147231589935558
7.780482053756714,2.309026635677232,2.346785674131095,0.21530718453850062
7.787930011749268,2.3119576164282822,2.347164715809196,0.2252546402484348
7.798204660415649,2.316060989479752,2.347533144048297,0.2003772767273909
7.8069374561309814,2.3195781663810124,2.347891300498837,0.16660849316221846
7.815608978271484,2.3230953432822723,2.348239121463008,0.13439343930227274
7.82291579246521,2.3260263240333225,2.34857668464873,0.10718682536912913
7.833290338516235,2.329934298368056,2.3489041739820817,0.08547594383534682
7.8419506549835205,2.3332560765525794,2.349222320254407,-0.20740431537922638
7.851977825164795,2.3373594496040493,2.349532269409188,-0.25342665349296145
7.8606390953063965,2.3404858290718358,2.3498349893692274,-0.20817537692870164
7.869943857192993,2.344003005973096,2.35013128960895,-0.4156719941407754
7.87990140914917,2.3475201828743564,2.350421840530368,-0.6601410119489586
7.888362407684326,2.3508419610588795,2.3507072117256014,-0.8621443372221733
7.896698474884033,2.353577543093193,2.350987501808603,-1.2777857053291712
7.906917333602905,2.3570947199944534,2.351262424506022,-1.6679132348243109
7.91577410697937,2.35963490331203,2.3515322558784306,-2.5077628382218773
7.925481796264648,2.3621750866296063,2.3517977918181665,-3.0267200110331944
7.934900522232056,2.36432447251371,2.3520598389991605,-3.859504037586494
7.944867372512817,2.36666925711455,2.352319216661339,-5.0
7.9542577266693115,2.3684278455651797,2.3525767548682355,-5.0
7.9637346267700195,2.3701864340158103,2.3528332782226213,-5.0
7.972020387649536,2.371554225032967,2.3530890771471378,-5.0
7.981006383895874,2.3729220160501234,2.353343952600905,-5.0
7.99008846282959,2.374094408350543,2.3535982794632373,-5.0
7.998033761978149,2.3748760032174903,2.353852383400075,-5.0
8.007887363433838,2.3758529968011737,2.35410552501287,-5.0
8.017898321151733,2.3764391929513833,2.354357588758983,-5.0
8.025967836380005,2.376829990384857,2.3546094761477594,-5.0
8.036107540130615,2.3772207878183305,2.354861922479626,-5.0
8.04587459564209,2.3774161865350667,2.355116028767266,-4.868035736805984
8.055822610855103,2.3774161865350667,2.355372208085395,-5.0
8.064887285232544,2.3772207878183305,2.3556297775638315,-4.371329879367833
8.075918436050415,2.376829990384857,2.3558886173678464,-4.365981199498235
8.088867902755737,2.3764391929513833,2.3561495517177584,-3.9578897789781124
8.098949909210205,2.3758529968011737,2.3564131933395314,-3.174119528840949
8.109980583190918,2.375266800650963,2.356679396786657,-2.1041692490683674
8.119314908981323,2.3746806045007536,2.356948245240326,-1.1201095219211261
8.127764701843262,2.3738990096338064,2.3572195678435413,-0.33723658661419
8.137927770614624,2.3729220160501234,2.357492517840698,0.5121935427299036
8.146831274032593,2.3721404211831767,2.3577661164141452,0.9394786817871501
8.155108451843262,2.3713588263162304,2.358039265672856,1.690451932727081
8.165761709213257,2.3701864340158103,2.3583108160009054,2.106644055143238
8.175998210906982,2.369209440432127,2.3585796468447575,2.3106804222539363
8.184462070465088,2.368037048131707,2.3588447199834595,2.655945921016892
8.193845510482788,2.3670600545480234,2.359104887234048,2.9492154043547063
8.20542311668396,2.3656922635308666,2.359359193320872,3.1346303840391814
8.214885473251343,2.3645198712304465,2.3596073557345196,3.2124718027987655
8.228019714355469,2.3633474789300264,2.35984948849843,3.4783733634213103
8.2368483543396,2.36256588406308,2.3600855900979667,3.9886068725230617
8.246169328689575,2.361784289196133,2.3603153065267177,4.432707619835508
8.256205081939697,2.3610026943291866,2.3605385114776047,4.993980344103094
8.265358924865723,2.360416498178977,2.360755547715554,5.0
8.272919654846191,2.360025700745503,2.3609666020123163,5.0
8.281231880187988,2.35963490331203,2.3611717453366388,5.0
8.288861513137817,2.35904870716182,2.361371232413928,5.0
8.297260284423828,2.3586579097283464,2.3615654793284686,5.0
8.305696964263916,2.358267112294873,2.361755455588972,5.0
8.31541109085083,2.3578763148613997,2.361942611626289,5.0
8.323947668075562,2.3574855174279263,2.3621279549456564,5.0
8.33286166191101,2.3574855174279263,2.362312044443368,5.0
8.345746278762817,2.3570947199944534,2.3624963936236485,5.0
8.356323003768921,2.3568993212777163,2.3626832526825647,4.660521711258189
8.364168882369995,2.3567039225609796,2.3628739769548233,4.35797700898525
8.375175476074219,2.356508523844243,2.363069067951439,3.7964743312006535
8.383976697921753,2.3563131251275062,2.363268710206714,3.2127150021059663
8.394178628921509,2.3561177264107696,2.3634727544987926,2.694150723792144
8.402836799621582,2.3559223276940333,2.363680403759519,2.2627766560238847
8.410924911499023,2.3557269289772966,2.363890317993025,1.638247229376298
8.421897172927856,2.3557269289772966,2.364101341645841,1.326561761158769
8.430936098098755,2.35553153026056,2.364312446094738,0.8828751857044688
8.43968152999878,2.3553361315438233,2.364522377459651,0.4703902008277898
8.448107719421387,2.3551407328270866,2.3647297022113793,0.14067959283374074
8.456640243530273,2.3549453341103495,2.3649328249024872,-0.10142080539924044
8.465923070907593,2.3545545366768765,2.3651300716632018,-0.2680945907600926
8.47421383857727,2.3545545366768765,2.3653198390395436,-0.3755958524684423
8.484383583068848,2.35435913796014,2.3655005730104093,-0.43911117160648
8.492927312850952,2.3539683405266665,2.365670795387374,-0.47112577254136656
8.500838994979858,2.3537729418099302,2.3658285838850355,-0.4812608587667145
8.509922981262207,2.353577543093193,2.3659496224363155,-0.4766499445675808
8.519922733306885,2.3531867456597197,2.3659661128629956,-0.7384854522734625
8.527912855148315,2.352991346942983,2.3658042830443464,-0.7514677762626769
8.537070512771606,2.3527959482262464,2.3653904280911004,-0.6728351202220288
8.545907020568848,2.3526005495095093,2.3646408926585964,-0.5715686238168173
8.553944110870361,2.352405150792773,2.3635154373254688,-0.47539584164541077
8.56250262260437,2.3522097520760363,2.361992251340722,-0.669469673648792
8.57108449935913,2.351818954642563,2.3600115421466046,-0.6360568915733468
8.583775758743286,2.3516235559258263,2.3574723308882737,-0.5281091656599701
8.591895341873169,2.351428157209089,2.3542820845666634,-0.4103339457664027
8.60187315940857,2.3510373597756162,2.3504061564127645,-0.3068475572417939
8.614203453063965,2.350646562342143,2.3457810623333097,-0.2239424155507658
8.623457908630371,2.350451163625406,2.340294940898765,-0.16072910327483683
8.63270616531372,2.35025576490867,2.3338808602900216,-0.11393834016369742
8.6417977809906,2.3498649674751966,2.326546805481622,-0.079958622792773
8.650814294815063,2.3494741700417228,2.318338906369412,-0.3316390646558347
8.661181926727295,2.3486925751747765,2.3092412574352426,-0.6235031250623968
8.669760704040527,2.347715581591093,2.2992194395714165,-0.865370101661967
8.679090738296509,2.3469339867241463,2.288321601615344,-1.5868755698591919
8.686912775039673,2.3457615944237262,2.276633338265467,-2.30669608655507
8.697975873947144,2.344003005973096,2.264238882469857,-3.1375661573353204
8.707138299942017,2.3422444175224664,2.25115942976035,-4.36075479655183
8.71683406829834,2.340095031638363,2.237393979082684,-5.0
8.725155115127563,2.33794564575426,2.2230159170500943,-5.0
8.73645567893982,2.334623867569736,2.2081002592066628,-5.0
8.745901823043823,2.330911291951739,2.192691887016908,-5.0
8.755057096481323,2.3273941150504793,2.1768394209572866,-5.0
8.763890027999878,2.323876938149219,2.1605934108755727,-5.0
8.773925304412842,2.319773565097749,2.1440049119469773,-5.0
8.78180980682373,2.316451786913226,2.1271511753499612,-5.0
8.791212558746338,2.3125438125784923,2.1101301805295676,-5.0
8.80304479598999,2.3076588446600756,2.0929762403742633,-5.0
8.811877012252808,2.304141667758816,2.0756954924046784,-5.0
8.8218252658844,2.300038294707345,2.058348946526874,-3.623952874533485
8.82992959022522,2.296716516522822,2.0409904817309457,-1.8676635232463812
8.840284824371338,2.2922223460378786,2.023640307586546,0.2518575296467518
8.849900960922241,2.2881189729864087,2.0063149045443147,2.0826079000515434
8.857839822769165,2.2846017960851484,1.9890527636822175,3.7235786051962405
8.867805242538452,2.2803030243169418,1.9719101061081827,4.946972880887362
8.876816987991333,2.2767858474156815,1.9549046226676805,5.0
8.885603427886963,2.2730732717976845,1.9380208345895087,5.0
8.896714687347412,2.268774500029478,1.9212416049730323,5.0
8.907508373260498,2.2640849308277984,1.9045488352428894,5.0
8.920055389404297,2.258809165475908,1.887896055533106,5.0
8.92990517616272,2.2549011911411747,1.8712134715474134,5.0
8.939453601837158,2.2511886155231777,1.854468589052863,5.0
8.948904275894165,2.247476039905181,1.8376613090157463,4.982089815660599
8.956810474395752,2.2439588630039213,1.8208199848287074,4.8122703198421615
8.965801477432251,2.2400508886691877,1.8039972747842508,4.568054486094804
8.975387334823608,2.2361429143344544,1.7872094774254421,4.291467386113152
8.986005544662476,2.231453345132774,1.7704428280013638,4.005510678767266
8.995208740234375,2.227545370798041,1.7537152090624097,3.7228026041005724
9.004538774490356,2.2236373964633076,1.7370713825191306,3.450181492094101
9.013862133026123,2.21992482084531,1.7205501860965695,3.1912042154402798
9.025444269180298,2.2152352516436307,1.7041596357261626,2.9475314857489554
9.0328688621521,2.2121088721758437,1.6878821911122526,2.71971426099194
9.045458793640137,2.2070285055406904,1.6717076583415869,2.5076512103956503
9.053857564926147,2.2037067273561672,1.655632559392406,2.310861168967726
9.062788009643555,2.1999941517381703,1.6396824951814284,2.128648810335708
9.07089877128601,2.1966723735536466,1.6238856189710067,1.9602070279799662
9.082811117172241,2.1913966082017566,1.6082283280630187,1.5286424658183435
9.0949547290802,2.1867070390000767,1.5926689569080368,1.3520442854588277
9.102898597717285,2.1833852608155535,1.577201713171553,1.2748744028824142
9.110887289047241,2.179868083914293,1.561886571612093,1.229084217047034
9.120831966400146,2.1755693121460866,1.5467802272688422,0.9113110585877054
9.128889322280884,2.1720521352448263,1.5319318494051495,0.8314389100264721
9.137842178344727,2.16833955962683,1.5174003547391606,0.8333693279586913
9.147838354110718,2.164431585292096,1.5032204165438634,1.1273113206379137
9.156428337097168,2.1609144083908363,1.4894058641178107,1.1698659662501936
9.164920806884766,2.1575926302063126,1.475967857700711,0.8333117521669594
9.175364971160889,2.153293858438106,1.462914231625542,0.7046684045902112
9.184927940368652,2.1491904853866357,1.4502488765457908,0.9349969308918362
9.19593620300293,2.1445009161849558,1.4379711611649917,0.9498936577354913
9.206835746765137,2.139811346983276,1.4260619742468121,0.8811922431606389
9.215150356292725,2.1364895687987526,1.4144991017250312,0.788051188900285
9.22283411026001,2.1333631893309657,1.4032979475572835,0.6952807567039105
9.234899520874023,2.128478221412549,1.3924641010375802,0.6119126778489545
9.242801189422607,2.1247656457945525,1.3819678693767776,0.5400691396181794
9.25076937675476,2.121443867610029,1.3717918132877804,0.4791059460568
9.260134935379028,2.1175358932752952,1.3619139436557341,0.42747995890297963
9.267799377441406,2.1146049125242454,1.352310054911856,0.38353973026480653
9.2803955078125,2.109524545889092,1.3429529024545002,0.3458204825466942
9.28963041305542,2.105811970271095,1.333781481866356,0.31312120196079196
9.300172805786133,2.101708597219625,1.3247386540567594,0.28449375967915036
9.30930233001709,2.0979960216016282,1.3157874582781428,0.2592027382489658
9.317823886871338,2.094674243417105,1.3069106247986093,0.2366809055456347
9.327215909957886,2.090375471648898,1.2980911539038074,0.21648972895940238
9.334855794906616,2.087053693464375,1.2893133260376128,0.19828747044680378
9.346674919128418,2.0819733268292215,1.2805806987706825,0.18180462302588743
9.355947017669678,2.0782607512112246,1.2718618569954987,0.16682551151022285
9.36483383178711,2.074548175593228,1.2631144981802482,0.15317472800587945
9.372841358184814,2.071030998691968,1.254339345053207,0.14070721825094312
9.382873058319092,2.066927625640498,1.245541015675949,0.12930106287775556
9.393872499465942,2.0626288538722912,1.2366960558231723,0.1188522203818138
9.401822328567505,2.0591116769710314,1.2278045082932973,0.10927068606200226
9.41093134880066,2.0555945000697706,1.2189021236757949,0.10047766826297817
9.422138929367065,2.0507095321513544,1.2100097309949707,0.09240349414626986
9.431862592697144,2.047192355250094,1.2011361517231325,0.08498603884770649
9.440425872802734,2.043675178348834,1.192294633961624,0.07816953104911374
9.44988203048706,2.0393764065806272,1.1835015524086878,0.3479419901333246
9.460130214691162,2.034882236095684,1.174774935310368,0.3753056657675684
9.469271183013916,2.0311696604776874,1.1661329054925411,0.3149109467711757
9.476788997650146,2.0280432810099005,1.1575922295372711,0.23395408995174188
9.484832525253296,2.0251123002588503,1.1491771768269596,0.15895057846963367
9.492861270904541,2.0215951233575904,1.1409271911594416,0.09820730442604267
9.501740455627441,2.017882547739594,1.1328734780738468,0.05241856125285728
9.510365962982178,2.0143653708383336,1.1250296285806292,0.01951601548776009
9.519641160964966,2.0106527952203366,1.117403905266232,-0.0032198832023407013
9.531900882720947,2.00576782730192,1.1099789840055383,-0.018323662184735447
9.54283094406128,2.00107825810024,1.1027054093102042,-0.027880296668470254
9.551510572433472,1.9973656824822434,1.0955489922570336,-0.033500426511648675
9.560479640960693,1.9938485055809834,1.088510438549392,-0.036383172072174334
9.569063186645508,1.9903313286797228,1.0815885949629378,-0.03740016017240637
9.57675051689148,1.9870095504951997,1.0747808114461066,-0.03717434470931763
9.586862564086914,1.9827107787269929,1.068093668449119,-0.036145159300201374
9.595895767211914,1.978998203108996,1.0615199856997617,-0.034619092084723815
9.60541820526123,1.9746994313407895,1.0550408577964792,-0.03280755259346203
9.612793684005737,1.9715730518730028,1.0486493312613347,-0.03085459290158926
9.622786045074463,1.9672742801047958,1.0423377168198968,-0.02885690313182314
9.630919694900513,1.9641479006370093,1.0360870719220423,-0.026878088495549127
9.639851808547974,1.9604353250190127,1.0298915633016312,-0.02495878937129162
9.650144338607788,1.956527350684279,1.0237457005710242,-0.023123815603083516
9.657780408859253,1.9534009712164924,1.0176444598184426,0.2546512058504739
9.665859699249268,1.9496883955984958,1.01159434883003,0.013369134755052567
9.67512059211731,1.9457804212637622,1.0055895606790985,-0.07332779657147731
9.684790849685669,1.9420678456457654,0.9996247169302208,-0.09289596238149245
9.692747831344604,1.938746067461242,0.9937165834460305,0.19002239703585086
9.700767040252686,1.9354242892767186,0.9878786740116536,0.23826830084412493
9.710747480392456,1.9313209162252487,0.9820999601393418,0.1989237326125471
9.719251155853271,1.927608340607252,0.9763598920503854,0.1364634155568228
9.727580308914185,1.9242865624227286,0.9706412003129377,0.07678972663358924
9.737136125564575,1.919987790654522,0.9649297321307314,0.028429856144818872
9.74497103691101,1.9168614111867353,0.9592142186702487,-0.007439747688912408
9.75591230392456,1.9123672407017918,0.953486006002509,-0.03238298395900523
9.76375699043274,1.9090454625172686,0.947748962050377,-0.04868011917483739
9.773832082748413,1.9051374881825347,0.9420073075677851,-0.05851259273005483
9.783320665359497,1.9012295138478013,0.9362550861608576,-0.06369312414234235
9.792607069015503,1.897321539513068,0.9304979776224785,-0.06562711172650709
9.802765130996704,1.8932181664615981,0.9247414135619914,-0.06536072921632351
9.81181788444519,1.8893101921268645,0.9189804302783475,-0.06365211146215212
9.821787118911743,1.8850114203586577,0.9132114886021333,-0.06103990599514669
9.830284595489502,1.8812988447406611,0.907432426877942,-0.057900585451368
9.838220596313477,1.8779770665561377,0.9016424294190748,-0.0544931977307732
9.846791744232178,1.8744598896548776,0.8958512986851916,-0.05099297767339401
9.854836702346802,1.871333510187091,0.8900776572938267,-0.04751599168231829
9.86582350730896,1.866643940985411,0.8843287150800606,-0.044136922498852066
9.875664234161377,1.8623451692172042,0.8786023247352798,-0.040901762602171876
9.885834455490112,1.8584371948824707,0.8728979393315551,-0.03783680072506326
9.894086837768555,1.8551154166979473,0.8672160683494239,-0.03495494375822322
9.903871536254883,1.8512074423632139,0.8615576151961902,-0.032260140071060615
9.911839485168457,1.8478856641786905,0.8559319322744583,-0.02975045855958236
9.921415567398071,1.8441730885606937,0.8503551152052913,-0.027420220373216966
9.930749893188477,1.8400697155092236,0.8448314366237846,-0.025261465548508708
9.94074559211731,1.8359663424577535,0.8393551124800008,-0.023264954196296546
9.950109958648682,1.8318629694062836,0.8339207148980952,-0.021420842948859507
9.959355592727661,1.8279549950715501,0.8285235816930766,-0.019719135556723503
9.966774463653564,1.8248286156037634,0.8231683726048253,-0.018149976983802933
9.975314617156982,1.82150683741924,0.817867577387506,-0.016703839535782285
9.983783483505249,1.81798966051798,0.8126235578540597,-0.015371634930637312
9.992768287658691,1.8142770848999832,0.8074383168295518,-0.014144775956721522
10.00342059135437,1.8097829144150397,0.8023140343359513,-0.013015204169691486
10.011790990829468,1.8062657375137796,0.7972524344372031,-0.011975395046271457
10.020772457122803,1.8023577631790462,0.7922703780648304,-0.01101834849338177
10.029809713363647,1.7990359849945228,0.7873740846011446,-0.010137570151427907
10.038646697998047,1.7951280106597896,0.7825529124196692,-0.28536540689506273
10.048850297927856,1.791220036325056,0.777797708183476,-0.31774418415368916
10.057165145874023,1.787702859423796,0.7730933680609348,-0.2619606663691263
10.066032648086548,1.7843810812392726,0.7684271397511496,-0.18524422996334386
10.073841094970703,1.7810593030547492,0.7638101014663031,-0.11414058591900061
10.086230278015137,1.7753927402693859,0.7592519476594548,-0.3330226260311677
10.095660209655762,1.771289367217916,0.7547397772735932,-0.32365783762929573
10.104394912719727,1.767772190316656,0.7502631983309552,-0.23869298619079393
10.112706899642944,1.7644504121321325,0.745827676564052,0.13337443928525994
10.122853994369507,1.7603470390806621,0.7414382277794439,0.2495572298108091
10.130742073059082,1.7572206596128757,0.7370989522870831,-0.01776260875408127
10.140606880187988,1.753312685278142,0.7328259381567944,-0.0815280135749353
10.150742530822754,1.7488185147931987,0.728625760848505,0.20938323202740483
10.160549402236938,1.7447151417417284,0.7244901143424487,0.280676263938427
10.17271614074707,1.7396347751065753,0.7204107696483862,-0.011699919868130293
10.18070673942566,1.7363129969220519,0.7163793135595717,-0.08944735749544168
10.189793109893799,1.7327958200207916,0.7123870855114111,-0.08223895741379139
10.202368259429932,1.7275200546689018,0.7084182846603762,-0.04805750611647681
10.209836721420288,1.7245890739178515,0.7044583221270974,-0.011108518000883801
10.21907091140747,1.720876498299855,0.7005080037046547,0.01984461144434293
10.230008602142334,1.7161869290981746,0.6965602509256543,0.04274784446574313
10.24016785621643,1.711888157329968,0.6925946023265387,0.05819442243100291
10.247737169265747,1.708761777862181,0.6886011530452428,0.06760677458566736
10.256720542907715,1.7048538035274479,0.6845864185649596,0.07247647782487249
10.265974283218384,1.701336626626188,0.6805637647311483,0.07408848676394235
10.27474069595337,1.6980148484416642,0.6765384091403106,0.07345617459885473
10.283792734146118,1.6943022728236676,0.6725154607551639,0.3473782159330019
10.292707443237305,1.690589697205671,0.6685068630151695,0.37745467297061885
10.30083680152893,1.6870725203044108,0.664516927262332,0.3187688689518918
10.309945344924927,1.6833599446864143,0.6605435780962824,-0.037211666469508964
10.319934129714966,1.679256571634944,0.656585980451795,0.13123845568246575
10.327757835388184,1.6759347934504207,0.6526441236546114,0.15893650521738284
10.338836908340454,1.6714406229654772,0.6487183066954703,0.13414251989528786
10.347744703292847,1.6677280473474807,0.6448147730049483,-0.1804911133569569
10.356822490692139,1.6640154717294837,0.6409444305759324,0.0255698897928697
10.365731000900269,1.6603028961114872,0.637109517271237,0.08379777690950865
10.375194787979126,1.6560041243432801,0.6333045282830193,0.0823545287884123
10.384053468704224,1.6526823461587568,0.629523272088337,0.060983137918262625
10.39181137084961,1.649751365407707,0.6257656416818665,0.036523651693247006
10.40163516998291,1.6458433910729737,0.6220368043855611,0.015278817326408565
10.410704612731934,1.64193541673824,0.618333030476072,-0.0010777264203277641
10.418755769729614,1.6386136385537167,0.6146429835364823,-0.012739564558467332
10.428936243057251,1.6345102655022465,0.6109556339968246,-0.020521083469710617
10.436694860458374,1.6311884873177231,0.6072678454035921,-0.02532839799512389
10.444876432418823,1.6278667091331998,0.6035835611634263,-0.02796068817249659
10.453213930130005,1.6245449309486766,0.5998980897343931,-0.029056957118086067
10.462710857391357,1.6204415578972062,0.5961992650588163,-0.029101652641872387
10.474452257156372,1.6157519886955263,0.5924759737613944,-0.028450029542709487
10.483703136444092,1.6120394130775293,0.588726071556445,-0.027356599881198755
10.492218971252441,1.6087176348930061,0.5849551781388617,-0.02600038094378132
10.50045895576477,1.6050050592750094,0.5811597776132643,0.25153313879236394
10.51071572303772,1.600510888790066,0.5773287457767696,0.010169263613060614
10.520686626434326,1.5966029144553326,0.5734527556420803,-0.07650410792971975
10.529719352722168,1.5928903388373359,0.5695244210251799,-0.09598114741323478
10.54238486289978,1.588005370918919,0.5655304652366202,-0.08896855670283307
10.550705194473267,1.584488194017659,0.5614610165487283,-0.07369107462455247
10.560189962387085,1.5805802196829255,0.5573252901891663,-0.05777072622520356
10.567938089370728,1.577453840215139,0.5531329338183891,-0.04397499235156788
10.57668423652649,1.573741264597142,0.5488935835042441,0.24308148579560268
10.58791971206665,1.569051695395462,0.5446175597323583,0.28463185524269874
10.596686363220215,1.565534518494202,0.5403079760347999,0.23581910523052013
10.605684041976929,1.5622127403096786,0.5359764270716296,0.1643540239919894
10.613726377487183,1.5588909621251552,0.5316414602212294,0.09720100924599354
10.62277865409851,1.5549829877904218,0.5273199160551784,0.043029140601384644
10.632569313049316,1.5508796147389516,0.5230208567161014,0.0028135063566547963
10.641644954681396,1.5467762416874815,0.5187469206638317,-0.30133937165963515
10.650171279907227,1.5434544635029583,0.5145020271981584,-0.3530365632088134
10.658087730407715,1.5399372866016983,0.5102964861721624,-0.03334575888405905
10.667852640151978,1.5360293122669648,0.5061455825818479,0.06955251671835055
10.676175355911255,1.5327075340824412,0.50205750025797,0.08225829550704382
10.683717489242554,1.529385755897918,0.4980393301033403,0.0625208928058907
10.691711664199829,1.5260639777133946,0.49411214291287414,0.035336641464522214
10.700695991516113,1.5227421995288712,0.4902981438903067,0.010495472918200143
10.709797382354736,1.518834225194138,0.4866006230396068,-0.008997346619204203
10.719724178314209,1.5149262508594041,0.4830121508093174,-0.022956393904256512
10.728840112686157,1.5108228778079342,0.4795261405701204,-0.03220587081307367
10.737741231918335,1.5073057009066742,0.4761365269220869,-0.037794994998244374
10.7457115650177,1.5041793214388874,0.4728418384122209,-0.040690012071306174
10.757023811340332,1.499294353520471,0.46964434737639327,-0.04167919326547486
10.764694690704346,1.4963633727694208,0.46654499211734246,-0.041366600560628825
10.773601293563843,1.4924553984346873,0.46354357442783434,-0.04019783006746657
10.785704612731934,1.4875704305162705,0.4606349050676032,0.23754529691938192
10.795411109924316,1.4828808613145905,0.45780977843104365,0.27268526932793724
10.804270505905151,1.4791682856965935,0.4550600151866245,0.21975820797273798
10.813882827758789,1.475455710078597,0.4523784490114373,-0.1301457547712982
10.825751543045044,1.4709615395936537,0.44975525860463045,-0.23159441810522774
10.835648536682129,1.46705356525892,0.44717860462053155,0.04505226370033613
10.846146821975708,1.4625593947739768,0.4446389961728304,0.114303790254636
10.855168342590332,1.4588468191559802,0.44213232247128614,-0.17379371838903346
10.864492893218994,1.4549388448212468,0.43966209760635466,0.03194315425394263
10.876373052597046,1.4504446743363033,0.43722799667727746,0.08118301433924283
10.884790420532227,1.4469274974350432,0.43482622266129956,0.06970106679269342
10.892797946929932,1.4438011179672565,0.43245998741954544,0.04001185442105046
10.90065336227417,1.4404793397827331,0.43013173989264963,0.009620710873356916
10.910367250442505,1.4361805680145263,0.4278367005040451,-0.015337585769513393
10.920085191726685,1.4320771949630564,0.42556726474773343,-0.033620378317664415
10.930978775024414,1.427583024478113,0.4233166750540185,-0.04587648342332188
10.939045190811157,1.4242612462935895,0.4210821487921675,-0.32935117708006467
10.948705911636353,1.4205486706755925,0.4188674913586531,-0.36630749065187523
10.956740856170654,1.4172268924910691,0.4166788009833006,-0.31246749636975785
10.965256929397583,1.4139051143065458,0.41452080170052136,0.04016727976283224
10.975709676742554,1.4096063425383392,0.4123937017518032,-0.1305453585285144
10.9885413646698,1.404330577186449,0.4102905805438297,-0.15973555900793757
10.99981951713562,1.3996410079847688,0.408201861434441,-0.1358925697127524
11.008952140808105,1.3959284323667722,0.40612245685306686,-0.09787235043969544
11.016679286956787,1.3928020528989855,0.4040544583277739,-0.06133643657032162
11.028707027435303,1.3881124836973056,0.4019991928941071,-0.03148425543725763
11.038247346878052,1.3842045093625719,0.39995043629597077,-0.009078339595377103
11.047004461288452,1.3804919337445751,0.3979023942099514,0.006781694887949594
11.056662321090698,1.3761931619763685,0.39585671109617493,-0.25859919099530543
11.06708574295044,1.3716989914914248,0.39381423470892457,-0.28497573494822437
11.077554941177368,1.3674002197232182,0.3917716014235563,-0.2259616286290685
11.08636212348938,1.3638830428219582,0.3897292440759037,-0.147952873579482
11.094692707061768,1.3607566633541714,0.3876869449481357,-0.07687407061505126
11.103293657302856,1.3572394864529114,0.3856402366764684,-0.020609195938041697
11.110674142837524,1.3541131069851247,0.383588868486636,0.020442577993162757
11.120246648788452,1.3502051326503914,0.38153628290763564,0.0485505855012813
11.12936544418335,1.346297158315658,0.37948112572266984,0.06656757176867817
11.136841535568237,1.343170778847871,0.3774180718604667,0.07711321094449317
11.14871096611023,1.3382858109294544,0.37534253315449007,0.08232404638208667
11.157185316085815,1.335159431461668,0.3732547154066269,0.08383912772627838
11.1666841506958,1.3312514571269343,0.3711589375216077,0.08287024126422964
11.17611575126648,1.3271480840754641,0.369050680886679,0.08029116270124655
11.184680700302124,1.3234355084574676,0.36692626362032266,0.0767201332562212
11.195013523101807,1.3191367366892608,0.3647951273968538,0.07258754962276506
11.203578472137451,1.3158149585047374,0.36266128981488993,0.06818828583547434
11.211740732192993,1.3126885790369507,0.3605241343120254,0.06372075172816845
11.22598934173584,1.3068266175348506,0.35837930072145147,0.05931541703754441
11.23556900024414,1.3031140419168539,0.3562113669121355,0.05505533914583662
11.245685815811157,1.2990106688653837,0.35401219245083204,0.05099078467300437
11.255594730377197,1.295298093247387,0.3517840651284489,0.04714956467480873
11.264815330505371,1.2913901189126538,0.3495300551362981,0.043544295401042224
11.275065898895264,1.286505150994237,0.34725399370525656,0.040177471877765
11.284353971481323,1.2827925753762401,0.34496042423887807,0.0370449946930548
11.291661262512207,1.2800569933419268,0.34266104432703076,0.03413860775810819
11.30332350730896,1.2747812279900368,0.34037005288650535,0.3074859317867178
11.311652421951294,1.2716548485222499,0.3380933983655186,0.33812276832013627
11.322933912277222,1.26696527932057,0.33583361882844776,0.004689996040222272
11.335662364959717,1.2618849126854164,0.33358810206176115,0.16939947586044246
11.345796585083008,1.2577815396339465,0.3313526389853657,0.18514480630211216
11.355687618255615,1.2536781665824763,0.32913022730685815,0.14771033018431612
11.36468243598938,1.2501609896812165,0.3269266938882729,0.09849198285449491
11.373132705688477,1.246839211496693,0.3247472361688538,0.053648811192870335
11.380672693252563,1.2437128320289061,0.32259879969004546,0.018090862977799202
11.389660358428955,1.2398048576941727,0.3204920275788813,-0.007938323482331693
11.399296998977661,1.2358968833594395,0.3184355243179338,-0.025858443348228972
11.409048318862915,1.2315981115912327,0.31643113528779676,-0.037452319675977265
11.41963791847229,1.2274947385397625,0.31447741809934143,0.23168147843257553
11.428667068481445,1.2237821629217658,0.3125725865337377,0.26125562864909824
11.43762731552124,1.2202649860205057,0.3107145724689063,0.20493741615945532
11.447641134262085,1.215966214252299,0.30890110544958765,0.12920307425753602
11.457687616348267,1.2122536386343021,0.30712743528213304,-0.21598253292351208
11.466067552566528,1.2087364617330423,0.3053867928339766,-0.027677672407641976
11.474003791809082,1.2054146835485189,0.30367781991023446,0.020926967598928863
11.481663465499878,1.2024837027974689,0.30200603680219434,0.015062131388976583
11.491678714752197,1.1981849310292618,0.30037570262481866,-0.2834466625381227
11.501667022705078,1.194081557977792,0.29878518036173984,-0.3400304203748872
11.509625673294067,1.1907597797932685,0.2972299989915145,-0.027844677878327007
11.517674207687378,1.1876334003254816,0.2957081477167636,0.06806532910705079
11.52792763710022,1.1831392298405383,0.2942173576749406,0.07529486398125491
11.536626100540161,1.1796220529392785,0.29275273929961615,0.05169213684183389
11.547178268432617,1.175127882454335,0.2913095736540246,0.022025633848433524
11.55664849281311,1.1710245094028648,0.28988334268828736,-0.004221077007420025
11.564946413040161,1.167311933784868,0.28847231863384826,-0.024329086808212226
11.574989557266235,1.1634039594501346,0.28707459642539646,-0.03834796396546228
11.58476448059082,1.1598867825488746,0.2856856602184684,-0.047282378184081986
11.595636367797852,1.155588010780668,0.2843013908233898,-0.05231466809663278
11.60459280014038,1.1516800364459343,0.2829181222188702,-0.05450656288216175
11.614169120788574,1.1477720621112009,0.2815326806729198,-0.05471331167293655
11.623658418655396,1.1438640877764674,0.2801424278559931,-0.053585001443048105
11.63271188735962,1.1403469108752076,0.27874787781441795,-0.051598161134844965
11.640861511230469,1.1368297339739475,0.2773522469675863,-0.04909319586647825
11.649679899215698,1.1333125570726872,0.27595588556541367,-0.046308219411400856
11.65988278388977,1.128818386587744,0.274556813909137,-0.04340652624783709
11.668246984481812,1.1256920071199572,0.2731561822549616,-0.04049769369018718
11.676957845687866,1.1217840327852238,0.2717577659375287,-0.037653268109292794
11.68563985824585,1.1180714571672272,0.2703649909954316,-0.03491818321797546
11.69523811340332,1.1141634828324936,0.2689809775821267,-0.03231895395947314
11.703552484512329,1.111037103364707,0.26760634557462554,-0.0298694963262824
11.714668273925781,1.1067383315965003,0.26623965887675705,-0.027575228150919416
11.723214626312256,1.1032211546952402,0.2648801294375345,-0.025435939196458274
11.731144428253174,1.0998993765107168,0.2635275094788268,0.2525905724966387
11.740215301513672,1.09618680089272,0.262181983224892,0.011519926462475572
11.747697353363037,1.0930604214249333,0.2608459782918006,-0.07499646105216101
11.757643222808838,1.0889570483734634,0.25952185596328814,-0.09440830616314644
11.767939567565918,1.08446287788852,0.25820804914000006,0.18864702130357522
11.777926683425903,1.080164106120313,0.2569034727939522,0.23701414218727213
11.785646915435791,1.0772331253692629,0.25561106025607605,0.19777773787716865
11.794605016708374,1.0735205497512663,0.2543351082995708,0.13541458241901516
11.805807113647461,1.0690263792663228,0.2530774332036056,0.07582863763918385
11.8157057762146,1.064923006214853,0.2518376790421572,0.02754834055427332
11.827603578567505,1.0598426395796994,0.25061534375166666,-0.00824886161336097
11.836228370666504,1.0563254626784393,0.24940972335277325,-0.03312605246644472
11.848856687545776,1.0516358934767591,0.24821806647061034,-0.04936282078451676
11.857617616653442,1.048118716575499,0.24703764459913874,-0.059140033216526985
11.866709232330322,1.0444061409575025,0.24586740493489456,-0.06426991789250511
11.877087831497192,1.0401073691892957,0.24470398529595846,-0.0661574459279416
11.88519024848938,1.0367855910047723,0.24354601703291257,-0.06584841544723885
11.895080804824829,1.0324868192365655,0.24239572814934277,-0.06410062793024598
11.903486967086792,1.0289696423353054,0.2412525375151772,-0.06145243274069998
11.911651849746704,1.025647864150782,0.240115606650105,-0.05828003417371386
11.919631958007812,1.0225214846829955,0.2389859198863608,-0.05484223743681818
11.92949104309082,1.0184181116315254,0.23786176171381515,-0.05131405701997666
11.937601804733276,1.0152917321637385,0.2367414084632952,-0.04781135865308275
11.94948410987854,1.0100159668118485,0.2356230386796331,-0.04440864189223148
11.95914363861084,1.006107992477115,0.2345003007178623,-0.31719009136910725
11.968656301498413,1.0022000181423816,0.23337001152261158,-0.34722972619871584
11.978672742843628,0.9982920438076482,0.23223404045488186,-0.28923220937991073
11.987699031829834,0.9947748669063883,0.2310916378696595,-0.21043547141336044
11.998275518417358,0.9904760951381815,0.2299375280211685,-0.13738753879397042
12.008654356002808,0.9861773233699747,0.2287650242144439,-0.35445953790716234
12.016619443893433,0.9832463426189246,0.2275733961980047,-0.34341460107310673
12.0307137966156,0.9771889824000878,0.2263646506436179,-0.2568935736496974
12.0406653881073,0.9728902106318811,0.22513607636637453,-0.1594255173831675
12.04972791671753,0.9689822362971477,0.22388571127417808,-0.0750383423111321
12.060466289520264,0.9648788632456776,0.22261462341039104,-0.009996314139733828
12.072087287902832,0.959993895327261,0.22132411577304142,0.036578547146743745
12.080045938491821,0.9568675158594742,0.220015751348394,0.06791881448613853
12.08864426612854,0.9533503389582141,0.21869131358087207,0.08758386600627398
12.096640348434448,0.949833162056954,0.21735485207550276,0.09870213185164689
12.105685234069824,0.9463159851556939,0.21601227021104363,0.1037714366169325
12.113642454147339,0.9427988082544339,0.21466876867576462,0.10468455076966232
12.123493432998657,0.9388908339197005,0.21332889485963932,0.10282966524684797
12.132108688354492,0.9353736570184404,0.21199446004099012,0.09920195609482108
12.140052795410156,0.9324426762673904,0.21066492667166364,0.09450223900001153
12.147659063339233,0.9293162967996036,0.20933990196133367,0.08921625472766623
12.155653238296509,0.9259945186150802,0.20802325255146364,0.08367523437908152
12.165606498718262,0.9218911455636103,0.2067223641946486,0.07810078346768974
12.17435622215271,0.9183739686623502,0.20543911659348565,0.07263750418662297
12.182309627532959,0.9152475891945634,0.2041707180068382,0.06737639518367071
12.191647291183472,0.9113396148598301,0.20291467489943793,0.062371478978694835
12.200596332550049,0.9074316405250966,0.20166880094467368,0.057651533185778474
12.209100008010864,0.9041098623405732,0.20043122982724915,-0.22281004051062972
12.217614889144897,0.900592685439313,0.19920043509882246,-0.26006063922485745
12.226651668548584,0.8970755085380532,0.19797720699408686,0.06723939711012836
12.237289190292358,0.8931675342033197,0.19676428064588536,0.1728924985834056
12.245493173599243,0.889454958585323,0.195562041865701,0.1850264877683091
12.255483865737915,0.8851561868171162,0.1943689310062582,0.1625215469979849
12.267631769180298,0.8802712188986994,0.19318193989094404,0.1311885509644565
12.275869846343994,0.8769494407141761,0.19199872394185938,0.10139192777100658
12.287145614624023,0.8724552702292327,0.1908212280117474,0.07653467190554868
12.294843912124634,0.8693288907614459,0.18965307588142583,0.05707235487127796
12.304596662521362,0.8650301189932391,0.18849740445947274,0.04236018011873226
12.31261157989502,0.8619037395254524,0.18735524243596813,0.031464542222370974
12.324084520339966,0.8570187716070357,0.18622428551569717,0.023490425887387898
12.331697463989258,0.8540877908559856,0.18510439383405786,0.017690236488213364
12.340598821640015,0.850375215237989,0.18400039733003626,0.013479804710297156
12.349692344665527,0.8468580383367289,0.18291487923711716,0.010419499267753277
12.359283447265625,0.843145462718732,0.18184691385073828,0.008185958548002976
12.367723226547241,0.8398236845342087,0.1807957852511096,0.006544777303218686
12.375615119934082,0.8363065076329487,0.17976233672853298,0.005327622918280478
12.387266397476196,0.8318123371480053,0.17874726022387408,0.004414333040225022
12.394604444503784,0.8286859576802185,0.17774961291393027,0.0037194406138568816
12.40350604057312,0.8251687807789585,0.1767698658161644,0.2792206281191855
12.414553880691528,0.8204792115772783,0.17580828766661852,0.3119227205204481
12.424903631210327,0.8163758385258082,0.17486214357837782,0.25648703409562285
12.434610366821289,0.8124678641910749,0.17392753231350627,0.18012591890039653
12.445297718048096,0.808169092422868,0.1730023243236713,0.10937391650146946
12.454745769500732,0.8042611180881346,0.17208588363181646,0.05255844188064575
12.463608980178833,0.8003531437534013,0.1711788720737166,0.010394768079756863
12.472755432128906,0.7968359668521413,0.17028302939790008,-0.01916466505186456
12.481696605682373,0.7933187899508811,0.1693981094664613,-0.038819264412341396
12.490601778030396,0.7896062143328845,0.16852214750643368,-0.05108430224706102
12.499017477035522,0.7862844361483611,0.16765315469373684,-0.058026532454972
12.507926940917969,0.782767259247101,0.16678914545796292,-0.06123947647810443
12.515597581863403,0.7796408797793143,0.16592974158947565,-0.0619062572675859
12.526324033737183,0.7753421080111076,0.16507596050022283,-0.060883610058545895
12.533935785293579,0.7722157285433208,0.1642284766977695,-0.058780666683110265
12.545819759368896,0.767330760624904,0.1633860355966047,-0.056024059183140795
12.556699514389038,0.7628365901399606,0.16254410771724465,-0.052908438549924545
12.565577745437622,0.7593194132387007,0.16169870676448075,-0.049634282345471493
12.575066328048706,0.7556068376207038,0.1608479929196498,-0.0463355559778106
12.584090948104858,0.7516988632859705,0.15999036788879833,-0.04309964935575531
12.592827320098877,0.7481816863847104,0.15912448226361978,-0.03998159715766643
12.60065484046936,0.7446645094834503,0.15825264589207805,-0.03701414483577304
12.61159896850586,0.7403657377152436,0.15738026044729445,-0.03421483187720173
12.622706413269043,0.7358715672303001,0.15650676305530206,-0.03159095127323886
12.63508653640747,0.7307912005951467,0.155624849639946,-0.02914300578693068
12.642576694488525,0.72766482112736,0.15473016025777359,-0.0268671049814527
12.652597665786743,0.7237568467926265,0.15382431746356767,0.2512817412222476
12.661598920822144,0.7200442711746298,0.15290887785585713,0.2863596544920359
12.670724868774414,0.716331695556633,0.15198363727697245,0.23306760798200676
12.680596113204956,0.712228322505163,0.15104863643118,-0.11738924771473175
12.688573598861694,0.7091019430373763,0.15010415856298404,-0.21949933873586389
12.699418783187866,0.7048031712691696,0.14915072806776558,0.05643149750599118
12.709569454193115,0.7005043995009628,0.14818910040183725,0.124949115791844
12.71950650215149,0.6965964251662294,0.1472202562994825,-0.16387641864664648
12.72959303855896,0.6921022546812859,0.14624539444686768,-0.23488472001656288
12.739438533782959,0.6881942803465526,0.14526738437111353,-0.21944567843793886
12.749586582183838,0.6837001098616091,0.14429045471598984,0.09956769749012499
12.760890483856201,0.6790105406599292,0.14331559352847706,0.17848629560379844
12.768640518188477,0.6760795599088789,0.14234246774391254,0.16295800607236127
12.778292894363403,0.6721715855741456,0.1413738943729012,0.11801269765731656
12.785664319992065,0.6694360035398322,0.14041256243643765,0.07071856538879756
12.795303106307983,0.6655280292050988,0.13945962749896637,0.030805374185756223
12.802592754364014,0.6622062510205755,0.13851746467218867,0.00048268784412080525
12.810678482055664,0.6588844728360521,0.1375893878327644,-0.020996337781323957
12.821731090545654,0.6545857010678453,0.13667589690313697,-0.03529473373402817
12.82999587059021,0.6514593216000585,0.1357762382143698,-0.04414073489617792
12.838542938232422,0.6479421446987986,0.13489205789450795,-0.04902063589623988
12.849451780319214,0.6438387716473285,0.13402471688406736,-0.05110802382334292
12.859436750411987,0.6395399998791217,0.13317415891848877,-0.05128632254893677
12.868555068969727,0.6356320255443884,0.13234129572512626,-0.05020058192319462
12.877161026000977,0.6319194499263915,0.13152781976268338,-0.048311704362144936
12.885895252227783,0.6284022730251315,0.13073392712555296,-0.04594336299218656
12.89454698562622,0.6248850961238713,0.129958540641599,-0.043319298780112134
12.903618335723877,0.6211725205058746,0.12920262751204126,-0.04059163242778582
12.915623903274536,0.6164829513041946,0.12846782453560726,-0.03786176320415363
12.923563480377197,0.6131611731196712,0.12775218955829792,-0.03519551865005119
12.932578802108765,0.6096439962184113,0.1270548734688892,-0.03263400148095619
12.940605878829956,0.6065176167506244,0.1263780149589535,-0.030201286774133567
12.949609756469727,0.6030004398493644,0.12572115718234067,-0.0279098468132859
12.958523988723755,0.5994832629481043,0.12508167370656706,-0.025764352751357196
12.96865463256836,0.5951844911798975,0.1244571911534509,-0.023764324907670525
12.97862696647644,0.5908857194116909,0.12384559442136191,-0.297944330256376
12.992552995681763,0.5856099540598008,0.12324407278372657,-0.32934641363490813
13.001601934432983,0.5817019797250673,0.12264928517257456,-0.2726554533335944
13.00958776473999,0.5785756002572806,0.1220594049161972,-0.19509794998465335
13.018573999404907,0.5746676259225473,0.12147390265105834,-0.39925452968948255
13.027550458908081,0.5707596515878138,0.12089239530784374,-0.37450387995873125
13.038422107696533,0.5666562785363436,0.12031376567129592,-0.2762536792390743
13.046653270721436,0.5633345003518203,0.11973716225899635,0.10634924259183415
13.055624961853027,0.5598173234505602,0.11916370137188126,0.23050463488284442
13.06562876701355,0.5557139503990901,0.11859440974151861,0.24508434250824146
13.075840711593628,0.5518059760643568,0.11802854434107772,0.21866952311225998
13.084570407867432,0.5478980017296233,0.11746554510901316,0.18144924742332735
13.094612121582031,0.5437946286781532,0.11690662914094622,0.14564407621988507
13.10387372970581,0.5400820530601566,0.11635287749382944,0.11534982227479938
13.114589929580688,0.5357832812919499,0.1158044235393174,0.09120179406922652
13.124854803085327,0.5316799082404797,0.11526140088199542,0.0725265543818717
13.133560180664062,0.5283581300559563,0.1147239333403803,0.058291529485477944
13.144719362258911,0.5232777634208029,0.11419211830063593,0.04749141012825943
13.152603387832642,0.5199559852362795,0.113666753081093,-0.23675890356773865
13.161945581436157,0.5164388083350194,0.11314919969923201,-0.27617315371702494
13.169694423675537,0.5133124288672327,0.1126405238703431,-0.22594740603130453
13.177818775177002,0.510186049399446,0.11214151489681151,-0.15368910223067322
13.186030387878418,0.5070596699316593,0.11165197050554768,-0.08622112385635927
13.19353985786438,0.5039332904638726,0.11117159143914288,-0.032079892674112646
13.204359531402588,0.49963451869566583,0.110700739122642,0.007868250699644003
13.215112447738647,0.49553114564419576,0.11023809642336284,0.03556165354976407
13.222628355026245,0.492404766176409,0.10978168711481567,0.3296589032458129
13.23054814338684,0.4888875892751489,0.10933123933749728,0.09762708798760898
13.241600751876831,0.48419802007346885,0.10888643937921114,0.015134593336089436
13.250591039657593,0.4804854444554721,0.10844620972513094,-0.0037142812163353522
13.260540962219238,0.4767728688374754,0.1080096021974279,0.2775943071213949
13.270535230636597,0.4724740970692687,0.1075757926875422,0.32273547536143976
13.282529354095459,0.46758912915085193,0.10714407601122816,0.27938108666005085
13.290641784667969,0.46407195224959186,0.1067138586659026,0.21241588943689016
13.300580024719238,0.46016397791485847,0.10628463253469478,0.14802240866892674
13.308845520019531,0.45684219973033496,0.10585594575220354,0.09491551304131961
13.317538022994995,0.453325022829075,0.10542812426615064,0.05439422184175327
13.32554006576538,0.45039404207802497,0.10500213346429745,0.02497180993375602
13.335341930389404,0.44648606774329147,0.10457796763533868,0.00441383370100505
13.345476865768433,0.44238269469182145,0.10415477566223293,-0.009436744764502646
13.355541706085205,0.43808392292361464,0.10373172215320715,-0.01838269030333088
13.363538265228271,0.43476214473909125,0.10330798063493239,-0.02382902210377763
13.37453317642212,0.43026797425414787,0.10288273417165682,-0.02682772697316862
13.38484501838684,0.42616460120267785,0.10245518375207213,-0.028146609321840738
13.394890308380127,0.4220612281512078,0.10202455621112468,0.2477021178179482
13.403109312057495,0.4185440512499477,0.10159011672312,0.28137677196394983
13.413164138793945,0.41463607691521426,0.10115118345439422,0.22729666905463103
13.422521591186523,0.41131429873069086,0.10070802781122654,0.15250719389767053
13.430552005767822,0.4079925205461675,0.10026174748211797,0.08342921482994342
13.439338684082031,0.4042799449281707,0.09981236561529737,0.028314002947911407
13.448568344116211,0.40076276802691063,0.09935989438123802,-0.012173075678142218
13.458482265472412,0.39646399625870393,0.09890521330184204,-0.040111273548686155
13.468600988388062,0.39255602192397054,0.09844812097518915,-0.05821913893796513
13.47791862487793,0.38884344630597373,0.09798752395433852,-0.06902251317701825
13.486356735229492,0.3851308706879771,0.09752249958734967,-0.07459293000220092
13.497673273086548,0.3804413014862969,0.09705135148820511,-0.07652484018328293
13.506590127944946,0.3765333271515635,0.09657270166694365,-0.0759997902083894
13.514638900756836,0.3732115489670402,0.09608734027140901,-0.07387136107595102
13.52681565284729,0.36793578361515006,0.09559508167138892,-0.07074458905707498
13.534650325775146,0.36500480286410003,0.0950949302195115,-0.06704150224362096
13.545353889465332,0.36090142981262996,0.0945880323503972,-0.0630519305340089
13.556830167770386,0.3566026580444232,0.09407546518169814,-0.058971506146218856
13.565797090530396,0.35289008242642644,0.09355731361375882,0.22110890992265217
13.575565576553345,0.3487867093749564,0.09303377397678658,-0.017883982016609
13.585767984390259,0.3446833363234863,0.09250514980304679,-0.10235686220317664
13.59367322921753,0.34155695685569953,0.09197184555990869,-0.11979616902352432
13.601502418518066,0.3384305773879129,0.09143522846212424,0.16513871678286565
13.609804153442383,0.3349134004866528,0.09089745400014582,0.21528044003176683
13.621198177337646,0.33041923000170936,0.0903595472189277,0.17770847223954087
13.628689050674438,0.327097451817186,0.08982242300986373,-0.15913949153286944
13.637547492980957,0.32358027491592595,0.08928777012913007,0.025633180361426297
13.65065336227417,0.31791371213056246,0.08875535477807235,0.06691493143757818
13.662704706192017,0.3130287442121457,0.08822250809274883,-0.22269226555011845
13.670642614364624,0.309902364744359,0.08768789658486244,-0.28510966952147065
13.680406332015991,0.30618978912636224,0.08715296746300337,-0.25909133735266554
13.69055724143982,0.30228181479162886,0.08661900640880306,0.06960727446800916
13.701628684997559,0.2977876443066855,0.086085528745613,0.1564425531183451
13.709553480148315,0.2944658661221621,0.08555217459258291,-0.12901653477164526
13.7198965549469,0.29016709435395527,0.08502106590078215,0.07350773578589026
13.731905698776245,0.2850867277188019,0.08449403063989068,0.11776258384958355
13.741684913635254,0.2807879559505952,0.08397026229304738,0.10123310573194948
13.754558801651001,0.2757075893154417,0.08344834855683896,0.06705687815744518
13.763308763504028,0.2723858111309183,0.08292793201315625,0.03288719795917178
13.773844480514526,0.26808703936271155,0.08241027989479621,0.004817218878133321
13.782059669494629,0.26476526117818816,0.08189651652675818,-0.016013167044229205
13.790039300918579,0.26124808427692814,0.08138688275806999,-0.03036247263977833
13.802249193191528,0.2563631163585114,0.08088092294661063,-0.03953415263517199
13.809544801712036,0.253627534324198,0.0803782918008534,-0.04482160815660535
13.817529439926147,0.2506965535731479,0.07988081495105989,-0.04731586755052852
13.825533628463745,0.2473747753886245,0.0793907240147594,-0.047869018095885035
13.834365606307983,0.24385759848736446,0.07890916177242016,-0.04711760477126138
13.843511819839478,0.24014502286936773,0.07843703262715808,-0.045523479154914157
13.855409860610962,0.23526005495095098,0.07797373193108124,-0.04341460229787228
13.864530324935913,0.2313520806162176,0.07751740571283545,-0.04101968691662682
13.875875473022461,0.2266625114145375,0.07706651195491585,-0.038495464809955
13.885496377944946,0.22275453707980408,0.07662040410003038,-0.03594726256034399
13.893523693084717,0.21962815761201734,0.07617979797841883,-0.033444129981348616
13.902491807937622,0.2161109807107573,0.07574590402998975,-0.0310297754665044
13.91056752204895,0.21278920252623387,0.07532029338977007,-0.028730377540592496
13.920524597167969,0.2086858294747638,0.0749042271409083,-0.026560116711663015
13.931547403335571,0.20419165898982042,0.07449692633679324,-0.02452506618504175
13.943625211715698,0.19950208978814032,0.07409595981290486,-0.022625912181508025
13.953526496887207,0.19539871673667025,0.07369929430699401,-0.02085984517290511
13.961569786071777,0.19207693855214686,0.07330692385539692,-0.2952602264449427
13.972527265548706,0.18777816678394008,0.07291941545486208,-0.326868649225577
13.984669923782349,0.18308859758226,0.07253615148210911,-0.270370037253002
13.99392819404602,0.17937602196426328,0.07215714081575857,-0.19299125591764685
14.001523733139038,0.17605424377973988,0.07178345530319012,-0.39731349310894853
14.009525299072266,0.1725370668784798,0.07141595880891334,-0.3727161116033959
14.023469924926758,0.1668705040931164,0.07105481252840892,-0.2746075220243305
14.033169984817505,0.16315792847511965,0.07069856326559015,-0.1681736652012944
14.041547775268555,0.15964075157385957,0.07034595286119559,0.1987749385391252
14.050330877304077,0.15612357467259955,0.06999743931021431,0.02542703745623376
14.060001134872437,0.1524109990546028,0.06965339211897997,-0.013227001744693101
14.067504167556763,0.1490892208700794,0.06931359223838293,0.2750317337281617
14.079517602920532,0.14420425295166264,0.06897783755783585,0.33444848242272734
14.087515115737915,0.14107787348387593,0.06864643112042869,0.304875547333627
14.095527648925781,0.13775609529935254,0.0683200991520142,0.2486082851651084
14.104508876800537,0.13443431711482912,0.06799895629415147,-0.08458542961168863
14.114037990570068,0.13052634278009573,0.06768261130844411,-0.16658927148668667
14.121517658233643,0.12759536202904564,0.06737118963802989,-0.1501301730731821
14.130100011825562,0.12407818512778561,0.06706524336790136,-0.10329167450850746
14.137505292892456,0.12095180565999888,0.06676520663257958,-0.054330823728288846
14.14559030532837,0.11763002747547549,0.0664718423115629,-0.013337167298260368
14.156471252441406,0.11313585699053208,0.06618532948848255,0.017462303836937247
14.164519786834717,0.11000947752274534,0.06590490885312851,0.03891780014545852
14.173782348632812,0.10610150318801194,0.0656303351382781,0.052820978659435386
14.185909748077393,0.10141193398633185,0.06536100431780431,0.061016855181970225
14.194842100143433,0.09789475708507178,0.06509560706510638,0.06508556166186871
14.204347610473633,0.09418218146707506,0.06483347232274003,0.06627123841683519
14.21348261833191,0.09066500456581499,0.06457446215359314,0.06550804615599787
14.221508026123047,0.08714782766455492,0.0643192119911975,0.0634762280477156
14.229571342468262,0.0840214481967682,0.06406898539612571,0.06066024312055708
14.238471508026123,0.08030887257877146,0.06382409373392924,0.057398870696380534
14.247482776641846,0.0767916956775114,0.06358405185759956,0.32996331748919416
14.25551462173462,0.07366531620972468,0.06334843889484748,0.35955851369061065
14.26451325416565,0.07014813930846461,0.06311722051624627,0.3009798217590708
14.277115106582642,0.06526317139004786,0.06289034437438232,0.22152733145458606
14.285322189331055,0.06194139320552447,0.06266705874479031,0.699867842611793
14.294623374938965,0.058815013737737745,0.0624466869960625,0.9824962293298074
14.304566383361816,0.05549323555321435,0.06222894795430844,1.6886926831073443
14.314745903015137,0.05236685608542762,0.06201355480481537,2.376836416063027
14.322503328323364,0.050217470201324256,0.06180021470757994,3.1759361863383364
14.334641933441162,0.0472864894502742,0.06158862946715806,4.37290032939963
14.342528104782104,0.04572329971638084,0.06137885140248447,5.0
14.351587772369385,0.04357391383227746,0.06117123648007771,5.0
14.361555099487305,0.04142452794817409,0.06096570043830484,5.0
14.372275114059448,0.039470540780807396,0.06076144072781355,5.0
14.381511211395264,0.03771195233017736,0.0605577586917878,5.0
14.38956069946289,0.036539560029757334,0.060354752696779035,5.0
14.398725748062134,0.03536716772933732,0.060152845187577395,5.0
14.406957864761353,0.034390174145653964,0.059952374250041754,4.975913250522604
14.415489912033081,0.03341318056197061,0.059753598946848015,4.916507100243085
14.423511266708374,0.0328269844117606,0.059556707169767416,4.521978826576795
14.432801961898804,0.032045389544813924,0.059361095626121005,4.040237855257553
14.442126512527466,0.03165459211134058,0.0591654796771759,3.8495006852603972
14.449501276016235,0.03126379467786724,0.058969833448745165,3.466474433686594
14.459026575088501,0.03106839596113057,0.05877520798329481,3.3287467521184997
14.469491004943848,0.030872997244393897,0.058581699919297965,3.808305227922218
14.482515573501587,0.030872997244393897,0.058388177896305876,4.073775713583162
14.491491317749023,0.030872997244393897,0.058193616765294366,3.342870086543504
14.500925302505493,0.03106839596113057,0.057997487254078404,2.389888979313315
14.508482456207275,0.031459193394603915,0.05779930983907269,1.517787310083707
14.518539667129517,0.031849990828077254,0.05759908698132015,1.0952530490015377
14.527566194534302,0.03224078826155059,0.057396818859109786,0.05650288732448605
14.53793716430664,0.0328269844117606,0.05719211284481296,-0.4319075789160673
14.546579599380493,0.03341318056197061,0.05698468420440333,-0.9211661433720091
14.55546259880066,0.033999376712180625,0.05677476305723,-1.3066846744862466
14.56546688079834,0.0347809715791273,0.056563018102125565,-1.569870177858884
14.573780059814453,0.03556256644607399,0.05634968422699923,-1.7248207585236457
14.586350917816162,0.036734958746494004,0.056134275318855766,-1.7947812346478726
14.594497442245483,0.03751655361344069,0.05591613425090872,-2.078583391509339
14.605255126953125,0.03868894591386071,0.05569523281672615,-2.0763387993877345
14.614493131637573,0.03966593949754405,0.05547206819025414,-2.2335359206827228
14.622450590133667,0.04044753436449074,0.05524751381196118,-2.385403389603605
14.632999658584595,0.04181532538164743,0.05502242943552812,-2.478075050689817
14.643261671066284,0.04298771768206745,0.05479700929391223,-2.5043411454386026
14.65144419670105,0.04396471126575081,0.054571802655407745,-2.7502203557578975
14.662485599517822,0.04533250228290749,0.054347959485164486,-2.711056935382441
14.670490026473999,0.04611409714985418,0.0541264857374899,-2.8310565142487096
14.6794753074646,0.04709109073353753,0.05390824717216845,-2.945533980715237
14.688485860824585,0.048068084317220885,0.053693731390007174,-3.27717456027051
14.698208093643188,0.049045077900904226,0.053483108862986004,-3.5764038574016097
14.707124710083008,0.0498266727678509,0.05327655644114668,-3.76542630884839
14.71445345878601,0.050217470201324256,0.0530744799047874,-4.113901134182438
14.723442077636719,0.050803666351534264,0.052877465119109214,-4.39814259348452
14.731450319290161,0.0511944637850076,0.052685792126504385,-4.830955680213782
14.740474462509155,0.05158526121848094,0.05249930998657288,-5.0
14.748463869094849,0.05197605865195429,0.0523180966446964,-5.0
14.758021593093872,0.05217145736869095,0.05214276863339523,-5.0
14.76650857925415,0.05236685608542762,0.05197364833300979,-5.0
14.777451753616333,0.052562254802164296,0.05181062586900383,-5.0
14.788463354110718,0.052562254802164296,0.05165343269410991,-5.0
14.797492980957031,0.052562254802164296,0.05150180608357696,-5.0
14.805513143539429,0.052562254802164296,0.05135593330561385,-5.0
14.816105127334595,0.052562254802164296,0.05121590819895757,-4.71054790673472
