t_s,q_rad,q_des_rad,jerk
0.005136013031005859,-0.08128586616245481,0.00045874524308652144,0.0
0.017804384231567383,-0.08128586616245481,0.0022153429589881744,0.0
0.025233745574951172,-0.08109046744571814,0.005482783315343109,0.0
0.03826403617858887,-0.08030887257877146,0.00992258152463706,0.276038359678681
0.0463559627532959,-0.07972267642856146,0.015233409660189172,0.8612396821974845
0.05530881881713867,-0.07874568284487811,0.021193147177610217,1.976545070643227
0.06725454330444336,-0.07698709439424807,0.027625983470897085,3.3029557633437165
0.07926106452941895,-0.07464230979340802,0.034371963447414076,5.0
0.09100985527038574,-0.07171132904235797,0.0412887054632159,5.0
0.10023856163024902,-0.06917114572478127,0.048255133871076675,5.0
0.11127614974975586,-0.06584936754025787,0.05517235277148194,5.0
0.12026739120483398,-0.06272298807247115,0.06196108331785502,5.0
0.13211989402770996,-0.05822881758752774,0.06856109371897691,5.0
0.14130568504333496,-0.054320843252794335,0.07492777034439457,5.0
0.15021181106567383,-0.050803666351534264,0.08102708261513925,5.0
0.16129088401794434,-0.046504894583327516,0.08684078350562985,5.0
0.1732785701751709,-0.0420107240983841,0.09236638956352657,5.0
0.1826004981994629,-0.03790735104691403,0.09760744203480161,5.0
0.19124698638916016,-0.034194775428917294,0.10256738003576804,4.283141750755868
0.20027780532836914,-0.030482199810920558,0.10725670630342135,2.2488503912260693
0.21093273162841797,-0.026378826759450486,0.11170098876442877,0.14987472380022737
0.22183775901794434,-0.0216892575577704,0.11592892726735865,-1.8489607703215105
0.23078322410583496,-0.018172080656510332,0.11996024920995103,-3.68962321519102
0.23890137672424316,-0.014850302471986938,0.12381091955159916,-4.809314235415142
0.24835824966430664,-0.011137726853990204,0.12750606023442312,-5.0
0.2572469711303711,-0.0072297525192568,0.13107096138205468,-5.0
0.2662339210510254,-0.0037125756179967346,0.13452413154607287,-5.0
0.2750129699707031,-0.00019539871673667023,0.13789286387885463,-5.0
0.2836592197418213,0.0033217781845233945,0.1412118847048648,-5.0
0.2929346561431885,0.006838955085783458,0.14451445976028876,-5.0
0.3029661178588867,0.010746929420516863,0.14783207693591638,-5.0
0.31025028228759766,0.014068707605040257,0.15118439543373643,-5.0
0.3222174644470215,0.018562878089983675,0.1545904905050092,-5.0
0.3358643054962158,0.02442483959208378,0.15809872226678512,-4.875876093869589
0.3442392349243164,0.027551219059870506,0.16175125181588,-4.629717169068197
0.35373854637145996,0.03165459211134058,0.16555340341107794,-4.059438198259534
0.36122989654541016,0.0347809715791273,0.16949882398549676,-3.720470678389659
0.37041354179382324,0.03829814848038737,0.17358151033012184,-3.475743626356784
0.38065028190612793,0.042401521531857445,0.17780750017999475,-3.2661512213373225
0.39132046699523926,0.046895692016800855,0.18220506849137177,-3.0685009149538427
0.4009828567504883,0.050803666351534264,0.1867976415856464,-2.875427511564591
0.41121649742126465,0.054907039403004336,0.19158002276082825,-2.6860066874446016
0.42043471336364746,0.058815013737737745,0.19654670415384123,-2.5015198701828716
0.43407654762268066,0.06409077908962785,0.20171633931442,-2.3236560599669858
0.4442591667175293,0.06858494957457126,0.20711563472418087,-2.1538351092412755
0.4562358856201172,0.07307912005951467,0.2127524487244641,-1.9930239185983676
0.46624255180358887,0.07718249311098475,0.21861830955583286,-2.1177900695798133
0.47623467445373535,0.0814812648791915,0.22470336198867466,-2.0093547153641804
0.48874402046203613,0.08695242894781824,0.23100903483284976,-1.822318937191673
0.49823999404907227,0.09046960584907832,0.23754595541997128,-1.623642793111573
0.5090372562408447,0.09476837761728506,0.24430683841587084,-1.439483205067014
0.5172383785247803,0.09809015580180845,0.2512568402456722,-1.2777144713336628
0.5290498733520508,0.10297512372022523,0.2583630959414786,-1.1385590784418356
0.5382401943206787,0.10649230062148528,0.2656192955632253,-1.0194619970090248
0.5492098331451416,0.1109864711064287,0.2730169273989545,-0.9172185933742389
0.5600061416625977,0.1156760403081088,0.2805333892392242,-0.8288216975605196
0.5728123188018799,0.12114720437673555,0.28815804449425586,-0.4756945674203671
0.5823290348052979,0.12485977999473229,0.29587900328156863,-0.37474848142339084
0.5942230224609375,0.12954934919641237,0.30367166403211154,-0.369687466202826
0.6035919189453125,0.1338481209646191,0.31152362638318865,-0.39202678706979177
0.6136171817779541,0.13775609529935254,0.3194222115901593,-0.4142402237473119
0.6237046718597412,0.14205486706755927,0.327343514207222,-0.4272216900621405
0.6332292556762695,0.14596284140229268,0.3352657913007639,-0.7056756827184089
0.6419150829315186,0.14967541702028941,0.3431592956367779,-0.7321991023805592
0.654165506362915,0.1543649862219695,0.35099818515002024,-0.6637750385742052
0.662261962890625,0.15749136568975622,0.3587707885052727,-0.5698131567513124
0.6742038726806641,0.16218093489143628,0.36646714794208624,-0.7546814568711315
0.6859927177429199,0.1674567002433264,0.3740984311498812,-0.7091135613926483
0.6962189674377441,0.17136467457805982,0.3816740596789799,-0.5894937483356215
0.7048804759979248,0.17507725019605655,0.3891724821687435,-0.4616830573191448
0.7142157554626465,0.17839902838057992,0.3965757912008797,-0.349978738205056
0.7262544631958008,0.18347939501573338,0.4038791347540478,-0.2604847466167056
0.7385373115539551,0.18875516036762346,0.4110883982889883,-0.19202052193404917
0.748295783996582,0.19266313470235683,0.4182183887001027,-0.14103183862150565
0.7592465877532959,0.19735270390403695,0.4252724579663853,-0.10366574739610696
0.7682867050170898,0.20086988080529702,0.432244269928932,-0.07654169918684137
0.7772469520568848,0.20458245642329373,0.4391198339239691,-0.0569506575982657
0.786186695098877,0.20829503204129046,0.4458789711916654,-0.042824134152215705
0.7952797412872314,0.21181220894255054,0.4525233172707935,-0.0326273353929186
0.8045880794525146,0.2155247845605473,0.45907276978712597,-0.025241771722397277
0.812183141708374,0.21845576531159733,0.4655184763453182,-0.019861781587108773
0.8234307765960693,0.22314533451327742,0.4718362101805858,-0.015911442876894687
0.83284592628479,0.2272487075647475,0.47803250230509875,-0.01298107896590257
0.8431944847106934,0.2313520806162176,0.48412238164787164,-0.010780143135794232
0.8522851467132568,0.23526005495095098,0.49010223314156914,-0.009102899237848168
0.8641164302825928,0.24034042158610439,0.4959696121932708,-0.007803725691790617
0.8739399909973145,0.2442483959208378,0.5017396133653026,-0.00677948906446397
0.8837461471557617,0.2483517689723079,0.507425455116528,-0.005957033215420471
0.893852710723877,0.25225974330704126,0.5130303501198654,-0.005284332989707379
0.9042296409606934,0.2567539137919847,0.5185572783123098,-0.004724255121695691
0.9160528182983398,0.26163888171040145,0.5240165627979146,-0.004250165386412326
0.9252300262451172,0.26476526117818816,0.529416975053123,-0.0038428388948744197
0.9352118968963623,0.2686732355129216,0.5347506611655559,-0.003488288134472928
0.9432899951934814,0.2717996149807083,0.5400110217686982,-0.003176236346316673
0.9522016048431396,0.2757075893154417,0.5451929805005821,-0.0028990442308872142
0.9641141891479492,0.2809833546673318,0.5502924766767789,-0.0026509549012167536
0.9741559028625488,0.2852821264355385,0.555320825479371,-0.0024275621823435073
0.984785795211792,0.28938549948700865,0.5602876912125463,-0.0022254356425847263
0.9961960315704346,0.2942704674054254,0.5651939890912793,-0.0020418556273839243
1.008016586303711,0.29915543532384214,0.570047178592609,0.274163734150336
1.016204833984375,0.3020864160748922,0.5748534577670652,0.03140266484657349
1.0325169563293457,0.3091207698774123,0.5796174425510303,0.21935882186554578
1.0412733554840088,0.31283334549540903,0.5843492120522086,0.23162359038573427
1.0502262115478516,0.3161551236799325,0.5890440388644804,0.18220594270584978
1.0581867694854736,0.31928150314771914,0.5936848411593362,0.12012943875626961
1.0671932697296143,0.3229940787657159,0.5982574630353453,0.0643297655731825
1.0781834125518799,0.32768364796739596,0.6027624852865108,0.020381212614811094
1.0892987251281738,0.3319824197356028,0.6072127603972041,0.2643927305581843
1.1000282764434814,0.3366719889372828,0.6116129329647729,0.27555413047730026
1.1124980449676514,0.3417523555724363,0.6159664464077674,-0.06972788283649414
1.121206283569336,0.345464931190433,0.6202760775588093,-0.18730599840885698
1.1312038898468018,0.34937290552516637,0.6245325972951808,-0.2069759449688836
1.139754295349121,0.35269468370968976,0.628728190289122,-0.1888984599208196
1.1495203971862793,0.3566026580444232,0.6328620677113523,-0.15983424253513615
1.1616053581237793,0.3616830246795766,0.6369389778508834,-0.13083648772952408
1.1732277870178223,0.36637259388125676,0.6409682223616892,0.170238690243656
1.1811976432800293,0.36949897334904347,0.6449470675121094,0.22363729070029525
1.1901767253875732,0.3732115489670402,0.6488628249463084,0.18445465162143326
1.2012155055999756,0.37770571945198356,0.6527153145533003,0.12069209901764993
1.2122087478637695,0.3823952886536637,0.6565148445964023,0.05968139406537558
1.2212021350860596,0.38591246555492376,0.6602603082481833,0.010432641268998018
1.2301809787750244,0.38982043988965714,0.6639411000441993,-0.025796691597126994
1.2391548156738281,0.3933376167909172,0.6675536602004551,-0.32667899738064116
1.2492411136627197,0.3978317872758606,0.671100438793308,-0.09961505501871307
1.2585411071777344,0.40173976161059405,0.6745840253489207,-0.020537548821157478
1.2674944400787354,0.4052569385118541,0.6780070698363377,-0.0038899506602715107
1.276956558227539,0.4089695141298508,0.6813722749137139,-0.010461147129788203
1.2895421981811523,0.4138544820482676,0.6846824079923893,-0.023134734375572254
1.3001904487609863,0.41815325381647434,0.6879402716067637,0.2409506666165146
1.3091580867767334,0.42186582943447104,0.6911487074371834,0.2650464679547314
1.3201713562011719,0.42616460120267785,0.6943105779708351,-0.07193150134397577
1.3323745727539062,0.4312449678378312,0.6974332698831129,-0.1842478729262506
1.3402085304260254,0.4345667460223547,0.7005233812452369,0.07536623471046952
1.3501484394073486,0.4386701190738247,0.7035776968710546,0.12847252170966714
1.3611533641815186,0.4429688908420314,0.7065938470955029,-0.17258693400548758
1.3752472400665283,0.44883085234413156,0.7095837447852075,-0.2523770594020387
1.384840965270996,0.45273882667886495,0.712562196808239,-0.2427298118978436
1.3922111988067627,0.45586520614665166,0.7155238200959209,-0.20320394960259786
1.4054169654846191,0.4613363702152784,0.7184596908698437,-0.1591286397855659
1.417203664779663,0.4660259394169585,0.7213804145485324,-0.12005317305428151
1.4261622428894043,0.4695431163182186,0.7242951003760189,-0.08857135639892043
1.4380710124969482,0.474037286803162,0.7272025464562163,-0.06445338395566161
1.4461925029754639,0.47755446370442206,0.7301017865717674,-0.046515543505537556
1.4581730365753174,0.4828302290563122,0.7329920782909425,-0.033417708720673345
1.470165491104126,0.4877151969747289,0.7358817621261009,-0.023965931864418984
1.4806320667266846,0.4916231713094623,0.7387778867138342,-0.01719643208160554
1.4900672435760498,0.49572654436093233,0.7416729922342065,-0.28840883296883846
1.5015785694122314,0.5004161135626125,0.7445607636433698,-0.31810178402888967
1.514188289642334,0.5054964801977658,0.7474448279703232,0.015471769543864505
1.5261814594268799,0.5103814481161826,0.7503327495059143,0.12641414151627933
1.5391721725463867,0.5156572134680728,0.7532309031734361,0.1430732526405106
1.5505597591400146,0.5201513839530162,0.7561490502906669,0.1244910436262368
1.5583395957946777,0.5232777634208029,0.7590863465901473,0.09659785671660816
1.5672414302825928,0.5269903390387995,0.7620240622746477,0.06984706615691208
1.57719087600708,0.5310937120902697,0.764955331814525,0.04770861263441354
1.5861642360687256,0.5348062877082664,0.7678834283766949,0.030689134455471098
1.5947911739349365,0.5383234646095265,0.770802302980614,0.018183397577727106
1.6054883003234863,0.5430130338112066,0.7737070740757308,0.00928897463479433
1.615192174911499,0.5471164068626767,0.7765984158416359,0.003135867442397127
1.6246600151062012,0.5508289824806734,0.7794772262136952,-0.2770414357998006
1.635157585144043,0.5551277542488802,0.7823446094754223,-0.31285798564570927
1.647155523300171,0.5596219247338236,0.7852064996364739,-0.2594309325995517
1.6591811180114746,0.5645068926522403,0.7880728724310897,-0.46034376798836385
1.671149492263794,0.5695872592873937,0.7909524477827029,-0.42341812383483834
1.681551456451416,0.5736906323388637,0.7938527563979977,-0.3118433441718055
1.6895499229431152,0.5770124105233871,0.7967706952124433,-0.19368863088069233
1.7011609077453613,0.5815065810083306,0.7996989752049306,-0.09354031091600382
1.7131636142730713,0.5861961502100108,0.802641046788244,-0.017095746664742922
1.7211418151855469,0.5899087258280075,0.805594999667866,0.037396889998965066
1.7347302436828613,0.5953798898966343,0.8085544775819955,0.07401864233347198
1.7431747913360596,0.5990924655146309,0.8115190048692966,0.09703961326239838
1.754525899887085,0.6037820347163111,0.8144882939796261,0.11014267274307643
1.7632536888122559,0.607299211617571,0.8174622095462868,0.11624087136317598
1.772205114364624,0.6110117872355679,0.8204358030045712,0.3935683162706421
1.780179500579834,0.6141381667033546,0.8234050482246861,0.42477818447635085
1.7915778160095215,0.6188277359050346,0.826376603829081,0.0896726201325231
1.8001716136932373,0.6223449128062948,0.8293562209034832,-0.024754168029768674
1.811225414276123,0.6268390832912382,0.8323388981234658,-0.04608425049446316
1.8245441913604736,0.6321148486431284,0.8353256025935047,-0.03283146705027246
1.8351645469665527,0.6364136204113349,0.8383324198644386,-0.010567052033207146
1.8458988666534424,0.6407123921795417,0.8413679132669437,0.010495674121543248
1.8561468124389648,0.6450111639477484,0.8444239918195027,0.02704359040365724
1.864915370941162,0.6483329421322718,0.847493792486671,0.03866911072836331
1.874133825302124,0.6522409164670053,0.8505766897812099,0.04603674136436295
1.8837685585021973,0.656539688235212,0.8536722715686562,0.05008104080339013
1.8938992023468018,0.6604476625699455,0.8567803211260884,0.05168583821395631
1.9031322002410889,0.6643556369046788,0.8598954786021225,0.051579974404759685
1.9166879653930664,0.6696314022565689,0.8630188187637835,0.05032443211372299
1.9255943298339844,0.6733439778745656,0.8661621096821918,0.048333353201412764
1.9371368885040283,0.6780335470762457,0.8693300504954175,0.045903736252004446
1.946103811264038,0.6815507239775059,0.8725212804221719,0.04324369244001408
1.9561924934387207,0.6856540970289758,0.8757291323603137,0.040495935193276954
1.9667789936065674,0.6899528687971827,0.8789480751537364,0.03775605687508546
1.9769363403320312,0.6940562418486528,0.882184642863443,0.31112457944855737
1.9861500263214111,0.6975734187499129,0.8854444060064384,0.3416881331881062
1.9971678256988525,0.7020675892348561,0.8887265334758992,0.008122794475670408
2.0057709217071533,0.7057801648528529,0.8920303182333673,-0.10337374710603979
2.019125461578369,0.7112513289214797,0.895355138748207,0.15509905153294742
2.027120590209961,0.7145731071060031,0.8987004561670725,0.20569259768448972
2.040085554122925,0.7196534737411566,0.9020657869128141,0.17726793959403464
2.053638219833374,0.7255154352432566,0.9054623358379804,0.12667288949971445
2.0622098445892334,0.72883721342778,0.9088993686348513,0.07703195802407725
2.07248592376709,0.7329405864792501,0.9123728004852509,0.31224400590644796
2.0803816318511963,0.7360669659470368,0.9158788445389151,0.03866477661617976
2.091583728790283,0.7407565351487168,0.9194139638227177,-0.07119080799926486
2.1030120849609375,0.7454461043503969,0.9229807328777603,-0.10660052825644069
2.1128733158111572,0.7493540786851303,0.9265809429783564,-0.11003162700238314
2.120720863342285,0.7522850594361805,0.9302039300539041,-0.10119332133585429
2.1330389976501465,0.7571700273545973,0.9338403252323607,-0.08886922566921977
2.1430909633636475,0.7612734004060673,0.9374878468909847,-0.07669785309111454
2.15523624420166,0.7663537670412206,0.9411443405670173,0.21007051577845406
2.1651697158813477,0.7706525388094273,0.9448135823651568,0.25221392150059124
2.174940586090088,0.774560513144161,0.948498443834711,0.20455427494398584
2.187167167663574,0.7794454810625776,0.9522008886090659,0.13457872710010577
2.199108839035034,0.784525847697731,0.9559279173668671,0.06909786840686238
2.21231746673584,0.7898016130496212,0.9596848215206097,0.016676488350981414
2.2242586612701416,0.7948819796847746,0.9634753375790036,-0.021779795233293327
2.2364559173583984,0.7997669476031912,0.9673018198317301,-0.0481712663299224
2.245154857635498,0.8034795232211881,0.9711598485242309,-0.06508543310117107
2.2555665969848633,0.8073874975559214,0.975033837762884,-0.07495319099591918
2.2678844928741455,0.8120770667576015,0.9789157299788748,-0.355816052619224
2.275517225265503,0.815398844942125,0.9828095432630609,-0.39026724162446913
2.285128593444824,0.8193068192768583,0.9867072786647533,-0.05810657955757911
2.2931225299835205,0.822433198744645,0.990590952824472,0.05365149203781723
2.305102586746216,0.8275135653797985,0.9944509963132993,-0.20347628168486956
2.3156776428222656,0.8316169384312686,0.998285118249759,0.02398741414501253
2.3269662857055664,0.8363065076329487,1.0020972920304343,0.08794525231464106
2.3361563682556152,0.8398236845342087,1.0058912659185422,0.08604687203763614
2.34566330909729,0.8437316588689421,1.009659535391613,-0.21376744046969515
2.3553178310394287,0.8474442344869388,1.013396317368631,-0.27394239481441923
2.3648831844329834,0.8515476075384089,1.0171029613107103,0.033805433911183264
2.3741507530212402,0.8554555818731422,1.0207813748374537,0.1251082864418825
2.3827550411224365,0.8589727587744024,1.0244339719294822,-0.14817134445897567
2.3906242847442627,0.8622945369589258,1.0280577260973711,-0.20910698934137484
2.398739814758301,0.8654209164267126,1.0316450234826966,-0.18758081432620108
2.406127452850342,0.8683518971777625,1.035190190765195,0.13469742289383885
2.4153330326080322,0.8718690740790227,1.0386952744676334,0.21493023031852568
2.4258928298950195,0.8763632445639661,1.0421748818564525,-0.0766373465040238
2.434661865234375,0.8802712188986994,1.0456359893942762,-0.1555687996212375
2.445128917694092,0.8847653893836429,1.0490729503603646,-0.1491676192175444
2.4571213722229004,0.889454958585323,1.0524935300904876,-0.11471554366621378
2.469115972518921,0.8943399265037396,1.0559165625953495,-0.07640038770807209
2.4811198711395264,0.898834096988683,1.0593515793800374,-0.04320439483853066
2.4931633472442627,0.9037190649070999,1.0628057445978492,-0.017445558390672317
2.5022077560424805,0.9072362418083599,1.0662899025111718,0.0012336814649457507
2.5111265182495117,0.9109488174263566,1.0698059602090373,0.01406943146780891
2.5190911293029785,0.9142705956108801,1.0733427910667388,-0.2536224076188424
2.5272130966186523,0.9175923737954035,1.076878997988422,-0.005662492717004655
2.536719799041748,0.9216957468468735,1.0804010692611794,0.08525449337169164
2.54510235786438,0.9250175250313969,1.0839078198190604,0.10730637510524714
2.553856134414673,0.928534701932657,1.0873923564823733,0.1017061592057988
2.5631167888641357,0.9322472775506537,1.0908479773023567,0.08704553497896546
2.5725185871124268,0.9363506506021237,1.0942734879287994,0.0712084314540749
2.583336591720581,0.9406494223703306,1.0976672013231732,0.057147050087433614
2.5921077728271484,0.9445573967050639,1.1010271178951332,0.045643349114417836
2.6020028591156006,0.9484653710397973,1.1043510930791192,-0.23943715545509026
2.613586187362671,0.9531549402414774,1.1076369542838818,-0.2795324893702281
2.62416410446167,0.9572583132929476,1.1108826731208716,-0.22977009501843992
2.6344566345214844,0.961166287627681,1.1140865006867564,-0.15777112595127668
2.646139144897461,0.9660512555460977,1.1172511417458457,-0.09039853043709492
2.656334638595581,0.9703500273143044,1.1203831028985576,-0.03623163798945605
2.6647660732269287,0.9736718054988278,1.1234797837688244,0.003826088161621468
2.6731045246124268,0.9771889824000878,1.1265310495885794,0.031683781738578734
2.683687686920166,0.981292355451558,1.129532935722137,-0.22609846201252543
2.691100597381592,0.9844187349193447,1.132482720298437,-0.24812659804774875
2.6991114616394043,0.9879359118206047,1.1353747223882724,-0.18707904637515638
2.712179183959961,0.9934070758892316,1.1382132151970301,0.16740315015669516
2.7241406440734863,0.9982920438076482,1.1410109458162558,0.27097248751162284
2.733550548553467,1.002004619425645,1.1437754074297353,-0.0052203194145711285
2.741300582885742,1.0053263976101683,1.1465053415550641,-0.07511889997175156
2.7524163722991943,1.009625169378375,1.1492005682784021,0.21162977714601905
2.7610602378845215,1.0131423462796352,1.151866024104751,0.004120345899792044
2.7715563774108887,1.0170503206143686,1.154506841389196,-0.04712448877500319
2.779160499572754,1.0201767000821553,1.1571282716956437,-0.0377501109003331
2.7901244163513184,1.025061668000572,1.1597356541876374,-0.010184477050085163
2.7980997562408447,1.0279926487516222,1.1623296491224895,0.294161844195946
2.8076140880584717,1.0320960218030921,1.164906835301129,0.35023744393765227
2.8201985359191895,1.0373717871549823,1.1674746122701098,0.0354742983982467
2.8310296535491943,1.0416705589231892,1.1700496496611164,0.21275710230722755
2.840965509414673,1.0455785332579226,1.1726418746472493,0.2362035242896259
2.850127935409546,1.0494865075926558,1.175250091418293,0.2028253688234702
2.861025333404541,1.053589880644126,1.1778736502619425,-0.1209807151470019
2.8741819858551025,1.059451842146226,1.1805226284477823,0.07674705179748294
2.885105848312378,1.0633598164809595,1.1832110137986271,0.12788111871699545
2.8960916996002197,1.0676585882491663,1.1859453249161278,-0.15547639158950427
2.909008502960205,1.072543556167583,1.1887311081951957,-0.21479818642684773
2.918705701828003,1.0770377266525264,1.1915782874577978,0.08790659805172771
2.9280905723571777,1.0809457009872598,1.19448950107438,0.17257679316382246
2.93809175491333,1.0852444727554664,1.1974611305566976,0.16888159191075314
2.9475173950195312,1.0891524470901999,1.2004896850060398,0.1354082421631086
2.9574222564697266,1.09325582014167,1.2035718382238705,0.09708136614644586
2.968118667602539,1.0973591931931401,1.2067044726313925,0.0633087847204546
2.9761574268341064,1.1006809713776635,1.209878954679653,0.036659771207002374
2.9891469478607178,1.1059567367295535,1.2130878949700312,0.01692794187448962
2.9991304874420166,1.1100601097810237,1.2163366147789747,0.002969358118892946
3.0081050395965576,1.1137726853990204,1.2196296253008894,-0.0065137419448534056
3.019526720046997,1.1184622546007006,1.2229649715111441,-0.0126757823442573
3.0330135822296143,1.123542621235854,1.226347207968598,-0.01644554446782505
3.041053056716919,1.1268643994203773,1.2297802046015192,-0.01853139164944846
3.0491018295288086,1.129990778888164,1.2332549166853295,-0.019456330555503932
3.057051658630371,1.133507955789424,1.2367574594791044,-0.019598242637969977
3.0670740604400635,1.1372205314074209,1.2402761069184491,-0.019225877875862753
3.079042673110962,1.1423008980425742,1.2438141410014962,-0.01852795474016289
3.089094877243042,1.146599669810781,1.247387652156923,-0.017635471747033914
3.1016361713409424,1.1516800364459343,1.2510107917694457,0.2594000730911202
3.1117522716522217,1.1557834094974044,1.2546890543066886,0.01752741008964355
3.119673728942871,1.1587143902484545,1.2584134749525315,-0.06964985910826293
3.128702163696289,1.162622364583188,1.2621763727324475,0.18642262763415793
3.138324499130249,1.1663349402011847,1.2659779420812078,0.22609233209801133
3.1488492488861084,1.1706337119693915,1.2698182614812075,0.18582998883483431
3.1580512523651123,1.1743462875873882,1.2736972674896223,0.12524941155757907
3.168614149093628,1.1784496606388581,1.2776147573913652,0.06813367967173177
3.176084518432617,1.1815760401066449,1.281563308063596,0.02216801290414111
3.1850898265838623,1.1852886157246416,1.285536581861867,-0.011739872364338266
3.1964242458343506,1.1901735836430585,1.2895434455125654,-0.03518177532071737
3.2046704292297363,1.1934953618275819,1.29358409029999,-0.05037748910699954
3.212087631225586,1.1966217412953686,1.2976442429619297,-0.05942621449188283
3.222937822341919,1.2011159117803119,1.3017191237304355,-0.06406323721443867
3.2340734004974365,1.2054146835485189,1.3058121185565938,-0.0656298985159228
3.2420761585235596,1.2085410630163056,1.309918868976555,-0.06512267901036548
3.253082036972046,1.2128398347845122,1.3140359743654728,-0.06326256944280237
3.265170097351074,1.2175294039861924,1.318183433943939,-0.06056109925986336
3.2740418910980225,1.2210465808874524,1.3223783002914855,-0.05737525710240004
3.284797191619873,1.2253453526556592,1.3266121875585646,-0.053950254093805786
3.2940871715545654,1.2292533269903925,1.3308779898798542,-0.050451588813618
3.3052053451538086,1.2341382949088093,1.3351852685160899,-0.046988531619456
3.317431926727295,1.2390232628272257,1.33954995012502,-0.04363105871650155
3.325045108795166,1.2417588448615395,1.3439695149733015,-0.040421931102302605
3.335538864135742,1.2460576166297461,1.348425751775904,-0.03738524174447317
3.343046188354492,1.2491839960975328,1.3529030094870484,-0.034532425582268614
3.3546719551086426,1.2540689640159497,1.3573960316769862,-0.03186646255291688
3.36415433883667,1.2577815396339465,1.3619164975561229,-0.029384801657265584
3.3760485649108887,1.2624711088356266,1.3664741859742573,-0.02708138399899905
3.386385917663574,1.2667698806038332,1.3710772517150185,-0.0249480334101831
3.398193120956421,1.2710686523720398,1.3757403591278383,-0.022975404628782982
3.4083869457244873,1.2751720254235102,1.3804671557844832,-0.02115362288220147
3.4202187061309814,1.2804477907754,1.385251944634481,-0.295511068616822
3.431046724319458,1.2849419612603434,1.3900892146493595,-0.05104745872998703
3.442107677459717,1.2892407330285505,1.3949816933256582,0.0386026550144981
3.452730894088745,1.2933441060800202,1.3999392188349318,-0.21513229014917937
3.4610557556152344,1.2966658842645435,1.404953017233416,-0.2526076375397099
3.4690959453582764,1.2999876624490672,1.409998583204891,-0.2102957867926163
3.4789373874664307,1.304091035500537,1.4150630281246614,-0.147808160445601
3.4886560440063477,1.3079990098352705,1.4201434825038375,-0.08892288543605315
3.4960172176361084,1.3109299905863208,1.4252374038781368,-0.04131869518370135
3.5080721378326416,1.315619559788001,1.43034255694983,-0.005895986028952374
3.5192513465881348,1.3203091289896807,1.435457015979995,0.018944723305413507
3.5300378799438477,1.324412502041151,1.440579173997435,0.3114693169230448
3.5392351150512695,1.3283204763758845,1.4457077124824247,0.07879409733205142
3.5501372814178467,1.3324238494273544,1.4508415634996188,-0.0036943398790884735
3.562190532684326,1.337504216062508,1.455988242528296,-0.022105498015329867
3.5710206031799316,1.3412167916805044,1.4611540893876764,-0.016120386267247544
3.579509735107422,1.3447339685817647,1.466327669986875,-0.003223402213421621
3.591050624847412,1.3496189365001814,1.4715077953910936,0.009487458579151254
3.5990402698516846,1.352745315967968,1.476701916071472,0.019609474628121907
3.60703182220459,1.3558716954357548,1.481891070052949,0.026739385924824104
3.615363359451294,1.3589980749035415,1.4870594537376862,0.031230283713764587
3.6262872219085693,1.363492245388485,1.4922194302755687,-0.24239497450980124
3.6366333961486816,1.3677910171566916,1.497381711668753,-0.2746377365342292
3.644110918045044,1.3707219979077419,1.5025385108869793,-0.2197335571595026
3.657061815261841,1.3758023645428952,1.5076834215960155,-0.1445630540495223
3.670403003692627,1.3810781298947854,1.5128367594807643,-0.07541443363909228
3.68005633354187,1.384790705512782,1.5180155936938153,-0.02043812413217347
3.6896941661834717,1.3890894772809885,1.523208508687566,0.01977445994703301
3.7003579139709473,1.3935836477659322,1.5284056249221858,0.047355439944102434
3.7112863063812256,1.3982732169676122,1.5336152815507624,0.0650603919479747
3.720031976699829,1.4015949951521356,1.5388441445511882,0.07544059735395263
3.728745937347412,1.4053075707701321,1.544080490325366,0.0805847081599754
3.7380361557006836,1.4090201463881293,1.5493139778402372,0.08209839895377855
3.746020555496216,1.4121465258559158,1.5545356684048637,0.08117031246530243
3.7548911571502686,1.415663702757176,1.5597294932076133,0.07865826637521584
3.7640583515167236,1.4193762783751724,1.5648901183326738,0.07516957485401457
3.7764337062835693,1.424456645010326,1.5700292721142133,0.07112721999482768
3.784851551055908,1.4277784231948494,1.575156522960715,0.06682110632411704
3.795342206954956,1.4318817962463195,1.5802633629781793,0.062446370637574744
3.806042194366455,1.4361805680145263,1.5853421615815961,0.05813138199472017
3.818601131439209,1.4414563333664165,1.5904018412636265,0.05395790315818867
3.827021837234497,1.444582712834203,1.5954494768707714,0.04997545662034594
3.838955879211426,1.4494676807526197,1.6004826499648948,0.046211481845360336
3.8470141887664795,1.4527894589371433,1.6054988271331243,0.04267847240321429
3.8585598468780518,1.4578698255722966,1.6104954607428796,0.0393789639232985
3.868576765060425,1.4617777999070298,1.6154773355608287,0.036309001797361906
3.876044988632202,1.46470878065808,1.6204409119712457,0.03346053837981616
3.8866493701934814,1.4686167549928135,1.6253755007632993,0.030823079135088242
3.8950388431549072,1.4721339318940736,1.6302793403574887,0.028384803540948193
3.9061272144317627,1.4764327036622804,1.6351439106331016,0.026133319802636036
3.9160654544830322,1.4805360767137503,1.639962195246605,0.024056165114611405
3.9270362854003906,1.484834848481957,1.6447357124585462,0.022141129790085416
3.9403772354125977,1.4903060125505836,1.6494800142772408,0.020376460054784905
3.9500839710235596,1.4940185881685808,1.654215251780725,0.018750977768281343
3.9641919136047363,1.4994897522372075,1.6589442489981683,0.01725414374151335
3.973829746246338,1.5035931252886776,1.6636692965311155,0.015876083194494687
3.9844586849212646,1.5076964983401473,1.6683921158067352,0.014607586213608217
3.9951741695404053,1.5119952701083543,1.673106856050351,0.013440092092831427
4.008025884628296,1.5170756367435079,1.6778151556076177,0.012365663670856897
4.016029357910156,1.5203974149280313,1.6825249315385762,0.011376955839981601
4.0247297286987305,1.5237191931125544,1.6872289997784236,0.010467181057243442
4.032994508743286,1.5272363700138143,1.6919075273137776,0.00963007375202211
4.045745372772217,1.5323167366489678,1.6965570599835933,0.008859854877525664
4.054930210113525,1.535833913550228,1.7011814110003949,0.008151197405369955
4.065059185028076,1.5399372866016983,1.7057705360834772,0.007499193255643086
4.077051877975464,1.544822254520115,1.710322343164193,0.006899321945042086
4.089041709899902,1.5497072224385315,1.714848027444538,0.006347421094369923
4.097004175186157,1.5526382031895818,1.7193440831439326,0.005839658840303441
4.105286121368408,1.5557645826573687,1.7237946844827734,0.00537250813647302
4.115701675415039,1.559672556992102,1.728199034853504,0.004942722887952021
4.123435735702515,1.5629943351766253,1.7325628566252342,0.0045473158386575094
4.1348981857299805,1.5676839043783053,1.736878659668489,0.004183538118726068
4.146013975143433,1.5723734735799855,1.7411401104687378,0.0038488603521951393
4.154990911483765,1.5758906504812455,1.745348049471903,0.0035409552221769627
4.168086528778076,1.580971017116399,1.749508960538945,0.0032576813930433116
4.18147873878479,1.5864421811850258,1.7536395007813455,0.0029970686937032765
4.1900739669799805,1.5897639593695492,1.757747543962832,0.0027573044666370115
4.200337171554565,1.5940627311377558,1.761822323499273,0.002536720997189177
4.210710763931274,1.5981661041892261,1.7658544231735211,0.002333783938989908
4.220016002655029,1.6016832810904862,1.7698412497243312,0.002147081658972684
4.228036403656006,1.604614261841536,1.7737752507724047,0.0019753154307723887
4.240261077880859,1.6093038310432162,1.7776497101822608,-0.2742210692692072
4.251614332199097,1.6137980015281594,1.7814739635312027,-0.3074910555141567
4.260050535202026,1.6173151784294195,1.7852559508232904,-0.2525275514038862
4.268654108047485,1.620636956613943,1.7889871259370131,-0.17656559856337295
4.2780210971832275,1.6243495322319397,1.7926597954994077,-0.10615612908861531
4.286041021347046,1.6274759116997264,1.796267667188889,-0.04963848490880135
4.300063848495483,1.6331424744850898,1.7998052169576955,-0.007736699049168457
4.310885190963745,1.6374412462532968,1.8032764610360716,0.02159028150651926
4.321000337600708,1.6411538218712933,1.8066845987763096,-0.23500139460789868
4.333163022994995,1.6458433910729737,1.8100314714740728,-0.2560480832944901
4.345170974731445,1.6505329602746535,1.8133255633819994,-0.19417783817926165
4.355727672576904,1.655027130759597,1.8165728473404525,-0.1150335528935795
4.365537643432617,1.6587397063775937,1.8197665946797554,-0.04398403824254467
4.375588417053223,1.6626476807123272,1.8228936303289327,0.01148736093935436
4.383535385131836,1.6657740601801139,1.825945795820058,0.05126519276430848
4.39099907875061,1.6687050409311641,1.8289162700556116,0.07781672554042347
4.398973703384399,1.671636021682214,1.8317961148130995,0.09413079808885545
4.4069883823394775,1.6747624011500006,1.8345779012535626,-0.17311919459592148
4.416974067687988,1.678670375484734,1.8372554612168124,-0.20278352766187982
4.426998615264893,1.682969147252941,1.8398255812794706,-0.14787565271612735
4.439107418060303,1.6878541151713575,1.8422884183594206,-0.07439351519771313
4.447974443435669,1.6909804946391442,1.8446427812449029,-0.00799934907694505
4.4559948444366455,1.694106874106931,1.8468834616686813,-0.23244476879903772
4.464978218078613,1.6974286522914546,1.8490043760851316,-0.2290682085110593
4.477971315383911,1.702509018926608,1.8509995436175866,-0.150225698612311
4.486907720565796,1.7056353983943944,1.8528611621241926,-0.0602605214364027
4.49558687210083,1.7091525752956547,1.8545813999374985,0.016915897196555507
4.5072808265686035,1.7134513470638615,1.856151519324657,0.07510782527215296
4.515758514404297,1.7169685239651216,1.8575618152727675,0.1152289871506208
4.525972366333008,1.7212672957333282,1.8588049756125862,0.14052559371087336
4.533969879150391,1.7241982764843784,1.8598729610504348,0.15455603108764554
4.54262113571167,1.7275200546689018,1.8607553278670448,0.16043830651279167
4.550546884536743,1.730646434136688,1.8614456431673028,0.1606539817804765
4.56196141242981,1.7351406046216318,1.8619369779946588,0.15707618571533952
4.569984436035156,1.7382669840894187,1.8622190055512455,0.15107175890469923
4.580671072006226,1.742565755857625,1.8622872754042057,0.14361393698124209
4.5900115966796875,1.7464737301923585,1.8621368011911423,-0.1406566189254998
4.6004321575164795,1.7503817045270922,1.8617577194720614,-0.1823232304468328
4.610984563827515,1.7542896788618254,1.861140832888477,-0.1357668369216987
4.623053312301636,1.7587838493467687,1.8602702888231528,-0.06801914849823396
4.631972074508667,1.762105627531292,1.8591323469873966,-0.28154205381464936
4.643011093139648,1.7664043992994989,1.857721877976767,-0.2656478739807654
4.652965545654297,1.7703123736342323,1.8560346408426724,-0.1757135124091701
4.668053388595581,1.7761743351363324,1.8540581170191155,-0.07691717886772817
4.6805949211120605,1.7808639043380126,1.8517533578277996,0.006884412421516467
4.688545227050781,1.7839902838057995,1.8490971967112295,0.06985278141159562
4.697955369949341,1.7878982581405327,1.8461192605575165,0.11331062933627595
4.706035137176514,1.790829238891583,1.842856649787989,0.14086937082014983
4.71587872505188,1.7947372132263162,1.8393222736018646,-0.11965635298041019
4.724965333938599,1.7980589914108396,1.8355180284057484,-0.14597115116595683
4.736394882202148,1.801966965745573,1.8314350041199112,-0.6421952851915234
4.748399019241333,1.806070338797043,1.8270550919712205,-1.1877412964704601
4.760199546813965,1.8093921169815663,1.822375607104355,-2.183339033881765
4.770975589752197,1.8123230977326166,1.8174073360170053,-2.8324514289141978
4.781002044677734,1.8146678823334566,1.812161140307805,-4.0407898505335895
4.789994239807129,1.8166218695008234,1.8066478785042948,-4.599048555042615
4.800459861755371,1.8185758566681898,1.8008783542815237,-5.0
4.811025619506836,1.8201390464020832,1.794863275314286,-5.0
4.820969104766846,1.8211160399857669,1.7886132440468296,-5.0
4.832967042922974,1.82150683741924,1.7821250773720994,-5.0
4.845001220703125,1.82150683741924,1.7753698814197405,-5.0
4.856003761291504,1.8211160399857669,1.76833855042116,-5.0
4.8660266399383545,1.82033444511882,1.7610669802985548,-5.0
4.875866651535034,1.8193574515351367,1.7535874149694548,-5.0
4.889098644256592,1.81740346436777,1.7459002079908592,-5.0
4.899559736251831,1.81564487591714,1.7379925374374277,-5.0
4.910982370376587,1.8129092938828264,1.7298695753408844,-5.0
4.924304962158203,1.8093921169815663,1.7215369092091828,-5.0
4.931978702545166,1.8068519336639899,1.7130010324930163,-5.0
4.94001317024231,1.8041163516296763,1.7042990651039398,-5.0
4.951377868652344,1.7994267824279964,1.6954484103730953,-5.0
4.959738731384277,1.7963004029602097,1.686449928131521,-5.0
4.970002174377441,1.7918062324752662,1.677336020054408,-4.946584614378988
4.9804582595825195,1.7869212645568493,1.6681348752326985,-4.657899527913072
4.991004467010498,1.782427094071906,1.6588554942136489,-4.01637461018999
5.004077434539795,1.7769559300032791,1.6494901196028873,-3.3349285058471967
5.012996673583984,1.7732433543852826,1.6400326324689174,-1.0738532390957545
5.020967721939087,1.7697261774840223,1.6305098670790548,1.8312212754950163
5.030996561050415,1.7652320069990788,1.620944881076913,4.093686375133219
5.043756484985352,1.7599562416471888,1.6113254741510923,5.0
5.051966428756714,1.7566344634626654,1.6016414357442137,5.0
5.060928106307983,1.7529218878446686,1.5919163786082842,5.0
5.070964813232422,1.748623116076462,1.5821703284226478,5.0
5.082308530807495,1.7437381481580454,1.5723879030872503,5.0
5.090547800064087,1.7400255725400484,1.5625561220359587,5.0
5.1025071144104,1.7347498071881584,1.552680311763218,5.0
5.111969470977783,1.7308418328534252,1.5427651504718014,5.0
5.122600078582764,1.7261522636517448,1.5328147164158923,5.0
5.134763240814209,1.7212672957333282,1.5228161296760137,5.0
5.145089149475098,1.7167731252483849,1.5127588021435028,5.0
5.152924537658691,1.7132559483471248,1.502666968669797,5.0
5.167669296264648,1.7070031894115512,1.492544600579805,5.0
5.175752878189087,1.7036814112270278,1.4823621843738763,5.0
5.187631607055664,1.6986010445918742,1.4721117109724207,5.0
5.195868968963623,1.6948884689738777,1.4618034478088389,5.0
5.20898175239563,1.689417304905251,1.451446579809766,4.727645849138277
5.216984033584595,1.686290925437464,1.4410492455314445,4.518812309736988
5.226949453353882,1.6817967549525208,1.4306353510587042,4.315885031995254
5.236518383026123,1.677497983184314,1.42020825027816,4.101625132894912
5.245015621185303,1.6735900088495805,1.4097539467239675,3.875206008951489
5.2575459480285645,1.668509642214427,1.3992774068628377,3.6413887760503565
5.26495885848999,1.6653832627466405,1.3887829085999395,3.405917961003437
5.275348663330078,1.6612798896951704,1.378291063844475,3.1737831318325176
5.286562442779541,1.6556133269098068,1.3678021331935262,2.948742710074139
5.297927141189575,1.651509953858337,1.3572822875333204,2.733359455115745
5.306940793991089,1.6474065808068667,1.346737040552418,2.5292083128476825
5.316768169403076,1.6433032077553966,1.336205077548519,2.3371121281427136
5.32862114906311,1.63841823983698,1.3256847414998387,2.1573505693292074
5.33596134185791,1.63548725908593,1.3151573752517696,1.9898272493954645
5.348757028579712,1.6298206963005666,1.3046241986075207,1.8341961461756149
5.3592002391815186,1.625326525815623,1.2940691821912214,1.689953892595275
5.3684775829315186,1.6212231527641532,1.2834789309851358,1.2804670703894323
5.378350734710693,1.6173151784294195,1.2728594364421313,1.4000851078178016
5.389043569564819,1.6122348117942664,1.2622160004184415,1.3745081019645535
5.399454593658447,1.6079360400260594,1.2515532814272265,1.290543826063226
5.410945653915405,1.6032464708243792,1.2408753366818126,1.1882455357148425
5.420953273773193,1.5995338952063825,1.2301857129256357,1.085221421452204
5.430953502655029,1.5948443260047027,1.2194875248360744,0.9885155165415695
5.439966917037964,1.590936351669969,1.208783450867378,0.9003560107768562
5.450963973999023,1.5860513837515526,1.1980756886716255,0.820894479503059
5.460954427719116,1.5821434094168187,1.1873660174445306,0.7494806532033589
5.470935583114624,1.5780400363653488,1.1766558823216016,0.6852330470637733
5.481137275695801,1.5733504671636689,1.1659464279931298,0.6272772124175579
5.490903377532959,1.5688562966787254,1.1552385221429995,0.5748316102258977
5.499948263168335,1.565339119777465,1.1445327919844919,0.5272269879783819
5.5099098682403564,1.5608449492925216,1.1338296748728482,0.48389931564412836
5.5236406326293945,1.554787589073685,1.123112180883822,0.444374287137754
5.532947063446045,1.5512704121724252,1.1123487945879111,0.40825097391451115
5.5419511795043945,1.5475578365544282,1.1015479338636733,0.3751874308378589
5.550163269042969,1.5438452609364317,1.090751678118423,0.344888957762925
5.563863039016724,1.5379832994343312,1.0799609201888278,0.3170988796196603
5.572985649108887,1.534075325099598,1.0691417254299047,0.2915914329361472
5.582973003387451,1.529971952048128,1.0582830212029666,0.2681663112573447
5.590947389602661,1.5266501738636047,1.047410502827619,0.24664447561390987
5.602704763412476,1.5213744085117145,1.0365460011730996,0.22686491313873922
5.612875699996948,1.5172710354602443,1.0256732195963303,0.20868210053636707
5.622763156890869,1.5129722636920375,1.0147784644875333,0.46800235025972675
5.631906509399414,1.5090642893573043,1.003885023105012,0.4857533507228007
5.642592191696167,1.5041793214388874,0.9930125090361109,0.4165173226273483
5.649934768676758,1.5012483406878376,0.9821598843740026,0.051389749123941786
5.658642768859863,1.4975357650698409,0.9713433452813031,-0.0642189803459396
5.670916318893433,1.4924553984346873,0.9605760888437469,0.1992920040051159
5.6820008754730225,1.4879612279497438,0.9498339072460382,0.25638258545300474
5.6953208446502686,1.4820992664476438,0.9390612684242383,-0.0429563640131308
5.706883192062378,1.4774096972459638,0.9282115669256457,0.1524009736905307
5.716949224472046,1.4729155267610203,0.9172810510511452,0.19206545033625827
5.725273609161377,1.4693983498597603,0.9063022824569825,0.17175578975451122
5.734933137893677,1.46529497680829,0.8953207440976875,0.1339322230190018
5.7437217235565186,1.4617777999070298,0.8843575302055435,0.09604846950559623
5.754922151565552,1.4568928319886134,0.8734128736358874,0.0641906673830448
5.76562762260437,1.4522032627869332,0.8624867061940689,0.03955591600315655
5.774916887283325,1.4480998897354633,0.8515786861046367,0.021452918732480106
5.784936904907227,1.443996516683993,0.840688273622644,0.008635280741611958
5.7959349155426025,1.4391115487655763,0.8298147651085797,-0.0001487437117456752
5.804939031600952,1.4353989731475796,0.818957314122013,-0.005963195035359357
5.816745042800903,1.4303186065124263,0.8080975574324717,-0.00964513971931453
5.829902172088623,1.4248474424437991,0.7972025383625498,-0.011825106098716419
5.838751792907715,1.420939468109066,0.7862621798181635,-0.012965340578754562
5.850043535232544,1.416054500190649,0.7752858732250705,-0.013398552749038607
5.860353469848633,1.4117557284224425,0.7642819104567687,-0.013361010790269374
5.869903326034546,1.4076523553709723,0.7532575509650015,-0.0130186868446379
5.879909515380859,1.4033535836027657,0.7422191143149175,-0.012487040406764445
5.889939785003662,1.3990548118345592,0.731171988186427,-0.01184560046465723
5.898985862731934,1.3951468374998257,0.7201206813798564,-0.011148533397637873
5.910932779312134,1.3896756734311988,0.7090689361986967,-0.01043221473837215
5.91993260383606,1.3855723003797287,0.6980021855102608,-0.009720611034839757
5.928468942642212,1.3820551234784686,0.6869080950500677,-0.009029082918276598
5.936975717544556,1.3785379465772085,0.675811537884879,-0.008367060487815239
5.947416067123413,1.374239174809002,0.6647333826749833,-0.0077399184241925476
5.958794116973877,1.3695496056073215,0.6536732275009969,-0.007150285809719887
5.969100475311279,1.3648600364056418,0.6426302126437762,-0.0065989580049266895
5.9799089431762695,1.3603658659206983,0.6316030991034511,-0.006085529135705189
5.992165803909302,1.3552854992855448,0.6205725227149024,-0.005608828859258072
6.003065824508667,1.3507913288006015,0.6095039743666314,-0.005167222295821557
6.010881423950195,1.347469550616078,0.5984040865183785,-0.0047588144875574685
6.021464109420776,1.3429753801311346,0.5873142366570566,-0.004381588388195046
6.03092098236084,1.3386766083629278,0.5762510628567429,-0.004033496697242874
6.039587020874023,1.3347686340281941,0.5652101852147855,-0.0037125217467827414
6.049767732620239,1.3302744635432509,0.5541877284187414,-0.003416713366383749
6.063901424407959,1.324412502041151,0.543163096317437,-0.003144211653403662
6.075897216796875,1.3195275341227342,0.5321025709649371,-0.0028932594729711592
6.089679956436157,1.3134701739038972,0.5209809963576764,-0.0026622080425988542
6.100849628448486,1.3089760034189541,0.5097815274724141,-0.002449517928955524
6.1133873462677,1.303700238067064,0.49849567424983543,-0.002253757065856934
6.121953248977661,1.2997922637323305,0.4871228182311683,-0.0020735969005522634
6.131911993026733,1.2954934919641234,0.4756990148857206,-0.0019078074285484867
6.139886379241943,1.2921717137796,0.46429030439707486,-0.27779361130908875
6.148673057556152,1.2886545368783402,0.45294133807062376,-0.3107778424973368
6.158956050872803,1.2843557651101334,0.4416787990046915,-0.25555142924304153
6.170637845993042,1.2788846010415067,0.43052911630410456,-0.17934758984557364
6.184736967086792,1.2728272408226697,0.4195066395130791,-0.10871557763735293
6.195460319519043,1.2685284690544634,0.40861587909131003,-0.05199318917202329
6.203484296798706,1.2652066908699398,0.39787643954561036,-0.009903035090309695
6.210913896560669,1.262080311402153,0.3873294323492472,0.019597246665477706
6.219572305679321,1.2583677357841563,0.3770206519574627,0.03920336903877143
6.227519750595093,1.2550459575996329,0.3669786172597443,0.05142796841149778
6.235879182815552,1.2513333819816361,0.35722597843893594,0.05833590787628222
6.244873523712158,1.2474254076469027,0.34778995338722507,0.06151934345789488
6.252878665924072,1.2439082307456428,0.3386912779595389,0.0621604039071151
6.262292861938477,1.2398048576941727,0.32993683550006236,0.06111509323139447
6.270875930786133,1.2364830795096493,0.32152182642183696,0.05899199896318627
6.281611204147339,1.2317935103079691,0.3134405902161546,0.05621734230148848
6.288872480392456,1.2284717321234457,0.3056867554949147,0.05308545920722177
6.300419092178345,1.223586764205029,0.298253240088612,0.049796581479091835
6.309926748275757,1.2196787898702957,0.29113240048088607,0.046484479269520144
6.319764852523804,1.2155754168188255,0.28432217050083847,0.04323638444546534
6.329877614974976,1.2114720437673556,0.27781329995732024,0.040107201402701825
6.342888593673706,1.2061962784154654,0.2715840984657868,0.037129566314939993
6.351878643035889,1.202288304080732,0.2656263710045688,0.034320925539480907
6.36438250541687,1.1972079374455786,0.25993774095017785,0.0316884915734734
6.375095844268799,1.192127570810425,0.2545040152032624,0.029232696754745734
6.38607382774353,1.1874380016087451,0.24931174123637512,0.026949588395973483
6.39700984954834,1.1829438311238019,0.24434917099086648,0.024832480604725232
6.405925989151001,1.1790358567890682,0.23960506168632711,0.022873085709276847
6.41519021987915,1.1749324837375983,0.2350772771953422,0.021062282367909895
6.424892902374268,1.1706337119693915,0.23076271090737188,0.01939063075347192
6.434923887252808,1.1665303389179214,0.2266531154806758,0.01784871223269005
6.44459080696106,1.1622315671497148,0.22274023963560705,0.016427347740308313
6.455512762069702,1.1577373966647713,0.21901582904891193,0.015117732725696963
6.463465929031372,1.1544156184802479,0.21547167719392932,0.013911515103045412
6.472860813140869,1.150703042862251,0.2121027734659274,0.012800834607592243
6.480853796005249,1.1471858659609908,0.2089066825710233,0.011778336345981907
6.4908530712127686,1.1426916954760478,0.20587682175185382,0.010837167397219814
6.503895282745361,1.1370251326906842,0.2030005642390602,0.009970962578689697
6.512933254241943,1.1333125570726872,0.20026624099681664,0.009173823574690694
6.52121114730835,1.1295999814546906,0.19766846137146635,0.284478653969534
6.5328919887542725,1.124715013536274,0.19519927262717332,0.31692829720940674
6.5408501625061035,1.1213932353517506,0.1928484049338568,0.26120999840336034
6.549593210220337,1.1176806597337539,0.19061127597634211,0.18455357905075648
6.556871652603149,1.1149450776994405,0.1884854608487953,0.11350516161060333
6.56784725189209,1.1100601097810237,0.1864657646504116,0.056399658160557906
6.579389572143555,1.105175141862607,0.18454270909654866,0.013957022772882507
6.589825630187988,1.1004855726609268,0.1827076464484751,-0.01586755264826612
6.602672576904297,1.0950144085923001,0.18095304983361088,-0.03577203279845227
6.612847805023193,1.0907156368240933,0.17927209553680884,-0.04827112664929507
6.622252941131592,1.0866122637726232,0.17766058991678654,-0.055431604760294295
6.632915019989014,1.0819226945709433,0.1761129280835366,-0.05884737850482388
6.6418726444244385,1.0782101189529465,0.17462402239193706,0.21633616778894132
6.651843547821045,1.0735205497512663,0.17319260896577968,0.25030942764697506
6.664930582046509,1.0680493856826394,0.17181730996555328,-0.07888401691082983
6.677875518798828,1.0627736203307494,0.17049210426431913,-0.18548541794280565
6.6858625411987305,1.0596472408629627,0.16921164875167707,0.07810626993050115
6.6957151889801025,1.055348469094756,0.16797565429273778,0.13384207681757493
6.707127571105957,1.0506588998930757,0.1667823522238085,0.11045238179675322
6.717923879623413,1.0455785332579226,0.16562734940904994,0.06470288863393442
6.725868463516235,1.0426475525068724,0.16450939762263891,0.019669509506810692
6.734865427017212,1.038739578172139,0.16342979948994454,-0.016812972980847156
6.747879266738892,1.0332684141035122,0.16238698531863707,-0.04340863940213538
6.759288787841797,1.0279926487516222,0.16137706109685848,-0.06124667075719878
6.769149541854858,1.0236938769834154,0.1603978103915391,-0.0721405576143693
6.77687406539917,1.020372098798892,0.1594494640440514,-0.07786290474901353
6.789880037307739,1.0149009347302653,0.15853207206165001,-0.07989841528041378
6.802242279052734,1.0098205680951118,0.1576424083846512,-0.0794012364411984
6.810869216918945,1.006107992477115,0.15677760649127515,-0.07723018076684138
6.819528341293335,1.002590815575855,0.15593818274754803,-0.07400587516053107
6.827383756637573,0.9990736386745949,0.15512446062977364,-0.07016697063930778
6.834857225418091,0.9959472592068082,0.15433648391245192,-0.06601755347892321
6.842914819717407,0.9926254810222849,0.15357501986847144,-0.06176432986743473
6.85184645652771,0.9885221079708147,0.15284048767720856,-0.05754462110646767
6.863750457763672,0.9832463426189246,0.1521321718928948,-0.053446913338628055
6.874084949493408,0.9789475708507178,0.15144756931363895,-0.04952569140644808
6.883851766586304,0.9746487990825112,0.1507843992084505,-0.04581202178359396
6.894864320755005,0.9701546285975677,0.15014148957625031,-0.04232103697129862
6.907721996307373,0.9642926670954678,0.1495169809663843,-0.03905719133861711
6.91682505607605,0.9605800914774709,0.14890919547366135,-0.036017928895987275
6.92484974861145,0.9572583132929476,0.1483181678852565,-0.033196226957825294
6.935853481292725,0.952764142808004,0.14774386925367755,-0.030582348146895456
6.948224306106567,0.9474883774561141,0.14718475520171853,-0.028165037179248325
6.955826997756958,0.9443619979883273,0.14663943933064671,-0.02593232969490345
6.964874982833862,0.9402586249368571,0.14610740990729182,-0.023872090997825314
6.9779558181762695,0.9345920621514938,0.14558753860415674,-0.021972367510707996
6.986246824264526,0.9308794865334971,0.14507882552269116,-0.020221608973598548
6.994810581207275,0.9271669109155003,0.14458168875069863,-0.018608801964739272
7.003302097320557,0.9236497340142403,0.14409704017430325,-0.017123543056166212
7.012615919113159,0.9199371583962435,0.1436249358117537,-0.015756071311810217
7.021843194961548,0.9156383866280366,0.14316531728426346,-0.014497273809971404
7.03461480140686,0.91016722255941,0.14271807988841886,-0.28937703333262255
7.045830726623535,0.9054776533577299,0.14228189330591162,-0.32143536982913457
7.056821584701538,0.9009834828727865,0.14185556550674214,-0.26535689973887616
7.065381765365601,0.8972709072547898,0.1414386216475488,-0.18836900444801705
7.073854923248291,0.8937537303535298,0.14103062302069846,-0.11701554629446803
7.083462953567505,0.8896503573020595,0.14063117608767123,-0.3356677070714469
7.090859413146973,0.8867193765510096,0.1402404397850355,-0.32609139443291907
7.1041579246521,0.8808574150489095,0.13985850598897437,-0.24093191602267672
7.1156227588653564,0.875777048413756,0.13948438423558487,-0.14472377613961626
7.124840021133423,0.8714782766455493,0.13911721358486767,-0.06150082852642763
7.137892484664917,0.8662025112936592,0.13875627747622277,0.0024665370716199855
7.1458752155303955,0.8628807331091358,0.13840094444513218,0.04805020735239718
7.1538519859313965,0.8595589549246124,0.13805162023954912,0.07847682789940341
7.167073965072632,0.853892392139249,0.13770816823722234,0.09730009859341154
7.177743911743164,0.8492028229375689,0.13736953714866565,0.3836814276984214
7.18595814704895,0.8456856460363087,0.13703576606646045,0.42116146227080115
7.196859121322632,0.8411914755513653,0.13670778220993277,0.36632013588767226
7.2072131633758545,0.8368927037831586,0.1363854669223439,0.011736981980282252
7.216261863708496,0.8331801281651618,0.1360678174373029,0.17994363442613043
7.22459864616394,0.8296629512639019,0.13575482694888968,0.20633165726120678
7.233834266662598,0.8255595782124316,0.1354473258533178,0.17956437713580897
7.2459557056427,0.8202838128605418,0.13514514623639742,-0.1374262595234087
7.254818439483643,0.8165712372425449,0.1348477087087224,-0.20995312122818444
7.264832496643066,0.8122724654743383,0.1345553360436016,-0.1874631062190409
7.275875091552734,0.807582896272658,0.13426826941002049,-0.1364012024851341
7.287855863571167,0.8026979283542414,0.13398588914873927,-0.0842040978614675
7.299015760421753,0.7983991565860346,0.13370729632468278,-0.04054845925544402
7.312992095947266,0.7923417963671978,0.13343174385101472,-0.007451162531197406
7.322772026062012,0.7876522271655179,0.13315859681368894,0.016047275679857836
7.331036329269409,0.784525847697731,0.13288807984073697,0.03179761088147003
7.342894792556763,0.7792500823458409,0.132620781120398,0.31771728157381074
7.3508405685424805,0.7761237028780542,0.1323568083656589,0.3564557738050824
7.360404014587402,0.7718249311098475,0.13209658956841744,0.027925784083540878
7.369836091995239,0.7677215580583774,0.13184048474241045,-0.0807407085100463
7.38017725944519,0.7636181850069071,0.13158806999162487,-0.09699563293348344
7.389848709106445,0.7589286158052272,0.13133896607259854,-0.07924164917042416
7.403865575790405,0.7532620530198638,0.131093205306234,-0.0529591540962758
7.415857553482056,0.7485724838181836,0.1308504841892829,-0.028288642594956274
7.425861358642578,0.744273712049977,0.13061053506500497,0.26755323640056755
7.436812162399292,0.7393887441315602,0.13037344816440716,0.315253340204519
7.449915885925293,0.7339175800629335,0.1301389757166544,0.27020573259161584
7.459875106811523,0.7298142070114633,0.1299065978513724,0.20060993855785772
7.470317125320435,0.7253200365265199,0.1296762060345239,0.1339255101002507
7.481148719787598,0.7204350686081032,0.12944803171704175,0.07924147664392667
7.490334510803223,0.7167224929901064,0.12922223649295617,0.03786063901493359
7.498439788818359,0.7134007148055831,0.12899893965801418,0.00817146192378717
7.508589744567871,0.7091019430373763,0.12877825673316418,-0.0122101143700169
7.51880145072937,0.7046077725524329,0.12856028537601982,-0.02557562233881713
7.5314905643463135,0.6993320072005428,0.12834481017714625,-0.03383560232476159
7.542871475219727,0.694447039282126,0.1281313572967956,-0.038476178875069864
7.550834894180298,0.6911252610976026,0.12792008922293294,-0.04060788382802724
7.560894250869751,0.6870218880461326,0.1277117138084382,-0.04103941357964272
7.5751237869262695,0.6811599265440325,0.12750625104578192,0.23568933637803302
7.585400104522705,0.6766657560590891,0.12730284964601937,0.2702186021949093
7.595843315124512,0.6721715855741456,0.1271008056294507,0.21695645038696265
7.605267763137817,0.6680682125226756,0.12690035537955768,0.1429417935426326
7.61538553237915,0.6641602381879422,0.12670223872238265,0.0745923133545384
7.624798774719238,0.6600568651364721,0.1265068027417928,0.02015831352519217
7.6362645626068115,0.6551718972180554,0.1263137901400907,-0.019694341423360417
7.647932052612305,0.6498961318661652,0.1261227151105159,-0.04704346678301538
7.656802654266357,0.6461835562481684,0.1259336680446013,-0.0646056001952448
7.6648008823394775,0.6428617780636451,0.1257472334333427,-0.0749042496497766
7.67380690574646,0.6391492024456484,0.1255639055838411,-0.0800084628777714
7.68964958190918,0.6325056460766015,0.12538357479491738,-0.08151016557302562
7.699590682983398,0.6284022730251315,0.12520535349697978,-0.08058841437767286
7.7099668979644775,0.623908102540188,0.1250287247055664,0.1979439768944169
7.721217393875122,0.6192185333385081,0.12485376430066653,0.23453215252828263
7.730823993682861,0.6149197615703013,0.12468053959371751,-0.09259020815285327
7.740259170532227,0.6112071859523045,0.12450908617960316,-0.1975246708215166
7.750184059143066,0.6071038129008345,0.12433943917897412,0.06743157330531707
7.761226415634155,0.6024142436991544,0.12417163845451676,0.12430340007793877
7.770803451538086,0.5983108706476843,0.12400568438802301,0.10187475657482734
7.783042907714844,0.5930351052957942,0.12384133146130086,0.05695030682955323
7.7918267250061035,0.5889317322443242,0.12367836981849695,0.012634449244010002
7.801398515701294,0.5846329604761173,0.12351708127766205,-0.023217042115824725
7.8111467361450195,0.5805295874246473,0.12335748259440515,-0.04925261968718278
7.822273254394531,0.576035416939704,0.12319912264387231,-0.0665896818438638
7.832783222198486,0.5719320438882337,0.12304207072011077,-0.07703270404516965
7.8427064418792725,0.5678286708367637,0.12288660166375409,-0.0823472787140046
7.85345196723938,0.562943702918347,0.12273248306744274,-0.08401255674573394
7.860887765884399,0.5598173234505602,0.12257974704722145,-0.08317820775337781
7.868766784667969,0.5566909439827735,0.12242886806751173,-0.08069936667475
7.8788158893585205,0.5523921722145668,0.1222802236379319,-0.07719358654918827
7.886784791946411,0.54926579274678,0.12213409789747502,-0.07309690723577038
7.896844387054443,0.5447716222618366,0.1219902851611137,-0.06871116456659962
7.909800052642822,0.5393004581932099,0.1218479514600505,-0.06424110062918965
7.921453237533569,0.5342200915580564,0.12170637509486253,-0.059822304183980955
7.929628849029541,0.5308983133735331,0.12156559644875062,-0.05554171954567293
7.939924240112305,0.5264041428885896,0.12142608158244445,-0.05145244955585403
7.94977068901062,0.5223007698371195,0.1212879992129901,-0.04758431478627734
7.962429761886597,0.5170250044852295,0.1211510737293153,-0.043951319386359565
7.972891569137573,0.5129216314337594,0.1210148695412039,-0.04055689215689327
7.98408842086792,0.5082320622320793,0.12087920999653089,-0.31343590202460814
7.99311637878418,0.5045194866140825,0.12074415623009017,-0.3436283562599043
8.003814458847046,0.4998299174124025,0.120609769465957,-0.2858156330016133
8.013414859771729,0.49572654436093233,0.12047629890300357,-0.20721987241354636
8.022781610488892,0.4916231713094623,0.12034415671074443,-0.13437852984802517
8.0345139503479,0.4869336021077822,0.12021328622838576,-0.07561742261500973
8.042631387710571,0.48361182392325885,0.12008323212114168,-0.031647352462017324
8.054062843322754,0.47853145728810537,0.11995379778140773,-0.00041454134828327813
8.064513206481934,0.47384188808642536,0.11982501735046275,-0.2552507469393103
8.071804285049438,0.4707155086186386,0.11969712373692214,-0.27468092820495055
8.084864377975464,0.4656351419834852,0.11957031486150002,0.06471589561974472
8.094253778457642,0.46192256636548845,0.11944436190446103,0.1783546681307359
8.104897022247314,0.45742839588054507,0.1193190651516793,0.19556772532402705
8.11506986618042,0.4529342253956016,0.11919445332897291,0.1761144086144086
8.12582015991211,0.4486354536273949,0.11907036493809559,0.14643727677949123
8.134815216064453,0.4447274792926615,0.11894667236045642,0.11734948420154459
8.143415689468384,0.44101490367466467,0.11882363645864549,0.09256994564373719
8.155235767364502,0.43632533447298466,0.11870146857505808,0.07277493785863656
8.163665294647217,0.43261275885498784,0.11858017234669202,0.057472701207169685
8.173432111740112,0.4283139870867812,0.11845975524153299,0.04583488941011883
8.18082046508789,0.4251876076189945,0.1183403185248815,0.03703818798467151
8.190320253372192,0.4212796332842611,0.11822220793865681,0.03038323911387948
8.1997549533844,0.4173716589495276,0.11810577709945785,0.025317775981793706
8.213956356048584,0.4117050961641642,0.11799087660008051,0.02142275194089611
8.224104642868042,0.4074063243959575,0.11787703013101652,0.018387590831850882
8.234866857528687,0.4031075526277507,0.11776399886596536,0.01598533510757852
8.24424958229065,0.3995903757264907,0.11765175349710341,0.014051479483503842
8.255860567092896,0.3943146103746005,0.11754009758520241,0.28850562318516143
8.26400637626648,0.3907974334733405,0.1174288481829359,0.044271628530848275
8.27385687828064,0.38649866170513375,0.11731819748518833,-0.04506838755351162
8.282785415649414,0.38278608608713705,0.11720849571348992,-0.06701711883166604
8.29409384727478,0.3779011181687203,0.11709986063106066,-0.062291392033346354
8.304628372192383,0.3736023464005135,0.11699203529470555,-0.04912688112177251
8.315795660018921,0.3689127771988334,0.1168846364897916,-0.03515681622542863
8.326740741729736,0.36441860671389,0.11677752426062359,0.2528785661971041
8.335752725601196,0.3605106323791566,0.11667090405112118,0.2953633557296934
8.34480333328247,0.35679805676115983,0.1165649314691216,0.24716438407180935
8.355926513671875,0.35210848755947977,0.11645941955390286,0.1759570733167391
8.36614990234375,0.34780971579127296,0.11635406551502506,0.10875898153610396
8.377119302749634,0.34312014658959294,0.11624877801267842,0.05431438792503441
8.385786056518555,0.33960296968833287,0.11614379865924412,0.013669120855587798
8.396849632263184,0.3349134004866528,0.11603934744675379,-0.014974191774561696
8.404766082763672,0.3315916223021294,0.11593547300417227,-0.03413095537414115
8.415576457977295,0.32729285053392265,0.11583236601720825,-0.04618369363753723
8.426741361618042,0.3226032813322426,0.11573015405303143,-0.0531047111489998
8.437851428985596,0.31771831341382584,0.11562862320946879,-0.056421064717347376
8.449753284454346,0.3132241429288824,0.11552730928081578,0.2187688031373187
8.462817907333374,0.30775297886025565,0.1154258353385503,0.2526880140813945
8.47409462928772,0.3026726122251022,0.11532419004192786,0.19944116725192235
8.48365068435669,0.2987646378903688,0.11522252213813422,0.12585045670999775
8.49285364151001,0.29505206227237213,0.11512111300464706,0.05818105157505254
8.50084924697876,0.2917302840878486,0.11502033795786763,0.004577321137926953
8.509305477142334,0.28821310718658855,0.11492035444209735,-0.034367481117148685
8.520185947418213,0.2837189367016452,0.11482115166833588,-0.06078018629567062
8.53016471862793,0.2792247662167018,0.11472258811073405,-0.07740977999609193
8.538434505462646,0.2755121905987051,0.11462455199880951,0.18923768804114163
8.546127557754517,0.2721904124141816,0.11452736241342155,0.21812813909567538
8.558827638626099,0.2671100457790282,0.11443127269194059,0.16235410731220704
8.568302392959595,0.2633974701610315,0.11433606827565551,0.0879669288060844
8.578721523284912,0.2594894958262981,0.11424157092608453,0.02066427782573743
8.591837167739868,0.2538229330409346,0.11414762915409452,-0.031817622939002636
8.600755214691162,0.2501103574229379,0.11405410015215107,-0.06917386951368197
8.611794710159302,0.2456161869379945,0.11396100384004854,-0.09373188215587178
8.624749422073364,0.24034042158610439,0.11386823638420925,0.16766030119470626
8.637381076812744,0.23506465623421427,0.11377557720457343,0.1934136495254562
8.6453697681427,0.23154747933295422,0.11368297546959061,0.13607719300262017
8.658599615097046,0.22588091654759082,0.11359054918943691,0.061246819740283315
8.666756868362427,0.22236373964633074,0.11349828735162945,-0.0057337856292620434
8.678726434707642,0.217478771727914,0.11340617576250019,-0.05739164528954038
8.686747789382935,0.21435239226012726,0.11331446850295604,-0.09361188775247736
8.695414066314697,0.2110306140756039,0.11322353522411609,-0.1168560287569628
8.703570127487183,0.2075134371743438,0.1131335866082917,-0.13010320595584426
8.713944673538208,0.20301926668940037,0.11304468141005226,0.13998520100863293
8.726729393005371,0.19813429877098362,0.11295676333396246,-0.10376567301899264
8.735723733901978,0.1942263244362502,0.11286979319626197,-0.18937658170596838
8.746881246566772,0.18953675523457011,0.11278386722136362,0.0705105297565018
8.760021209716797,0.18387019244920672,0.11269888999452876,0.11538496649338977
8.77371883392334,0.17820362966384326,0.11261470280958756,0.08111455939068082
8.785726070404053,0.1733186617454265,0.1125313980053114,0.026897515208508346
8.797963380813599,0.1682382951102731,0.11244908431862786,-0.023763877901154203
8.808113098144531,0.16393952334206632,0.11236778777825682,-0.06336952013978885
8.815740585327148,0.1610085425910163,0.11228772540776392,-0.09112970433095768
8.82472038269043,0.15729596697301954,0.11220934100244162,-0.10870765958259557
8.839882612228394,0.15143400547091945,0.11212686801765372,-0.11836263370285553
8.849754333496094,0.14733063241944935,0.11202255326488363,-0.12221161121146484
8.85884428024292,0.14361805680145262,0.11188212167737605,-0.12199321275006916
8.86972165107727,0.13892848759977253,0.11170852715081117,-0.11904269638093312
8.881618976593018,0.1338481209646191,0.11151122071311283,-0.11434452379902926
8.894719123840332,0.12837695689599235,0.11129647992453394,-0.10860412442167419
8.906498193740845,0.12349198897757559,0.11106856241620955,-0.3783539140835042
8.91573190689087,0.11997481207631551,0.11083174508461636,-0.1289421182537427
8.923713207244873,0.11665303389179212,0.11059074818187478,-0.03423958736307811
8.93314504623413,0.11254966084032206,0.1103504578442115,-0.00693604560364873
8.940749883651733,0.10961868008927202,0.11011555873595717,-0.006439418731481704
8.950256586074829,0.10610150318801194,0.10989040960767463,-0.014591704533943681
8.959918022155762,0.10277972500348855,0.10967975095937804,0.5282718138964985
8.97050142288208,0.09906714938549181,0.109488715173405,1.41511745070017
8.979759931564331,0.0959407699177051,0.10932241495569808,1.9512048895402958
8.993291139602661,0.09203279558297167,0.10918692748030685,3.353230555296661
9.003758192062378,0.08929721354865831,0.1090891503534669,4.1753879676054275
9.01175856590271,0.08734322638129159,0.10903329327684491,4.880551598032844
9.019832849502563,0.08538923921392488,0.10902098282442312,5.0
9.027745485305786,0.0834352520465582,0.10905354052546112,5.0
9.035749673843384,0.08167666359592816,0.10913199311614274,4.984046062594733
9.043831586837769,0.07991807514529814,0.10925872349078301,5.0
9.05642580986023,0.07737789182772142,0.10943907672140274,5.0
9.067757368087769,0.07542390466035472,0.10967767494627795,5.0
9.07577633857727,0.07444691107667137,0.10997492518644583,5.0
9.083759784698486,0.07327451877625135,0.11033116612233015,4.753064822683514
9.094096660614014,0.07229752519256799,0.11074839755730215,5.0
9.102757930755615,0.07151593032562131,0.11122605776780589,5.0
9.118783712387085,0.07073433545867464,0.11176577192851098,5.0
9.131264209747314,0.07034353802520128,0.1123778009785108,5.0
9.140739679336548,0.07034353802520128,0.11306852378058356,5.0
9.149776458740234,0.07053893674193797,0.11383133101708418,5.0
9.15770673751831,0.07073433545867464,0.11465768031854706,4.268430466873394
9.169806957244873,0.07112513289214797,0.11554752672580072,4.193756644988432
9.1809663772583,0.07190672775909465,0.11650572987946167,4.018427828862852
9.193725109100342,0.07288372134277801,0.11753630702323066,3.2437027263519793
9.203979969024658,0.07366531620972468,0.1186424725283308,2.6602837160645083
9.213553190231323,0.07503310722688138,0.11982369854385758,2.217391474834864
9.222711324691772,0.0762054995273014,0.1210732474726065,1.3252129620200734
9.23486852645874,0.07796408797793142,0.12238489416386257,0.9940523510028114
9.24471378326416,0.07972267642856146,0.12375879183505706,0.8945313922455597
9.257781267166138,0.08226285974613817,0.1251975978869833,1.153811366651693
9.267744541168213,0.08441224563024154,0.12670308111337905,0.9134395906420741
9.275773286819458,0.08617083408087158,0.12826995625448553,0.5468893133526946
9.28780198097229,0.08832021996497495,0.12989008536672228,0.2027914395759891
9.299736261367798,0.09125120071602501,0.1315622271751469,0.20490669815170237
9.309718608856201,0.09359598531686505,0.13328473532536853,0.039603446159011735
9.320017576217651,0.09613616863444177,0.13505253219018512,-0.42471454939067976
9.331018924713135,0.0992625481022285,0.13686081331324085,-0.6159599389399133
9.341275453567505,0.10219352885327855,0.13870818037679658,-0.9515861657540533
9.349713802337646,0.10453831345411858,0.14059296932146717,-1.5345533647624447
9.357769012451172,0.10688309805495863,0.1425038605896243,-1.791947588949959
9.368787050247192,0.11020487623948202,0.14443096397777413,-2.1501374012607757
9.378708600997925,0.1135266544240054,0.14637520770778822,-1.8948489604358016
9.388149976730347,0.1168484326085288,0.14833722943634473,-2.2959022173686336
9.398761987686157,0.12036560950978886,0.15031427167074507,-2.252469836196422
9.407849073410034,0.12329659026083893,0.15230390105962596,-2.323173953621481
9.418816566467285,0.12720456459557233,0.15430400267150376,-2.3893181538406187
9.429047107696533,0.13072174149683238,0.1563127964157079,-2.4127548448317295
9.439159631729126,0.13443431711482912,0.15832883167899406,-2.6650720481038044
9.44856595993042,0.1379514940160892,0.16035094580228082,-2.91116764313142
9.460719585418701,0.1424456645010326,0.16237824579472068,-3.073567705531489
9.46930718421936,0.14557204396881931,0.16441009526448525,-3.417317341781784
9.476690769195557,0.14830762600313271,0.16644608918449563,-3.7131413018229282
9.485054016113281,0.15123860675418274,0.1684859853990631,-4.1688073057736625
9.492767572402954,0.15397418878849614,0.1705228682186466,-4.263301859764714
9.501996755599976,0.15710056825628288,0.1725476803914712,-4.172385619293268
9.510704755783081,0.16022694772406962,0.17455979822788012,-4.265010920941628
9.519627809524536,0.16335332719185633,0.17655896386313386,-4.3479576607880945
9.530692100524902,0.1674567002433264,0.17854879605316248,-4.083814171555378
9.54070258140564,0.17116927586132313,0.18053608594916715,-3.9851274811334108
9.550718069076538,0.17468645276258318,0.18251984001429103,-3.9106468213350456
9.55973482131958,0.17781283223036992,0.18449939267632023,-4.087222426581843
9.57076096534729,0.18133000913162997,0.18647784321671607,-3.986003755378625
9.582175970077515,0.1850425847496267,0.18846152064105193,-4.042773189301293
9.590344429016113,0.18758276806720342,0.19045583779800734,-4.367153682036161
9.597780466079712,0.18992755266804345,0.1924582447694322,-4.6636667979045665
9.605722665786743,0.19207693855214686,0.19446299772771958,-4.838905124832097
9.615712642669678,0.19461712186972355,0.19646524422123382,-5.0
9.62434983253479,0.1969619064705636,0.198464533458158,-5.0
9.631824970245361,0.198525096204457,0.20046055728439396,-5.0
9.640507698059082,0.20047908337182369,0.20244952407979236,-5.0
9.6526780128479,0.20301926668940037,0.20443551729637757,-5.0
9.664676666259766,0.20516865257350375,0.206429235210226,-5.0
9.676351547241211,0.20712263974087047,0.20843960105377704,-5.0
9.684942483901978,0.20829503204129046,0.21047031955321238,-5.0
9.69277048110962,0.20927202562497385,0.21251704990766776,-5.0
9.704415082931519,0.21063981664213055,0.214575850888495,-5.0
9.716621398925781,0.21220300637602388,0.21665028981150353,-5.0
9.72871732711792,0.2131799999597072,0.21874663607186057,-5.0
9.738893270492554,0.21396159482665392,0.22086624306467748,-4.920971609551669
9.749243259429932,0.2147431896936006,0.22300628598504457,-4.382744313462843
9.757248401641846,0.2153293858438106,0.22516399645802157,-3.746325224253102
9.76537036895752,0.2155247845605473,0.22733321195950434,-2.8782137422385565
9.772705316543579,0.2159155819940206,0.22950500208745617,-2.3419382860954636
9.780667304992676,0.2161109807107573,0.2316717341934988,-1.434226388159657
9.789688110351562,0.2166971768609673,0.23382696562321642,-0.8382048595951501
9.799667835235596,0.21728337301117734,0.23597220996958237,-0.4457332620803064
9.810777187347412,0.21786956916138733,0.2381156734566088,0.08801281293239166
9.81957745552063,0.21845576531159733,0.24025735185780525,0.8408197213704391
9.830224514007568,0.21923736017854403,0.24239031447261866,1.7870794285904628
9.838745832443237,0.219823556328754,0.2445121588923188,2.8704349991820908
9.848241090774536,0.22080054991243736,0.24662435358314028,3.757652659376742
9.856173276901245,0.22158214477938404,0.24872481078607683,4.368050725074108
9.865357637405396,0.2225591383630674,0.250808443082117,4.996958999838599
9.87392520904541,0.22353613194675076,0.2528744463383573,5.0
9.884307384490967,0.22490392296390746,0.25492564820810854,5.0
9.89567518234253,0.2264671126978008,0.2569645275803958,5.0
9.908441305160522,0.22822570114843083,0.25899659714922035,5.0
9.91932463645935,0.22998428959906086,0.2610298330255082,5.0
9.926697492599487,0.2311566818994809,0.263064159008646,5.0
9.935802459716797,0.23291527035011095,0.2650927236869025,5.0
9.947762966156006,0.23506465623421427,0.2671161932582502,5.0
9.956701278686523,0.23662784596810765,0.26913832909863855,5.0
9.96530532836914,0.2383864344187377,0.27115572822656775,4.62008839921539
9.973140716552734,0.23994962415263102,0.2731654259396622,4.405091087870566
9.980739116668701,0.24151281388652443,0.275164916373462,4.231184573826428
9.988849401473999,0.2434668010538911,0.2771489056929459,3.7767389596168868
9.998826026916504,0.2456161869379945,0.27911614836980075,3.825060273695879
10.006720542907715,0.2473747753886245,0.2810657185994938,3.428114046367048
10.019309520721436,0.25030575613967454,0.28299691966583457,3.1981124450196656
10.026671886444092,0.25225974330704126,0.2849123913475972,3.027189968154061
10.039723873138428,0.255972318925038,0.2868144300651398,3.147478320036871
10.050413846969604,0.25890329967608805,0.2887080807229364,3.02487367239984
10.05981159210205,0.26163888171040145,0.29059761452352945,2.811053877899627
10.073931217193604,0.2653514573283982,0.29248656352659846,2.8507942802084294
10.08465838432312,0.26828243807944824,0.2943808771687824,2.6543824984098823
10.094613075256348,0.27121341883049827,0.29628240938613065,2.11135700221088
10.104268312454224,0.27433979829828503,0.298189538338864,1.8105988099048682
10.114293813705444,0.2776615764828084,0.3001007713782012,1.347229200593034
10.123799562454224,0.2807879559505952,0.3020147550584828,0.9033721903674229
10.134761095046997,0.2845005315685919,0.30393028064237015,0.5392906027060655
10.143465757369995,0.2874315123196419,0.3058462778090016,-0.012437644145108284
10.158162355422974,0.292121081521322,0.30776479824266134,0.03246622273341532
10.167665481567383,0.2952474609891087,0.3096875328642352,-0.015474058825461295
10.175650358200073,0.2977876443066855,0.31160991092157575,-0.6360925333364805
10.184536933898926,0.3005232263409988,0.3135280802917012,-1.0395244057422623
10.194447994232178,0.3040404032422589,0.31544176091239823,-1.283895843644216
10.203727960586548,0.3071667827100456,0.31735075595407164,-1.4152124983107217
10.213698863983154,0.310488560894569,0.31925500136329366,-1.7442311580878287
10.22164797782898,0.3132241429288824,0.3211515398596343,-2.0534655442557925
10.23166537284851,0.31595972496319574,0.32303798629985747,-2.2729332744186275
10.244640111923218,0.32006309801466587,0.3249184454917839,-2.6705604330025814
10.256985664367676,0.32338487619918926,0.32679949146445103,-3.0179590422111255
10.265490770339966,0.32572966080002924,0.3286837249769439,-3.523001173943318
10.275752067565918,0.328269844117606,0.33056731763277625,-3.940570500811652
10.28567886352539,0.33041923000170936,0.33244706536254537,-5.0
10.298553943634033,0.33295941331928613,0.334326415539505,-5.0
10.308794975280762,0.3349134004866528,0.3362114165199682,-5.0
10.316683530807495,0.3364765902205462,0.3381011124391053,-5.0
10.324705123901367,0.33803977995443946,0.3399886191609491,-5.0
10.33564305305481,0.33979836840506955,0.341871269913738,-5.0
10.343917608261108,0.34077536198875297,0.3437500247336832,-5.0
10.353777647018433,0.34214315300590964,0.3456258719928425,-5.0
10.365991592407227,0.3435109440230663,0.3475029781656329,-5.0
10.374694108963013,0.3446833363234863,0.34938501457699284,-5.0
10.38399600982666,0.345464931190433,0.3512688844269487,-4.968423403798969
10.394752264022827,0.3464419247741163,0.35315208705092166,-4.594774635777336
10.404413938522339,0.3470281209243264,0.35503584010593586,-4.40287295840295
10.414572715759277,0.3476143170745364,0.3569213684690087,-4.2531206874172565
10.425713539123535,0.3480051145080097,0.35880987528694036,-4.094356008527023
10.436677694320679,0.34839591194148306,0.3607025137224529,-3.63768399149963
10.44901728630066,0.34898210809169306,0.36260368430944584,-2.8521629272506344
10.45852017402649,0.34937290552516637,0.3645205066206165,-2.0757755168765826
10.46843934059143,0.34995910167537636,0.3664556991496547,-1.1488950851401087
10.478868007659912,0.3503498991088497,0.3684082384782422,-0.33587644153321583
10.489247560501099,0.3509360952590598,0.3703772297919943,0.8421124006664206
10.501259326934814,0.35171769012600645,0.3723652402630279,2.179736777665682
10.509733200073242,0.35230388627621645,0.3743743272353466,3.012419964229882
10.519102573394775,0.3530854811431631,0.3763992880746973,4.040229961813406
10.526626110076904,0.3536716772933732,0.3784322106657337,4.611065773783853
10.537270545959473,0.35464867087705654,0.38046992411201525,5.0
10.548983573913574,0.3558210631774765,0.3825168803033252,5.0
10.55928373336792,0.35679805676115983,0.3845769176473846,5.0
10.566697597503662,0.35757965162810657,0.3866462229795694,5.0
10.576741456985474,0.35894744264526324,0.38871803472805394,5.0
10.585305213928223,0.3601198349456833,0.3907903393169403,5.0
10.597209215164185,0.36187842339631326,0.3928688944052945,5.0
10.604607343673706,0.3630508156967333,0.39495873388714103,5.0
10.614532470703125,0.3646140054306266,0.39705686880846314,5.0
10.622637748718262,0.3659817964477834,0.3991609277982662,4.7436517985528495
10.633880138397217,0.36793578361515006,0.40127278793738114,4.8862171003588815
10.645631313323975,0.3700851694992534,0.40339421985296825,4.795472177986332
10.656718730926514,0.3724299541000935,0.40553077899000045,4.589297232543227
10.665879487991333,0.3743839412674602,0.407687264981975,4.330055492515081
10.675670385360718,0.3763379284348269,0.4098599597350082,4.051021509325707
10.683712482452393,0.37848731431893023,0.4120417831096156,3.7700186225324916
10.692673921585083,0.38063670020303364,0.4142307464352044,3.2204937141204604
10.702790975570679,0.3831768835206103,0.4164332007673632,3.2023452421333927
10.711672067642212,0.38532626940471365,0.41865049024437917,3.0442816897684217
10.720305681228638,0.3876710540055538,0.42087571322016637,2.5586278165152176
10.730645179748535,0.3906020347566038,0.4231070499578304,2.8571756410919544
10.744710683822632,0.3949008065248106,0.42535513862909163,3.041187858328596
10.757612466812134,0.3986133821428072,0.42763696178286753,2.8408246747480703
10.767262697219849,0.40154436289385737,0.42995827763351807,2.520671720887826
10.774759769439697,0.4038891474946974,0.43231122347169787,2.1925274615802524
10.786639928817749,0.4072109256792208,0.43468873006154546,1.6218087219694315
10.794724464416504,0.40994650771353414,0.437088529242525,1.0619558555634236
10.80481505393982,0.41307288718132085,0.43950433725329136,0.8752687343584032
10.815626621246338,0.4163946653658443,0.4419305753502672,0.8337083113247656
10.825973510742188,0.4199118422671044,0.44437038979313775,0.5607323060641323
10.838716745376587,0.42401521531857445,0.4468302138741742,0.25837713665315676
10.846604347229004,0.42655539863615116,0.4493071806192,-0.27512952674467045
10.855626583099365,0.4298771768206745,0.4517906033807044,-0.5023607911610904
10.866700887680054,0.43378515115540794,0.45427927452361605,-0.8578074670510898
10.878400564193726,0.437888524206878,0.4567800689019731,-0.9006725877332052
10.888054370880127,0.44101490367466467,0.45929466661941337,-1.3760107230133194
10.895702600479126,0.44355508699224144,0.46181632027133895,-1.6077404349359439
10.90786361694336,0.4478538587604482,0.46433524886228666,-1.6977067040529032
10.91764497756958,0.4513710356617082,0.4668472255986753,-1.7045590730056235
10.925679206848145,0.454497415129495,0.46935276702739476,-1.9389304668070122
10.939231872558594,0.45899158561443837,0.4718524089654528,-2.178765256185759
10.951947689056396,0.4632903573826451,0.47435072330951317,-2.0726071062055365
10.961611270904541,0.4664167368504319,0.47685563871784764,-2.1263763526521617
10.969620943069458,0.46915231888474523,0.4793697968170647,-2.1959095476915724
10.97761845588684,0.47169250220232195,0.4818873144760986,-2.230956512548083
10.98796272277832,0.47520967910358203,0.48440319726044867,-2.4975068694910068
10.995634317398071,0.4781406598546321,0.4869172714837921,-2.481948308754098
11.00434398651123,0.48107164060568214,0.4894253916056185,-2.3487234233592185
11.013083457946777,0.48400262135673217,0.4919241179043588,-2.4507763882478586
11.022600412368774,0.48712900082451893,0.4944106223630567,-2.5797894409399964
11.032632112503052,0.490059981575569,0.49687851034472524,-2.662013688602049
11.043668508529663,0.492990962326619,0.49932635664463343,-3.2336818890827774
11.056703805923462,0.49650813922787906,0.5017644287320671,-4.091568261289456
11.06761908531189,0.49904832254545584,0.5042084714450235,-4.553481295258486
11.077571153640747,0.5011977084295592,0.5066632216597495,-5.0
11.085599422454834,0.5027608981634525,0.5091206009480654,-5.0
11.096720933914185,0.5051056827642926,0.5115729507753197,-5.0
11.105844497680664,0.5064734737814492,0.5140167365087593,-5.0
11.116707801818848,0.5082320622320793,0.5164450772564096,-5.0
11.126266479492188,0.5095998532492361,0.5188515171081892,-5.0
11.134383201599121,0.510772245549656,0.5212334388618883,-5.0
11.144583702087402,0.511944637850076,0.5235881529539594,-5.0
11.15659785270691,0.5133124288672327,0.525912986324455,-5.0
11.166618585586548,0.5146802198843894,0.5282053872719977,-4.509434840172203
11.176046371459961,0.5160480109015461,0.5304657142797427,-3.393356061289567
11.186227083206177,0.5174158019187027,0.532696828113639,-2.2471965923235144
11.194067239761353,0.5183927955023862,0.5348957351419947,-1.0061167214675457
11.201957941055298,0.5193697890860695,0.5370547206816048,0.04179574399189989
11.210259914398193,0.5205421813864896,0.5391676822594647,1.1039417472271875
11.217650175094604,0.5215191749701729,0.5412300192696737,1.9556159080448217
11.22620177268982,0.5228869659873295,0.5432384752291787,2.8302710138307954
11.2340989112854,0.5240593582877495,0.5451910431431438,3.236139901952571
11.242090225219727,0.5252317505881696,0.5470895131084786,3.6511492200985862
11.250284910202026,0.5265995416053263,0.5489362470055962,3.670397835944791
11.258629322052002,0.5277719339057463,0.550731486478075,3.7905478542870252
11.269600868225098,0.529725921073113,0.5524791330322172,3.874873046496561
11.282402515411377,0.5320707056739531,0.5541891464455075,4.161180741292227
11.295674800872803,0.5346108889915298,0.5558769728627967,4.408194171013953
11.304707765579224,0.5361740787254231,0.5575537898202674,4.542723965682611
11.314903259277344,0.5383234646095265,0.5592209366125416,4.560960681288918
11.325637340545654,0.5404728504936299,0.5608836196249456,4.483554521296485
11.334651947021484,0.5424268376609965,0.5625500211677457,4.060217511825577
11.343363523483276,0.5441854261116267,0.5642211798284652,3.557202190480134
11.352631568908691,0.54633481199573,0.565898663746309,3.3574552971597083
11.360618829727173,0.54809340044636,0.56758411897143,2.9769849241495505
11.370614290237427,0.5502427863304634,0.5692758742052768,2.574887142461475
11.378632068634033,0.5518059760643568,0.5709766255075567,2.2113252679903264
11.386686563491821,0.5535645645149868,0.5726889626659893,2.178751168255329
11.39551591873169,0.5557139503990901,0.5744117525135995,1.9567608372372778
11.407620906829834,0.5582541337166669,0.57615240036129,1.9685138722713487
11.419682025909424,0.5609897157509803,0.5779256418893586,1.7536386683717513
11.431605815887451,0.5637252977852937,0.5797447437337575,1.4855717962559911
11.443563222885132,0.5668516772530804,0.5816215197712539,1.5095214108002546
11.453897476196289,0.5693918605706572,0.583561849763211,1.05275893099869
11.461652517318726,0.5713458477380239,0.5855664066048095,0.7913972804867191
11.472629308700562,0.5738860310556004,0.5876356313072411,0.6331166432374288
11.482133626937866,0.576035416939704,0.5897650309993356,0.5305040136172854
11.49788522720337,0.5799433912744373,0.591955615157937,0.45894683391810953
11.50561809539795,0.5817019797250673,0.5942176299777745,0.40547801122929794
11.513635635375977,0.5834605681756972,0.596549782044051,0.08708861999525375
11.523390054702759,0.586000751493274,0.5989409470969126,-0.25715627341576947
11.534287929534912,0.5889317322443242,0.6013865291224205,-0.5412342334987269
11.544519186019897,0.5916673142786375,0.6038928546831946,-0.4694304581535966
11.555668115615845,0.5945982950296876,0.6064706638614847,-0.5670806754970502
11.565749883651733,0.5975292757807376,0.6091292879391775,-0.6939365690850323
11.57883358001709,0.6006556552485243,0.6118710890595149,-0.7977668318129709
11.591196298599243,0.6035866359995743,0.6146981500959585,-0.8648818895039405
11.60295820236206,0.6065176167506244,0.617617695390511,-0.8970442075376686
11.613234519958496,0.6090578000682011,0.6206298069214476,-0.6250380128062665
11.62179946899414,0.6112071859523045,0.6237284201073293,-0.5753086374883931
11.630666971206665,0.6133565718364078,0.6269018789543155,-0.5996972756822377
11.640571594238281,0.6157013564372479,0.6301338559113291,-0.6361217056618826
11.65398097038269,0.6190231346217714,0.63342262053722,-0.9379059181110783
11.662623167037964,0.6211725205058746,0.6367789192033065,-0.9805037494541512
11.67208456993103,0.6235173051067148,0.6402054048509287,-0.919783933132408
11.683449983596802,0.6264482858577648,0.6436977138615846,-0.826295192166187
11.693727731704712,0.6287930704586048,0.6472517159758977,-0.7301021759419521
11.704591989517212,0.6315286524929183,0.650863463637023,-0.6425538300560094
11.7146737575531,0.6340688358104949,0.6545291720740067,-0.2906742480979556
11.723550796508789,0.6364136204113349,0.6582386444713847,-0.1930873973981897
11.732592582702637,0.6387584050121751,0.6619763208238076,-0.1936072590277804
11.740676879882812,0.6409077908962785,0.6657353731554858,0.05274293846921173
11.7505362033844,0.643447974213855,0.6695164542513431,0.0551074825402035
11.76169228553772,0.6463789549649053,0.6733199672426184,0.253836452722788
11.774166822433472,0.6498961318661652,0.6771527078837429,0.4749902263458765
11.78195595741272,0.6522409164670053,0.6810267741508204,0.6556456869722863
11.793728351593018,0.6555626946515287,0.6849453046416137,1.0571067647297918
11.801568269729614,0.6582982766858421,0.6888971520328371,1.164666005574098
11.814583539962769,0.6620108523038388,0.6928724698160346,1.4192149667838054
11.828648328781128,0.6661142253553088,0.6968825505082353,1.6556997357198138
11.836748361587524,0.6684590099561489,0.7009431510439211,1.5455289721386358
11.846511840820312,0.6717807881406723,0.7050470337809015,1.8781979438590062
11.86057162284851,0.6762749586256158,0.7091808790464112,1.9916774707145648
11.870604276657104,0.6797921355268758,0.7133463125493913,1.9891167565726162
11.879570484161377,0.6827231162779259,0.717544291748749,1.9258082194374742
11.888566732406616,0.6856540970289758,0.7217619111069649,1.831857806721004
11.899779558181763,0.6897574700804461,0.7259879515342095,1.7239089948028443
11.908933401107788,0.6928838495482326,0.7302260188606927,1.6112760646685027
11.919357538223267,0.6967918238829661,0.7344789248847563,1.499199792418112
11.930848121643066,0.7010905956511728,0.7387421261320213,1.6666452179035574
11.941551923751831,0.7051939687026428,0.7430115526711857,1.5962438969241384
11.951243877410889,0.7089065443206396,0.7472835607190323,1.4434772478061162
11.959280967712402,0.7120329237884264,0.751554892831647,1.2758928993861982
11.970808744430542,0.7167224929901064,0.7558291962729117,1.396105922876855
11.979794263839722,0.7202396698913666,0.7601094052683826,1.2933575949063216
11.987532615661621,0.72356144807589,0.7643847794759506,1.1228176029408217
11.998242139816284,0.7280556185608333,0.7686462102098552,0.9493774824070897
12.005546569824219,0.7309865993118833,0.7728861346505853,0.5205262539081666
12.013605833053589,0.7343083774964068,0.7770918738794008,0.0846680670124283
12.021529197692871,0.7376301556809302,0.7812530988796348,-0.27164932178103374
12.031056642532349,0.7413427312989268,0.7853616489186007,-0.5313944778535042
12.041579723358154,0.7456415030671336,0.7894242431161927,-0.98035342128047
12.051352262496948,0.7495494774018672,0.7934600999109174,-1.1171344042503546
12.060102701187134,0.7528712555863905,0.7974728817517176,-1.3900384440165123
12.068575859069824,0.7561930337709138,0.8014530194498771,-1.638241879187286
12.078253507614136,0.7599056093889106,0.8053993089027034,-1.8116741644456704
12.086569547653198,0.7636181850069071,0.8093111981473903,-1.9063379152597455
12.094520807266235,0.7669399631914308,0.8131822057269411,-1.934776030345088
12.106205701828003,0.7716295323931107,0.8170203217255593,-1.9132689364952986
12.114831686019897,0.7751467092943709,0.8208391904970611,-1.8568066059619857
12.12484335899353,0.7790546836291042,0.8246376261184264,-1.7775348527463875
12.135562419891357,0.7837442528307843,0.8284213188942595,-1.4086113206263557
12.146377563476562,0.7882384233157278,0.832201702388447,-1.2756504106330548
12.158868789672852,0.7935141886676178,0.8359819199782632,-1.5046625926144206
12.169203758239746,0.7976175617190879,0.8397709369282571,-1.2365851251663857
12.179063558578491,0.8015255360538213,0.8435760901907083,-1.1205788475939582
12.188640356063843,0.8052381116718181,0.8473967787726612,-1.0621337397290567
12.199492931365967,0.8095368834400247,0.8512321223596919,-1.0205822941276308
12.209373950958252,0.8136402564914949,0.8550810048313724,-0.9801183949096812
12.219546794891357,0.817743629542965,0.8589421048489344,-0.935931405739827
12.229542016983032,0.8218470025944351,0.8628201853006785,-0.8877099326788045
12.242745161056519,0.8273181666630619,0.8667250789607774,-0.8366989164941985
12.25355339050293,0.8316169384312686,0.8706582331598446,-0.7844413735010292
12.262603759765625,0.835524912766002,0.8746140172181119,-0.7322980855621952
12.271528244018555,0.8388466909505254,0.8785871841569978,-0.6813112354324536
12.279544353485107,0.8419730704183122,0.8825667337662926,-0.908246884655374
12.289843797683716,0.8458810447530456,0.8865369975790794,-0.8946184830230356
12.300530195236206,0.850375215237989,0.8904908829191954,-0.7953824315290818
12.309535503387451,0.8542831895727223,0.8944286269784882,-0.6778909773852402
12.318257331848145,0.8576049677572457,0.898350543499142,-0.5687099681468117
12.329933166503906,0.8626853343923993,0.9022570458866538,-0.4761247943054092
12.338560104370117,0.8660071125769225,0.9061486629546736,-0.40076116496017394
12.349268674850464,0.8701104856283925,0.910026054219154,-0.06441446885994742
12.357569456100464,0.8736276625296527,0.9138839034505054,0.016797516423846096
12.367705345153809,0.8777310355811228,0.9177119313528455,-0.27581408225486165
12.381829977035522,0.8839837945166963,0.9215142071244634,-0.35385254255487225
12.391554117202759,0.8878917688514296,0.9253069742242671,-0.34372491432924857
12.40055251121521,0.8914089457526896,0.929098210818804,-0.3030073559892682
12.408867120742798,0.8945353252204764,0.9328888190096516,-0.25654008796519345
12.419598579406738,0.8990294957054198,0.9366799012378126,-0.21397171329180878
12.428964138031006,0.9029374700401532,0.9404727421039378,-0.17817911290584773
12.439281702041626,0.90665004565815,0.9442687728756243,-0.1492307565588695
12.449081659317017,0.91075341870962,0.9480695461364056,-0.12619566541965305
12.459538221359253,0.9150521904778267,0.9518766998428171,-0.10792696500875464
12.47173023223877,0.9203279558297169,0.9556985029365811,-0.09336897191038687
12.481966972351074,0.9244313288811868,0.959548746322448,-0.08165141759235932
12.489559888839722,0.9275577083489737,0.9634259071819846,-0.07209500287094485
12.500494718551636,0.9318564801171804,0.9673154341888712,-0.0641850538622605
12.512574434280396,0.9369368467523338,0.9712184693586082,-0.05753793647833489
12.521605253219604,0.9406494223703306,0.9751427071706851,-0.05186994794285735
12.529930591583252,0.9443619979883273,0.9790811896278978,-0.04697171734297326
12.538586139678955,0.9478791748895873,0.9830280725083228,-0.31872671168285566
12.54807186126709,0.951591750507584,0.9869852294273512,-0.34806751530992447
12.55588412284851,0.9547181299753709,0.9909474515866937,-0.2895993866546118
12.565763711929321,0.9584307055933676,0.9949035601953179,-0.21049053360907638
12.575126647949219,0.9621432812113643,0.9988510972410336,-0.13724016298511876
12.58418083190918,0.9658558568293609,1.0027949927090252,-0.07814691216368638
12.591895580291748,0.9691776350138844,1.0067395075774694,-0.033902208628838235
12.599544525146484,0.9723040144816711,1.0106745512524729,-0.0024384044882721397
12.607587814331055,0.9756257926661944,1.0145780155483668,0.018961088114453642
12.620575428009033,0.980706159301348,1.0184521436064042,-0.2432119239285231
12.63137149810791,0.9852003297862914,1.0223264948730473,-0.26792550741341836
12.642375707626343,0.9896945002712347,1.0262259150159263,-0.2082664679515735
12.651505947113037,0.9936024746059682,1.0301505119136598,0.14576289589537314
12.662539720535278,0.9982920438076482,1.0340930453770005,0.249526410634145
12.674684047698975,1.003177011726065,1.038067215668765,-0.026043422446604958
12.68315839767456,1.0066941886273253,1.042083993513174,-0.09504944449188267
12.690864086151123,1.009625169378375,1.0461250260183876,0.19274817781733028
12.699193477630615,1.0129469475628985,1.05016762540038,-0.01363467212103564
12.709030628204346,1.016854921897632,1.0542058212277916,-0.06372891689077682
12.717529058456421,1.0201767000821553,1.0582345182109667,-0.05321557728733391
12.725530862808228,1.0234984782666787,1.062242774343164,-0.024545543112878647
12.73515009880066,1.0276018513181489,1.0662281170933514,0.004818186737680676
12.745259284973145,1.031705224369619,1.0701952777858255,0.028768359683450304
12.756348371505737,1.036394793571299,1.0741550152720907,0.0460796141299268
12.767146587371826,1.0406935653395057,1.0781230596923934,0.057411043105357884
12.776833295822144,1.0449923371077126,1.0821059909943695,0.06397506425637613
12.785560607910156,1.048118716575499,1.0860960198404246,0.06698911529829675
12.799561262130737,1.053980678077599,1.0900865313562533,0.06748353688348685
12.811609268188477,1.0590610447127526,1.0940918490539164,0.06626289523976847
12.82255220413208,1.0631644177642228,1.0981306677500617,0.06392677040584409
12.831542253494263,1.0664861959487462,1.102198640571568,0.060908202458248885
12.840017080307007,1.0700033728500062,1.1062785797801151,0.05751251730857579
12.848132610321045,1.0729343536010563,1.1103626109452067,0.05395043039049865
12.855516195297241,1.0762561317855797,1.1144441178275803,0.05036415345288399
12.86654281616211,1.0809457009872598,1.1185109629526127,0.046847110105617124
12.8802969455719,1.08680766248936,1.1225667310764493,0.04345843288911891
12.88964557647705,1.0905202381073567,1.1266283169486158,0.040233437043210085
12.902524709701538,1.0957960034592467,1.1307102232691004,0.31322945424351833
12.91321611404419,1.1000947752274535,1.134824709222183,0.3435022812470745
12.920621395111084,1.1030257559785035,1.138968197914828,0.28574437650155937
12.934776067733765,1.1088877174806036,1.1431306105866514,0.20718564551659566
12.944531679153442,1.1129910905320737,1.1473170656348894,0.13436897962342687
12.954860210418701,1.1168990648668071,1.1515386222831945,0.07562399745403695
12.962540626525879,1.1200254443345938,1.1557904635770713,0.03166415608642956
12.970502138137817,1.1231518238023808,1.1600474287876592,0.0004375300437443261
12.978533744812012,1.1266690007036406,1.1642882246717443,-0.020761192076647336
12.991702795028687,1.1317493673387942,1.168515990041986,-0.03445403762625306
12.99954104423523,1.1348757468065809,1.1727475199490935,-0.04271490181422212
13.009461879730225,1.1389791198580508,1.1769829924972053,-0.047144524986206124
13.018523931503296,1.1426916954760478,1.1812086198487775,-0.04893312584849485
13.02747106552124,1.146599669810781,1.1854129610336552,-0.04894428585304156
13.036502361297607,1.1503122454287777,1.1895936297852636,-0.04779365807040156
13.050426244735718,1.155588010780668,1.193762906059687,-0.04591403000205427
13.06181526184082,1.1600821812656115,1.1979383630993734,-0.04360582481465394
13.077808380126953,1.1665303389179214,1.2021418489920614,0.23496345279589775
13.085555076599121,1.1698521171024447,1.2063915346727332,0.2707027118685221
13.093589544296265,1.1729784965702312,1.2106812353351422,0.218211813205623
13.103499412536621,1.1770818696217016,1.2149912405680927,0.144665532739442
13.111547946929932,1.180403647806225,1.2193046440274578,0.07657722622821528
13.124186038970947,1.1854840144413783,1.22362114672319,0.02226423885294835
13.132179975509644,1.1888057926259017,1.2279544812564411,-0.017560799025527384
13.139469861984253,1.191736773376952,1.232294995421185,-0.04494323038073326
13.147481679916382,1.195253950278212,1.2366133844784297,-0.06257716171343475
13.1555016040802,1.1985757284627352,1.2408991444705115,-0.07297070314510548
13.164486646652222,1.2018975066472588,1.245157772718778,-0.07818241771894215
13.178546905517578,1.2075640694326222,1.249401179390249,-0.07979716926284663
13.189516067504883,1.2122536386343021,1.2536465267552988,-0.07898932988662362
13.198458909988403,1.2153800181020888,1.2578942421467854,-0.0766070337569292
13.207583665847778,1.2190925937200856,1.2621306024876988,-0.07325111441227568
13.218920946121216,1.2233913654882922,1.2663578999532161,-0.06934029969487224
13.228494882583618,1.227103941106289,1.2705919163130188,-0.06516177986735489
13.238553524017334,1.2317935103079691,1.2748319781489033,-0.06090903640332743
13.250673770904541,1.2368738769431225,1.2790703995898591,-0.05670950574954246
13.259885549545288,1.2401956551276458,1.2833143573254955,-0.05264450637600347
13.27251648902893,1.2452760217627994,1.2875697617050357,-0.04876344187912071
13.285295248031616,1.2505517871146896,1.2918413138662463,-0.04509384536435958
13.297510623931885,1.2554367550331063,1.2961462987974928,-0.04164843873320394
13.308464527130127,1.2601263242347864,1.3004987660154617,-0.0384300672398436
13.320356845855713,1.2648158934364664,1.304903042462652,-0.03543513083759049
13.32975959777832,1.2685284690544634,1.3093552289117987,-0.03265595688107422
13.343556880950928,1.2738042344063532,1.313844594736798,-0.03008243000133034
13.354126214981079,1.2782984048912969,1.3183683603219831,-0.027703102427369283
13.363633632659912,1.2824017779427668,1.3229236727170566,-0.025505942039794446
13.376684427261353,1.287677543294657,1.3275077569959848,-0.023478828655391
13.385474443435669,1.2911947201959169,1.3321179918946928,-0.29764823568388715
13.393653631210327,1.2941257009469669,1.3367382886390164,-0.32905059644303625
13.40374493598938,1.2982290739984372,1.3413550053008336,-0.2723669126019508
13.411580801010132,1.3015508521829606,1.3459567265357084,-0.19482101937811597
13.420361995697021,1.3050680290842205,1.35052725902255,-0.12295336221299052
13.429566860198975,1.3087806047022175,1.3550602661319735,-0.06509351157362075
13.43843960762024,1.3122977816034775,1.3595578386259572,-0.02195642411818102
13.449603080749512,1.3167919520884206,1.3640223367769138,0.008507364064954477
13.458579301834106,1.3203091289896807,1.3684563166473016,0.02900014175885275
13.468784809112549,1.324412502041151,1.3728624598069743,0.3180789842909296
13.478475570678711,1.3281250776591476,1.3772365660756816,0.08282389245097124
13.493581533432007,1.3345732353114577,1.3815826602344645,-0.0015237858379755082
13.5024893283844,1.3380904122127177,1.3859186265618537,0.25480342702025205
13.511706829071045,1.3421937852641879,1.3902530367334207,0.29302978358180376
13.519510507583618,1.3453201647319744,1.3945793887241191,-0.025790060412547
13.527462244033813,1.3484465441997613,1.3988781702685564,-0.12265517022334806
13.535534620285034,1.3513775249508115,1.403140381547554,-0.1281746227202871
13.54490852355957,1.3554808980022812,1.4073733278119358,-0.101693982115114
13.55543828010559,1.3593888723370147,1.411583918693863,-0.06872030546064237
13.569721698760986,1.365250833839115,1.415785836519979,-0.3151345857757217
13.583544254302979,1.371112795341215,1.4200056297224375,-0.324873100267286
13.59152603149414,1.374239174809002,1.4242659072286112,-0.2526532232069674
13.600313901901245,1.377756351710262,1.4285636587801793,-0.16473268202995933
13.610285520553589,1.3816643260449955,1.4328813667531026,-0.08648463764664266
13.619447469711304,1.3849861042295188,1.4372186782850458,-0.02518045001204152
13.62797474861145,1.3886986798475154,1.4415823810173811,0.019322185499113204
13.636541366577148,1.392411255465512,1.44595586963578,0.04972735425345627
13.648622989654541,1.3974916221006655,1.4503248662896784,0.06921942839765599
13.65952181816101,1.4017903938688723,1.4547063645791443,0.08066335884928295
13.668194055557251,1.4055029694868688,1.4591143515079945,0.08637347993980107
13.675430059432983,1.408433950237919,1.4635310662933154,0.08811590964969268
13.688422441482544,1.4135143168730726,1.4679410499296761,0.08719229017428021
13.701117038726807,1.4187900822249626,1.4723596011440752,0.08453938307941683
13.711114168167114,1.4226980565596958,1.4768061573344793,0.08081922512219125
13.720475435256958,1.4264106321776928,1.4812750886951833,0.07649241169771495
13.730690002441406,1.4305140052291627,1.4857468865601693,0.07187444082297528
13.740495443344116,1.4344219795638962,1.4902116000577834,0.06717763842570884
13.748809099197388,1.4379391564651562,1.494667448033364,0.06254171307246095
13.75896406173706,1.4418471307998897,1.4991125931966962,0.058055715387654624
13.77075481414795,1.4467320987183063,1.5035451722713695,0.053773665387584435
13.778492450714111,1.4496630794693566,1.5079567138282446,0.049725592057308324
13.789150714874268,1.4543526486710365,1.5123399841252638,0.045925286042787325
13.796494007110596,1.4572836294220868,1.5167021930234494,0.042375715814194984
13.8084876537323,1.4621685973405036,1.5210493964706429,0.03907279226230727
13.817430973052979,1.4656857742417637,1.5253734948276152,0.03600797090806271
13.82937741279602,1.4705707421601801,1.5296677526699993,0.033170038867842325
13.838544368743896,1.4738925203447035,1.5339332494934654,0.030546331808012108
13.853545427322388,1.4803406779970136,1.5381774544568791,0.028123553551515797
13.862052202224731,1.4832716587480639,1.542413161495366,0.02588831959578914
13.873463153839111,1.4883520253832172,1.5466446748412117,0.0238275095213922
13.882192134857178,1.491478404851004,1.5508754415898287,0.021928487736628834
13.891485691070557,1.4951909804690007,1.555108227371964,0.020179234067336356
13.899452924728394,1.4983173599367874,1.5593324391789856,0.01856841311966631
13.90981388092041,1.5026161317049942,1.5635327966578587,0.017085402530999987
13.917467832565308,1.505547112456044,1.567702951075861,0.01572029405931753
13.925493001937866,1.5088688906405676,1.5718378361225678,0.014463877150235047
13.934252738952637,1.5125814662585644,1.5759272237111128,0.289345971289909
13.946451425552368,1.5172710354602443,1.579969305940256,0.3214065567666392
13.957632064819336,1.5217652059451876,1.5839756932535878,0.2653302265320664
13.96799635887146,1.5260639777133946,1.5879628751770534,0.18834434946469136
13.976463794708252,1.529385755897918,1.591932407520671,0.11699278276635568
13.988607406616211,1.5344661225330716,1.5958794806240941,0.05960834828633481
13.998459577560425,1.538374096867805,1.5998127678120826,-0.2591292869262738
14.011003732681274,1.5434544635029583,1.6037459107284948,-0.3223145909625784
14.01847767829895,1.5463854442540081,1.607677877521897,-0.011300701823061088
14.03142523765564,1.5514658108891617,1.6115952712473227,0.08520993732578956
14.039462804794312,1.5545921903569486,1.6154993244426894,0.09329098929146773
14.049150705337524,1.5583047659749452,1.6193974664226776,0.07024282243923786
14.056418180465698,1.5612357467259954,1.6232836306201113,0.04070728496021449
14.069808721542358,1.5669023095113588,1.6271528555478092,0.014206078840888776
14.081472396850586,1.5715918787130385,1.6310136698391293,-0.006453316364066304
14.092608451843262,1.576086049197982,1.6348797246760447,-0.021228923569203934
14.101922750473022,1.579798624815979,1.6387563210171932,-0.031047838586653678
14.114052534103394,1.5846835927343956,1.642641626733718,-0.03703253080328933
14.123589992523193,1.5883961683523924,1.6465403069943314,-0.040201121387269216
14.134530544281006,1.5930857375540726,1.6504561614154434,-0.04137848157796387
14.143543243408203,1.596993711888806,1.6543796719294113,-0.041194425366809825
14.154301643371582,1.601097084940276,1.658302592383602,-0.04011263064997138
14.165451049804688,1.6053958567084827,1.6622367170842687,-0.03846595356270553
14.1735200881958,1.608131438742796,1.6661920322052783,-0.03648866155604341
14.183818101882935,1.6128210079444762,1.6701579009151766,-0.03434273308793229
14.194061040878296,1.6167289822792097,1.6741250413288433,-0.03213811729105724
14.201432704925537,1.6196599630302595,1.678091774583333,-0.029947823768273756
14.213406801223755,1.6245449309486766,1.6820566344968138,-0.02781892390183732
14.222450256347656,1.6280621078499362,1.6860121379835313,-0.025780456680528887
14.235020637512207,1.6331424744850898,1.6899520168278797,-0.023849052062843885
14.243407726287842,1.6366596513863498,1.6938773429438336,-0.022032899856101698
14.255476236343384,1.6411538218712933,1.6977952938681216,-0.020334533046760833
14.265873193740845,1.6452571949227635,1.7017242524099838,-0.01875276843256353
14.273458480834961,1.6483835743905502,1.7056610080342838,-0.017284051780712503
14.284869909286499,1.6530731435922303,1.7095841160407745,-0.015923384115210132
14.29448676109314,1.6569811179269638,1.7135000248921353,-0.014664954470441572
14.304405927658081,1.660889092261697,1.7174202357280606,-0.28954092732574327
14.312416315078735,1.6640154717294837,1.7213298437133284,-0.32159289213705144
14.323677062988281,1.6687050409311641,1.7252161611630439,-0.26550653833840726
14.335703134536743,1.6731992114161074,1.7290926695281077,-0.18850997470906986
14.346768379211426,1.6778887806177873,1.732976622618308,-0.11714755090727452
14.354414939880371,1.681015160085574,1.736858365055945,-0.05975241004144824
14.365976095199585,1.6859001280039907,1.7407176378094145,-0.01704278212495031
14.374489068984985,1.6890265074717774,1.744555251575319,0.013027794703222075
14.384323596954346,1.692934481806511,1.7483779543008382,-0.242879505731571
14.396214246749878,1.697624051008191,1.7521914065420943,-0.26329638181500276
14.405805587768555,1.701336626626188,1.756000391414148,-0.20084657821956764
14.41543197631836,1.7048538035274479,1.7597972028412219,-0.12116900751206172
14.427573680877686,1.7097387714458647,1.763581164114894,-0.049628806138720595
14.43548035621643,1.7128651509136512,1.7673575921829299,0.006294069721716134
14.443467855453491,1.715991530381438,1.771119355510263,0.046487291516800616
14.451656341552734,1.719508707282698,1.7748547210975631,0.07342100506365742
14.46039891242981,1.723025884183958,1.7785540317404585,0.09008669931984492
14.471492528915405,1.7275200546689018,1.7822209469327612,0.09919856906393973
14.480807781219482,1.7312326302868983,1.7858703025176441,0.10295646923504212
14.48978304862976,1.7347498071881584,1.7895033147836217,0.10304091254033422
14.500200510025024,1.739048578956365,1.7931096650184961,0.10068996755624268
14.50945234298706,1.742761154574362,1.7966864973237222,0.096793227479362
14.518926620483398,1.7466691289090954,1.8002372836157203,-0.1840607564112881
14.52867341041565,1.7505771032438289,1.8037650826596796,-0.22248562711506661
14.53740119934082,1.7538988814283523,1.807266982781982,-0.1728777704136105
14.548397541046143,1.7580022544798222,1.8107405831336336,-0.10227433501601871
14.55641770362854,1.761128633947609,1.814189557878232,-0.3131360436621748
14.566410064697266,1.7648412095656056,1.8176170002719838,-0.294769811845162
14.57631230354309,1.7691399813338122,1.8210308286133285,-0.20254452950199595
14.585063695907593,1.7724617595183356,1.8244321972329307,-0.10162890218065943
14.592439651489258,1.7753927402693859,1.8278057754300356,-0.015869406141244866
14.605551719665527,1.7804731069045392,1.8311439067678208,0.04890594425167057
14.616420269012451,1.7847718786727458,1.8344560182803007,0.09403021184070912
14.62641429901123,1.7888752517242161,1.8377498746063372,0.12312485738287357
14.635245561599731,1.792392428625476,1.8410263892285696,-0.13598587599436446
14.646188497543335,1.7966912003936828,1.844290755105371,-0.16099751185136585
14.657740116119385,1.8009899721618894,1.8475515855781885,-0.3799834170304909
14.668132066726685,1.8048979464966233,1.8508104103275533,-0.3392235542641837
14.678407430648804,1.8088059208313563,1.8540627678699622,-0.49453760517252865
14.687431812286377,1.8119323002991432,1.8573041012625433,-0.6775433353495887
14.696430444717407,1.8152540784836664,1.8605254793006845,-0.8265641774931791
14.705457925796509,1.8181850592347166,1.8637144731116833,-0.9264091555529382
14.71443510055542,1.82150683741924,1.86686458766415,-0.9803320496796479
14.725499629974365,1.8254148117539735,1.8699742740188645,-1.2734970579784175
14.733938217163086,1.8283457925050235,1.8730417252729357,-1.2966763510893242
14.743926286697388,1.8316675706895469,1.8760649224118175,-1.4889944216843602
14.751480340957642,1.8344031527238602,1.879038076101494,-1.6813668121559067
14.76061463356018,1.8373341334749105,1.8819523813280166,-1.5409911780136465
14.772590398788452,1.841046709092907,1.884803865512324,-1.5776885159752485
14.784617185592651,1.8447592847109036,1.887595602726469,-1.9215369542284897
14.795424222946167,1.848081062895427,1.8903324158442425,-1.9998600403782445
14.80844497680664,1.8515982397966873,1.893016616237273,-2.229842615976364
14.81739592552185,1.8543338218310006,1.8956461620454155,-2.162166386742684
14.826935529708862,1.857069403865314,1.8982153368794459,-1.985556509266738
14.835399150848389,1.8592187897494172,1.9007197702622713,-1.7835991956659547
14.846996307373047,1.8623451692172042,1.9031541391688052,-1.8664870665478628
14.85531497001648,1.864103757667834,1.905508814396176,-1.726910186888384
14.863385915756226,1.8660577448352007,1.9077731984402047,-1.5214963424471972
14.87539291381836,1.868402529436041,1.909938349131987,-1.8677303890381047
14.885403156280518,1.8705519153201442,1.911996150060151,-1.7513211036632625
14.894442796707153,1.8723105037707743,1.913937842031078,-1.7630809360514315
14.905406951904297,1.8748506870883508,1.9157543735829567,-2.0687582446515584
14.916412353515625,1.8770000729724543,1.9174360981389578,-2.1101348333434187
14.92841386795044,1.8791494588565578,1.9189706705422729,-2.033223420373256
14.93799877166748,1.8811034460239244,1.9203431660238248,-1.908437758287769
14.946401357650757,1.8822758383243443,1.9215431611936784,-1.4930062510053057
14.955469608306885,1.8840344267749745,1.9225651394400227,-1.3210410526196554
14.965461492538452,1.8854022177921312,1.9234007507125237,-1.2442929007605972
14.975283145904541,1.8865746100925513,1.9240388590143247,-1.4738936316058804
14.986360311508179,1.887942401109708,1.9244686199731353,-1.7408278402420807
14.997391700744629,1.8891147934101278,1.9246740910069904,-1.6721376353245132
15.005383729934692,1.8900917869938112,1.9246407622056827,-1.488361856553101
15.014870643615723,1.890873381860758,1.924366553991915,-1.2845855786886577
15.027374982833862,1.8916549767277049,1.9238490397117756,-1.3737099656448817
15.037369012832642,1.8922411728779145,1.9230799777778886,-1.5237302135639648
15.051496267318726,1.8928273690281245,1.9220442254190266,-1.9226086787244288
15.064391613006592,1.8932181664615981,1.9207125740657978,-2.302761277311385
15.075083017349243,1.8932181664615981,1.9190588633959254,-2.300983658123746
15.083630800247192,1.8934135651783346,1.9170766936258736,-2.14895045256085
15.092405080795288,1.8934135651783346,1.9147697935353134,-1.6755954921326424
15.104413986206055,1.8932181664615981,1.9121324213182485,-1.720681942570934
15.11335015296936,1.8932181664615981,1.9091611100662254,-1.3514151990567713
15.12138843536377,1.8932181664615981,1.9058852487990392,-0.6266320662902725
15.13239049911499,1.8932181664615981,1.9023418939261751,0.08243813338537354
15.14037013053894,1.8930227677448612,1.8985432682496757,0.6507361730667558
15.149240970611572,1.8930227677448612,1.8944903007034923,1.6099968349710718
15.158360242843628,1.8928273690281245,1.8901846900099866,2.493567973449717
15.166358470916748,1.8928273690281245,1.8856407262773147,2.8789273937142585
15.179185152053833,1.8924365715946512,1.8808714029913927,2.9960972221390434
15.189514875411987,1.892045774161178,1.8758647953933947,2.9686945679250316
15.200403213500977,1.8916549767277049,1.8705991866238796,2.5882833841082187
15.21053433418274,1.8910687805774946,1.8650565970792978,2.4114605377538814
15.219669818878174,1.8904825844272846,1.8592490461920512,2.0288135907380473
15.229783535003662,1.8895055908436014,1.8532143306738016,1.0761717207960007
15.241456508636475,1.8881377998264446,1.84695949237582,0.10807938031115838
15.24936294555664,1.8869654075260245,1.840478836924266,-0.4063090598813971
15.2597017288208,1.8854022177921312,1.8337960746229636,-1.500110410860724
15.270172595977783,1.8830574331912913,1.8269324669259939,-2.8306974971756613
15.284194231033325,1.8797356550067679,1.8198792337782044,-4.778864752938766
15.293378353118896,1.8771954716891908,1.8126157678695491,-5.0
15.304616928100586,1.8736782947879311,1.805140071388726,-5.0
15.312351703643799,1.8709427127536178,1.7974807562057795,-5.0
15.320345640182495,1.868402529436041,1.78967805685514,-5.0
15.32954454421997,1.8650807512515175,1.7817524541677225,-5.0
15.339192390441895,1.8615635743502574,1.7737073945545119,-5.0
15.348361253738403,1.8576556000155238,1.7655463828798295,-5.0
15.358173131942749,1.8531614295305805,1.7572730712678568,-5.0
15.366336822509766,1.849839651346057,1.7489064427440477,-5.0
15.377395391464233,1.8453454808611136,1.740478145262557,-4.863128249933554
15.387393236160278,1.841046709092907,1.7319999140430187,-4.043709641619429
15.396336317062378,1.8371387347581736,1.7234665456751581,-2.2835608857937055
15.40533995628357,1.833426159140177,1.7148736878286983,-0.2514841957679339
15.415015459060669,1.8289319886552335,1.7062177970832,1.4850765283145178
15.423565149307251,1.8254148117539735,1.6974961012816856,3.0547520151264864
15.432414770126343,1.8211160399857669,1.6887222607738046,4.235795088861629
15.440360069274902,1.8177942618012435,1.6799237496089805,5.0
15.448357343673706,1.8146678823334566,1.671123851593312,5.0
15.458850145339966,1.81036911056525,1.6623261444717523,5.0
15.467887878417969,1.8064611362305163,1.6535015285445671,5.0
15.477935314178467,1.8021623644623095,1.6446253196929317,5.0
15.486361742019653,1.798449788844313,1.6357087709060845,5.0
15.497356414794922,1.7937602196426328,1.626761603452121,5.0
15.507715940475464,1.7894614478744262,1.617760093518751,5.0
15.51537823677063,1.7855534735396927,1.608700690456555,5.0
15.523380041122437,1.7822316953551693,1.5996130249704488,5.0
15.535348653793335,1.7773467274367525,1.5905061654948773,4.550106122604934
15.543357372283936,1.7738295505354924,1.5813878602573985,4.252285134126626
15.556394100189209,1.7683583864668657,1.5722645928120997,4.0089901820809235
15.565465450286865,1.7642550134153956,1.5631092891226206,3.781370772470188
15.574296951293945,1.7607378365141355,1.5538992375217495,3.5566701260798856
15.583365678787231,1.756829862179402,1.5446482642783552,3.332922402747829
15.594462156295776,1.7521402929777221,1.5353683900997803,3.1119985192405775
15.608648300170898,1.7462783314756218,1.5260209641157771,2.896615467792421
15.619457483291626,1.7411979648404683,1.5165576256056799,2.689179958428993
15.627348184585571,1.7378761866559451,1.5069878486628854,2.491446144894698
15.636486291885376,1.7337728136044748,1.4973535758578693,2.3045083482501107
15.64555311203003,1.7298648392697418,1.4876744846862793,2.1289109502275867
15.65442681312561,1.7261522636517448,1.4779511917669843,1.9647817347828558
15.662483930587769,1.7228304854672214,1.4682011138629651,1.811952444245299
15.672421932220459,1.7187271124157517,1.4584391283090854,1.6700558653990505
15.680346250534058,1.7150145367977547,1.4486613190506492,1.5385992993133757
15.69037652015686,1.710715765029548,1.4388809790234531,1.4170179733011197
15.698354005813599,1.7073939868450245,1.4291091659224102,1.3047127108552234
15.70956015586853,1.7028998163600813,1.4193383897693028,1.2010757882121479
15.721326112747192,1.697624051008191,1.409562166595997,1.1055081768292345
15.731353998184204,1.693520677956721,1.3997748429188603,0.741392272034259
15.739458799362183,1.690003501055461,1.3899714863511372,0.6271274910858462
15.752389430999756,1.6847277357035708,1.3801312386666889,0.6074995505031855
15.76138710975647,1.680428963935364,1.370236827529985,0.6147839866230107
15.769811391830444,1.676911787034104,1.3603076550945512,0.6219727573387737
15.778037786483765,1.6730038126993705,1.3503603859790332,0.6203011842704311
15.785512447357178,1.669877433231584,1.3404092072158256,0.6086505651752668
15.795819759368896,1.6657740601801139,1.3304827750585566,0.5886965041054811
15.805893421173096,1.661475288411907,1.3205880113411306,0.5627956482738834
15.818496465682983,1.6558087256265437,1.3106965204588177,0.5331475393576164
15.830703735351562,1.6507283589913901,1.300767217403344,0.5015281851699418
15.842356443405151,1.6454525936395,1.2907825547433631,0.46926342907846935
15.854529857635498,1.6403722270043464,1.280728198771557,0.43728999608242863
15.864567756652832,1.6364642526696132,1.2705757906756379,0.40623784143939234
15.878640413284302,1.6304068924507764,1.2603023516155119,0.3765073937108744
15.889363288879395,1.625912721965833,1.2498898202422184,0.3483332319528023
15.899423837661743,1.6212231527641532,1.2393416035747176,0.0457949265491244
15.911222696304321,1.6161427861289996,1.228662253213514,-0.012117534521666307
15.920326232910156,1.6122348117942664,1.217840228277788,0.019888304300426318
15.928340673446655,1.608913033609743,1.2069015370040796,0.0745280666601882
15.941205263137817,1.6038326669745895,1.1958866075375938,0.1251800607508754
15.953003883361816,1.5989476990561724,1.1847964955389216,0.16342195385258645
15.963207244873047,1.5942581298544924,1.1736330263581631,0.18844077130035786
15.971338033676147,1.5907409529532324,1.162432755818434,0.20218689381687632
15.98033332824707,1.5870283773352356,1.151244110098657,0.20726520256157704
15.991957187652588,1.5819480107000823,1.1400737724631405,0.20610041417955366
16.001326322555542,1.5782354350820853,1.1289101152546444,0.20067345334513823
16.01131296157837,1.573741264597142,1.1177773433328986,0.1924971140994099
