t_s,q_rad,q_des_rad,K,B,Kff,jerk,tau_Nm,reward
0.0054836273193359375,-0.05549323555321435,[0.],9.825212432529046,0.9790254919034855,1.9737818648793566,0.0,0.5397804995999175,1.0401546246686333
0.014711856842041016,-0.05549323555321435,[0.],9.650424865058092,0.9580509838069711,1.9475637297587132,0.0,0.535575772219012,1.0401546246686333
0.022771596908569336,-0.05529783683647768,[0.],9.475637297587138,0.9370764757104565,1.92134559463807,0.0,0.5240981804737699,1.0424983951836373
0.03169989585876465,-0.054907039403004336,[0.],9.300849730116184,0.9161019676139419,1.8951274595174268,0.0,0.5108162831915202,1.0471914185886146
0.039752960205078125,-0.054320843252794335,[0.],9.12606216264523,0.8951274595174274,1.8689093243967834,0.552076719357362,0.495376579035717,1.054016863781438
0.04776597023010254,-0.05353924838584765,[0.],8.951274595174274,0.8741529514209129,1.84269118927614,1.1704026450376073,0.47816163275257795,1.0626491190280254
0.055698394775390625,-0.05236685608542762,[0.],8.77648702770332,0.8531784433243983,1.8164730541554968,2.230610776891485,0.45723254763111126,1.0741502560143101
0.06367063522338867,-0.0511944637850076,[0.],8.601699460232366,0.8322039352278838,1.7902549190348536,3.2048981047583376,0.4364416159086883,1.0844559712457544
0.07165288925170898,-0.04963127405111425,[0.],8.426911892761412,0.8112294271313693,1.7640367839142101,4.480022283546929,0.41227194087820895,1.0962838988931654
0.07966232299804688,-0.04826348303395755,[0.],8.252124325290458,0.7902549190348547,1.7378186487935667,5.0,0.3900224899130918,1.1093191959596624
0.0876624584197998,-0.046504894583327516,[0.],8.077336757819502,0.7692804109383402,1.7116005136729235,5.0,0.3649054957032454,1.1305902829482428
0.0956733226776123,-0.044550907415960815,[0.],7.902549190348549,0.7483059028418256,1.6853823785522803,5.0,0.33881072839529314,1.1540952204078745
0.10366249084472656,-0.04279231896533078,[0.],7.727761622877595,0.727331394745311,1.659164243431637,5.0,0.3147418281567737,1.1750708606571496
0.11166787147521973,-0.040642933081227406,[0.],7.55297405540664,0.7063568866487966,1.6329461083109935,5.0,0.28861271686051343,1.2003901290843588
0.11966848373413086,-0.03868894591386071,[0.],7.378186487935686,0.685382378552282,1.6067279731903503,5.0,0.26502849468651,1.223019437992012
0.12767410278320312,-0.036539560029757334,[0.],7.203398920464732,0.6644078704557674,1.5805098380697071,5.0,0.24082876978192144,1.2473837796987621
0.13566112518310547,-0.034390174145653964,[0.],7.028611352993777,0.643433362359253,1.5542917029490637,5.0,0.21785607377822663,1.2710888832825336
0.14364147186279297,-0.032045389544813924,[0.],6.853823785522822,0.6224588542627384,1.5280735678284203,4.794397771738965,0.1946127063122591,1.2975151678854346
0.1516716480255127,-0.029700604943973877,[0.],6.679036218051868,0.6014843461662238,1.501855432707777,4.018868727899132,0.17255589326117846,1.3263818509351164
0.1596519947052002,-0.027355820343133833,[0.],6.504248650580913,0.6,1.475637297587134,3.1589473430377293,0.15067107174664,1.3536201962465872
0.16763997077941895,-0.02462023830882045,[0.],6.329461083109958,0.6,1.4494191624664907,2.1212909596959024,0.1273196055168545,1.3824905943537238
0.17564702033996582,-0.022275453707980408,[0.],6.154673515639004,0.6,1.4232010273458477,1.19810312816195,0.10739766492062909,1.404458700054664
0.18368887901306152,-0.019930669107140364,[0.],5.97988594816805,0.6,1.3969828922252046,0.1967642610849789,0.08855044253954153,1.4235987848033853
0.19173097610473633,-0.01758588450630032,[0.],5.805098380697095,0.6,1.3707647571045614,-0.9178843855039263,0.07081071835971557,1.4393945999515942
0.1997678279876709,-0.015436498622196948,[0.],5.63031081322614,0.6,1.3445466219839184,-1.846220925617723,0.055125339428770986,1.4509297889176966
0.2077336311340332,-0.013482511454830247,[0.],5.455523245755186,0.6,1.3183284868632752,-2.5160263737175157,0.041331021663570854,1.4596070980370146
0.21581625938415527,-0.011333125570726873,[0.],5.280735678284231,0.6,1.292110351742632,-3.4972061779225507,0.02758757484557205,1.4656172153678981
0.2238020896911621,-0.009183739686623501,[0.],5.105948110813277,0.6,1.2658922166219888,-4.0742195281808105,0.014606324217030323,1.4710681884096053
0.23176050186157227,-0.007034353802520129,[0.],5.0,0.6,1.2396740815013456,-4.638606469059608,0.003035665779129626,1.4743891885659648
0.23980140686035156,-0.005080366635153426,[0.],5.0,0.6,1.2134559463807026,-5.0,-0.006329737780614633,1.476583337450191
0.24773502349853516,-0.0033217781845233945,[0.],5.0,0.6,1.1872378112600595,-5.0,-0.014746336160229585,1.4795276533481543
0.2557253837585449,-0.0013677910171566918,[0.],5.0,0.6,1.1610196761394163,-5.0,-0.023799308174036797,1.4813579616636465
0.2637307643890381,0.00019539871673667023,[0.],5.0,0.6,1.1348015410187733,-5.0,-0.030934314382617574,1.4817244260213902
0.27169060707092285,0.0017585884506300322,[0.],5.0,0.6,1.10858340589813,-5.0,-0.03788440107515726,1.4811137267043843
0.2796816825866699,0.0031263794677867237,[0.],5.0,0.6,1.082365270777487,-5.0,-0.043782544995695595,1.4797791218828729
0.2877047061920166,0.004494170484943416,[0.],5.0,0.6,1.0561471356568437,-5.0,-0.04945793578896553,1.477700696314908
0.295727014541626,0.005666562785363437,[0.],5.0,0.6,1.0299290005362005,-5.0,-0.05422855728839324,1.4753306522490912
0.30373263359069824,0.006643556369046789,[0.],5.0,0.6,1.0037108654155575,-5.0,-0.05788444965462333,1.4729435407041538
0.31173253059387207,0.00781594866946681,[0.],5.0,0.6,0.9774927302949143,-5.0,-0.06242718948116161,1.4695885858100424
0.31967926025390625,0.00879294225315016,[0.],5.0,0.6,0.9512745951742712,-5.0,-0.06614775842140444,1.4663878363357201
0.3277256488800049,0.009769935836833513,[0.],5.0,0.6,0.9250564600536281,-5.0,-0.06975739906120719,1.4628227991724718
0.33573341369628906,0.010551530703780192,[0.],5.0,0.6,0.898838324932985,-5.0,-0.0723473534743704,1.4597111809796177
0.34373998641967773,0.010942328137253534,[0.],5.0,0.6,0.8726201898123418,-4.908756377521993,-0.0731377858167311,1.4587184730178753
0.3517487049102783,0.011333125570726873,[0.],5.0,0.6,0.8464020546916986,-4.818677023562792,-0.07381198524691099,1.4576498110357665
0.3597273826599121,0.011723923004200214,[0.],5.0,0.6,0.8201839195710555,-4.9643018767148455,-0.07426510476718153,1.4548715830372172
0.36773180961608887,0.011723923004200214,[0.],5.0,0.6,0.7939657844504124,-4.822544780258562,-0.07284240613731736,1.4558681543976282
0.37575387954711914,0.011919321720936885,[0.],5.0,0.6,0.7677476493297692,-4.833352366670651,-0.07222779421107589,1.454894617945135
0.38375139236450195,0.011919321720936885,[0.],5.0,0.6,0.741529514209126,-4.833232111148034,-0.07058385012266286,1.4548954537025345
0.3916816711425781,0.011723923004200214,[0.],5.0,0.6,0.715311379088483,-5.0,-0.06775649563904981,1.4546164013610317
0.39972615242004395,0.011528524287463544,[0.],5.0,0.6,0.6890932439678399,-4.929983544514952,-0.06498515907367004,1.4559997653159638
0.4077332019805908,0.011333125570726873,[0.],5.0,0.6,0.6628751088471967,-4.707175703521079,-0.062248308698565256,1.4584142109973475
0.4157404899597168,0.010942328137253534,[0.],5.0,0.6,0.6366569737265535,-4.144978058061281,-0.0587323412781142,1.463710298066435
0.4237401485443115,0.010746929420516863,[0.],5.0,0.6,0.6104388386059104,-3.8066130711827313,-0.056098888470303754,1.4664943769853496
0.43170785903930664,0.010160733270306851,[0.],5.0,0.6,0.5842207034852673,-3.006855471662729,-0.05184295205065284,1.4728784469949816
0.4397292137145996,0.009769935836833513,[0.],5.0,0.6,0.5580025683646241,-2.1744011291210237,-0.048689583711593126,1.4775835543936475
0.44771242141723633,0.008988340969886831,[0.],5.0,0.6,0.531784433243981,-1.7395303065384757,-0.04351777965702664,1.4817243222326835
0.45571374893188477,0.008597543536413491,[0.],5.0,0.6,0.5055662981233379,-1.2183941103163358,-0.040383530225739456,1.4842213586054618
0.46370363235473633,0.008011347386203481,[0.],5.0,0.6,0.4793481630026947,-0.47783725206196415,-0.036534877270260446,1.487075758081856
0.47171592712402344,0.007425151235993469,[0.],5.0,0.6,0.4531300278820516,-0.0776370563554844,-0.03262450383319924,1.4890295087997933
0.4797203540802002,0.006643556369046789,[0.],5.0,0.6,0.42691189276140845,0.4139002611813045,-0.027889800055356774,1.4910839690359092
0.48769688606262207,0.006448157652310118,[0.],5.0,0.6,0.4006937576407653,0.8364892384812666,-0.026120279173586555,1.4911981363146907
0.4957911968231201,0.006057360218836778,[0.],5.0,0.6,0.3744756225201221,1.422585433354885,-0.02361986283595201,1.4911843243188665
0.5036709308624268,0.005471164068626767,[0.],5.0,0.6,0.3482574873994789,2.2089400097396688,-0.0204190508124742,1.4904120789216324
0.5116631984710693,0.005080366635153426,[0.],5.0,0.6,0.3220393522788358,2.883863135341058,-0.018315526938265433,1.4886985142162088
0.5196442604064941,0.004884967918416756,[0.],5.0,0.6,0.2958212171581926,3.360063582301831,-0.017258733822536353,1.4869047242519353
0.5276365280151367,0.004689569201680086,[0.],5.0,0.6,0.2696030820375494,3.917514838508845,-0.016417473864013488,1.484316514985525
0.5356507301330566,0.004494170484943416,[0.],5.0,0.6,0.24338494691690624,4.624241298230388,-0.015851700896924587,1.4803013794271136
0.5436456203460693,0.0042987717682067455,[0.],5.0,0.6,0.21716681179626307,4.913227090879067,-0.01525454989462978,1.4786603288609426
0.5517246723175049,0.004103373051470075,[0.],5.0,0.6,0.19094867667561988,5.0,-0.014810817394473983,1.4783701918274739
0.5597338676452637,0.003907974334733405,[0.],5.0,0.6,0.16473054155497668,5.0,-0.01444548522058511,1.4786822695384492
0.567734956741333,0.0037125756179967346,[0.],5.0,0.6,0.13851240643433352,5.0,-0.013948571385530486,1.478979214632958
0.5757582187652588,0.0035171769012600643,[0.],5.0,0.6,0.11229427131369034,5.0,-0.013554957636701184,1.4792610135323687
0.5837299823760986,0.0035171769012600643,[0.],5.0,0.6,0.08607613619304716,4.687467864612293,-0.014011109752947955,1.4814373515540373
0.5917255878448486,0.0035171769012600643,[0.],5.0,0.6,0.05985800107240398,4.267462301877984,-0.014416514136029138,1.4841546264366725
0.5997209548950195,0.0033217781845233945,[0.],5.0,0.6,0.0336398659517608,3.841441804835055,-0.013824564698023978,1.4869305030593625
0.6076436042785645,0.0033217781845233945,[0.],5.0,0.6,0.0074217308311176206,3.4483310917248877,-0.014175054021700382,1.4890218254416794
0.6157078742980957,0.0031263794677867237,[0.],5.0,0.6,0.0,3.0991283914313015,-0.013560338411170037,1.49094826774927
0.6237087249755859,0.0031263794677867237,[0.],5.0,0.6,0.0,2.5171846839445804,-0.01372869282710444,1.493352552480786
0.6316757202148438,0.0029309807510500534,[0.],5.0,0.6,0.0,2.2166998200354904,-0.0130212022444883,1.4946388883291721
0.6396627426147461,0.0029309807510500534,[0.],5.0,0.6,0.0,1.7612980703820198,-0.013143152099197659,1.4959794123122847
0.6478157043457031,0.0027355820343133836,[0.],5.0,0.6,0.0,1.3214038391084326,-0.012241660330165995,1.4972063218786604
0.6557061672210693,0.0027355820343133836,[0.],5.0,0.6,0.0,0.9542260866258492,-0.012264901602609558,1.497827084889988
0.6637189388275146,0.002540183317576713,[0.],5.0,0.6,0.0,0.9448144599248319,-0.011484837197605596,1.4980462601900795
0.6717321872711182,0.002540183317576713,[0.],5.0,0.6,0.0,0.7650156016008915,-0.01157049996861462,1.49827485626067
0.679701566696167,0.002540183317576713,[0.],5.0,0.6,0.0,0.5553336505567088,-0.01161808830385424,1.498480809034614
0.6877405643463135,0.002540183317576713,[0.],5.0,0.6,0.0,0.3692049105483205,-0.011641930040971402,1.498608865459957
0.695742130279541,0.002344784600840043,[0.],5.0,0.6,0.0,0.22159430616847403,-0.010686627737378442,1.498864449642078
0.7036900520324707,0.002344784600840043,[0.],5.0,0.6,0.0,0.1117734246191669,-0.010682916177783703,1.4988917014454057
0.7116596698760986,0.0021493858841033727,[0.],5.0,0.6,0.0,0.033645520220230415,-0.009718576146061832,1.4990756121185247
0.7196300029754639,0.0021493858841033727,[0.],5.0,0.6,0.0,-0.019836689943129635,-0.00971039311160491,1.4990761618776163
0.7277007102966309,0.0021493858841033727,[0.],5.0,0.6,0.0,-0.054983326352281654,-0.00971104146419049,1.4990742043534249
0.7356183528900146,0.0019539871673667024,[0.],5.0,0.6,0.0,-0.07688824717860804,-0.008744189391334905,1.499232277578688
0.7436995506286621,0.0019539871673667024,[0.],5.0,0.6,0.0,-0.08944474166412104,-0.008734703416338885,1.499230722870165
0.7516989707946777,0.0019539871673667024,[0.],5.0,0.6,0.0,-0.09553197201567531,-0.008734699829455194,1.4992298846889285
0.7596147060394287,0.0019539871673667024,[0.],5.0,0.6,0.0,0.178805217793568,-0.008905544165070675,1.4992128794175417
0.7676975727081299,0.0017585884506300322,[0.],5.0,0.6,0.0,0.21313098253863014,-0.008025451146322471,1.4993478514668004
0.7756977081298828,0.0017585884506300322,[0.],5.0,0.6,0.0,0.16109360132099937,-0.008059361309006068,1.499362346904943
0.7836101055145264,0.0015631897338933619,[0.],5.0,0.6,0.0,0.08920126631888024,-0.007113832309221927,1.499505483911495
0.7916915416717529,0.0015631897338933619,[0.],5.0,0.6,0.0,0.02350476465273211,-0.007115054792441855,1.4995109957098953
0.7996890544891357,0.0013677910171566918,[0.],5.0,0.6,0.0,-0.027996400538498414,-0.006153182256036422,1.4996253160800728
0.8076057434082031,0.0013677910171566918,[0.],5.0,0.6,0.0,-0.06480548919201021,-0.006146232973976811,1.4996227732522829
0.8156843185424805,0.0011723923004200215,[0.],5.0,0.6,0.0,-0.08911233648590497,-0.005180274554961919,1.4997192257845036
0.823594331741333,0.0011723923004200215,[0.],5.0,0.6,0.0,-0.3797441727170131,-0.005000483596546696,1.499617801810217
0.8316898345947266,0.0011723923004200215,[0.],5.0,0.6,0.0,-0.4203173167507084,-0.004913619999850007,1.4995936435880988
0.8396954536437988,0.0011723923004200215,[0.],5.0,0.6,0.0,-0.36761885672942524,-0.004870218520326772,1.4996245461748199
0.8476972579956055,0.0009769935836833512,[0.],5.0,0.6,0.0,-0.2904882213257306,-0.003881294435906887,1.4997463038209924
0.8556678295135498,0.0009769935836833512,[0.],5.0,0.6,0.0,-0.21665938751969308,-0.003860771984173621,1.4997741730279164
0.8637697696685791,0.0007815948669466809,[0.],5.0,0.6,0.0,-0.1553212996010107,-0.0028880265063652368,1.4998598712346516
0.8716957569122314,0.0007815948669466809,[0.],5.0,0.6,0.0,-0.10779561296739501,-0.0028756407488648864,1.4998691795756371
0.879704475402832,0.0007815948669466809,[0.],5.0,0.6,0.0,-0.07245385265234885,-0.0028741877399287496,1.499873921595674
0.8876962661743164,0.0005861961502100108,[0.],5.0,0.6,0.0,0.22915755483876776,-0.002077083721363488,1.4998921878614189
0.895698070526123,0.0005861961502100108,[0.],5.0,0.6,0.0,0.28041337096052155,-0.002154179760863144,1.4998727471536748
0.9036350250244141,0.0005861961502100108,[0.],5.0,0.6,0.0,0.23795112114668138,-0.0021974842611007946,1.4998891304465722
0.9116995334625244,0.00039079743347334047,[0.],5.0,0.6,0.0,0.1705240681124486,-0.0012519604281779808,1.499947810388735
0.919670820236206,0.00039079743347334047,[0.],5.0,0.6,0.0,0.10582319970040463,-0.0012531385748094162,1.4999611198028835
0.9277095794677734,0.00019539871673667023,[0.],5.0,0.6,0.0,0.05302344933858858,-0.0002912434009095444,1.4999902710300244
0.9357001781463623,0.00019539871673667023,[0.],5.0,0.6,0.0,0.013451530165628358,-0.0002842827954107117,1.499992229202913
0.9436752796173096,0.00019539871673667023,[0.],5.0,0.6,0.0,-0.014503781083645922,-0.00028554236247580616,1.499992207305632
0.9516727924346924,0.0,[0.],5.0,0.6,0.0,-0.3092713497498091,0.000851802838191203,1.4999288040756389
0.9596450328826904,0.0,[0.],5.0,0.6,0.0,-0.3541970113819597,0.0009482433644434442,1.499906619562913
0.9676764011383057,-0.00019539871673667023,[0.],5.0,0.6,0.0,-0.30588733910246635,0.0019589649546752695,1.4999227173760752
0.9756314754486084,-0.00019539871673667023,[0.],5.0,0.6,0.0,-0.2330640789672976,0.0019903389391389813,1.4999519305404185
0.983597993850708,-0.00039079743347334047,[0.],5.0,0.6,0.0,-0.16338709402067658,0.002968509711110832,1.4999495843073927
0.9916110038757324,-0.00039079743347334047,[0.],5.0,0.6,0.0,-0.10600119169637633,0.002983608110970899,1.4999610917371844
0.9996140003204346,-0.00039079743347334047,[0.],5.0,0.6,0.0,-0.062204325117724536,0.0029864174410396734,1.4999665755808818
1.0076179504394531,-0.0005861961502100108,[0.],5.0,0.6,0.0,-0.030358080797703697,0.003954998355221967,1.4999305911274277
1.0156166553497314,-0.0005861961502100108,[0.],5.0,0.6,0.0,-0.008046426296192268,0.003965348750881332,1.4999312289800248
1.0236365795135498,-0.0005861961502100108,[0.],5.0,0.6,0.0,0.0070524330440249194,0.003965784548096698,1.4999312401521094
1.0316321849822998,-0.0007815948669466809,[0.],5.0,0.6,0.0,0.016875359871137606,0.004933178700544755,1.499877617367554
1.0396203994750977,-0.0007815948669466809,[0.],5.0,0.6,0.0,0.0229305760134241,0.004942935715383929,1.4998774379421627
1.0476360321044922,-0.0007815948669466809,[0.],5.0,0.6,0.0,0.026346931336000856,0.0049430748221896675,1.499877312622838
1.0555973052978516,-0.0009769935836833512,[0.],5.0,0.6,0.0,0.0279483027873111,0.005910320629432915,1.4998085334717655
1.0636017322540283,-0.0009769935836833512,[0.],5.0,0.6,0.0,0.028325609222875733,0.005920003471669685,1.4998085176662928
1.0716116428375244,-0.0009769935836833512,[0.],5.0,0.6,0.0,0.027897171189938008,0.005920105492174221,1.4998085355973751
1.079608678817749,-0.0011723923004200215,[0.],5.0,0.6,0.0,0.02695592061012194,0.006887332756266868,1.4997245961432744
1.0876209735870361,-0.0013677910171566918,[0.],5.0,0.6,0.0,0.025704910953055334,0.007864229974774855,1.4996254076829234
1.0956132411956787,-0.0013677910171566918,[0.],5.0,0.6,0.0,0.024283391776518993,0.007873999595970205,1.4996254605794779
1.1036109924316406,-0.0013677910171566918,[0.],5.0,0.6,0.0,0.022785656476938018,0.007874097616687293,1.4996255130574205
1.1116015911102295,-0.0015631897338933619,[0.],5.0,0.6,0.0,0.021274521414933065,0.008841322406993552,1.4995110700521532
1.1196961402893066,-0.0015631897338933619,[0.],5.0,0.6,0.0,0.019790893034229123,0.008850994736022898,1.4995111154053333
1.1276960372924805,-0.0015631897338933619,[0.],5.0,0.6,0.0,0.01836052048082805,0.008851091499876331,1.4995111560277954
1.1356792449951172,-0.0019539871673667024,[0.],5.0,0.6,0.0,0.016998740843193937,0.010785539783489471,1.4992364632084527
1.1437053680419922,-0.0021493858841033727,[0.],5.0,0.6,0.0,0.01571380136546977,0.011772107924312906,1.4990762709848824
1.1516966819763184,-0.0021493858841033727,[0.],5.0,0.6,0.0,0.014509177303618346,0.011781973610791535,1.499076298086507
1.1596994400024414,-0.0021493858841033727,[0.],5.0,0.6,0.0,0.013385183249785479,0.011782072270191518,1.4990763214257612
1.1676783561706543,-0.0021493858841033727,[0.],5.0,0.6,0.0,0.012340088729766538,0.011782073258053114,1.4990763414392183
1.1756742000579834,-0.0021493858841033727,[0.],5.0,0.6,0.0,0.28740924643236215,0.011611274533514347,1.4990149680584022
1.183659315109253,-0.0021493858841033727,[0.],5.0,0.6,0.0,0.3196367827512775,0.011524167179060267,1.4990004069085998
1.1916513442993164,-0.0021493858841033727,[0.],5.0,0.6,0.0,0.2637104436910382,0.011480596421911378,1.4990246894809731
1.1996548175811768,-0.0021493858841033727,[0.],5.0,0.6,0.0,0.4628983955345459,0.011288012137486533,1.4989169738664025
1.2076537609100342,-0.002344784600840043,[0.],5.0,0.6,0.0,0.42479429777369815,0.012157235654062126,1.498766692197497
1.2156562805175781,-0.002344784600840043,[0.],5.0,0.6,0.0,0.3124244070415244,0.012117890745014542,1.4988283464570453
1.223667860031128,-0.002344784600840043,[0.],5.0,0.6,0.0,0.19374211732719726,0.012093478723817396,1.4988730603332943
1.2316555976867676,-0.002344784600840043,[0.],5.0,0.6,0.0,0.09325196477841358,0.01208122531755209,1.4988945281647101
1.239610195159912,-0.002344784600840043,[0.],5.0,0.6,0.0,0.2926321454825444,0.011904299405411585,1.4988372597632256
1.2476794719696045,-0.002344784600840043,[0.],5.0,0.6,0.0,0.2711383937358567,0.011814128457251256,1.4988462790008636
1.2555568218231201,-0.002344784600840043,[0.],5.0,0.6,0.0,0.17935338784704508,0.011769025903250187,1.498877056343654
1.263563632965088,-0.002344784600840043,[0.],5.0,0.6,0.0,0.08022150858918017,0.011746474455450446,1.498896210817377
1.271672248840332,-0.002344784600840043,[0.],5.0,0.6,0.0,-0.0034036649375962583,0.011735198729842583,1.4989009927531087
1.2796049118041992,-0.002344784600840043,[0.],5.0,0.6,0.0,-0.06610605226962309,0.011729560867021573,1.4988977483496408
1.2876570224761963,-0.002344784600840043,[0.],5.0,0.6,0.0,-0.10936457622662035,0.011726741935610897,1.4988920979713576
1.295659065246582,-0.0021493858841033727,[0.],5.0,0.6,0.0,-0.13683068171030888,0.010758108822059038,1.499062517849304
1.303602933883667,-0.002344784600840043,[0.],5.0,0.6,0.0,-0.1523511002231676,0.011714955500574418,1.4988837235006027
1.3116896152496338,-0.002344784600840043,[0.],5.0,0.6,0.0,-0.15924791481129763,0.011724178648261767,1.49888212381145
1.3196046352386475,-0.002344784600840043,[0.],5.0,0.6,0.0,-0.1601465591861852,0.011724098220189735,1.4988819101601976
1.3275859355926514,-0.002344784600840043,[0.],5.0,0.6,0.0,-0.1570212916109459,0.011724011086134562,1.4988826480079838
1.33558988571167,-0.002344784600840043,[0.],5.0,0.6,0.0,-0.1513098697277297,0.011723967049906785,1.498883958857876
1.3435754776000977,-0.002344784600840043,[0.],5.0,0.6,0.0,-0.14403515787842305,0.011723945027100894,1.498885558187663
1.3515968322753906,-0.002344784600840043,[0.],5.0,0.6,0.0,-0.1359108400168628,0.01172393401565103,1.498887251180679
1.359602928161621,-0.002344784600840043,[0.],5.0,0.6,0.0,-0.1274256393328509,0.011723928509925626,1.498888914473058
1.3675990104675293,-0.002344784600840043,[0.],5.0,0.6,0.0,-0.11890731483797728,0.011723925757062922,1.4988904764461577
1.3755974769592285,-0.002344784600840043,[0.],5.0,0.6,0.0,-0.11056991835197688,0.011723924380631568,1.4988919006370751
1.3836281299591064,-0.002344784600840043,[0.],5.0,0.6,0.0,-0.10254804699694987,0.011723923692415893,1.4988931732463306
1.391571283340454,-0.002344784600840043,[0.],5.0,0.6,0.0,-0.09492135372758805,0.011723923348308053,1.498894294325934
1.3995952606201172,-0.002344784600840043,[0.],5.0,0.6,0.0,-0.08773192327825799,0.011723923176254133,1.4988952718404813
1.4075746536254883,-0.002344784600840043,[0.],5.0,0.6,0.0,-0.08099650016301183,0.011723923090227175,1.49889611781094
1.415562391281128,-0.002344784600840043,[0.],5.0,0.6,0.0,-0.0747150397992813,0.011723923047213694,1.4988968458994427
1.4236571788787842,-0.002344784600840043,[0.],5.0,0.6,0.0,-0.06887665243305618,0.011723923025706956,1.498897469958308
1.4315776824951172,-0.002344784600840043,[0.],5.0,0.6,0.0,-0.06346370834241404,0.011723923014953586,1.4988980032068726
1.4396073818206787,-0.002344784600840043,[0.],5.0,0.6,0.0,-0.0584546518636226,0.0117239230095769,1.4988984578067455
1.4475786685943604,-0.002344784600840043,[0.],5.0,0.6,0.0,-0.053825912104454,0.011723923006888558,1.4988988446829188
1.4556055068969727,-0.002344784600840043,[0.],5.0,0.6,0.0,-0.04955318393799245,0.011723923005544387,1.4988991734913455
1.4636647701263428,-0.002344784600840043,[0.],5.0,0.6,0.0,-0.045612271648754484,0.011723923004872301,1.4988994526694208
1.4716756343841553,-0.002344784600840043,[0.],5.0,0.6,0.0,-0.04197963014715251,0.01172392300453626,1.4988996895295323
1.4796271324157715,-0.002344784600840043,[0.],5.0,0.6,0.0,-0.03863269816270803,0.011723923004368236,1.498899890371272
1.4876492023468018,-0.002344784600840043,[0.],5.0,0.6,0.0,-0.035550089341880184,0.011723923004284226,1.4989000605978426
1.4956622123718262,-0.0021493858841033727,[0.],5.0,0.6,0.0,-0.032711687183591624,0.010756699356395703,1.4990756582463838
1.503631353378296,-0.002344784600840043,[0.],5.0,0.6,0.0,-0.03009867573451242,0.011714250767742752,1.4989003270024113
1.5116510391235352,-0.002344784600840043,[0.],5.0,0.6,0.0,-0.02769352816030947,0.01172382628184593,1.4989004304730478
1.5195820331573486,-0.002344784600840043,[0.],5.0,0.6,0.0,-0.025479968454991578,0.011723922036981818,1.498900518090915
1.527594804763794,-0.002344784600840043,[0.],5.0,0.6,0.0,-0.023442916766005198,0.011723922994530603,1.498900592276649
1.535675287246704,-0.002344784600840043,[0.],5.0,0.6,0.0,-0.021568425477992894,0.011723923004104806,1.4989006550841824
1.5436699390411377,-0.002344784600840043,[0.],5.0,0.6,0.0,-0.019843610878080647,0.011723923004199905,1.4989007082552528
1.5516610145568848,-0.002344784600840043,[0.],5.0,0.6,0.0,-0.018256583615182998,0.011723923004200533,1.4989007532661864
1.5596494674682617,-0.002344784600840043,[0.],5.0,0.6,0.0,-0.01679638005137239,0.01172392300420038,1.4989007913679102
1.5676379203796387,-0.002344784600840043,[0.],5.0,0.6,0.0,-0.015452895835175381,0.011723923004200299,1.4989008236200876
1.5756494998931885,-0.002344784600840043,[0.],5.0,0.6,0.0,-0.014216822499965254,0.011723923004200255,1.4989008509201849
1.5835747718811035,-0.002344784600840043,[0.],5.0,0.6,0.0,-0.013079587532123273,0.011723923004200236,1.4989008740281815
1.5915653705596924,-0.002344784600840043,[0.],5.0,0.6,0.0,-0.012033298112078292,0.011723923004200226,1.498900893587559
1.5995752811431885,-0.002344784600840043,[0.],5.0,0.6,0.0,-0.01107068857088759,0.01172392300420022,1.4989009101431112
1.607560634613037,-0.002344784600840043,[0.],5.0,0.6,0.0,-0.010185071500663525,0.011723923004200217,1.4989009241560498
1.6155943870544434,-0.002344784600840043,[0.],5.0,0.6,0.0,-0.009370292391425328,0.011723923004200217,1.4989009360168066
1.6235427856445312,-0.002344784600840043,[0.],5.0,0.6,0.0,-0.008620687627682734,0.011723923004200216,1.4989009460558835
1.6315653324127197,-0.002344784600840043,[0.],5.0,0.6,0.0,-0.007931045656768644,0.011723923004200216,1.4989009545530436
1.6395583152770996,-0.002344784600840043,[0.],5.0,0.6,0.0,-0.007296571131737772,0.011723923004200216,1.4989009617450946
1.6476330757141113,-0.002344784600840043,[0.],5.0,0.6,0.0,-0.00671285183045631,0.011723923004200216,1.498900967832482
1.6555633544921875,-0.002344784600840043,[0.],5.0,0.6,0.0,-0.006175828156500144,0.011723923004200216,1.4989009729848697
1.6637332439422607,-0.002344784600840043,[0.],5.0,0.6,0.0,-0.005681765034716417,0.011723923004200216,1.4989009773458652
1.6716442108154297,-0.002344784600840043,[0.],5.0,0.6,0.0,-0.005227226023454519,0.011723923004200216,1.4989009810370213
1.6795647144317627,-0.002344784600840043,[0.],5.0,0.6,0.0,-0.004809049475638954,0.011723923004200216,1.4989009841612217
1.6875624656677246,-0.002344784600840043,[0.],5.0,0.6,0.0,-0.004424326591430399,0.011723923004200216,1.4989009868055492
1.6956098079681396,-0.002344784600840043,[0.],5.0,0.6,0.0,-0.004070381215805755,0.011723923004200216,1.4989009890437102
1.7036073207855225,-0.002344784600840043,[0.],5.0,0.6,0.0,-0.003744751244724156,0.011723923004200216,1.4989009909380915
1.7115659713745117,-0.0021493858841033727,[0.],5.0,0.6,0.0,-0.0034451715134742236,0.010756699356353696,1.4990764459594295
1.7195653915405273,-0.002344784600840043,[0.],5.0,0.6,0.0,-0.0031695580502258906,0.01171425076772175,1.4989009938986197
1.7276461124420166,-0.002344784600840043,[0.],5.0,0.6,0.0,-0.0029159935866885367,0.01172382628183543,1.498900995047289
1.7356507778167725,-0.002344784600840043,[0.],5.0,0.6,0.0,-0.0026827142260899594,0.011723922036976567,1.4989009960195228
1.7436294555664062,-0.002344784600840043,[0.],5.0,0.6,0.0,-0.0024680971764383134,0.011723922994527979,1.4989009968424218
1.751645803451538,-0.002344784600840043,[0.],5.0,0.6,0.0,-0.0022706494642281364,0.011723923004103493,1.4989009975389238
1.759657382965088,-0.002344784600840043,[0.],5.0,0.6,0.0,-0.002088997550423309,0.011723923004199248,1.498900998128443
1.767540693283081,-0.002344784600840043,[0.],5.0,0.6,0.0,-0.0019218777767228377,0.011723923004200205,1.4989009986274122
1.7755720615386963,-0.002344784600840043,[0.],5.0,0.6,0.0,-0.0017681275758183847,0.011723923004200216,1.4989009990497397
1.7835774421691895,-0.002344784600840043,[0.],5.0,0.6,0.0,-0.0016266773846162772,0.011723923004200216,1.4989009994071976
1.791626214981079,-0.002344784600840043,[0.],5.0,0.6,0.0,-0.0014965432042513304,0.011723923004200216,1.49890099970975
1.7995548248291016,-0.002344784600840043,[0.],5.0,0.6,0.0,-0.001376819755194273,0.011723923004200216,1.4989009999658305
1.8075485229492188,-0.002344784600840043,[0.],5.0,0.6,0.0,-0.0012666741798768666,0.011723923004200216,1.498901000182577
1.8156273365020752,-0.0021493858841033727,[0.],5.0,0.6,0.0,-0.0011653402490554112,0.010756699356353696,1.499076453783964
1.8236360549926758,-0.002344784600840043,[0.],5.0,0.6,0.0,-0.0010721130316290635,0.01171425076772175,1.498901000521307
1.8315403461456299,-0.002344784600840043,[0.],5.0,0.6,0.0,-0.0009863439908473987,0.01172382628183543,1.4989010006527321
1.83955717086792,-0.0021493858841033727,[0.],5.0,0.6,0.0,-0.0009074364728036681,0.010756698389130048,1.4990764541819033
1.847538948059082,-0.002344784600840043,[0.],5.0,0.6,0.0,-0.0008348415558362168,0.011714250758049513,1.4989010008581227
1.8555471897125244,-0.002344784600840043,[0.],5.0,0.6,0.0,-0.0007680542319691107,0.011723826281738708,1.4989010009378132
1.8635759353637695,-0.002344784600840043,[0.],5.0,0.6,0.0,-0.0007066098938314347,0.0117239220369756,1.498901001005263
1.871629238128662,-0.002344784600840043,[0.],5.0,0.6,0.0,-0.0006500811026188174,0.011723922994527968,1.498901001062353
1.879629135131836,-0.002344784600840043,[0.],5.0,0.6,0.0,-0.0005980746146150404,0.011723923004103493,1.4989010011106734
1.8875484466552734,-0.002344784600840043,[0.],5.0,0.6,0.0,-0.0005502286455898473,0.011723923004199248,1.498901001151572
1.8956232070922852,-0.002344784600840043,[0.],5.0,0.6,0.0,-0.0005062103540434655,0.011723923004200205,1.4989010011861885
1.9036259651184082,-0.002344784600840043,[0.],5.0,0.6,0.0,-0.0004657135257905539,0.011723923004200216,1.4989010012154882
1.9115514755249023,-0.002344784600840043,[0.],5.0,0.6,0.0,-0.00042845644377670464,0.011723923004200216,1.4989010012402872
1.9196271896362305,-0.002344784600840043,[0.],5.0,0.6,0.0,-0.00039417992830914514,0.011723923004200216,1.4989010012612771
1.9276177883148193,-0.002344784600840043,[0.],5.0,0.6,0.0,-0.000362645534068617,0.011723923004200216,1.4989010012790431
1.935643196105957,-0.002344784600840043,[0.],5.0,0.6,0.0,-0.00033363389136006975,0.011723923004200216,1.49890100129408
1.9435560703277588,-0.002344784600840043,[0.],5.0,0.6,0.0,-0.00030694318006312414,0.011723923004200216,1.4989010013068076
1.951643705368042,-0.002344784600840043,[0.],5.0,0.6,0.0,-0.000282387725666376,0.011723923004200216,1.4989010013175799
1.959580659866333,-0.002344784600840043,[0.],5.0,0.6,0.0,-0.00025979670761887736,0.011723923004200216,1.4989010013266977
1.967621088027954,-0.002344784600840043,[0.],5.0,0.6,0.0,-0.00023901297101343506,0.011723923004200216,1.4989010013344148
1.975637435913086,-0.002344784600840043,[0.],5.0,0.6,0.0,-0.0002198919333352079,0.011723923004200216,1.498901001340947
1.9836199283599854,-0.002344784600840043,[0.],5.0,0.6,0.0,-0.00020230057867038468,0.011723923004200216,1.4989010013464754
1.9916362762451172,-0.002344784600840043,[0.],5.0,0.6,0.0,-0.0001861165323781491,0.011723923004200216,1.498901001351155
1.9995920658111572,-0.002344784600840043,[0.],5.0,0.6,0.0,-0.00017122720978887386,0.011723923004200216,1.4989010013551156
2.007568120956421,-0.002344784600840043,[0.],5.0,0.6,0.0,-0.00015752903300644762,0.011723923004200216,1.4989010013584678
2.0156326293945312,-0.0021493858841033727,[0.],5.0,0.6,0.0,-0.00014492671036641036,0.010756699356353696,1.4990764547792381
2.0235373973846436,-0.002344784600840043,[0.],5.0,0.6,0.0,-0.00013333257353743248,0.01171425076772175,1.498901001363707
2.0315582752227783,-0.002344784600840043,[0.],5.0,0.6,0.0,-0.00012266596765467247,0.01172382628183543,1.4989010013657396
2.0396134853363037,-0.002344784600840043,[0.],5.0,0.6,0.0,-0.0001128526902424629,0.011723922036976567,1.49890100136746
2.0485849380493164,-0.002344784600840043,[0.],5.0,0.6,0.0,-0.00010382447502318081,0.011723922994527979,1.4989010013689161
2.056581735610962,-0.002344784600840043,[0.],5.0,0.6,0.0,-9.551851702140681e-05,0.011723923004103493,1.4989010013701487
2.0645644664764404,-0.002344784600840043,[0.],5.0,0.6,0.0,-8.787703565975047e-05,0.011723923004199248,1.498901001371192
2.0725555419921875,-0.002344784600840043,[0.],5.0,0.6,0.0,-8.084687280700994e-05,0.011723923004200205,1.498901001372075
2.080515146255493,-0.002344784600840043,[0.],5.0,0.6,0.0,-7.43791229824767e-05,0.011723923004200216,1.4989010013728223
2.088524341583252,-0.002344784600840043,[0.],5.0,0.6,0.0,-6.842879314389795e-05,0.011723923004200216,1.4989010013734547
2.0965709686279297,-0.002344784600840043,[0.],5.0,0.6,0.0,-6.295448969239962e-05,0.011723923004200216,1.4989010013739903
2.104562520980835,-0.0021493858841033727,[0.],5.0,0.6,0.0,-5.7918130517017045e-05,0.010756699356353696,1.4990764547923763
2.1125588417053223,-0.002344784600840043,[0.],5.0,0.6,0.0,-5.3284680075662384e-05,0.01171425076772175,1.498901001374827
2.1205687522888184,-0.002344784600840043,[0.],5.0,0.6,0.0,-4.9021905669614e-05,0.01172382628183543,1.4989010013751516
2.128554105758667,-0.002344784600840043,[0.],5.0,0.6,0.0,-4.510015321604808e-05,0.011723922036976567,1.4989010013754265
2.136643648147583,-0.002344784600840043,[0.],5.0,0.6,0.0,-4.149214095876651e-05,0.011723922994527979,1.498901001375659
2.144545078277588,-0.002344784600840043,[0.],5.0,0.6,0.0,-3.817276968206681e-05,0.011723923004103493,1.498901001375856
2.152545690536499,-0.002344784600840043,[0.],5.0,0.6,0.0,-3.511894810750262e-05,0.011723923004199248,1.4989010013760224
2.160569906234741,-0.002344784600840043,[0.],5.0,0.6,0.0,-3.23094322589032e-05,0.011723923004200205,1.4989010013761634
2.168578863143921,-0.002344784600840043,[0.],5.0,0.6,0.0,-2.9724677678191424e-05,0.011723923004200216,1.4989010013762827
2.176633834838867,-0.002344784600840043,[0.],5.0,0.6,0.0,-2.7346703463936474e-05,0.011723923004200216,1.4989010013763837
2.1846420764923096,-0.002344784600840043,[0.],5.0,0.6,0.0,-2.515896718682185e-05,0.011723923004200216,1.4989010013764692
2.192624807357788,-0.002344784600840043,[0.],5.0,0.6,0.0,-2.3146249811876316e-05,0.011723923004200216,1.4989010013765416
2.200514793395996,-0.002344784600840043,[0.],5.0,0.6,0.0,-2.129454982692634e-05,0.011723923004200216,1.4989010013766029
2.208547353744507,-0.002344784600840043,[0.],5.0,0.6,0.0,-1.9590985840772315e-05,0.011723923004200216,1.4989010013766548
2.2165868282318115,-0.002344784600840043,[0.],5.0,0.6,0.0,-1.8023706973510597e-05,0.011723923004200216,1.4989010013766988
2.2244985103607178,-0.002344784600840043,[0.],5.0,0.6,0.0,-1.6581810415629792e-05,0.011723923004200216,1.4989010013767359
2.2325170040130615,-0.002344784600840043,[0.],5.0,0.6,0.0,-1.5255265582379451e-05,0.011723923004200216,1.4989010013767672
2.240509510040283,-0.002344784600840043,[0.],5.0,0.6,0.0,-1.4034844335789124e-05,0.011723923004200216,1.4989010013767938
2.2484989166259766,-0.002344784600840043,[0.],5.0,0.6,0.0,-1.2912056788926015e-05,0.011723923004200216,1.4989010013768165
2.2565999031066895,-0.002344784600840043,[0.],5.0,0.6,0.0,-1.1879092245811935e-05,0.011723923004200216,1.4989010013768356
2.264604330062866,-0.002344784600840043,[0.],5.0,0.6,0.0,-1.0928764866146975e-05,0.011723923004200216,1.4989010013768516
2.272592306137085,-0.002344784600840043,[0.],5.0,0.6,0.0,-1.0054463676855238e-05,0.011723923004200216,1.4989010013768653
2.280569314956665,-0.0021493858841033727,[0.],5.0,0.6,0.0,-9.250106582706825e-06,0.010756699356353696,1.4990764547948097
2.288612127304077,-0.002344784600840043,[0.],5.0,0.6,0.0,-8.510098056090266e-06,0.01171425076772175,1.4989010013768866
2.29658579826355,-0.002344784600840043,[0.],5.0,0.6,0.0,-7.829290211603042e-06,0.01172382628183543,1.4989010013768949
2.3045036792755127,-0.002344784600840043,[0.],5.0,0.6,0.0,-7.202946994674818e-06,0.011723922036976567,1.4989010013769017
2.3125200271606445,-0.002344784600840043,[0.],5.0,0.6,0.0,-6.6267112351008204e-06,0.011723922994527979,1.4989010013769077
2.320497989654541,-0.002344784600840043,[0.],5.0,0.6,0.0,-6.096574336292755e-06,0.011723923004103493,1.4989010013769128
2.3284990787506104,-0.0021493858841033727,[0.],5.0,0.6,0.0,-5.608848389389338e-06,0.010756699356352728,1.4990764547948499
2.3365423679351807,-0.002344784600840043,[0.],5.0,0.6,0.0,-5.1601405182382e-06,0.01171425076772174,1.4989010013769206
2.3445212841033936,-0.002344784600840043,[0.],5.0,0.6,0.0,-4.747329276779142e-06,0.01172382628183543,1.4989010013769237
2.3525099754333496,-0.002344784600840043,[0.],5.0,0.6,0.0,-4.367542934636808e-06,0.011723922036976567,1.4989010013769262
2.360508680343628,-0.002344784600840043,[0.],5.0,0.6,0.0,-4.018139499865865e-06,0.011723922994527979,1.4989010013769284
2.3685178756713867,-0.002344784600840043,[0.],5.0,0.6,0.0,-3.696688339876601e-06,0.011723923004103493,1.4989010013769304
2.376521348953247,-0.002344784600840043,[0.],5.0,0.6,0.0,-3.400953272686466e-06,0.011723923004199248,1.498901001376932
2.384531259536743,-0.0021493858841033727,[0.],5.0,0.6,0.0,-3.1288770108715504e-06,0.010756699356353686,1.499076454794866
2.392544746398926,-0.002344784600840043,[0.],5.0,0.6,0.0,-2.878566850001828e-06,0.01171425076772175,1.4989010013769344
2.400536060333252,-0.002344784600840043,[0.],5.0,0.6,0.0,-2.6482815020016807e-06,0.01172382628183543,1.4989010013769353
2.408522605895996,-0.002344784600840043,[0.],5.0,0.6,0.0,-2.4364189818415444e-06,0.011723922036976567,1.498901001376936
2.416597366333008,-0.002344784600840043,[0.],5.0,0.6,0.0,-2.2415054632942233e-06,0.011723922994527979,1.4989010013769368
2.42459774017334,-0.002344784600840043,[0.],5.0,0.6,0.0,-2.0621850262306844e-06,0.011723923004103493,1.4989010013769373
2.432518720626831,-0.0021493858841033727,[0.],5.0,0.6,0.0,-1.8972102241322293e-06,0.010756699356352728,1.4990764547948707
2.440548896789551,-0.0021493858841033727,[0.],5.0,0.6,0.0,-1.7454334062016545e-06,0.01074702711987522,1.499076454794871
2.4485371112823486,-0.002344784600840043,[0.],5.0,0.6,0.0,-1.6057987337055182e-06,0.011714154045356966,1.4989010013769386
2.456615924835205,-0.002344784600840043,[0.],5.0,0.6,0.0,-1.4773348350090784e-06,0.011723825314611783,1.4989010013769388
2.4646077156066895,-0.002344784600840043,[0.],5.0,0.6,0.0,-1.3591480482083524e-06,0.01172392202730433,1.498901001376939
2.4726054668426514,-0.002344784600840043,[0.],5.0,0.6,0.0,-1.250416204351685e-06,0.011723922994431256,1.4989010013769393
2.4805972576141357,-0.002344784600840043,[0.],5.0,0.6,0.0,-1.1503829080035494e-06,0.011723923004102525,1.4989010013769395
2.4885942935943604,-0.002344784600840043,[0.],5.0,0.6,0.0,-1.0583522753632642e-06,0.011723923004199239,1.4989010013769397
2.4965920448303223,-0.002344784600840043,[0.],5.0,0.6,0.0,-9.736840933342033e-07,0.011723923004200205,1.4989010013769397
2.5045340061187744,-0.002344784600840043,[0.],5.0,0.6,0.0,-8.957893658674678e-07,0.011723923004200216,1.49890100137694
2.512503147125244,-0.002344784600840043,[0.],5.0,0.6,0.0,-8.241262165980699e-07,0.011723923004200216,1.49890100137694
2.520521402359009,-0.002344784600840043,[0.],5.0,0.6,0.0,-7.581961192702245e-07,0.011723923004200216,1.49890100137694
2.528515100479126,-0.002344784600840043,[0.],5.0,0.6,0.0,-6.975404297286083e-07,0.011723923004200216,1.4989010013769402
2.536602258682251,-0.002344784600840043,[0.],5.0,0.6,0.0,-6.417371953503196e-07,0.011723923004200216,1.4989010013769402
2.5445244312286377,-0.002344784600840043,[0.],5.0,0.6,0.0,-5.903982197222933e-07,0.011723923004200216,1.4989010013769402
2.5525143146514893,-0.002344784600840043,[0.],5.0,0.6,0.0,-5.431663621445092e-07,0.011723923004200216,1.4989010013769404
2.5606131553649902,-0.0021493858841033727,[0.],5.0,0.6,0.0,-4.997130531729496e-07,0.010756699356353696,1.4990764547948732
2.5685274600982666,-0.002344784600840043,[0.],5.0,0.6,0.0,-4.5973600891911374e-07,0.01171425076772175,1.4989010013769404
2.5767669677734375,-0.002344784600840043,[0.],5.0,0.6,0.0,-4.2295712820558467e-07,0.01172382628183543,1.4989010013769404
2.5846261978149414,-0.002344784600840043,[0.],5.0,0.6,0.0,-3.8912055794913773e-07,0.011723922036976567,1.4989010013769404
2.592531442642212,-0.002344784600840043,[0.],5.0,0.6,0.0,-3.579909133132063e-07,0.011723922994527979,1.4989010013769404
2.600529193878174,-0.0021493858841033727,[0.],5.0,0.6,0.0,-3.293516402481493e-07,0.010756699356256973,1.4990764547948732
2.60852313041687,-0.002344784600840043,[0.],5.0,0.6,0.0,-3.030035090282976e-07,0.011714250767720782,1.4989010013769404
2.6165874004364014,-0.002344784600840043,[0.],5.0,0.6,0.0,-2.7876322830603374e-07,0.011723826281835421,1.4989010013769404
2.624709367752075,-0.0021493858841033727,[0.],5.0,0.6,0.0,-2.564621700415507e-07,0.010756698389130048,1.4990764547948732
2.6325411796569824,-0.002344784600840043,[0.],5.0,0.6,0.0,-2.3594519643822698e-07,0.011714250758049513,1.4989010013769404
2.640561819076538,-0.002344784600840043,[0.],5.0,0.6,0.0,-2.170695807231691e-07,0.011723826281738708,1.4989010013769404
2.6485190391540527,-0.002344784600840043,[0.],5.0,0.6,0.0,-1.9970401426531536e-07,0.0117239220369756,1.4989010013769404
2.656473159790039,-0.0021493858841033727,[0.],5.0,0.6,0.0,-1.8372769312409018e-07,0.010756699346681449,1.4990764547948734
2.664579391479492,-0.002344784600840043,[0.],5.0,0.6,0.0,-1.6902947767416327e-07,0.011714250767625027,1.4989010013769404
2.6725823879241943,-0.0021493858841033727,[0.],5.0,0.6,0.0,-1.5550711946023035e-07,0.010756602633987944,1.4990764547948734
2.6805663108825684,-0.002344784600840043,[0.],5.0,0.6,0.0,-1.4306654990341194e-07,0.011714249800498093,1.4989010013769404
2.688584566116333,-0.002344784600840043,[0.],5.0,0.6,0.0,-1.3162122591113882e-07,0.011723826272163194,1.4989010013769404
2.696499824523926,-0.002344784600840043,[0.],5.0,0.6,0.0,-1.210915278382477e-07,0.011723922036879844,1.4989010013769404
2.7047815322875977,-0.002344784600840043,[0.],5.0,0.6,0.0,-1.1140420561118802e-07,0.01172392299452701,1.4989010013769404
2.7124924659729004,-0.002344784600840043,[0.],5.0,0.6,0.0,-1.0249186916229289e-07,0.011723923004103482,1.4989010013769404
2.72049880027771,-0.002344784600840043,[0.],5.0,0.6,0.0,-9.429251962930944e-08,0.011723923004199248,1.4989010013769404
2.7285146713256836,-0.002344784600840043,[0.],5.0,0.6,0.0,-8.674911805896459e-08,0.011723923004200205,1.4989010013769404
2.7365007400512695,-0.002344784600840043,[0.],5.0,0.6,0.0,-7.980918861424743e-08,0.011723923004200216,1.4989010013769404
2.7445268630981445,-0.0021493858841033727,[0.],5.0,0.6,0.0,-7.342445352510763e-08,0.010756699356353696,1.4990764547948734
2.7524874210357666,-0.0021493858841033727,[0.],5.0,0.6,0.0,-6.755049724309911e-08,0.01074702711987523,1.4990764547948734
2.7605650424957275,-0.0021493858841033727,[0.],5.0,0.6,0.0,-6.214645746365111e-08,0.010746930397510446,1.4990764547948734
2.768564224243164,-0.002344784600840043,[0.],5.0,0.6,0.0,-5.7174740866559026e-08,0.011714153078133317,1.4989010013769404
2.7765884399414062,-0.002344784600840043,[0.],5.0,0.6,0.0,-5.2600761597234437e-08,0.011723825304939546,1.4989010013769404
2.7846479415893555,-0.002344784600840043,[0.],5.0,0.6,0.0,-4.839270066945564e-08,0.011723922027207609,1.4989010013769404
2.7926671504974365,-0.002344784600840043,[0.],5.0,0.6,0.0,-4.4521284615899126e-08,0.01172392299443029,1.4989010013769404
2.8006603717803955,-0.002344784600840043,[0.],5.0,0.6,0.0,-4.095958184662724e-08,0.011723923004102516,1.4989010013769404
2.808605194091797,-0.0021493858841033727,[0.],5.0,0.6,0.0,-3.7682815298897054e-08,0.010756699356352718,1.4990764547948734
2.816532850265503,-0.002344784600840043,[0.],5.0,0.6,0.0,-3.466819007498526e-08,0.01171425076772174,1.4989010013769404
2.824551582336426,-0.002344784600840043,[0.],5.0,0.6,0.0,-3.189473486898642e-08,0.01172382628183543,1.4989010013769404
2.832578182220459,-0.002344784600840043,[0.],5.0,0.6,0.0,-2.9343156079467556e-08,0.011723922036976567,1.4989010013769404
2.8405706882476807,-0.002344784600840043,[0.],5.0,0.6,0.0,-2.699570359311015e-08,0.011723922994527979,1.4989010013769404
2.8484749794006348,-0.002344784600840043,[0.],5.0,0.6,0.0,-2.4836047305661358e-08,0.011723923004103493,1.4989010013769404
2.856609582901001,-0.002344784600840043,[0.],5.0,0.6,0.0,-2.28491635212084e-08,0.011723923004199248,1.4989010013769404
2.8645403385162354,-0.002344784600840043,[0.],5.0,0.6,0.0,-2.1021230439511765e-08,0.011723923004200205,1.4989010013769404
2.87265682220459,-0.0021493858841033727,[0.],5.0,0.6,0.0,-1.9339532004350807e-08,0.010756699356353696,1.4990764547948734
2.880612373352051,-0.002344784600840043,[0.],5.0,0.6,0.0,-1.7792369444002743e-08,0.01171425076772175,1.4989010013769404
2.8885204792022705,-0.002344784600840043,[0.],5.0,0.6,0.0,-1.636897988848253e-08,0.01172382628183543,1.4989010013769404
2.8966493606567383,-0.0021493858841033727,[0.],5.0,0.6,0.0,-1.50594614974039e-08,0.010756698389130048,1.4990764547948734
2.9045004844665527,-0.002344784600840043,[0.],5.0,0.6,0.0,-1.3854704577611598e-08,0.011714250758049513,1.4989010013769404
2.9125545024871826,-0.002344784600840043,[0.],5.0,0.6,0.0,-1.2746328211402657e-08,0.011723826281738708,1.4989010013769404
2.920649290084839,-0.002344784600840043,[0.],5.0,0.6,0.0,-1.1726621954490463e-08,0.0117239220369756,1.4989010013769404
2.9284915924072266,-0.002344784600840043,[0.],5.0,0.6,0.0,-1.0788492198131222e-08,0.011723922994527968,1.4989010013769404
2.936574697494507,-0.0021493858841033727,[0.],5.0,0.6,0.0,-9.925412822280722e-09,0.010756699356256973,1.4990764547948734
2.9445083141326904,-0.0021493858841033727,[0.],5.0,0.6,0.0,-9.13137979649828e-09,0.010747027119874263,1.4990764547948734
2.95251727104187,-0.002344784600840043,[0.],5.0,0.6,0.0,-8.400869412778423e-09,0.011714154045356955,1.4989010013769404
2.9606518745422363,-0.002344784600840043,[0.],5.0,0.6,0.0,-7.728799859756146e-09,0.011723825314611783,1.4989010013769404
2.9686596393585205,-0.002344784600840043,[0.],5.0,0.6,0.0,-7.110495870975647e-09,0.01172392202730433,1.4989010013769404
2.9765090942382812,-0.0021493858841033727,[0.],5.0,0.6,0.0,-6.5416562012975945e-09,0.010756699346584736,1.4990764547948734
2.984497547149658,-0.002344784600840043,[0.],5.0,0.6,0.0,-6.018323705193798e-09,0.01171425076762406,1.4989010013769404
2.992494583129883,-0.002344784600840043,[0.],5.0,0.6,0.0,-5.536857808778303e-09,0.011723826281834453,1.4989010013769404
3.0004990100860596,-0.002344784600840043,[0.],5.0,0.6,0.0,-5.093909184076037e-09,0.011723922036976557,1.4989010013769404
3.008493185043335,-0.002344784600840043,[0.],5.0,0.6,0.0,-4.686396449349948e-09,0.011723922994527979,1.4989010013769404
3.0164859294891357,-0.002344784600840043,[0.],5.0,0.6,0.0,-4.311484733401954e-09,0.011723923004103493,1.4989010013769404
3.0245015621185303,-0.002344784600840043,[0.],5.0,0.6,0.0,-3.9665659547297904e-09,0.011723923004199248,1.4989010013769404
3.0324950218200684,-0.0021493858841033727,[0.],5.0,0.6,0.0,-3.6492406783514094e-09,0.010756699356353686,1.4990764547948734
3.040487289428711,-0.0021493858841033727,[0.],5.0,0.6,0.0,-3.3573014240832994e-09,0.01074702711987523,1.4990764547948734
3.0484907627105713,-0.002344784600840043,[0.],5.0,0.6,0.0,-3.088717310156631e-09,0.011714154045356966,1.4989010013769404
3.0565738677978516,-0.002344784600840043,[0.],5.0,0.6,0.0,-2.8416199253440996e-09,0.011723825314611783,1.4989010013769404
3.0645740032196045,-0.002344784600840043,[0.],5.0,0.6,0.0,-2.614290331316573e-09,0.01172392202730433,1.4989010013769404
3.0724618434906006,-0.002344784600840043,[0.],5.0,0.6,0.0,-2.4051471048112485e-09,0.011723922994431256,1.4989010013769404
3.0805094242095947,-0.002344784600840043,[0.],5.0,0.6,0.0,-2.2127353364263497e-09,0.011723923004102525,1.4989010013769404
3.0884885787963867,-0.002344784600840043,[0.],5.0,0.6,0.0,-2.0357165095122427e-09,0.011723923004199239,1.4989010013769404
3.096506118774414,-0.002344784600840043,[0.],5.0,0.6,0.0,-1.8728591887512617e-09,0.011723923004200205,1.4989010013769404
3.1044864654541016,-0.002344784600840043,[0.],5.0,0.6,0.0,-1.723030453651165e-09,0.011723923004200216,1.4989010013769404
3.1124846935272217,-0.002344784600840043,[0.],5.0,0.6,0.0,-1.5851880173590706e-09,0.011723923004200216,1.4989010013769404
3.1204702854156494,-0.002344784600840043,[0.],5.0,0.6,0.0,-1.4583729759703448e-09,0.011723923004200216,1.4989010013769404
3.1284985542297363,-0.0021493858841033727,[0.],5.0,0.6,0.0,-1.341703137892715e-09,0.010756699356353696,1.4990764547948734
3.136526107788086,-0.002344784600840043,[0.],5.0,0.6,0.0,-1.2343668868612962e-09,0.01171425076772175,1.4989010013769404
3.144531488418579,-0.002344784600840043,[0.],5.0,0.6,0.0,-1.1356175359123938e-09,0.01172382628183543,1.4989010013769404
3.152523994445801,-0.0021493858841033727,[0.],5.0,0.6,0.0,-1.0447681330394024e-09,0.010756698389130048,1.4990764547948734
3.160539150238037,-0.002344784600840043,[0.],5.0,0.6,0.0,-9.611866823962493e-10,0.011714250758049513,1.4989010013769404
3.1685235500335693,-0.002344784600840043,[0.],5.0,0.6,0.0,-8.84291747804551e-10,0.011723826281738708,1.4989010013769404
3.1765224933624268,-0.002344784600840043,[0.],5.0,0.6,0.0,-8.135484079801874e-10,0.0117239220369756,1.4989010013769404
3.1845290660858154,-0.002344784600840043,[0.],5.0,0.6,0.0,-7.48464535341772e-10,0.011723922994527968,1.4989010013769404
3.192521572113037,-0.0021493858841033727,[0.],5.0,0.6,0.0,-6.885873725144307e-10,0.010756699356256973,1.4990764547948734
3.2005176544189453,-0.002344784600840043,[0.],5.0,0.6,0.0,-6.335003827132764e-10,0.011714250767720782,1.4989010013769404
3.2085697650909424,-0.002344784600840043,[0.],5.0,0.6,0.0,-5.828203520962138e-10,0.011723826281835421,1.4989010013769404
3.2165367603302,-0.002344784600840043,[0.],5.0,0.6,0.0,-5.361947239285168e-10,0.011723922036976567,1.4989010013769404
3.224487066268921,-0.002344784600840043,[0.],5.0,0.6,0.0,-4.932991460142355e-10,0.011723922994527979,1.4989010013769404
3.232520580291748,-0.0021493858841033727,[0.],5.0,0.6,0.0,-4.5383521433309643e-10,0.010756699356256973,1.4990764547948734
3.24052095413208,-0.0021493858841033727,[0.],5.0,0.6,0.0,-4.175283971864492e-10,0.010747027119874263,1.4990764547948734
3.248518228530884,-0.0021493858841033727,[0.],5.0,0.6,0.0,-3.841261254115334e-10,0.010746930397510436,1.4990764547948734
3.2565414905548096,-0.002344784600840043,[0.],5.0,0.6,0.0,-3.5339603537861e-10,0.011714153078133317,1.4989010013769404
3.2645225524902344,-0.0021493858841033727,[0.],5.0,0.6,0.0,-3.251243525483212e-10,0.010756601657093027,1.4990764547948734
3.272536277770996,-0.002344784600840043,[0.],5.0,0.6,0.0,-2.9911440434445563e-10,0.011714249790729143,1.4989010013769404
3.2805302143096924,-0.0021493858841033727,[0.],5.0,0.6,0.0,-2.7518525199689904e-10,0.010756602624218984,1.4990764547948734
3.2885725498199463,-0.002344784600840043,[0.],5.0,0.6,0.0,-2.5317043183714696e-10,0.011714249800400403,1.4989010013769404
3.2964603900909424,-0.002344784600840043,[0.],5.0,0.6,0.0,-2.329167972901753e-10,0.011723826272162216,1.4989010013769404
3.3045358657836914,-0.0021493858841033727,[0.],5.0,0.6,0.0,-2.142834535069615e-10,0.010756698389033316,1.4990764547948734
3.3125526905059814,-0.002344784600840043,[0.],5.0,0.6,0.0,-1.9714077722640503e-10,0.011714250758048547,1.4989010013769404
3.3205671310424805,-0.002344784600840043,[0.],5.0,0.6,0.0,-1.8136951504829228e-10,0.011723826281738698,1.4989010013769404
3.3285534381866455,-0.0021493858841033727,[0.],5.0,0.6,0.0,-1.6685995384442906e-10,0.01075669838912908,1.4990764547948734
3.336524724960327,-0.002344784600840043,[0.],5.0,0.6,0.0,-1.5351115753687484e-10,0.011714250758049504,1.4989010013769404
3.344552993774414,-0.002344784600840043,[0.],5.0,0.6,0.0,-1.412302649339248e-10,0.011723826281738708,1.4989010013769404
3.3524956703186035,-0.002344784600840043,[0.],5.0,0.6,0.0,-1.2993184373921052e-10,0.0117239220369756,1.4989010013769404
3.360520839691162,-0.002344784600840043,[0.],5.0,0.6,0.0,-1.1953729624007369e-10,0.011723922994527968,1.4989010013769404
3.3684918880462646,-0.002344784600840043,[0.],5.0,0.6,0.0,-1.0997431254086796e-10,0.011723923004103493,1.4989010013769404
3.3764381408691406,-0.002344784600840043,[0.],5.0,0.6,0.0,-1.0117636753759844e-10,0.011723923004199248,1.4989010013769404
3.38456654548645,-0.002344784600840043,[0.],5.0,0.6,0.0,-9.308225813459064e-11,0.011723923004200205,1.4989010013769404
3.3924782276153564,-0.0021493858841033727,[0.],5.0,0.6,0.0,-8.563567748382343e-11,0.010756699356353696,1.4990764547948734
3.4004735946655273,-0.0021493858841033727,[0.],5.0,0.6,0.0,-7.878482328511755e-11,0.01074702711987523,1.4990764547948734
3.408555269241333,-0.0021493858841033727,[0.],5.0,0.6,0.0,-7.248203742230801e-11,0.010746930397510446,1.4990764547948734
3.416557788848877,-0.0021493858841033727,[0.],5.0,0.6,0.0,-6.668347442852342e-11,0.010746929430286798,1.4990764547948734
3.424555778503418,-0.002344784600840043,[0.],5.0,0.6,0.0,-6.134879647424154e-11,0.01171415306846108,1.4989010013769404
3.4325478076934814,-0.002344784600840043,[0.],5.0,0.6,0.0,-5.644089275630237e-11,0.011723825304842823,1.4989010013769404
3.4404616355895996,-0.0021493858841033727,[0.],5.0,0.6,0.0,-5.192562133579819e-11,0.010756698379360122,1.4990764547948734
3.4484670162200928,-0.0021493858841033727,[0.],5.0,0.6,0.0,-4.777157162893435e-11,0.010747027110105296,1.4990764547948734
3.4564850330352783,-0.002344784600840043,[0.],5.0,0.6,0.0,-4.394984589861949e-11,0.011714154045259266,1.4989010013769404
3.464440107345581,-0.0021493858841033727,[0.],5.0,0.6,0.0,-4.04338582267299e-11,0.010756601666764285,1.4990764547948734
3.472477436065674,-0.002344784600840043,[0.],5.0,0.6,0.0,-3.719914956859155e-11,0.011714249790825856,1.4989010013769404
3.480550527572632,-0.0021493858841033727,[0.],5.0,0.6,0.0,-3.422321760310426e-11,0.010756602624219952,1.4990764547948734
3.4885408878326416,-0.0021493858841033727,[0.],5.0,0.6,0.0,-3.1485360194855915e-11,0.010747026152553893,1.4990764547948734
3.4965405464172363,-0.0021493858841033727,[0.],5.0,0.6,0.0,-2.8966531379267463e-11,0.010746930387837233,1.4990764547948734
3.504528284072876,-0.0021493858841033727,[0.],5.0,0.6,0.0,-2.664920886892606e-11,0.010746929430190066,1.4990764547948734
3.512484073638916,-0.0021493858841033727,[0.],5.0,0.6,0.0,-2.4517272159411952e-11,0.010746929420613595,1.4990764547948734
3.520467758178711,-0.002344784600840043,[0.],5.0,0.6,0.0,-2.2555890386658995e-11,0.011714153068364349,1.4989010013769404
3.5284478664398193,-0.0021493858841033727,[0.],5.0,0.6,0.0,-2.075141915572628e-11,0.010756601656995338,1.4990764547948734
3.536461353302002,-0.002344784600840043,[0.],5.0,0.6,0.0,-1.9091305623268164e-11,0.011714249790728166,1.4989010013769404
3.5445590019226074,-0.002344784600840043,[0.],5.0,0.6,0.0,-1.756400117340671e-11,0.011723826272065495,1.4989010013769404
3.552417755126953,-0.0021493858841033727,[0.],5.0,0.6,0.0,-1.615888107953416e-11,0.010756698389032348,1.4990764547948734
3.560443639755249,-0.0021493858841033727,[0.],5.0,0.6,0.0,-1.486617059317143e-11,0.010747027110202017,1.4990764547948734
3.568513870239258,-0.0021493858841033727,[0.],5.0,0.6,0.0,-1.3676876945717738e-11,0.010746930397413713,1.4990764547948734
3.5764236450195312,-0.002344784600840043,[0.],5.0,0.6,0.0,-1.2582726790060308e-11,0.01171415307813235,1.4989010013769404
3.5844244956970215,-0.0021493858841033727,[0.],5.0,0.6,0.0,-1.1576108646855503e-11,0.010756601657093016,1.4990764547948734
3.5925188064575195,-0.002344784600840043,[0.],5.0,0.6,0.0,-1.0650019955107068e-11,0.011714249790729143,1.4989010013769404
3.6005125045776367,-0.0021493858841033727,[0.],5.0,0.6,0.0,-9.798018358698501e-12,0.010756602624218984,1.4990764547948734
3.6084940433502197,-0.002344784600840043,[0.],5.0,0.6,0.0,-9.014176890002612e-12,0.011714249800400403,1.4989010013769404
3.616469621658325,-0.0021493858841033727,[0.],5.0,0.6,0.0,-8.293042738802406e-12,0.010756602624315697,1.4990764547948734
3.62442946434021,-0.0021493858841033727,[0.],5.0,0.6,0.0,-7.629599319698219e-12,0.01074702615255485,1.4990764547948734
3.6325089931488037,-0.002344784600840043,[0.],5.0,0.6,0.0,-7.0192313741223535e-12,0.01171415403568376,1.4989010013769404
3.640514612197876,-0.002344784600840043,[0.],5.0,0.6,0.0,-6.4576928641925636e-12,0.01172382531451505,1.4989010013769404
3.6485137939453125,-0.002344784600840043,[0.],5.0,0.6,0.0,-5.941077435057158e-12,0.011723922027303364,1.4989010013769404
3.6565208435058594,-0.0021493858841033727,[0.],5.0,0.6,0.0,-5.465791240252594e-12,0.010756699346584728,1.4990764547948734
3.6644344329833984,-0.002344784600840043,[0.],5.0,0.6,0.0,-5.028527941032393e-12,0.01171425076762406,1.4989010013769404
3.67248797416687,-0.002344784600840043,[0.],5.0,0.6,0.0,-4.626245705749791e-12,0.011723826281834453,1.4989010013769404
3.6804609298706055,-0.002344784600840043,[0.],5.0,0.6,0.0,-4.2561460492898104e-12,0.011723922036976557,1.4989010013769404
3.6885340213775635,-0.002344784600840043,[0.],5.0,0.6,0.0,-3.915654365346625e-12,0.011723922994527979,1.4989010013769404
3.696512222290039,-0.002344784600840043,[0.],5.0,0.6,0.0,-3.6024020161188926e-12,0.011723923004103493,1.4989010013769404
3.704505443572998,-0.0021493858841033727,[0.],5.0,0.6,0.0,-3.314209854829388e-12,0.010756699356352728,1.4990764547948734
3.7125227451324463,-0.0021493858841033727,[0.],5.0,0.6,0.0,-3.049073066443036e-12,0.01074702711987522,1.4990764547948734
3.720454454421997,-0.002344784600840043,[0.],5.0,0.6,0.0,-2.8051472211275936e-12,0.011714154045356966,1.4989010013769404
3.7284278869628906,-0.002344784600840043,[0.],5.0,0.6,0.0,-2.5807354434373853e-12,0.011723825314611783,1.4989010013769404
3.7365212440490723,-0.0021493858841033727,[0.],5.0,0.6,0.0,-2.3742766079623912e-12,0.010756698379457811,1.4990764547948734
3.7444233894348145,-0.002344784600840043,[0.],5.0,0.6,0.0,-2.1843344793254017e-12,0.011714250757952792,1.4989010013769404
3.752424478530884,-0.0021493858841033727,[0.],5.0,0.6,0.0,-2.009587720979369e-12,0.010756602633891221,1.4990764547948734
3.760435104370117,-0.002344784600840043,[0.],5.0,0.6,0.0,-1.848820703301017e-12,0.011714249800497125,1.4989010013769404
3.76851224899292,-0.0021493858841033727,[0.],5.0,0.6,0.0,-1.700915047036936e-12,0.010756602624316665,1.4990764547948734
3.7764017581939697,-0.0021493858841033727,[0.],5.0,0.6,0.0,-1.564841843273979e-12,0.010747026152554861,1.4990764547948734
3.7844550609588623,-0.0021493858841033727,[0.],5.0,0.6,0.0,-1.439654495812064e-12,0.010746930387837242,1.4990764547948734
3.792445182800293,-0.0021493858841033727,[0.],5.0,0.6,0.0,-1.324482136147099e-12,0.010746929430190066,1.4990764547948734
3.800513744354248,-0.0021493858841033727,[0.],5.0,0.6,0.0,-1.2185235652553313e-12,0.010746929420613595,1.4990764547948734
3.808483362197876,-0.0021493858841033727,[0.],5.0,0.6,0.0,-1.121041680034905e-12,0.01074692942051783,1.4990764547948734
3.816525459289551,-0.0021493858841033727,[0.],5.0,0.6,0.0,-1.031358345632112e-12,0.010746929420516872,1.4990764547948734
3.8245112895965576,-0.002344784600840043,[0.],5.0,0.6,0.0,-9.488496779815426e-13,0.011714153068363382,1.4989010013769404
3.8325345516204834,-0.002344784600840043,[0.],5.0,0.6,0.0,-8.729417037430192e-13,0.011723825304841846,1.4989010013769404
3.8404881954193115,-0.0021493858841033727,[0.],5.0,0.6,0.0,-8.031063674435782e-13,0.010756698379360111,1.4990764547948734
3.8484203815460205,-0.002344784600840043,[0.],5.0,0.6,0.0,-7.388578580480923e-13,0.011714250757951813,1.4989010013769404
3.8564348220825195,-0.002344784600840043,[0.],5.0,0.6,0.0,-6.797492294042448e-13,0.011723826281737732,1.4989010013769404
3.8645248413085938,-0.0021493858841033727,[0.],5.0,0.6,0.0,-6.253692910519046e-13,0.010756698389129071,1.4990764547948734
3.8725199699401855,-0.0021493858841033727,[0.],5.0,0.6,0.0,-5.753397477677531e-13,0.010747027110202985,1.4990764547948734
3.8805272579193115,-0.0021493858841033727,[0.],5.0,0.6,0.0,-5.293125679463332e-13,0.010746930397413723,1.4990764547948734
3.8884284496307373,-0.0021493858841033727,[0.],5.0,0.6,0.0,-4.86967562510627e-13,0.01074692943028583,1.4990764547948734
3.8964967727661133,-0.002344784600840043,[0.],5.0,0.6,0.0,-4.480101575097763e-13,0.011714153068461072,1.4989010013769404
3.904486656188965,-0.002344784600840043,[0.],5.0,0.6,0.0,-4.1216934490899416e-13,0.011723825304842823,1.4989010013769404
3.9124345779418945,-0.002344784600840043,[0.],5.0,0.6,0.0,-3.7919579731627535e-13,0.011723922027206641,1.4989010013769404
3.9204578399658203,-0.0021493858841033727,[0.],5.0,0.6,0.0,-3.4886013353097257e-13,0.01075669934658376,1.4990764547948734
3.9284400939941406,-0.0021493858841033727,[0.],5.0,0.6,0.0,-3.2095132284849456e-13,0.010747027119777531,1.4990764547948734
3.9364635944366455,-0.002344784600840043,[0.],5.0,0.6,0.0,-2.952752170206149e-13,0.011714154045355987,1.4989010013769404
3.944441556930542,-0.002344784600840043,[0.],5.0,0.6,0.0,-2.716531996589659e-13,0.011723825314611773,1.4989010013769404
3.952427625656128,-0.002344784600840043,[0.],5.0,0.6,0.0,-2.4992094368624863e-13,0.01172392202730433,1.4989010013769404
3.960425853729248,-0.002344784600840043,[0.],5.0,0.6,0.0,-2.299272681913486e-13,0.011723922994431256,1.4989010013769404
3.968510389328003,-0.002344784600840043,[0.],5.0,0.6,0.0,-2.1153308673604097e-13,0.011723923004102525,1.4989010013769404
3.976515054702759,-0.002344784600840043,[0.],5.0,0.6,0.0,-1.9461043979715767e-13,0.011723923004199239,1.4989010013769404
3.984508514404297,-0.0021493858841033727,[0.],5.0,0.6,0.0,-1.7904160461338492e-13,0.010756699356353686,1.4990764547948734
3.992489814758301,-0.002344784600840043,[0.],5.0,0.6,0.0,-1.6471827624431432e-13,0.01171425076772175,1.4989010013769404
4.000516414642334,-0.002344784600840043,[0.],5.0,0.6,0.0,-1.5154081414476915e-13,0.01172382628183543,1.4989010013769404
4.008505344390869,-0.002344784600840043,[0.],5.0,0.6,0.0,-1.394175490131877e-13,0.011723922036976567,1.4989010013769404
4.016505002975464,-0.0021493858841033727,[0.],5.0,0.6,0.0,-1.2826414509213252e-13,0.01075669934668146,1.4990764547948734
4.024489402770996,-0.0021493858841033727,[0.],5.0,0.6,0.0,-1.1800301348476188e-13,0.010747027119778508,1.4990764547948734
4.032470703125,-0.002344784600840043,[0.],5.0,0.6,0.0,-1.0856277240598095e-13,0.011714154045355998,1.4989010013769404
4.040471792221069,-0.002344784600840043,[0.],5.0,0.6,0.0,-9.987775061350262e-14,0.011723825314611773,1.4989010013769404
4.048482418060303,-0.002344784600840043,[0.],5.0,0.6,0.0,-9.188753056442246e-14,0.01172392202730433,1.4989010013769404
4.0564820766448975,-0.0021493858841033727,[0.],5.0,0.6,0.0,-8.453652811926877e-14,0.010756699346584736,1.4990764547948734
4.0644190311431885,-0.0021493858841033727,[0.],5.0,0.6,0.0,-7.777360586972727e-14,0.010747027119777541,1.4990764547948734
4.072416305541992,-0.002344784600840043,[0.],5.0,0.6,0.0,-7.155171740014902e-14,0.011714154045355989,1.4989010013769404
4.080516338348389,-0.0021493858841033727,[0.],5.0,0.6,0.0,-6.582758000813701e-14,0.010756601666765253,1.4990764547948734
4.0884716510772705,-0.002344784600840043,[0.],5.0,0.6,0.0,-6.056137360748605e-14,0.011714249790825866,1.4989010013769404
4.096473932266235,-0.002344784600840043,[0.],5.0,0.6,0.0,-5.571646371888728e-14,0.011723826272066471,1.4989010013769404
4.104480266571045,-0.002344784600840043,[0.],5.0,0.6,0.0,-5.125914662137632e-14,0.011723922036878878,1.4989010013769404
4.112475395202637,-0.0021493858841033727,[0.],5.0,0.6,0.0,-4.71584148916661e-14,0.010756699346680483,1.4990764547948734
4.120467185974121,-0.0021493858841033727,[0.],5.0,0.6,0.0,-4.338574170033284e-14,0.010747027119778499,1.4990764547948734
4.128477334976196,-0.002344784600840043,[0.],5.0,0.6,0.0,-3.9914882364306236e-14,0.011714154045355998,1.4989010013769404
4.136474370956421,-0.002344784600840043,[0.],5.0,0.6,0.0,-3.6721691775161754e-14,0.011723825314611773,1.4989010013769404
4.1444785594940186,-0.0021493858841033727,[0.],5.0,0.6,0.0,-3.378395643314883e-14,0.010756698379457811,1.4990764547948734
4.15241813659668,-0.0021493858841033727,[0.],5.0,0.6,0.0,-3.108123991849689e-14,0.010747027110106272,1.4990764547948734
4.16047739982605,-0.0021493858841033727,[0.],5.0,0.6,0.0,-2.859474072501712e-14,0.010746930397412756,1.4990764547948734
4.168489694595337,-0.0021493858841033727,[0.],5.0,0.6,0.0,-2.6307161467015776e-14,0.010746929430285821,1.4990764547948734
4.176491737365723,-0.002344784600840043,[0.],5.0,0.6,0.0,-2.420258854965452e-14,0.011714153068461072,1.4989010013769404
4.184498071670532,-0.0021493858841033727,[0.],5.0,0.6,0.0,-2.2266381465682122e-14,0.010756601656996304,1.4990764547948734
4.192464828491211,-0.002344784600840043,[0.],5.0,0.6,0.0,-2.0485070948427537e-14,0.011714249790728175,1.4989010013769404
4.200499773025513,-0.002344784600840043,[0.],5.0,0.6,0.0,-1.884626527255335e-14,0.011723826272065495,1.4989010013769404
4.208474159240723,-0.002344784600840043,[0.],5.0,0.6,0.0,-1.7338564050749077e-14,0.011723922036878867,1.4989010013769404
4.216428279876709,-0.002344784600840043,[0.],5.0,0.6,0.0,-1.5951478926689152e-14,0.011723922994527002,1.4989010013769404
4.224416017532349,-0.002344784600840043,[0.],5.0,0.6,0.0,-1.4675360612554027e-14,0.011723923004103482,1.4989010013769404
4.232501029968262,-0.0021493858841033727,[0.],5.0,0.6,0.0,-1.3501331763549722e-14,0.010756699356352728,1.4990764547948734
4.240488767623901,-0.0021493858841033727,[0.],5.0,0.6,0.0,-1.2421225222465732e-14,0.01074702711987522,1.4990764547948734
4.248419761657715,-0.002344784600840043,[0.],5.0,0.6,0.0,-1.1427527204668468e-14,0.011714154045356966,1.4989010013769404
4.2563910484313965,-0.0021493858841033727,[0.],5.0,0.6,0.0,-1.0513325028294983e-14,0.010756601666765264,1.4990764547948734
4.2645134925842285,-0.0021493858841033727,[0.],5.0,0.6,0.0,-9.672259026031389e-15,0.010747026142979347,1.4990764547948734
4.272502899169922,-0.0021493858841033727,[0.],5.0,0.6,0.0,-8.89847830394889e-15,0.010746930387741487,1.4990764547948734
4.280502080917358,-0.0021493858841033727,[0.],5.0,0.6,0.0,-8.186600039632969e-15,0.010746929430189109,1.4990764547948734
4.28849983215332,-0.0021493858841033727,[0.],5.0,0.6,0.0,-7.531672036462346e-15,0.010746929420613584,1.4990764547948734
4.296416997909546,-0.0021493858841033727,[0.],5.0,0.6,0.0,-6.929138273545358e-15,0.01074692942051783,1.4990764547948734
4.304463148117065,-0.0021493858841033727,[0.],5.0,0.6,0.0,-6.374807211661738e-15,0.010746929420516872,1.4990764547948734
4.31245493888855,-0.0021493858841033727,[0.],5.0,0.6,0.0,-5.864822634728784e-15,0.010746929420516863,1.4990764547948734
4.320519208908081,-0.0021493858841033727,[0.],5.0,0.6,0.0,-5.395636823950484e-15,0.010746929420516861,1.4990764547948734
4.328430891036987,-0.002344784600840043,[0.],5.0,0.6,0.0,-4.963985878034448e-15,0.01171415306836338,1.4989010013769404
4.336512327194214,-0.0021493858841033727,[0.],5.0,0.6,0.0,-4.566867007791687e-15,0.010756601656995327,1.4990764547948734
4.344491243362427,-0.0021493858841033727,[0.],5.0,0.6,0.0,-4.201517647168356e-15,0.010747026142881647,1.4990764547948734
4.3524181842803955,-0.0021493858841033727,[0.],5.0,0.6,0.0,-3.865396235394887e-15,0.01074693038774051,1.4990764547948734
4.360415458679199,-0.0021493858841033727,[0.],5.0,0.6,0.0,-3.556164536563301e-15,0.010746929430189098,1.4990764547948734
4.368412971496582,-0.0021493858841033727,[0.],5.0,0.6,0.0,-3.2716713736382402e-15,0.010746929420613584,1.4990764547948734
4.3764119148254395,-0.0021493858841033727,[0.],5.0,0.6,0.0,-3.009937663747181e-15,0.01074692942051783,1.4990764547948734
4.384586334228516,-0.0021493858841033727,[0.],5.0,0.6,0.0,-2.769142650647404e-15,0.010746929420516872,1.4990764547948734
4.392587661743164,-0.0021493858841033727,[0.],5.0,0.6,0.0,-2.5476112385956077e-15,0.010746929420516863,1.4990764547948734
4.400501489639282,-0.0021493858841033727,[0.],5.0,0.6,0.0,-2.3438023395079594e-15,0.010746929420516861,1.4990764547948734
4.408592939376831,-0.0021493858841033727,[0.],5.0,0.6,0.0,-2.1562981523473253e-15,0.010746929420516861,1.4990764547948734
4.416574239730835,-0.0021493858841033727,[0.],5.0,0.6,0.0,-1.9837943001595387e-15,0.010746929420516861,1.4990764547948734
4.424595832824707,-0.0021493858841033727,[0.],5.0,0.6,0.0,-1.8250907561467747e-15,0.010746929420516861,1.4990764547948734
4.432526588439941,-0.0021493858841033727,[0.],5.0,0.6,0.0,-1.679083495655032e-15,0.010746929420516861,1.4990764547948734
4.440584421157837,-0.0021493858841033727,[0.],5.0,0.6,0.0,-1.5447568160026289e-15,0.010746929420516861,1.4990764547948734
4.44850754737854,-0.0021493858841033727,[0.],5.0,0.6,0.0,-1.4211762707224197e-15,0.010746929420516861,1.4990764547948734
4.456493139266968,-0.0021493858841033727,[0.],5.0,0.6,0.0,-1.3074821690646284e-15,0.010746929420516861,1.4990764547948734
4.464415073394775,-0.0021493858841033727,[0.],5.0,0.6,0.0,-1.2028835955394575e-15,0.010746929420516861,1.4990764547948734
4.472422361373901,-0.0021493858841033727,[0.],5.0,0.6,0.0,-1.1066529078963005e-15,0.010746929420516861,1.4990764547948734
4.480394124984741,-0.002344784600840043,[0.],5.0,0.6,0.0,-1.0181206752645965e-15,0.01171415306836338,1.4989010013769404
4.4883949756622314,-0.0021493858841033727,[0.],5.0,0.6,0.0,-9.366710212434295e-16,0.010756601656995327,1.4990764547948734
4.496564149856567,-0.0021493858841033727,[0.],5.0,0.6,0.0,-8.617373395439549e-16,0.010747026142881647,1.4990764547948734
4.504454612731934,-0.0021493858841033727,[0.],5.0,0.6,0.0,-7.92798352380439e-16,0.01074693038774051,1.4990764547948734
4.51245641708374,-0.0021493858841033727,[0.],5.0,0.6,0.0,-7.293744841900033e-16,0.010746929430189098,1.4990764547948734
4.520457029342651,-0.0021493858841033727,[0.],5.0,0.6,0.0,-6.710245254548031e-16,0.010746929420613584,1.4990764547948734
4.52839207649231,-0.0021493858841033727,[0.],5.0,0.6,0.0,-6.173425634184187e-16,0.01074692942051783,1.4990764547948734
4.536393880844116,-0.0021493858841033727,[0.],5.0,0.6,0.0,-5.67955158344946e-16,0.010746929420516872,1.4990764547948734
4.54438042640686,-0.0021493858841033727,[0.],5.0,0.6,0.0,-5.225187456773502e-16,0.010746929420516863,1.4990764547948734
4.552441596984863,-0.0021493858841033727,[0.],5.0,0.6,0.0,-4.807172460231619e-16,0.010746929420516861,1.4990764547948734
4.560477018356323,-0.0021493858841033727,[0.],5.0,0.6,0.0,-4.422598663413086e-16,0.010746929420516861,1.4990764547948734
4.568392753601074,-0.0021493858841033727,[0.],5.0,0.6,0.0,-4.0687907703400437e-16,0.010746929420516861,1.4990764547948734
4.57634973526001,-0.0021493858841033727,[0.],5.0,0.6,0.0,-3.7432875087128404e-16,0.010746929420516861,1.4990764547948734
4.584452867507935,-0.0021493858841033727,[0.],5.0,0.6,0.0,-3.4438245080158113e-16,0.010746929420516861,1.4990764547948734
4.59240984916687,-0.0021493858841033727,[0.],5.0,0.6,0.0,-3.168318547374542e-16,0.010746929420516861,1.4990764547948734
4.6004087924957275,-0.0021493858841033727,[0.],5.0,0.6,0.0,-2.9148530635845796e-16,0.010746929420516861,1.4990764547948734
4.608417272567749,-0.0021493858841033727,[0.],5.0,0.6,0.0,-2.6816648184978137e-16,0.010746929420516861,1.4990764547948734
4.616410732269287,-0.0021493858841033727,[0.],5.0,0.6,0.0,-2.4671316330179915e-16,0.010746929420516861,1.4990764547948734
4.624469757080078,-0.0021493858841033727,[0.],5.0,0.6,0.0,-2.2697611023765525e-16,0.010746929420516861,1.4990764547948734
4.632382392883301,-0.0021493858841033727,[0.],5.0,0.6,0.0,-2.0881802141864256e-16,0.010746929420516861,1.4990764547948734
4.640391826629639,-0.0021493858841033727,[0.],5.0,0.6,0.0,-1.9211257970515131e-16,0.010746929420516861,1.4990764547948734
4.648458242416382,-0.0021493858841033727,[0.],5.0,0.6,0.0,-1.7674357332873914e-16,0.010746929420516861,1.4990764547948734
4.656412601470947,-0.0021493858841033727,[0.],5.0,0.6,0.0,-1.6260408746244004e-16,0.010746929420516861,1.4990764547948734
4.664478778839111,-0.0021493858841033727,[0.],5.0,0.6,0.0,-1.4959576046544487e-16,0.010746929420516861,1.4990764547948734
4.672366380691528,-0.0021493858841033727,[0.],5.0,0.6,0.0,-1.3762809962820936e-16,0.010746929420516861,1.4990764547948734
4.680489778518677,-0.0021493858841033727,[0.],5.0,0.6,0.0,-1.2661785165795258e-16,0.010746929420516861,1.4990764547948734
4.688445568084717,-0.0021493858841033727,[0.],5.0,0.6,0.0,-1.1648842352531632e-16,0.010746929420516861,1.4990764547948734
4.696462392807007,-0.0021493858841033727,[0.],5.0,0.6,0.0,-1.0716934964329116e-16,0.010746929420516861,1.4990764547948734
4.704519748687744,-0.0021493858841033727,[0.],5.0,0.6,0.0,-9.859580167182777e-17,0.010746929420516861,1.4990764547948734
4.712451457977295,-0.0021493858841033727,[0.],5.0,0.6,0.0,-9.070813753808171e-17,0.010746929420516861,1.4990764547948734
4.72046422958374,-0.0021493858841033727,[0.],5.0,0.6,0.0,-8.345148653503509e-17,0.010746929420516861,1.4990764547948734
4.728468179702759,-0.0021493858841033727,[0.],5.0,0.6,0.0,-7.677536761223217e-17,0.010746929420516861,1.4990764547948734
4.736399412155151,-0.0021493858841033727,[0.],5.0,0.6,0.0,-7.063333820325366e-17,0.010746929420516861,1.4990764547948734
4.744375944137573,-0.0021493858841033727,[0.],5.0,0.6,0.0,-6.49826711469934e-17,0.010746929420516861,1.4990764547948734
4.752403497695923,-0.0021493858841033727,[0.],5.0,0.6,0.0,-5.978405745523397e-17,0.010746929420516861,1.4990764547948734
4.760505199432373,-0.0021493858841033727,[0.],5.0,0.6,0.0,-5.500133285881519e-17,0.010746929420516861,1.4990764547948734
4.769558668136597,-0.0021493858841033727,[0.],5.0,0.6,0.0,-5.060122623010992e-17,0.010746929420516861,1.4990764547948734
4.777484893798828,-0.0021493858841033727,[0.],5.0,0.6,0.0,-4.6553128131701217e-17,0.010746929420516861,1.4990764547948734
4.78540301322937,-0.0021493858841033727,[0.],5.0,0.6,0.0,-4.2828877881165106e-17,0.010746929420516861,1.4990764547948734
4.793386459350586,-0.0021493858841033727,[0.],5.0,0.6,0.0,-3.940256765067193e-17,0.010746929420516861,1.4990764547948734
4.801537275314331,-0.0021493858841033727,[0.],5.0,0.6,0.0,-3.6250362238618143e-17,0.010746929420516861,1.4990764547948734
4.809443235397339,-0.0021493858841033727,[0.],5.0,0.6,0.0,-3.3350333259528743e-17,0.010746929420516861,1.4990764547948734
4.817542791366577,-0.0021493858841033727,[0.],5.0,0.6,0.0,-3.068230659876643e-17,0.010746929420516861,1.4990764547948734
4.8254125118255615,-0.0021493858841033727,[0.],5.0,0.6,0.0,-2.822772207086512e-17,0.010746929420516861,1.4990764547948734
4.833398103713989,-0.0021493858841033727,[0.],5.0,0.6,0.0,-2.5969504305195908e-17,0.010746929420516861,1.4990764547948734
4.842465162277222,-0.0021493858841033727,[0.],5.0,0.6,0.0,-2.389194396078024e-17,0.010746929420516861,1.4990764547948734
4.85054349899292,-0.0021493858841033727,[0.],5.0,0.6,0.0,-2.1980588443917772e-17,0.010746929420516861,1.4990764547948734
4.858548641204834,-0.0021493858841033727,[0.],5.0,0.6,0.0,-2.022214136840435e-17,0.010746929420516861,1.4990764547948734
4.86639404296875,-0.0021493858841033727,[0.],5.0,0.6,0.0,-1.8604370058932022e-17,0.010746929420516861,1.4990764547948734
4.874544382095337,-0.0021493858841033727,[0.],5.0,0.6,0.0,-1.711602045421744e-17,0.010746929420516861,1.4990764547948734
4.882420778274536,-0.0021493858841033727,[0.],5.0,0.6,0.0,-1.5746738817880065e-17,0.010746929420516861,1.4990764547948734
4.890457630157471,-0.0021493858841033727,[0.],5.0,0.6,0.0,-1.4486999712449655e-17,0.010746929420516861,1.4990764547948734
4.898493766784668,-0.0021493858841033727,[0.],5.0,0.6,0.0,-1.33280397354537e-17,0.010746929420516861,1.4990764547948734
4.906394720077515,-0.0021493858841033727,[0.],5.0,0.6,0.0,-1.2261796556617382e-17,0.010746929420516861,1.4990764547948734
4.91447114944458,-0.0021493858841033727,[0.],5.0,0.6,0.0,-1.1280852832088013e-17,0.010746929420516861,1.4990764547948734
4.922385931015015,-0.0021493858841033727,[0.],5.0,0.6,0.0,-1.0378384605520952e-17,0.010746929420516861,1.4990764547948734
4.930431365966797,-0.0021493858841033727,[0.],5.0,0.6,0.0,-9.548113837079283e-18,0.010746929420516861,1.4990764547948734
4.938365936279297,-0.0021493858841033727,[0.],5.0,0.6,0.0,-8.784264730112948e-18,0.010746929420516861,1.4990764547948734
4.946363925933838,-0.0021493858841033727,[0.],5.0,0.6,0.0,-8.081523551703908e-18,0.010746929420516861,1.4990764547948734
4.954477787017822,-0.0021493858841033727,[0.],5.0,0.6,0.0,-7.435001667567602e-18,0.010746929420516861,1.4990764547948734
4.962436199188232,-0.0021493858841033727,[0.],5.0,0.6,0.0,-6.840201534162196e-18,0.010746929420516861,1.4990764547948734
4.9703452587127686,-0.0021493858841033727,[0.],5.0,0.6,0.0,-6.292985411429225e-18,0.010746929420516861,1.4990764547948734
4.9783713817596436,-0.0021493858841033727,[0.],5.0,0.6,0.0,-5.789546578514882e-18,0.010746929420516861,1.4990764547948734
4.986362457275391,-0.0021493858841033727,[0.],5.0,0.6,0.0,-5.32638285223369e-18,0.010746929420516861,1.4990764547948734
4.9943671226501465,-0.0021493858841033727,[0.],5.0,0.6,0.0,-4.900272224054992e-18,0.010746929420516861,1.4990764547948734
5.00244927406311,-0.0021493858841033727,[0.],5.0,0.6,0.0,-4.508250446130596e-18,0.010746929420516861,1.4990764547948734
5.01033878326416,-0.0021493858841033727,[0.],5.0,0.6,0.0,-4.147590410440154e-18,0.010746929420516861,1.4990764547948734
5.018437385559082,-0.0021493858841033727,[0.],5.0,0.6,0.0,-3.815783177604942e-18,0.010746929420516861,1.4990764547948734
5.026326656341553,-0.0021493858841033727,[0.],5.0,0.6,0.0,-3.510520523396547e-18,0.010746929420516861,1.4990764547948734
5.034360885620117,-0.0021493858841033727,[0.],5.0,0.6,0.0,-3.229678881524818e-18,0.010746929420516861,1.4990764547948734
5.042354583740234,-0.0021493858841033727,[0.],5.0,0.6,0.0,-2.9713045710028323e-18,0.010746929420516861,1.4990764547948734
5.050326585769653,-0.0021493858841033727,[0.],5.0,0.6,0.0,-2.7336002053226062e-18,0.010746929420516861,1.4990764547948734
5.058346748352051,-0.0021493858841033727,[0.],5.0,0.6,0.0,-2.5149121888967974e-18,0.010746929420516861,1.4990764547948734
5.066346645355225,-0.0021493858841033727,[0.],5.0,0.6,0.0,-2.3137192137850515e-18,0.010746929420516861,1.4990764547948734
5.074415445327759,-0.0021493858841033727,[0.],5.0,0.6,0.0,-2.1286216766822476e-18,0.010746929420516861,1.4990764547948734
5.082365036010742,-0.0021493858841033727,[0.],5.0,0.6,0.0,-1.9583319425476674e-18,0.010746929420516861,1.4990764547948734
5.090357065200806,-0.0021493858841033727,[0.],5.0,0.6,0.0,-1.8016653871438576e-18,0.010746929420516861,1.4990764547948734
5.098366737365723,-0.0021493858841033727,[0.],5.0,0.6,0.0,-1.6575321561723507e-18,0.010746929420516861,1.4990764547948734
5.106388092041016,-0.0021493858841033727,[0.],5.0,0.6,0.0,-1.5249295836785599e-18,0.010746929420516861,1.4990764547948734
5.114377021789551,-0.0021493858841033727,[0.],5.0,0.6,0.0,-1.4029352169842766e-18,0.010746929420516861,1.4990764547948734
5.122360944747925,-0.0021493858841033727,[0.],5.0,0.6,0.0,-1.290700399625535e-18,0.010746929420516861,1.4990764547948734
5.1303863525390625,-0.0021493858841033727,[0.],5.0,0.6,0.0,-1.1874443676554935e-18,0.010746929420516861,1.4990764547948734
5.1383888721466064,-0.0021493858841033727,[0.],5.0,0.6,0.0,-1.0924488182430532e-18,0.010746929420516861,1.4990764547948734
5.14637303352356,-0.0021493858841033727,[0.],5.0,0.6,0.0,-1.0050529127836096e-18,0.010746929420516861,1.4990764547948734
5.15435791015625,-0.0021493858841033727,[0.],5.0,0.6,0.0,-9.246486797609206e-19,0.010746929420516861,1.4990764547948734
5.162368297576904,-0.0021493858841033727,[0.],5.0,0.6,0.0,-8.506767853800465e-19,0.010746929420516861,1.4990764547948734
5.170342206954956,-0.0021493858841033727,[0.],5.0,0.6,0.0,-7.826226425496415e-19,0.010746929420516861,1.4990764547948734
5.178344488143921,-0.0021493858841033727,[0.],5.0,0.6,0.0,-7.200128311456712e-19,0.010746929420516861,1.4990764547948734
5.186376094818115,-0.0021493858841033727,[0.],5.0,0.6,0.0,-6.624118046540173e-19,0.010746929420516861,1.4990764547948734
5.194454908370972,-0.0021493858841033727,[0.],5.0,0.6,0.0,-6.094188602816956e-19,0.010746929420516861,1.4990764547948734
5.202434778213501,-0.0021493858841033727,[0.],5.0,0.6,0.0,-5.606653514591599e-19,0.010746929420516861,1.4990764547948734
5.210438251495361,-0.0021493858841033727,[0.],5.0,0.6,0.0,-5.15812123342428e-19,0.010746929420516861,1.4990764547948734
5.218364477157593,-0.0021493858841033727,[0.],5.0,0.6,0.0,-4.74547153475034e-19,0.010746929420516861,1.4990764547948734
5.2264626026153564,-0.0021493858841033727,[0.],5.0,0.6,0.0,-4.36583381197031e-19,0.010746929420516861,1.4990764547948734
5.234433650970459,-0.0021493858841033727,[0.],5.0,0.6,0.0,-4.016567107012688e-19,0.010746929420516861,1.4990764547948734
5.2423765659332275,-0.0021493858841033727,[0.],5.0,0.6,0.0,-3.695241738451668e-19,0.010746929420516861,1.4990764547948734
5.250340938568115,-0.0021493858841033727,[0.],5.0,0.6,0.0,-3.3996223993755334e-19,0.010746929420516861,1.4990764547948734
5.258362770080566,-0.002344784600840043,[0.],5.0,0.6,0.0,-3.1276526074254877e-19,0.01171415306836338,1.4989010013769404
5.266448736190796,-0.0021493858841033727,[0.],5.0,0.6,0.0,-2.877440398831452e-19,0.010756601656995327,1.4990764547948734
5.274341344833374,-0.0021493858841033727,[0.],5.0,0.6,0.0,-2.647245166924935e-19,0.010747026142881647,1.4990764547948734
5.282432556152344,-0.0021493858841033727,[0.],5.0,0.6,0.0,-2.4354655535709406e-19,0.01074693038774051,1.4990764547948734
5.290451526641846,-0.0021493858841033727,[0.],5.0,0.6,0.0,-2.2406283092852677e-19,0.010746929430189098,1.4990764547948734
5.298353910446167,-0.0021493858841033727,[0.],5.0,0.6,0.0,-2.0613780445424473e-19,0.010746929420613584,1.4990764547948734
5.306441307067871,-0.0021493858841033727,[0.],5.0,0.6,0.0,-1.8964678009790483e-19,0.01074692942051783,1.4990764547948734
5.3144495487213135,-0.0021493858841033727,[0.],5.0,0.6,0.0,-1.7447503769007236e-19,0.010746929420516872,1.4990764547948734
5.322436332702637,-0.0021493858841033727,[0.],5.0,0.6,0.0,-1.6051703467486668e-19,0.010746929420516863,1.4990764547948734
5.330364465713501,-0.0021493858841033727,[0.],5.0,0.6,0.0,-1.4767567190087737e-19,0.010746929420516861,1.4990764547948734
5.338441848754883,-0.0021493858841033727,[0.],5.0,0.6,0.0,-1.3586161814880711e-19,0.010746929420516861,1.4990764547948734
5.346357345581055,-0.0021493858841033727,[0.],5.0,0.6,0.0,-1.2499268869690279e-19,0.010746929420516861,1.4990764547948734
5.354351282119751,-0.0021493858841033727,[0.],5.0,0.6,0.0,-1.1499327360115061e-19,0.010746929420516861,1.4990764547948734
5.362323999404907,-0.0021493858841033727,[0.],5.0,0.6,0.0,-1.0579381171305853e-19,0.010746929420516861,1.4990764547948734
5.3703343868255615,-0.0021493858841033727,[0.],5.0,0.6,0.0,-9.73303067760139e-20,0.010746929420516861,1.4990764547948734
5.378421306610107,-0.0021493858841033727,[0.],5.0,0.6,0.0,-8.954388223393261e-20,0.010746929420516861,1.4990764547948734
5.386342525482178,-0.0021493858841033727,[0.],5.0,0.6,0.0,-8.238037165521798e-20,0.010746929420516861,1.4990764547948734
5.394315481185913,-0.0021493858841033727,[0.],5.0,0.6,0.0,-7.578994192280055e-20,0.010746929420516861,1.4990764547948734
5.402407646179199,-0.0021493858841033727,[0.],5.0,0.6,0.0,-6.972674656897656e-20,0.010746929420516861,1.4990764547948734
5.41042160987854,-0.0021493858841033727,[0.],5.0,0.6,0.0,-6.414860684345846e-20,0.010746929420516861,1.4990764547948734
5.4183189868927,-0.002344784600840043,[0.],5.0,0.6,0.0,-5.901671829598187e-20,0.01171415306836338,1.4989010013769404
5.426406145095825,-0.0021493858841033727,[0.],5.0,0.6,0.0,-5.429538083230325e-20,0.010756601656995327,1.4990764547948734
5.434329986572266,-0.0021493858841033727,[0.],5.0,0.6,0.0,-4.995175036571895e-20,0.010747026142881647,1.4990764547948734
5.442315101623535,-0.0021493858841033727,[0.],5.0,0.6,0.0,-4.5955610336461413e-20,0.01074693038774051,1.4990764547948734
5.450344562530518,-0.0021493858841033727,[0.],5.0,0.6,0.0,-4.227916150954457e-20,0.010746929430189098,1.4990764547948734
5.458315849304199,-0.0021493858841033727,[0.],5.0,0.6,0.0,-3.8896828588781046e-20,0.010746929420613584,1.4990764547948734
5.46641206741333,-0.002344784600840043,[0.],5.0,0.6,0.0,-3.578508230167857e-20,0.011714153068364349,1.4989010013769404
5.474417209625244,-0.0021493858841033727,[0.],5.0,0.6,0.0,-3.292227571754424e-20,0.010756601656995338,1.4990764547948734
5.482334136962891,-0.0021493858841033727,[0.],5.0,0.6,0.0,-3.028849366014073e-20,0.010747026142881647,1.4990764547948734
5.490398645401001,-0.0021493858841033727,[0.],5.0,0.6,0.0,-2.7865414167329446e-20,0.01074693038774051,1.4990764547948734
5.498392105102539,-0.0021493858841033727,[0.],5.0,0.6,0.0,-2.56361810339431e-20,0.010746929430189098,1.4990764547948734
5.506401777267456,-0.0021493858841033727,[0.],5.0,0.6,0.0,-2.3585286551227665e-20,0.010746929420613584,1.4990764547948734
5.514420509338379,-0.0021493858841033727,[0.],5.0,0.6,0.0,-2.1698463627129424e-20,0.01074692942051783,1.4990764547948734
5.522338628768921,-0.002344784600840043,[0.],5.0,0.6,0.0,-1.9962586536959066e-20,0.011714153068363391,1.4989010013769404
5.530404090881348,-0.0021493858841033727,[0.],5.0,0.6,0.0,-1.8365579614002347e-20,0.010756601656995327,1.4990764547948734
5.538340330123901,-0.002344784600840043,[0.],5.0,0.6,0.0,-1.6896333244882174e-20,0.011714249790728166,1.4989010013769404
5.5463385581970215,-0.0021493858841033727,[0.],5.0,0.6,0.0,-1.554462658529161e-20,0.010756602624218976,1.4990764547948734
5.554413318634033,-0.0021493858841033727,[0.],5.0,0.6,0.0,-1.4301056458468263e-20,0.010747026152553883,1.4990764547948734
5.56231427192688,-0.002344784600840043,[0.],5.0,0.6,0.0,-1.3156971941790802e-20,0.011714154035683752,1.4989010013769404
5.570319414138794,-0.0021493858841033727,[0.],5.0,0.6,0.0,-1.2104414186447521e-20,0.01075660166666853,1.4990764547948734
5.578321933746338,-0.002344784600840043,[0.],5.0,0.6,0.0,-1.1136061051531721e-20,0.011714249790824898,1.4989010013769404
5.586326837539673,-0.0021493858841033727,[0.],5.0,0.6,0.0,-1.0245176167409196e-20,0.010756602624219942,1.4990764547948734
5.5943686962127686,-0.0021493858841033727,[0.],5.0,0.6,0.0,-9.425562074016463e-21,0.010747026152553893,1.4990764547948734
5.602362155914307,-0.0021493858841033727,[0.],5.0,0.6,0.0,-8.671517108095137e-21,0.010746930387837233,1.4990764547948734
5.610337018966675,-0.0021493858841033727,[0.],5.0,0.6,0.0,-7.977795739447529e-21,0.010746929430190066,1.4990764547948734
5.618352651596069,-0.002344784600840043,[0.],5.0,0.6,0.0,-7.339572080291735e-21,0.011714153068460114,1.4989010013769404
5.626332521438599,-0.0021493858841033727,[0.],5.0,0.6,0.0,-6.752406313868399e-21,0.010756601656996295,1.4990764547948734
5.634319543838501,-0.002344784600840043,[0.],5.0,0.6,0.0,-6.2122138087589276e-21,0.011714249790728175,1.4989010013769404
5.642422914505005,-0.0021493858841033727,[0.],5.0,0.6,0.0,-5.7152367040582214e-21,0.010756602624218976,1.4990764547948734
5.650316476821899,-0.0021493858841033727,[0.],5.0,0.6,0.0,-5.258017767733554e-21,0.010747026152553883,1.4990764547948734
5.658352851867676,-0.0021493858841033727,[0.],5.0,0.6,0.0,-4.837376346314866e-21,0.010746930387837233,1.4990764547948734
5.666317462921143,-0.0021493858841033727,[0.],5.0,0.6,0.0,-4.450386238609675e-21,0.010746929430190066,1.4990764547948734
5.674440145492554,-0.0021493858841033727,[0.],5.0,0.6,0.0,-4.0943553395209055e-21,0.010746929420613595,1.4990764547948734
5.682427883148193,-0.0021493858841033727,[0.],5.0,0.6,0.0,-3.76680691235924e-21,0.01074692942051783,1.4990764547948734
5.6904401779174805,-0.002344784600840043,[0.],5.0,0.6,0.0,-3.465462359370496e-21,0.011714153068363391,1.4989010013769404
5.698409795761108,-0.0021493858841033727,[0.],5.0,0.6,0.0,-3.1882253706208552e-21,0.010756601656995327,1.4990764547948734
5.70642352104187,-0.0021493858841033727,[0.],5.0,0.6,0.0,-2.933167340971185e-21,0.010747026142881647,1.4990764547948734
5.714448928833008,-0.0021493858841033727,[0.],5.0,0.6,0.0,-2.698513953693493e-21,0.01074693038774051,1.4990764547948734
5.722419500350952,-0.0021493858841033727,[0.],5.0,0.6,0.0,-2.4826328373980162e-21,0.010746929430189098,1.4990764547948734
5.730413436889648,-0.0021493858841033727,[0.],5.0,0.6,0.0,-2.284022210406172e-21,0.010746929420613584,1.4990764547948734
5.738419055938721,-0.0021493858841033727,[0.],5.0,0.6,0.0,-2.101300433573678e-21,0.01074692942051783,1.4990764547948734
5.746330499649048,-0.0021493858841033727,[0.],5.0,0.6,0.0,-1.933196398887784e-21,0.010746929420516872,1.4990764547948734
5.7543416023254395,-0.0021493858841033727,[0.],5.0,0.6,0.0,-1.778540686976761e-21,0.010746929420516863,1.4990764547948734
5.762336492538452,-0.0021493858841033727,[0.],5.0,0.6,0.0,-1.6362574320186208e-21,0.010746929420516861,1.4990764547948734
5.770327091217041,-0.002344784600840043,[0.],5.0,0.6,0.0,-1.5053568374571317e-21,0.01171415306836338,1.4989010013769404
5.7783403396606445,-0.0021493858841033727,[0.],5.0,0.6,0.0,-1.3849282904605602e-21,0.010756601656995327,1.4990764547948734
5.786423921585083,-0.0021493858841033727,[0.],5.0,0.6,0.0,-1.2741340272237132e-21,0.010747026142881647,1.4990764547948734
5.794404745101929,-0.0021493858841033727,[0.],5.0,0.6,0.0,-1.1722033050458184e-21,0.01074693038774051,1.4990764547948734
5.80241584777832,-0.0021493858841033727,[0.],5.0,0.6,0.0,-1.0784270406421518e-21,0.010746929430189098,1.4990764547948734
5.810435771942139,-0.0021493858841033727,[0.],5.0,0.6,0.0,-9.921528773907801e-22,0.010746929420613584,1.4990764547948734
5.8183393478393555,-0.0021493858841033727,[0.],5.0,0.6,0.0,-9.12780647199516e-22,0.01074692942051783,1.4990764547948734
5.8264384269714355,-0.0021493858841033727,[0.],5.0,0.6,0.0,-8.397581954235556e-22,0.010746929420516872,1.4990764547948734
5.834475040435791,-0.0021493858841033727,[0.],5.0,0.6,0.0,-7.725775397896716e-22,0.010746929420516863,1.4990764547948734
5.842317342758179,-0.0021493858841033727,[0.],5.0,0.6,0.0,-7.107713366064976e-22,0.010746929420516861,1.4990764547948734
5.8504040241241455,-0.0021493858841033727,[0.],5.0,0.6,0.0,-6.5390962967797895e-22,0.010746929420516861,1.4990764547948734
5.858406066894531,-0.0021493858841033727,[0.],5.0,0.6,0.0,-6.015968593037408e-22,0.010746929420516861,1.4990764547948734
5.866400241851807,-0.0021493858841033727,[0.],5.0,0.6,0.0,-5.534691105594413e-22,0.010746929420516861,1.4990764547948734
5.874289035797119,-0.0021493858841033727,[0.],5.0,0.6,0.0,-5.091915817146861e-22,0.010746929420516861,1.4990764547948734
5.882337331771851,-0.0021493858841033727,[0.],5.0,0.6,0.0,-4.684562551775113e-22,0.010746929420516861,1.4990764547948734
5.890295505523682,-0.002344784600840043,[0.],5.0,0.6,0.0,-4.309797547633107e-22,0.01171415306836338,1.4989010013769404
5.898409605026245,-0.0021493858841033727,[0.],5.0,0.6,0.0,-3.9650137438224586e-22,0.010756601656995327,1.4990764547948734
5.906397342681885,-0.0021493858841033727,[0.],5.0,0.6,0.0,-3.6478126443166614e-22,0.010747026142881647,1.4990764547948734
5.914407253265381,-0.0021493858841033727,[0.],5.0,0.6,0.0,-3.355987632771324e-22,0.01074693038774051,1.4990764547948734
5.922500848770142,-0.0021493858841033727,[0.],5.0,0.6,0.0,-3.0875086221496217e-22,0.010746929430189098,1.4990764547948734
5.930425405502319,-0.0021493858841033727,[0.],5.0,0.6,0.0,-2.8405079323776517e-22,0.010746929420613584,1.4990764547948734
5.938393831253052,-0.0021493858841033727,[0.],5.0,0.6,0.0,-2.6132672977874377e-22,0.01074692942051783,1.4990764547948734
5.946316719055176,-0.0021493858841033727,[0.],5.0,0.6,0.0,-2.404205913964445e-22,0.010746929420516872,1.4990764547948734
5.9543092250823975,-0.0021493858841033727,[0.],5.0,0.6,0.0,-2.2118694408472875e-22,0.010746929420516863,1.4990764547948734
5.962303876876831,-0.0021493858841033727,[0.],5.0,0.6,0.0,-2.034919885579504e-22,0.010746929420516861,1.4990764547948734
5.970287322998047,-0.002344784600840043,[0.],5.0,0.6,0.0,-1.8721262947331417e-22,0.01171415306836338,1.4989010013769404
5.978307247161865,-0.0021493858841033727,[0.],5.0,0.6,0.0,-1.7223561911544953e-22,0.010756601656995327,1.4990764547948734
5.9863176345825195,-0.0021493858841033727,[0.],5.0,0.6,0.0,-1.5845676958621347e-22,0.010747026142881647,1.4990764547948734
5.994349956512451,-0.0021493858841033727,[0.],5.0,0.6,0.0,-1.4578022801931625e-22,0.01074693038774051,1.4990764547948734
6.002299547195435,-0.0021493858841033727,[0.],5.0,0.6,0.0,-1.3411780977777108e-22,0.010746929430189098,1.4990764547948734
6.010298252105713,-0.0021493858841033727,[0.],5.0,0.6,0.0,-1.2338838499554943e-22,0.010746929420613584,1.4990764547948734
6.018314361572266,-0.0021493858841033727,[0.],5.0,0.6,0.0,-1.135173141959054e-22,0.01074692942051783,1.4990764547948734
6.02630352973938,-0.0021493858841033727,[0.],5.0,0.6,0.0,-1.0443592906023296e-22,0.010746929420516872,1.4990764547948734
6.034276008605957,-0.0021493858841033727,[0.],5.0,0.6,0.0,-9.60810547354143e-23,0.010746929420516863,1.4990764547948734
6.042314767837524,-0.0021493858841033727,[0.],5.0,0.6,0.0,-8.839457035658131e-23,0.010746929420516861,1.4990764547948734
6.050352334976196,-0.0021493858841033727,[0.],5.0,0.6,0.0,-8.132300472805464e-23,0.010746929420516861,1.4990764547948734
6.058327913284302,-0.0021493858841033727,[0.],5.0,0.6,0.0,-7.48171643498103e-23,0.010746929420516861,1.4990764547948734
6.066342115402222,-0.0021493858841033727,[0.],5.0,0.6,0.0,-6.88317912018254e-23,0.010746929420516861,1.4990764547948734
6.074345588684082,-0.0021493858841033727,[0.],5.0,0.6,0.0,-6.33252479056794e-23,0.010746929420516861,1.4990764547948734
6.082381010055542,-0.0021493858841033727,[0.],5.0,0.6,0.0,-5.825922807322508e-23,0.010746929420516861,1.4990764547948734
6.090389728546143,-0.0021493858841033727,[0.],5.0,0.6,0.0,-5.359848982736717e-23,0.010746929420516861,1.4990764547948734
6.098412036895752,-0.0021493858841033727,[0.],5.0,0.6,0.0,-4.931061064117773e-23,0.010746929420516861,1.4990764547948734
6.106332540512085,-0.0021493858841033727,[0.],5.0,0.6,0.0,-4.5365761789883526e-23,0.010746929420516861,1.4990764547948734
6.114298105239868,-0.0021493858841033727,[0.],5.0,0.6,0.0,-4.1736500846692876e-23,0.010746929420516861,1.4990764547948734
6.122326612472534,-0.0021493858841033727,[0.],5.0,0.6,0.0,-3.839758077895746e-23,0.010746929420516861,1.4990764547948734
6.130333423614502,-0.0021493858841033727,[0.],5.0,0.6,0.0,-3.5325774316640827e-23,0.010746929420516861,1.4990764547948734
6.138335704803467,-0.0021493858841033727,[0.],5.0,0.6,0.0,-3.249971237130955e-23,0.010746929420516861,1.4990764547948734
6.146320819854736,-0.0021493858841033727,[0.],5.0,0.6,0.0,-2.9899735381604834e-23,0.010746929420516861,1.4990764547948734
6.1543357372283936,-0.0021493858841033727,[0.],5.0,0.6,0.0,-2.750775655107644e-23,0.010746929420516861,1.4990764547948734
6.162389516830444,-0.0021493858841033727,[0.],5.0,0.6,0.0,-2.53071360269903e-23,0.010746929420516861,1.4990764547948734
6.170303821563721,-0.0021493858841033727,[0.],5.0,0.6,0.0,-2.3282565144831082e-23,0.010746929420516861,1.4990764547948734
6.178315162658691,-0.0021493858841033727,[0.],5.0,0.6,0.0,-2.1419959933244595e-23,0.010746929420516861,1.4990764547948734
6.186377763748169,-0.0021493858841033727,[0.],5.0,0.6,0.0,-1.9706363138585054e-23,0.010746929420516861,1.4990764547948734
6.194286108016968,-0.0021493858841033727,[0.],5.0,0.6,0.0,-1.8129854087498222e-23,0.010746929420516861,1.4990764547948734
6.202388525009155,-0.0021493858841033727,[0.],5.0,0.6,0.0,-1.667946576049837e-23,0.010746929420516861,1.4990764547948734
6.210418462753296,-0.0021493858841033727,[0.],5.0,0.6,0.0,-1.5345108499658502e-23,0.010746929420516861,1.4990764547948734
6.2184038162231445,-0.0021493858841033727,[0.],5.0,0.6,0.0,-1.411749981968581e-23,0.010746929420516861,1.4990764547948734
6.226382493972778,-0.0021493858841033727,[0.],5.0,0.6,0.0,-1.2988099834110943e-23,0.010746929420516861,1.4990764547948734
6.234312295913696,-0.0021493858841033727,[0.],5.0,0.6,0.0,-1.1949051847382084e-23,0.010746929420516861,1.4990764547948734
6.242313861846924,-0.0021493858841033727,[0.],5.0,0.6,0.0,-1.0993127699591522e-23,0.010746929420516861,1.4990764547948734
6.250425100326538,-0.0021493858841033727,[0.],5.0,0.6,0.0,-1.0113677483624204e-23,0.010746929420516861,1.4990764547948734
6.2584168910980225,-0.0021493858841033727,[0.],5.0,0.6,0.0,-9.304583284934272e-24,0.010746929420516861,1.4990764547948734
6.266392469406128,-0.0021493858841033727,[0.],5.0,0.6,0.0,-8.560216622139527e-24,0.010746929420516861,1.4990764547948734
6.274354457855225,-0.0021493858841033727,[0.],5.0,0.6,0.0,-7.875399292368362e-24,0.010746929420516861,1.4990764547948734
6.2824084758758545,-0.0021493858841033727,[0.],5.0,0.6,0.0,-7.245367348978885e-24,0.010746929420516861,1.4990764547948734
6.290294170379639,-0.0021493858841033727,[0.],5.0,0.6,0.0,-6.665737961060565e-24,0.010746929420516861,1.4990764547948734
6.298379182815552,-0.0021493858841033727,[0.],5.0,0.6,0.0,-6.132478924175718e-24,0.010746929420516861,1.4990764547948734
6.306365251541138,-0.0021493858841033727,[0.],5.0,0.6,0.0,-5.641880610241678e-24,0.010746929420516861,1.4990764547948734
6.3143744468688965,-0.0021493858841033727,[0.],5.0,0.6,0.0,-5.190530161422337e-24,0.010746929420516861,1.4990764547948734
6.322321176528931,-0.0021493858841033727,[0.],5.0,0.6,0.0,-4.775287748508556e-24,0.010746929420516861,1.4990764547948734
6.330374240875244,-0.0021493858841033727,[0.],5.0,0.6,0.0,-4.393264728627865e-24,0.010746929420516861,1.4990764547948734
6.338355779647827,-0.0021493858841033727,[0.],5.0,0.6,0.0,-4.04180355033764e-24,0.010746929420516861,1.4990764547948734
6.34628701210022,-0.0021493858841033727,[0.],5.0,0.6,0.0,-3.718459266310631e-24,0.010746929420516861,1.4990764547948734
6.3543078899383545,-0.0021493858841033727,[0.],5.0,0.6,0.0,-3.420982525005777e-24,0.010746929420516861,1.4990764547948734
6.3623058795928955,-0.0021493858841033727,[0.],5.0,0.6,0.0,-3.147303923005311e-24,0.010746929420516861,1.4990764547948734
6.370281219482422,-0.0021493858841033727,[0.],5.0,0.6,0.0,-2.8955196091648865e-24,0.010746929420516861,1.4990764547948734
6.378278732299805,-0.0021493858841033727,[0.],5.0,0.6,0.0,-2.6638780404316966e-24,0.010746929420516861,1.4990764547948734
6.386286497116089,-0.0021493858841033727,[0.],5.0,0.6,0.0,-2.450767797197164e-24,0.010746929420516861,1.4990764547948734
6.3942787647247314,-0.0021493858841033727,[0.],5.0,0.6,0.0,-2.254706373421393e-24,0.010746929420516861,1.4990764547948734
6.402286767959595,-0.0021493858841033727,[0.],5.0,0.6,0.0,-2.074329863547682e-24,0.010746929420516861,1.4990764547948734
6.410284757614136,-0.0021493858841033727,[0.],5.0,0.6,0.0,-1.9083834744638656e-24,0.010746929420516861,1.4990764547948734
6.418292045593262,-0.0021493858841033727,[0.],5.0,0.6,0.0,-1.7557127965067555e-24,0.010746929420516861,1.4990764547948734
6.426349639892578,-0.002344784600840043,[0.],5.0,0.6,0.0,-1.6152557727862152e-24,0.01171415306836338,1.4989010013769404
6.434298038482666,-0.0021493858841033727,[0.],5.0,0.6,0.0,-1.4860353109633197e-24,0.010756601656995327,1.4990764547948734
6.442359685897827,-0.0021493858841033727,[0.],5.0,0.6,0.0,-1.3671524860862547e-24,0.010747026142881647,1.4990764547948734
6.450286388397217,-0.0021493858841033727,[0.],5.0,0.6,0.0,-1.2577802871993538e-24,0.01074693038774051,1.4990764547948734
6.458359003067017,-0.0021493858841033727,[0.],5.0,0.6,0.0,-1.1571578642234044e-24,0.010746929430189098,1.4990764547948734
6.4662885665893555,-0.0021493858841033727,[0.],5.0,0.6,0.0,-1.0645852350855325e-24,0.010746929420613584,1.4990764547948734
6.474337816238403,-0.0021493858841033727,[0.],5.0,0.6,0.0,-9.794184162786903e-25,0.01074692942051783,1.4990764547948734
6.482353925704956,-0.0021493858841033727,[0.],5.0,0.6,0.0,-9.010649429763935e-25,0.010746929420516872,1.4990764547948734
6.490350961685181,-0.0021493858841033727,[0.],5.0,0.6,0.0,-8.289797475382833e-25,0.010746929420516863,1.4990764547948734
6.498373031616211,-0.0021493858841033727,[0.],5.0,0.6,0.0,-7.626613677352193e-25,0.010746929420516861,1.4990764547948734
6.506355047225952,-0.0021493858841033727,[0.],5.0,0.6,0.0,-7.016484583164021e-25,0.010746929420516861,1.4990764547948734
6.514378309249878,-0.0021493858841033727,[0.],5.0,0.6,0.0,-6.455165816510903e-25,0.010746929420516861,1.4990764547948734
6.522348642349243,-0.0021493858841033727,[0.],5.0,0.6,0.0,-5.938752551190026e-25,0.010746929420516861,1.4990764547948734
6.530282020568848,-0.0021493858841033727,[0.],5.0,0.6,0.0,-5.463652347094828e-25,0.010746929420516861,1.4990764547948734
6.538304567337036,-0.0021493858841033727,[0.],5.0,0.6,0.0,-5.026560159327245e-25,0.010746929420516861,1.4990764547948734
6.54626727104187,-0.0021493858841033727,[0.],5.0,0.6,0.0,-4.624435346581072e-25,0.010746929420516861,1.4990764547948734
6.554285049438477,-0.0021493858841033727,[0.],5.0,0.6,0.0,-4.2544805188545825e-25,0.010746929420516861,1.4990764547948734
6.562352895736694,-0.0021493858841033727,[0.],5.0,0.6,0.0,-3.9141220773462224e-25,0.010746929420516861,1.4990764547948734
6.57027006149292,-0.0021493858841033727,[0.],5.0,0.6,0.0,-3.600992311158524e-25,0.010746929420516861,1.4990764547948734
6.578298807144165,-0.0021493858841033727,[0.],5.0,0.6,0.0,-3.312912926265838e-25,0.010746929420516861,1.4990764547948734
6.586280822753906,-0.0021493858841033727,[0.],5.0,0.6,0.0,-3.0478798921645704e-25,0.010746929420516861,1.4990764547948734
6.59425950050354,-0.0021493858841033727,[0.],5.0,0.6,0.0,-2.8040495007914035e-25,0.010746929420516861,1.4990764547948734
6.60227632522583,-0.0021493858841033727,[0.],5.0,0.6,0.0,-2.5797255407280897e-25,0.010746929420516861,1.4990764547948734
6.610307455062866,-0.0021493858841033727,[0.],5.0,0.6,0.0,-2.3733474974698454e-25,0.010746929420516861,1.4990764547948734
6.6182756423950195,-0.0021493858841033727,[0.],5.0,0.6,0.0,-2.1834796976722567e-25,0.010746929420516861,1.4990764547948734
6.626263380050659,-0.0021493858841033727,[0.],5.0,0.6,0.0,-2.0088013218584775e-25,0.010746929420516861,1.4990764547948734
6.634291887283325,-0.0021493858841033727,[0.],5.0,0.6,0.0,-1.8480972161097979e-25,0.010746929420516861,1.4990764547948734
6.64231014251709,-0.0021493858841033727,[0.],5.0,0.6,0.0,-1.7002494388210136e-25,0.010746929420516861,1.4990764547948734
6.650296926498413,-0.0021493858841033727,[0.],5.0,0.6,0.0,-1.5642294837153356e-25,0.010746929420516861,1.4990764547948734
6.658357858657837,-0.0021493858841033727,[0.],5.0,0.6,0.0,-1.4390911250181071e-25,0.010746929420516861,1.4990764547948734
6.666292190551758,-0.0021493858841033727,[0.],5.0,0.6,0.0,-1.3239638350166591e-25,0.010746929420516861,1.4990764547948734
6.6742753982543945,-0.0021493858841033727,[0.],5.0,0.6,0.0,-1.2180467282153288e-25,0.010746929420516861,1.4990764547948734
6.682268857955933,-0.0021493858841033727,[0.],5.0,0.6,0.0,-1.1206029899581006e-25,0.010746929420516861,1.4990764547948734
6.6903581619262695,-0.0021493858841033727,[0.],5.0,0.6,0.0,-1.0309547507614538e-25,0.010746929420516861,1.4990764547948734
6.698358535766602,-0.0021493858841033727,[0.],5.0,0.6,0.0,-9.484783707005368e-26,0.010746929420516861,1.4990764547948734
6.706270694732666,-0.0021493858841033727,[0.],5.0,0.6,0.0,-8.726001010444951e-26,0.010746929420516861,1.4990764547948734
6.714355707168579,-0.0021493858841033727,[0.],5.0,0.6,0.0,-8.027920929609336e-26,0.010746929420516861,1.4990764547948734
6.7223169803619385,-0.0021493858841033727,[0.],5.0,0.6,0.0,-7.385687255240593e-26,0.010746929420516861,1.4990764547948734
6.73030948638916,-0.0021493858841033727,[0.],5.0,0.6,0.0,-6.794832274821345e-26,0.010746929420516861,1.4990764547948734
6.738356590270996,-0.0021493858841033727,[0.],5.0,0.6,0.0,-6.251245692835634e-26,0.010746929420516861,1.4990764547948734
6.74634313583374,-0.0021493858841033727,[0.],5.0,0.6,0.0,-5.751146037408782e-26,0.010746929420516861,1.4990764547948734
6.75426721572876,-0.0021493858841033727,[0.],5.0,0.6,0.0,-5.291054354416088e-26,0.010746929420516861,1.4990764547948734
6.762285232543945,-0.0021493858841033727,[0.],5.0,0.6,0.0,-4.867770006062802e-26,0.010746929420516861,1.4990764547948734
6.770254611968994,-0.0021493858841033727,[0.],5.0,0.6,0.0,-4.47834840557778e-26,0.010746929420516861,1.4990764547948734
6.778325796127319,-0.0021493858841033727,[0.],5.0,0.6,0.0,-4.120080533131548e-26,0.010746929420516861,1.4990764547948734
6.786266088485718,-0.0021493858841033727,[0.],5.0,0.6,0.0,-3.790474090481026e-26,0.010746929420516861,1.4990764547948734
6.794301986694336,-0.0021493858841033727,[0.],5.0,0.6,0.0,-3.4872361632425446e-26,0.010746929420516861,1.4990764547948734
6.802287340164185,-0.0021493858841033727,[0.],5.0,0.6,0.0,-3.208257270183141e-26,0.010746929420516861,1.4990764547948734
6.810256242752075,-0.0021493858841033727,[0.],5.0,0.6,0.0,-2.951596688568489e-26,0.010746929420516861,1.4990764547948734
6.818345069885254,-0.0021493858841033727,[0.],5.0,0.6,0.0,-2.7154689534830125e-26,0.010746929420516861,1.4990764547948734
6.826242685317993,-0.0021493858841033727,[0.],5.0,0.6,0.0,-2.498231437204371e-26,0.010746929420516861,1.4990764547948734
6.834272146224976,-0.0021493858841033727,[0.],5.0,0.6,0.0,-2.2983729222280245e-26,0.010746929420516861,1.4990764547948734
6.842266798019409,-0.0021493858841033727,[0.],5.0,0.6,0.0,-2.1145030884497827e-26,0.010746929420516861,1.4990764547948734
6.850254774093628,-0.0021493858841033727,[0.],5.0,0.6,0.0,-1.9453428413737965e-26,0.010746929420516861,1.4990764547948734
6.8582763671875,-0.0021493858841033727,[0.],5.0,0.6,0.0,-1.7897154140638938e-26,0.010746929420516861,1.4990764547948734
6.866242170333862,-0.0021493858841033727,[0.],5.0,0.6,0.0,-1.6465381809387804e-26,0.010746929420516861,1.4990764547948734
6.874264240264893,-0.0021493858841033727,[0.],5.0,0.6,0.0,-1.5148151264636789e-26,0.010746929420516861,1.4990764547948734
6.882392168045044,-0.0021493858841033727,[0.],5.0,0.6,0.0,-1.3936299163465859e-26,0.010746929420516861,1.4990764547948734
6.8902387619018555,-0.0021493858841033727,[0.],5.0,0.6,0.0,-1.2821395230388573e-26,0.010746929420516861,1.4990764547948734
6.898299932479858,-0.0021493858841033727,[0.],5.0,0.6,0.0,-1.1795683611957496e-26,0.010746929420516861,1.4990764547948734
6.90625262260437,-0.0021493858841033727,[0.],5.0,0.6,0.0,-1.085202892300089e-26,0.010746929420516861,1.4990764547948734
6.914276599884033,-0.0021493858841033727,[0.],5.0,0.6,0.0,-9.983866609160812e-27,0.010746929420516861,1.4990764547948734
6.92233419418335,-0.0021493858841033727,[0.],5.0,0.6,0.0,-9.185157280427958e-27,0.010746929420516861,1.4990764547948734
6.930269956588745,-0.0021493858841033727,[0.],5.0,0.6,0.0,-8.450344697993721e-27,0.010746929420516861,1.4990764547948734
6.938274145126343,-0.0021493858841033727,[0.],5.0,0.6,0.0,-7.774317122154227e-27,0.010746929420516861,1.4990764547948734
6.946246147155762,-0.0021493858841033727,[0.],5.0,0.6,0.0,-7.152371752381907e-27,0.010746929420516861,1.4990764547948734
6.95428204536438,-0.0021493858841033727,[0.],5.0,0.6,0.0,-6.58018201219135e-27,0.010746929420516861,1.4990764547948734
6.962339639663696,-0.0021493858841033727,[0.],5.0,0.6,0.0,-6.0537674512160414e-27,0.010746929420516861,1.4990764547948734
6.97024393081665,-0.0021493858841033727,[0.],5.0,0.6,0.0,-5.5694660551187635e-27,0.010746929420516861,1.4990764547948734
6.978281259536743,-0.0021493858841033727,[0.],5.0,0.6,0.0,-5.123908770709253e-27,0.010746929420516861,1.4990764547948734
6.986255884170532,-0.0021493858841033727,[0.],5.0,0.6,0.0,-4.7139960690525135e-27,0.010746929420516861,1.4990764547948734
6.994225740432739,-0.0021493858841033727,[0.],5.0,0.6,0.0,-4.3368763835283105e-27,0.010746929420516861,1.4990764547948734
7.002256631851196,-0.0021493858841033727,[0.],5.0,0.6,0.0,-3.989926272846044e-27,0.010746929420516861,1.4990764547948734
7.010249614715576,-0.0021493858841033727,[0.],5.0,0.6,0.0,-3.6707321710183565e-27,0.010746929420516861,1.4990764547948734
7.018339157104492,-0.0021493858841033727,[0.],5.0,0.6,0.0,-3.377073597336893e-27,0.010746929420516861,1.4990764547948734
7.0262579917907715,-0.0021493858841033727,[0.],5.0,0.6,0.0,-3.1069077095499386e-27,0.010746929420516861,1.4990764547948734
7.0343217849731445,-0.0021493858841033727,[0.],5.0,0.6,0.0,-2.858355092785948e-27,0.010746929420516861,1.4990764547948734
7.042251110076904,-0.0021493858841033727,[0.],5.0,0.6,0.0,-2.62968668536307e-27,0.010746929420516861,1.4990764547948734
7.050218105316162,-0.0021493858841033727,[0.],5.0,0.6,0.0,-2.4193117505340283e-27,0.010746929420516861,1.4990764547948734
7.0582427978515625,-0.0021493858841033727,[0.],5.0,0.6,0.0,-2.2257668104913066e-27,0.010746929420516861,1.4990764547948734
7.066261291503906,-0.0021493858841033727,[0.],5.0,0.6,0.0,-2.0477054656520025e-27,0.010746929420516861,1.4990764547948734
7.074255704879761,-0.0021493858841033727,[0.],5.0,0.6,0.0,-1.88388902839984e-27,0.010746929420516861,1.4990764547948734
7.082355499267578,-0.0021493858841033727,[0.],5.0,0.6,0.0,-1.7331779061278553e-27,0.010746929420516861,1.4990764547948734
7.090276479721069,-0.0021493858841033727,[0.],5.0,0.6,0.0,-1.5945236736376266e-27,0.010746929420516861,1.4990764547948734
7.098247528076172,-0.0021493858841033727,[0.],5.0,0.6,0.0,-1.4669617797466158e-27,0.010746929420516861,1.4990764547948734
7.106248378753662,-0.0021493858841033727,[0.],5.0,0.6,0.0,-1.349604837366884e-27,0.010746929420516861,1.4990764547948734
7.114275693893433,-0.0021493858841033727,[0.],5.0,0.6,0.0,-1.2416364503775337e-27,0.010746929420516861,1.4990764547948734
7.12232232093811,-0.0021493858841033727,[0.],5.0,0.6,0.0,-1.1423055343473332e-27,0.010746929420516861,1.4990764547948734
7.130270004272461,-0.0021493858841033727,[0.],5.0,0.6,0.0,-1.0509210915995465e-27,0.010746929420516861,1.4990764547948734
7.138254165649414,-0.0021493858841033727,[0.],5.0,0.6,0.0,-9.668474042715817e-28,0.010746929420516861,1.4990764547948734
7.146287202835083,-0.0021493858841033727,[0.],5.0,0.6,0.0,-8.894996119298554e-28,0.010746929420516861,1.4990764547948734
7.1542885303497314,-0.0021493858841033727,[0.],5.0,0.6,0.0,-8.18339642975467e-28,0.010746929420516861,1.4990764547948734
7.16234827041626,-0.0021493858841033727,[0.],5.0,0.6,0.0,-7.528724715374303e-28,0.010746929420516861,1.4990764547948734
7.17030668258667,-0.0021493858841033727,[0.],5.0,0.6,0.0,-6.926426738144358e-28,0.010746929420516861,1.4990764547948734
7.178361415863037,-0.0021493858841033727,[0.],5.0,0.6,0.0,-6.372312599092811e-28,0.010746929420516861,1.4990764547948734
7.186259031295776,-0.0021493858841033727,[0.],5.0,0.6,0.0,-5.862527591165383e-28,0.010746929420516861,1.4990764547948734
7.194283962249756,-0.0021493858841033727,[0.],5.0,0.6,0.0,-5.393525383872154e-28,0.010746929420516861,1.4990764547948734
7.202355861663818,-0.0021493858841033727,[0.],5.0,0.6,0.0,-4.962043353162385e-28,0.010746929420516861,1.4990764547948734
7.210351467132568,-0.0021493858841033727,[0.],5.0,0.6,0.0,-4.56507988490939e-28,0.010746929420516861,1.4990764547948734
7.218334436416626,-0.0021493858841033727,[0.],5.0,0.6,0.0,-4.199873494116638e-28,0.010746929420516861,1.4990764547948734
7.226309537887573,-0.0021493858841033727,[0.],5.0,0.6,0.0,-3.8638836145873086e-28,0.010746929420516861,1.4990764547948734
7.234330892562866,-0.0021493858841033727,[0.],5.0,0.6,0.0,-3.554772925420325e-28,0.010746929420516861,1.4990764547948734
7.242327690124512,-0.0021493858841033727,[0.],5.0,0.6,0.0,-3.2703910913866985e-28,0.010746929420516861,1.4990764547948734
7.250322103500366,-0.0021493858841033727,[0.],5.0,0.6,0.0,-3.0087598040757652e-28,0.010746929420516861,1.4990764547948734
7.258234024047852,-0.0021493858841033727,[0.],5.0,0.6,0.0,-2.768059019749701e-28,0.010746929420516861,1.4990764547948734
7.2662389278411865,-0.0021493858841033727,[0.],5.0,0.6,0.0,-2.5466142981697233e-28,0.010746929420516861,1.4990764547948734
7.274271011352539,-0.0021493858841033727,[0.],5.0,0.6,0.0,-2.3428851543161446e-28,0.010746929420516861,1.4990764547948734
7.282240152359009,-0.0021493858841033727,[0.],5.0,0.6,0.0,-2.155454341970855e-28,0.010746929420516861,1.4990764547948734
7.290232181549072,-0.0021493858841033727,[0.],5.0,0.6,0.0,-1.9830179946131886e-28,0.010746929420516861,1.4990764547948734
7.298262119293213,-0.0021493858841033727,[0.],5.0,0.6,0.0,-1.8243765550441358e-28,0.010746929420516861,1.4990764547948734
7.306340217590332,-0.0021493858841033727,[0.],5.0,0.6,0.0,-1.6784264306406008e-28,0.010746929420516861,1.4990764547948734
7.314332962036133,-0.0021493858841033727,[0.],5.0,0.6,0.0,-1.544152316189355e-28,0.010746929420516861,1.4990764547948734
7.322317600250244,-0.0021493858841033727,[0.],5.0,0.6,0.0,-1.420620130894206e-28,0.010746929420516861,1.4990764547948734
7.33031153678894,-0.0021493858841033727,[0.],5.0,0.6,0.0,-1.3069705204226683e-28,0.010746929420516861,1.4990764547948734
7.33825945854187,-0.0021493858841033727,[0.],5.0,0.6,0.0,-1.2024128787888551e-28,0.010746929420516861,1.4990764547948734
7.34622859954834,-0.0021493858841033727,[0.],5.0,0.6,0.0,-1.1062198484857465e-28,0.010746929420516861,1.4990764547948734
7.354307174682617,-0.0021493858841033727,[0.],5.0,0.6,0.0,-1.0177222606068871e-28,0.010746929420516861,1.4990764547948734
7.362333059310913,-0.0021493858841033727,[0.],5.0,0.6,0.0,-9.36304479758337e-29,0.010746929420516861,1.4990764547948734
7.370223522186279,-0.0021493858841033727,[0.],5.0,0.6,0.0,-8.6140012137767e-29,0.010746929420516861,1.4990764547948734
7.378320932388306,-0.0021493858841033727,[0.],5.0,0.6,0.0,-7.92488111667456e-29,0.010746929420516861,1.4990764547948734
7.386314630508423,-0.0021493858841033727,[0.],5.0,0.6,0.0,-7.2908906273406e-29,0.010746929420516861,1.4990764547948734
7.39423680305481,-0.0021493858841033727,[0.],5.0,0.6,0.0,-6.70761937715336e-29,0.010746929420516861,1.4990764547948734
7.40223240852356,-0.0021493858841033727,[0.],5.0,0.6,0.0,-6.171009826981086e-29,0.010746929420516861,1.4990764547948734
7.410231113433838,-0.0021493858841033727,[0.],5.0,0.6,0.0,-5.677329040822595e-29,0.010746929420516861,1.4990764547948734
7.41826319694519,-0.0021493858841033727,[0.],5.0,0.6,0.0,-5.223142717556792e-29,0.010746929420516861,1.4990764547948734
7.426329851150513,-0.0021493858841033727,[0.],5.0,0.6,0.0,-4.805291300152249e-29,0.010746929420516861,1.4990764547948734
7.434317588806152,-0.0021493858841033727,[0.],5.0,0.6,0.0,-4.420867996140066e-29,0.010746929420516861,1.4990764547948734
7.442334175109863,-0.0021493858841033727,[0.],5.0,0.6,0.0,-4.0671985564488557e-29,0.010746929420516861,1.4990764547948734
7.450326442718506,-0.0021493858841033727,[0.],5.0,0.6,0.0,-3.7418226719329484e-29,0.010746929420516861,1.4990764547948734
7.458239555358887,-0.0021493858841033727,[0.],5.0,0.6,0.0,-3.4424768581783136e-29,0.010746929420516861,1.4990764547948734
7.466283082962036,-0.0021493858841033727,[0.],5.0,0.6,0.0,-3.167078709524047e-29,0.010746929420516861,1.4990764547948734
7.474331617355347,-0.0021493858841033727,[0.],5.0,0.6,0.0,-2.913712412762128e-29,0.010746929420516861,1.4990764547948734
7.482242107391357,-0.0021493858841033727,[0.],5.0,0.6,0.0,-2.6806154197411583e-29,0.010746929420516861,1.4990764547948734
7.490231275558472,-0.0021493858841033727,[0.],5.0,0.6,0.0,-2.466166186161865e-29,0.010746929420516861,1.4990764547948734
7.498248338699341,-0.0021493858841033727,[0.],5.0,0.6,0.0,-2.2688728912689134e-29,0.010746929420516861,1.4990764547948734
7.506239652633667,-0.0021493858841033727,[0.],5.0,0.6,0.0,-2.0873630599674012e-29,0.010746929420516861,1.4990764547948734
7.514323711395264,-0.0021493858841033727,[0.],5.0,0.6,0.0,-1.9203740151700106e-29,0.010746929420516861,1.4990764547948734
7.522328615188599,-0.0021493858841033727,[0.],5.0,0.6,0.0,-1.766744093956409e-29,0.010746929420516861,1.4990764547948734
7.530242919921875,-0.0021493858841033727,[0.],5.0,0.6,0.0,-1.6254045664398964e-29,0.010746929420516861,1.4990764547948734
7.538231611251831,-0.0021493858841033727,[0.],5.0,0.6,0.0,-1.495372201124704e-29,0.010746929420516861,1.4990764547948734
7.54632830619812,-0.0021493858841033727,[0.],5.0,0.6,0.0,-1.3757424250347286e-29,0.010746929420516861,1.4990764547948734
7.554258108139038,-0.0021493858841033727,[0.],5.0,0.6,0.0,-1.2656830310319528e-29,0.010746929420516861,1.4990764547948734
7.562230587005615,-0.0021493858841033727,[0.],5.0,0.6,0.0,-1.1644283885493957e-29,0.010746929420516861,1.4990764547948734
7.570219039916992,-0.0021493858841033727,[0.],5.0,0.6,0.0,-1.071274117465442e-29,0.010746929420516861,1.4990764547948734
7.578259706497192,-0.0021493858841033727,[0.],5.0,0.6,0.0,-9.855721880682078e-30,0.010746929420516861,1.4990764547948734
7.5862367153167725,-0.0021493858841033727,[0.],5.0,0.6,0.0,-9.067264130227506e-30,0.010746929420516861,1.4990764547948734
7.594209671020508,-0.0021493858841033727,[0.],5.0,0.6,0.0,-8.341882999809319e-30,0.010746929420516861,1.4990764547948734
7.602216482162476,-0.0021493858841033727,[0.],5.0,0.6,0.0,-7.674532359824573e-30,0.010746929420516861,1.4990764547948734
7.6103174686431885,-0.0021493858841033727,[0.],5.0,0.6,0.0,-7.06056977103861e-30,0.010746929420516861,1.4990764547948734
7.618249893188477,-0.0021493858841033727,[0.],5.0,0.6,0.0,-6.495724189355512e-30,0.010746929420516861,1.4990764547948734
7.626283645629883,-0.0021493858841033727,[0.],5.0,0.6,0.0,-5.976066254207072e-30,0.010746929420516861,1.4990764547948734
7.634229421615601,-0.0021493858841033727,[0.],5.0,0.6,0.0,-5.4979809538705045e-30,0.010746929420516861,1.4990764547948734
7.6423022747039795,-0.0021493858841033727,[0.],5.0,0.6,0.0,-5.058142477560864e-30,0.010746929420516861,1.4990764547948734
7.650282859802246,-0.0021493858841033727,[0.],5.0,0.6,0.0,-4.653491079356001e-30,0.010746929420516861,1.4990764547948734
7.658322095870972,-0.0021493858841033727,[0.],5.0,0.6,0.0,-4.28121179300752e-30,0.010746929420516861,1.4990764547948734
7.666219234466553,-0.0021493858841033727,[0.],5.0,0.6,0.0,-3.9387148495669155e-30,0.010746929420516861,1.4990764547948734
7.674292087554932,-0.0021493858841033727,[0.],5.0,0.6,0.0,-3.6236176616015654e-30,0.010746929420516861,1.4990764547948734
7.682229995727539,-0.0021493858841033727,[0.],5.0,0.6,0.0,-3.3337282486734395e-30,0.010746929420516861,1.4990764547948734
7.690292835235596,-0.0021493858841033727,[0.],5.0,0.6,0.0,-3.0670299887795607e-30,0.010746929420516861,1.4990764547948734
7.698291063308716,-0.0021493858841033727,[0.],5.0,0.6,0.0,-2.8216675896771924e-30,0.010746929420516861,1.4990764547948734
7.7062859535217285,-0.0021493858841033727,[0.],5.0,0.6,0.0,-2.595934182503022e-30,0.010746929420516861,1.4990764547948734
7.714178562164307,-0.0021493858841033727,[0.],5.0,0.6,0.0,-2.388259447902781e-30,0.010746929420516861,1.4990764547948734
7.722230672836304,-0.0021493858841033727,[0.],5.0,0.6,0.0,-2.197198692070559e-30,0.010746929420516861,1.4990764547948734
7.73027491569519,-0.0021493858841033727,[0.],5.0,0.6,0.0,-2.0214227967049136e-30,0.010746929420516861,1.4990764547948734
7.738281488418579,-0.0021493858841033727,[0.],5.0,0.6,0.0,-1.8597089729685183e-30,0.010746929420516861,1.4990764547948734
7.746220111846924,-0.0021493858841033727,[0.],5.0,0.6,0.0,-1.710932255131038e-30,0.010746929420516861,1.4990764547948734
7.754273891448975,-0.0021493858841033727,[0.],5.0,0.6,0.0,-1.5740576747205561e-30,0.010746929420516861,1.4990764547948734
7.762178421020508,-0.0021493858841033727,[0.],5.0,0.6,0.0,-1.4481330607429097e-30,0.010746929420516861,1.4990764547948734
7.7702109813690186,-0.0021493858841033727,[0.],5.0,0.6,0.0,-1.3322824158834787e-30,0.010746929420516861,1.4990764547948734
7.7782087326049805,-0.0021493858841033727,[0.],5.0,0.6,0.0,-1.2256998226128006e-30,0.010746929420516861,1.4990764547948734
7.786197900772095,-0.0021493858841033727,[0.],5.0,0.6,0.0,-1.1276438368037762e-30,0.010746929420516861,1.4990764547948734
7.794287443161011,-0.0021493858841033727,[0.],5.0,0.6,0.0,-1.0374323298594747e-30,0.010746929420516861,1.4990764547948734
7.802286386489868,-0.0021493858841033727,[0.],5.0,0.6,0.0,-9.544377434707174e-31,0.010746929420516861,1.4990764547948734
7.81026029586792,-0.0021493858841033727,[0.],5.0,0.6,0.0,-8.780827239930608e-31,0.010746929420516861,1.4990764547948734
7.818284034729004,-0.0021493858841033727,[0.],5.0,0.6,0.0,-8.078361060736155e-31,0.010746929420516861,1.4990764547948734
7.826286554336548,-0.0021493858841033727,[0.],5.0,0.6,0.0,-7.432092175877256e-31,0.010746929420516861,1.4990764547948734
7.834181547164917,-0.0021493858841033727,[0.],5.0,0.6,0.0,-6.83752480180708e-31,0.010746929420516861,1.4990764547948734
7.8421690464019775,-0.0021493858841033727,[0.],5.0,0.6,0.0,-6.290522817662511e-31,0.010746929420516861,1.4990764547948734
7.850278377532959,-0.0021493858841033727,[0.],5.0,0.6,0.0,-5.787280992249509e-31,0.010746929420516861,1.4990764547948734
7.858208417892456,-0.0021493858841033727,[0.],5.0,0.6,0.0,-5.324298512869547e-31,0.010746929420516861,1.4990764547948734
7.866245985031128,-0.0021493858841033727,[0.],5.0,0.6,0.0,-4.898354631839988e-31,0.010746929420516861,1.4990764547948734
7.874285697937012,-0.0021493858841033727,[0.],5.0,0.6,0.0,-4.506486261292785e-31,0.010746929420516861,1.4990764547948734
7.882171630859375,-0.0021493858841033727,[0.],5.0,0.6,0.0,-4.145967360389358e-31,0.010746929420516861,1.4990764547948734
