t_s,q_rad,q_des_rad,K,B,jerk,tau_Nm,ilc_ff_Nm
0.005223512649536133,-0.07034353802520128,[0.00720969],0.005,0.1,0.0,9.998999999999999,0
0.013740777969360352,-0.07034353802520128,[0.0348423],0.005,0.1,0.0,10.098989999999999,0
0.02280259132385254,-0.07034353802520128,[0.08659733],0.005,0.1,0.0,10.099989899999999,0
0.03165721893310547,-0.07034353802520128,[0.15808106],0.005,0.1,0.0,10.099999898999998,0
0.044036149978637695,-0.07034353802520128,[0.24532251],0.005,0.1,0.0,10.099999998989999,0
0.05278444290161133,-0.07034353802520128,[0.3447597],0.005,0.1,0.0,10.0999999999899,0
0.06179618835449219,-0.07034353802520128,[0.45322229],0.005,0.1,0.0,10.099999999999898,0
0.0717008113861084,-0.07034353802520128,[0.5679123],0.005,0.1,0.0,10.099999999999998,0
0.08174681663513184,-0.07034353802520128,[0.68638322],0.005,0.1,0.0,10.099999999999998,0
0.09069943428039551,-0.07034353802520128,[0.80651719],0.005,0.1,0.0,10.099999999999998,0
0.10189580917358398,-0.07034353802520128,[0.92650157],0.005,0.1,0.0,5.100499999999999,0
0.11006879806518555,-0.07034353802520128,[1.04480563],0.005,0.1,0.0,5.050504999999999,0
0.1208658218383789,-0.06760795599088791,[1.16015682],0.005,0.1,0.552076719357362,5.050005049999999,0
0.12871384620666504,-0.06467697523983784,[1.27151698],0.005,0.1,3.3787095224670542,5.0500000505,0
0.13824009895324707,-0.060769000905104446,[1.37805983],0.005,0.1,5.0,5.050000000504999,0
0.14582276344299316,-0.0578380201540544,[1.47914933],0.005,0.1,5.0,5.050000000005049,0
0.15363550186157227,-0.054907039403004336,[1.57431825],0.005,0.1,5.0,5.05000000000005,0
0.16271567344665527,-0.05138986250174427,[1.66324793],0.005,0.1,5.0,5.05,0
0.17323875427246094,-0.04709109073353753,[1.74574978],0.005,0.1,5.0,5.05,0
0.18115711212158203,-0.04376931254901414,[1.82174791],0.005,0.1,5.0,5.05,0
0.18962621688842773,-0.04044753436449074,[1.89126237],0.005,0.1,5.0,5.05,0
0.19788241386413574,-0.03693035746323068,[1.95439395],0.005,0.1,5.0,5.05,0
0.2063286304473877,-0.033803977995443955,[2.01131054],0.005,0.1,5.0,5.05,0
0.2156209945678711,-0.02989600366071055,[2.06223482],0.005,0.1,4.1633075512366595,5.05,0
0.2287452220916748,-0.024815637025557124,[2.10743303],0.005,0.1,2.2688799526395123,5.05,0
0.23761463165283203,-0.021103061407560384,[2.14720449],0.005,0.1,-0.18550039925966422,5.05,0
0.24596524238586426,-0.017781283223036994,[2.18187235],0.005,0.1,-2.6276656257488433,5.05,0
0.25460195541381836,-0.0144595050385136,[2.21177596],0.005,0.1,-4.570354201314048,5.05,0
0.2683413028717041,-0.00840214481967682,[2.23726413],0.005,0.1,-5.0,5.05,0
0.278644323348999,-0.0042987717682067455,[2.25868922],0.005,0.1,-5.0,5.05,0
0.2905750274658203,0.0007815948669466809,[2.27640171],0.005,0.1,-5.0,5.05,0
0.2995924949645996,0.0042987717682067455,[2.29074585],0.005,0.1,-5.0,5.05,0
0.30984950065612793,0.008597543536413491,[2.3020564],0.005,0.1,-5.0,5.05,0
0.3195490837097168,0.011919321720936885,[2.31065598],0.005,0.1,-5.0,5.05,0
0.32770872116088867,0.015241099905460279,[2.31685256],0.005,0.1,-5.0,5.05,0
0.3368995189666748,0.019149074240193686,[2.32093766],0.005,0.1,-5.0,5.05,0
0.3445436954498291,0.022275453707980408,[2.32318496],0.005,0.1,-5.0,5.05,0
0.3546793460845947,0.026574225476187156,[2.32384935],0.005,0.1,-5.0,5.05,0
0.3656432628631592,0.030677598527657227,[2.32316704],0.005,0.1,-4.969658493561494,5.05,0
0.37391138076782227,0.033999376712180625,[2.32135558],0.005,0.1,-4.74130558841226,5.05,0
0.3817014694213867,0.03693035746323068,[2.31861323],0.005,0.1,-4.435684397795562,5.05,0
0.3907794952392578,0.040642933081227406,[2.31511997],0.005,0.1,-3.8339842730233764,5.05,0
0.40082740783691406,0.04533250228290749,[2.31103831],0.005,0.1,-3.481300303562187,5.05,0
0.4105658531188965,0.0492404766176409,[2.30651356],0.005,0.1,-3.2340338866659835,5.05,0
0.4213826656341553,0.05373464710258431,[2.30167443],0.005,0.1,-3.028884134266022,5.05,0
0.4326307773590088,0.05822881758752774,[2.29663389],0.005,0.1,-2.8399277911785887,5.05,0
0.44434213638305664,0.06291838678920783,[2.29149033],0.005,0.1,-2.658008297582363,5.05,0
0.4572291374206543,0.06799875342436125,[2.28632865],0.005,0.1,-2.4810232737345745,5.05,0
0.46479058265686035,0.07112513289214797,[2.28122084],0.005,0.1,-2.3094820243919685,5.05,0
0.47923851013183594,0.07698709439424807,[2.27622713],0.005,0.1,-2.144572723522506,5.05,0
0.487440824508667,0.08050427129550815,[2.27139725],0.005,0.1,-1.9873968045443071,5.05,0
0.49662303924560547,0.0840214481967682,[2.26677077],0.005,0.1,-1.8387256974863784,5.05,0
0.5055348873138428,0.08773402381476494,[2.26237815],0.005,0.1,-1.6989759418379888,5.05,0
0.5149147510528564,0.09164199814949833,[2.25824243],0.005,0.1,-1.5682636036146298,5.05,0
0.5244152545928955,0.09554997248423175,[2.25438003],0.005,0.1,-1.4464774948211891,5.05,0
0.5345973968505859,0.09945794681896515,[2.25080102],0.005,0.1,-1.3333472626370182,5.05,0
0.5425612926483154,0.10317052243696188,[2.24751006],0.005,0.1,-1.2284987996844585,5.05,0
0.5563099384307861,0.10864168650558867,[2.24450795],0.005,0.1,-1.131496288789156,5.05,0
0.5665361881256104,0.11274505955705873,[2.24179213],0.005,0.1,-1.0418726960609683,5.05,0
0.5763745307922363,0.1168484326085288,[2.23935653],0.005,0.1,-0.9591511252482257,5.05,0
0.5852677822113037,0.11997481207631551,[2.23719214],0.005,0.1,-0.882859290443698,5.05,0
0.5948896408081055,0.12407818512778561,[2.23528786],0.005,0.1,-0.8125389677613823,5.05,0
0.6030845642089844,0.12759536202904564,[2.23363092],0.005,0.1,-0.7477518656789119,5.05,0
0.6129152774810791,0.1315033363637791,[2.23220707],0.005,0.1,-0.6880829876371137,5.05,0
0.6225357055664062,0.13521591198177582,[2.23100099],0.005,0.1,-0.6331422687126624,5.05,0
0.6335346698760986,0.13971008246671923,[2.22999723],0.005,0.1,-0.5825650463951138,5.05,0
0.6478590965270996,0.14537664525208266,[2.22918093],0.005,0.1,-0.536011761668627,5.05,0
0.6575362682342529,0.1490892208700794,[2.22853744],0.005,0.1,-0.49316716780439773,5.05,0
0.6676335334777832,0.1531925939215495,[2.22805133],0.005,0.1,-0.45373923921842324,5.05,0
0.6770646572113037,0.15710056825628288,[2.22770698],0.005,0.1,-0.417457912412737,5.05,0
0.6879692077636719,0.16159473874122632,[2.22748967],0.005,0.1,-0.38407374852444476,5.05,0
0.6975538730621338,0.1655027130759597,[2.22738569],0.005,0.1,-0.35335657725197217,5.05,0
0.7097597122192383,0.1701922822776398,[2.22738169],0.005,0.1,-0.32509416121663964,5.05,0
0.7191908359527588,0.1741002566123732,[2.22746481],0.005,0.1,-0.29909090547972306,5.05,0
0.7280702590942383,0.17781283223036992,[2.2276231],0.005,0.1,-0.27516662708318074,5.05,0
0.7375483512878418,0.18172080656510334,[2.22784558],0.005,0.1,-0.2531553927605503,5.05,0
0.7465260028839111,0.18523798346636342,[2.22812141],0.005,0.1,-0.2329044284378928,5.05,0
0.7567598819732666,0.18953675523457011,[2.22844046],0.005,0.1,-0.21427310113530673,5.05,0
0.7665553092956543,0.19344472956930353,[2.22879467],0.005,0.1,-0.1971319719270046,5.05,0
0.7767922878265381,0.1975481026207736,[2.22917715],0.005,0.1,-0.1813619173915319,5.05,0
0.7895717620849609,0.20262846925592706,[2.22958173],0.005,0.1,0.10918504342493135,5.05,0
0.7975656986236572,0.20575484872371377,[2.23000255],0.005,0.1,0.15565766530897,5.05,0
0.8085203170776367,0.2100536204919205,[2.23043344],0.005,0.1,0.1128406599150694,5.05,0
0.8171043395996094,0.2133753986764439,[2.23086948],0.005,0.1,0.04805353764353946,5.05,0
0.8254873752593994,0.21708797429444063,[2.23130713],0.005,0.1,-0.012075051482719031,5.05,0
0.8369007110595703,0.22177754349612072,[2.23174374],0.005,0.1,-0.05913426038445488,5.05,0
0.8454897403717041,0.22529472039738077,[2.23217752],0.005,0.1,-0.09233426803790123,5.05,0
0.8578495979309082,0.2305704857492709,[2.23260701],0.005,0.1,-0.11365560021878865,5.05,0
0.8661086559295654,0.2336968652170576,[2.23303064],0.005,0.1,-0.12573707858052485,5.05,0
0.8745200634002686,0.237018643401581,[2.23344605],0.005,0.1,-0.13103899818088138,5.05,0
0.8828177452087402,0.24034042158610439,[2.23385094],0.005,0.1,-0.1315780671577586,5.05,0
0.8915061950683594,0.24405299720410112,[2.23424389],0.005,0.1,-0.12890213832236253,5.05,0
0.8998754024505615,0.24776557282209788,[2.23462388],0.005,0.1,-0.12415258101023141,5.05,0
0.9085731506347656,0.2510873510066213,[2.2349906],0.005,0.1,-0.11814790024590029,5.05,0
0.9174869060516357,0.25460452790788135,[2.23534431],0.005,0.1,-0.11146218427213958,5.05,0
0.9264774322509766,0.25792630609240474,[2.23568542],0.005,0.1,-0.10448991478472805,5.05,0
0.9360599517822266,0.26163888171040145,[2.23601447],0.005,0.1,-0.09749622729108914,5.05,0
0.9461097717285156,0.2657422547618715,[2.23633207],0.005,0.1,-0.09065448909575323,5.05,0
0.953510046005249,0.2690640329463949,[2.23663887],0.005,0.1,-0.08407375496240575,5.05,0
0.965503454208374,0.27375360214807504,[2.23693601],0.005,0.1,-0.07781851856286902,5.05,0
0.9765803813934326,0.2782477726330184,[2.23722466],0.005,0.1,-0.07192276512676354,5.05,0
0.9855005741119385,0.2819603482510151,[2.23750474],0.005,0.1,-0.06639988517618853,5.05,0
0.9957907199859619,0.2862591200192219,[2.23777596],0.005,0.1,-0.061249619056439275,5.05,0
1.0074708461761475,0.2907532905041653,[2.23803946],0.005,0.1,0.21957546995439212,5.05,0
1.0159924030303955,0.2942704674054254,[2.23829721],0.005,0.1,0.2571378197059648,5.05,0
1.0244638919830322,0.29759224558994873,[2.23855015],0.005,0.1,-0.06989129255198395,5.05,0
1.0346510410308838,0.30169561864141886,[2.23879886],0.005,0.1,0.10073209062008831,5.05,0
1.0451624393463135,0.30618978912636224,[2.23904483],0.005,0.1,0.12193398975178284,5.05,0
1.0524702072143555,0.3091207698774123,[2.23928895],0.005,0.1,-0.18650775736831401,5.05,0
1.0610535144805908,0.3126379467786724,[2.2395312],0.005,0.1,-0.2642143738615098,5.05,0
1.068985939025879,0.31556892752972243,[2.23977211],0.005,0.1,-0.24968944867273488,5.05,0
1.077460527420044,0.3190861044309825,[2.24001222],0.005,0.1,-0.2052294294642497,5.05,0
1.0884885787963867,0.32338487619918926,[2.24025209],0.005,0.1,-0.15711496047742907,5.05,0
1.1004712581634521,0.3284652428343427,[2.24049333],0.005,0.1,-0.11508012824370452,5.05,0
1.1114881038665771,0.3331548120360227,[2.24073735],0.005,0.1,-0.08160859563003342,5.05,0
1.119490623474121,0.3366719889372828,[2.24098434],0.005,0.1,-0.05627473354306995,5.05,0
1.1313939094543457,0.34136155813896296,[2.24123394],0.005,0.1,-0.03769933835963263,5.05,0
1.1424953937530518,0.34566032990716966,[2.2414864],0.005,0.1,-0.024377102543751486,5.05,0
1.1530389785766602,0.3497637029586398,[2.24174308],0.005,0.1,-0.2910234432973223,5.05,0
1.1616694927215576,0.3532808798598998,[2.24200509],0.005,0.1,-0.3176262199649305,5.05,0
1.17584228515625,0.35875204392852655,[2.24227341],0.005,0.1,-0.25806892679028415,5.05,0
1.1859891414642334,0.3628554169799967,[2.24254997],0.005,0.1,-0.17898714970823124,5.05,0
1.194464921951294,0.36637259388125676,[2.24283575],0.005,0.1,-0.10649618065707792,5.05,0
1.2025246620178223,0.3698897707825168,[2.24312912],0.005,0.1,-0.048622781743675014,5.05,0
1.2129528522491455,0.3741885425507235,[2.24342806],0.005,0.1,-0.005868712827323631,5.05,0
1.2219810485839844,0.37770571945198356,[2.24373258],0.005,0.1,0.02396408328986822,5.05,0
1.230027675628662,0.381027497636507,[2.24404321],0.005,0.1,0.043680429303939235,5.05,0
1.2374436855316162,0.3841538771042937,[2.24435974],0.005,0.1,0.05586900749051453,5.05,0
1.246450424194336,0.3876710540055538,[2.24468133],0.005,0.1,0.06264738649135398,5.05,0
1.2553989887237549,0.3915790283402871,[2.24500663],0.005,0.1,0.34168238038493726,5.05,0
1.2644562721252441,0.3952916039582839,[2.24533502],0.005,0.1,0.09919044751226107,5.05,0
1.2758145332336426,0.399981173159964,[2.24566656],0.005,0.1,0.009688385775127185,5.05,0
1.2878661155700684,0.40486614107838076,[2.24600189],0.005,0.1,-0.013661806355498223,5.05,0
1.2954328060150146,0.4077971218294308,[2.24634089],0.005,0.1,-0.01111061829182306,5.05,0
1.3064830303192139,0.4119004948809009,[2.24668161],0.005,0.1,-0.0005705841181595237,5.05,0
1.3144428730010986,0.41522227306542425,[2.24702303],0.005,0.1,-0.265492260659321,5.05,0
1.3229091167449951,0.41873944996668433,[2.24736547],0.005,0.1,-0.2895532227012238,5.05,0
1.3305232524871826,0.42186582943447104,[2.24770919],0.005,0.1,-0.2280108132140225,5.05,0
1.3387281894683838,0.4251876076189945,[2.2480544],0.005,0.1,-0.14786104613848294,5.05,0
1.3473973274230957,0.42850938580351783,[2.24840068],0.005,0.1,-0.07517383311015255,5.05,0
1.3584415912628174,0.43300355628846127,[2.24874765],0.005,0.1,-0.01779804696312773,5.05,0
1.369239330291748,0.437302328056668,[2.2490956],0.005,0.1,0.023959636923806128,5.05,0
1.3784103393554688,0.4414057011081381,[2.24944414],0.005,0.1,0.052466816301334276,5.05,0
1.3873937129974365,0.4453136754428715,[2.24979294],0.005,0.1,0.07066136734948092,5.05,0
1.3974204063415527,0.4494170484943415,[2.25014234],0.005,0.1,0.0812303509682716,5.05,0
1.4064457416534424,0.4529342253956016,[2.25049259],0.005,0.1,0.08636103077564344,5.05,0
1.4157140254974365,0.4566468010135984,[2.25084388],0.005,0.1,0.0877294152229401,5.05,0
1.4235594272613525,0.45996857919812173,[2.25119635],0.005,0.1,0.3626119542152807,5.05,0
1.4314839839935303,0.46309495866590844,[2.2515489],0.005,0.1,0.3929486654334276,5.05,0
1.442826509475708,0.46758912915085193,[2.25189998],0.005,0.1,0.33406226099159175,5.05,0
1.4536216259002686,0.47188790091905863,[2.25225011],0.005,0.1,-0.022412676659315345,5.05,0
1.4648504257202148,0.4761866726872654,[2.25260088],0.005,0.1,-0.13067357205131946,5.05,0
1.472717046737671,0.47970384958852547,[2.25295304],0.005,0.1,0.139166466831753,5.05,0
1.4816339015960693,0.4834164252065221,[2.253306],0.005,0.1,0.20177704188295884,5.05,0
1.4914329051971436,0.4877151969747289,[2.25365924],0.005,0.1,-0.09269596386060415,5.05,0
1.5014913082122803,0.49181857002619894,[2.25401286],0.005,0.1,-0.1690493002838287,5.05,0
1.5103449821472168,0.495335746927459,[2.25436693],0.005,0.1,0.11740598201645755,5.05,0
1.5183889865875244,0.49846212639524584,[2.25472088],0.005,0.1,0.18881190444589252,5.05,0
1.5264363288879395,0.5017839045797692,[2.25507307],0.005,0.1,0.17513906488198006,7.026896923009488,0
1.5356481075286865,0.5054964801977658,[2.2554227],0.005,0.1,0.1345670346948059,6.999839591583383,0
1.5446524620056152,0.5094044545324993,[2.25577085],0.005,0.1,0.09142734644613368,6.950803972984686,0
1.5528345108032227,0.5127262327170228,[2.25611784],0.005,0.1,0.05456028491152647,6.909971071595511,0
1.5604124069213867,0.5156572134680728,[2.25646281],0.005,0.1,0.026063027451491968,6.87434750990822,0
1.5707740783691406,0.5193697890860695,[2.25680559],0.005,0.1,0.005362569491418541,6.8284090383022376,0
1.5842132568359375,0.5246455544379596,[2.25714725],0.005,0.1,-0.008958582851093862,6.761816053651826,0
1.5932936668395996,0.5287489274894297,[2.25748868],0.005,0.1,-0.018397076845444504,6.710885975286157,0
1.603468418121338,0.5332430979743731,[2.25782951],0.005,0.1,-0.02424927607067834,6.655299152970715,0
1.614729881286621,0.5377372684593165,[2.25816998],0.005,0.1,-0.027543779214527456,6.600192593840168,0
1.624464988708496,0.5418406415107866,[2.25851148],0.005,0.1,-0.029058223272368247,6.550327254338165,0
1.6324143409729004,0.54516241969531,[2.25885403],0.005,0.1,-0.029363045254162938,6.511000840628529,0
1.644709825515747,0.5500473876137267,[2.25919713],0.005,0.1,-0.02886809620794311,6.4518857067137665,0
1.6544411182403564,0.5539553619484602,[2.25954154],0.005,0.1,-0.02786324405497574,6.405410493534678,0
1.665053129196167,0.5584495324334036,[2.25988792],0.005,0.1,-0.026550766081959824,6.351885699932766,0
1.6733522415161133,0.5615759119011904,[2.26023567],0.005,0.1,-0.025069994216881032,6.316004711526163,0
1.6833875179290771,0.5658746836693971,[2.2605843],0.005,0.1,-0.023515538442270424,6.265775451900346,0
1.6914148330688477,0.5690010631371838,[2.26093405],0.005,0.1,-0.021950516584699292,6.230179829055724,0
1.7003934383392334,0.5725182400384438,[2.26128387],0.005,0.1,-0.02041604040228706,6.190415777829771,0
1.7103865146636963,0.5764262143731771,[2.26163297],0.005,0.1,-0.01893795791715684,6.1454437658616845,0
1.7205333709716797,0.5807249861413839,[2.26198257],0.005,0.1,-0.01753161437968364,6.096084019739124,0
1.7283806800842285,0.583655966892434,[2.26233309],0.005,0.1,-0.016205196682956342,6.063753406748427,0
1.7377784252166748,0.5873685425104307,[2.26268302],0.005,0.1,-0.014962072109131936,6.022459750042581,0
1.75248122215271,0.5936213014460042,[2.26303243],0.005,0.1,-0.01380241672454269,5.950521400011764,0
1.7603468894958496,0.5969430796305276,[2.26338268],0.005,0.1,-0.012724343941327891,5.913863510091346,0
1.7693986892700195,0.6006556552485243,[2.26373363],0.005,0.1,-0.011724682457220584,5.873993366394356,0
1.7797229290008545,0.6047590282999944,[2.26408586],0.005,0.1,0.2652388507747835,5.828136620800997,0
1.7898647785186768,0.6090578000682011,[2.26444116],0.005,0.1,0.023180093828805926,5.781770297481861,0
1.7978157997131348,0.6117933821025145,[2.26480102],0.005,0.1,-0.06425247818202186,5.752480053997592,0
1.8053746223449707,0.6149197615703013,[2.26516535],0.005,0.1,0.19152615945524987,5.71846086532892,0
1.8133611679077148,0.6182415397548247,[2.26553208],0.005,0.1,0.2308841918559852,5.683302187832717,0
1.8223552703857422,0.6219541153728214,[2.26589941],0.005,0.1,0.1903061529121277,5.643891206741012,0
1.8303794860839844,0.6250804948406082,[2.26626711],0.005,0.1,0.1294148525597053,5.611483374608715,0
1.8414134979248047,0.6299654627590249,[2.26663564],0.005,0.1,0.07199905086992214,5.559043713707115,0
1.8493642807006836,0.6336780383770215,[2.26700537],0.005,0.1,0.025747373460175187,5.520185052666072,0
1.8609466552734375,0.6377814114284917,[2.26737659],0.005,0.1,-0.008430605705126847,5.4772362297263735,0
1.868886947631836,0.6412985883297517,[2.26774948],0.005,0.1,-0.03212587072579545,5.4411275360730205,0
1.8787212371826172,0.6452065626644852,[2.26812413],0.005,0.1,-0.047558090989265465,5.40088258338441,0
1.887345790863037,0.6489191382824818,[2.26849992],0.005,0.1,-0.0568267918990004,5.362897648190847,0
1.8963854312896729,0.6526317139004786,[2.26887564],0.005,0.1,-0.06166786490113841,5.32523404903235,0
1.906205177307129,0.6563442895184753,[2.26925087],0.005,0.1,0.21261493621081956,5.2877974046930625,0
1.9165678024291992,0.660643061286682,[2.26962582],0.005,0.1,0.24607215366307142,5.244108431946211,0
1.9274449348449707,0.6649418330548889,[2.27000066],0.005,0.1,0.19267379601693652,5.200626832923144,0
1.9374639987945557,0.6688498073896222,[2.27037484],0.005,0.1,0.11914154558978016,5.161763542683808,0
1.9476535320281982,0.6729531804410924,[2.27074789],0.005,0.1,0.05166761072115068,5.120897092861804,0
1.9577641487121582,0.6766657560590891,[2.2711206],0.005,0.1,-0.0016555102412641014,5.084455171512833,0
1.9655580520629883,0.6799875342436125,[2.2714936],0.005,0.1,-0.04027081002005728,5.052444623711786,0
1.9753236770629883,0.6840909072950825,[2.27186673],0.005,0.1,-0.06633003469953605,5.012327910409504,0
1.9834880828857422,0.6878034829130792,[2.27223989],0.005,0.1,-0.08259899009157677,4.976507722682477,0
1.9913654327392578,0.6907344636641293,[2.27261236],0.005,0.1,-0.09163318936745596,4.949282777179888,0
1.999415397644043,0.693860843131916,[2.27298293],0.005,0.1,-0.09552170103913454,4.919975176025152,0
2.007335662841797,0.6969872225997028,[2.27335057],0.005,0.1,-0.0958682236721087,4.891191391625211,0
2.0173730850219727,0.7012859943679095,[2.27371446],0.005,0.1,-0.09385796785034285,4.849741075548349,0
2.02636981010437,0.7051939687026428,[2.27407451],0.005,0.1,-0.0903444823580089,4.812541898158304,0
2.036320924758911,0.7091019430373763,[2.27443126],0.005,0.1,-0.08593038536707595,4.775618020239415,0
2.046346664428711,0.7132053160888464,[2.27478575],0.005,0.1,-0.08103380527740991,4.73696406247946,0
2.0575239658355713,0.7176994865737898,[2.27513947],0.005,0.1,-0.07593981018371604,4.694505250142438,0
2.065685510635376,0.7210212647583132,[2.27549253],0.005,0.1,-0.07083882880427582,4.664206058102363,0
2.0734236240386963,0.7239522455093631,[2.27584334],0.005,0.1,-0.06585471835728755,4.638388357837166,0
2.083638906478882,0.7284464159943067,[2.27619111],0.005,0.1,-0.061064964715259115,4.596188235672331,0
2.0923187732696533,0.73176819417883,[2.27653639],0.005,0.1,-0.3325534272584365,4.566462623005271,0
2.1023552417755127,0.7360669659470368,[2.27687908],0.005,0.1,-0.36139166672422884,4.526978318476895,0
2.1136703491210938,0.7407565351487168,[2.27721968],0.005,0.1,-0.026242209181252113,4.483840044458173,0
2.121323347091675,0.743687515899767,[2.27755921],0.005,0.1,-0.1893289229818551,4.458233831347042,0
2.1299989223480225,0.7470092940842904,[2.27789739],0.005,0.1,-0.20355090157846428,4.428977957887312,0
2.137333869934082,0.7499402748353403,[2.27823344],0.005,0.1,-0.16469364868711997,4.403978615999353,0
2.1464152336120605,0.7536528504533371,[2.27856671],0.005,0.1,-0.11415143752179807,4.371057404482876,0
2.1543798446655273,0.7569746286378605,[2.27889723],0.005,0.1,-0.06807987266334829,4.342047038195562,0
2.1623361110687256,0.7602964068223839,[2.27922504],0.005,0.1,-0.031384494766836656,4.3136992550748925,0
2.171983480453491,0.7642043811571174,[2.2795496],0.005,0.1,-0.004303756935244218,4.2792759306491766,0
2.1803693771362305,0.767330760624904,[2.27987104],0.005,0.1,0.014587371690697981,4.252447458339086,0
2.1903021335601807,0.7716295323931107,[2.28018999],0.005,0.1,0.027077083253163367,4.214880874960426,0
2.1983349323272705,0.774560513144161,[2.28050643],0.005,0.1,0.034807568325302844,4.190678311221356,0
2.206333637237549,0.7778822913286844,[2.28081979],0.005,0.1,0.03911909948393723,4.1623259310594705,0
2.2144901752471924,0.7812040695132076,[2.28113013],0.005,0.1,0.04104110736844188,4.1342231676338725,0
2.2248287200927734,0.7853074425646777,[2.28143809],0.005,0.1,0.041336013972279546,4.099089169568649,0
2.2325499057769775,0.788629220749201,[2.2817442],0.005,0.1,0.04055492954128927,4.071269548022994,0
2.2418408393859863,0.7923417963671978,[2.28204838],0.005,0.1,0.039089122884463756,4.040588759457734,0
2.2513139247894287,0.7964451694186679,[2.28235004],0.005,0.1,0.037212269461125894,4.005856798026465,0
2.2592856884002686,0.7997669476031912,[2.28264826],0.005,0.1,-0.24092524578281127,3.9784404459838316,0
2.2722415924072266,0.8050427129550815,[2.28294223],0.005,0.1,-0.2762431036085467,3.933506282097075,0
2.2872140407562256,0.8111000731739182,[2.28323379],0.005,0.1,-0.22334772151540536,3.8825373227221167,0
2.297419786453247,0.814812648791915,[2.28352596],0.005,0.1,-0.1494176261079178,3.851923504085022,0
2.3080496788024902,0.819502217993595,[2.28382025],0.005,0.1,-0.08096805962736829,3.8135935423050658,0
2.316275119781494,0.8228239961781183,[2.28411691],0.005,0.1,-0.02631702437706563,3.7870192794272306,0
2.3281049728393555,0.8277089640965352,[2.28441557],0.005,0.1,0.013822991412074982,3.747417047474504,0
2.338381767272949,0.8316169384312686,[2.28471634],0.005,0.1,0.04149798003786308,3.71635493674495,0
2.3467135429382324,0.8347433178990552,[2.28501879],0.005,0.1,0.05940300631774413,3.692525883046631,0
2.355156898498535,0.8380650960835787,[2.28532156],0.005,0.1,0.07004731365318953,3.666866927464044,0
2.3633086681365967,0.8417776717015754,[2.28562346],0.005,0.1,0.07549068333093048,3.6386110630709934,0
2.3712832927703857,0.8454902473195721,[2.28592348],0.005,0.1,0.07731922264413194,3.609755076113576,0
2.379779815673828,0.8488120255040955,[2.28622124],0.005,0.1,0.07670853343877047,3.5843455460880733,0
2.3872859477996826,0.8519384049718822,[2.28651642],0.005,0.1,0.07450794119815188,3.5613416887372646,0
2.3962788581848145,0.8554555818731422,[2.28680832],0.005,0.1,0.07131941741159674,3.5344415343643703,0
2.407804012298584,0.860340549791559,[2.28709727],0.005,0.1,0.06756276617765986,3.496206247599532,0
2.4153013229370117,0.8632715305426091,[2.28738351],0.005,0.1,0.06352618844601537,3.474459217553457,0
2.424436330795288,0.8669841061606058,[2.28766596],0.005,0.1,0.05940410988979933,3.4467252939902697,0
2.434859275817871,0.871087479212076,[2.28794464],0.005,0.1,0.05532484567504471,3.41566707221602,0
2.4432902336120605,0.874604656113336,[2.28822046],0.005,0.1,0.051370529730973495,3.390108515343335,0
2.4553024768829346,0.8794896240317529,[2.28849333],0.005,0.1,0.04759132080266413,3.353503665316712,0
2.4652557373046875,0.8833975983664862,[2.28876319],0.005,0.1,0.04401545018008038,3.3246983350150754,0
2.4782097339630127,0.8886733637183762,[2.28903125],0.005,0.1,0.040656284508180096,3.284996249818389,0
2.4902384281158447,0.8937537303535298,[2.28929937],0.005,0.1,0.03751726389391613,3.247663567622545,0
2.498384952545166,0.8968801098213164,[2.28956784],0.005,0.1,0.03459533673822757,3.2259466758471427,0
2.5072805881500244,0.900592685439313,[2.28983564],0.005,0.1,0.03188333579489907,3.199582410293044,0
2.5162909030914307,0.9043052610573099,[2.29010185],0.005,0.1,0.029371611241634118,3.1739150480135727,0
2.5276198387145996,0.9091902289757265,[2.29036615],0.005,0.1,0.027049144016190373,3.138260726048533,0
2.5372917652130127,0.9132936020271968,[2.2906287],0.005,0.1,0.3009426563736648,3.1099863560476866,0
2.547677755355835,0.9173969750786667,[2.29088957],0.005,0.1,0.3320882752537417,3.0806967893263826,0
2.555695056915283,0.9203279558297169,[2.2911488],0.005,0.1,0.2751663455438304,3.0614099312584684,0
2.565281391143799,0.9242359301644503,[2.29140608],0.005,0.1,0.1973998356862934,3.0344245672243115,0
2.577238082885742,0.9293162967996036,[2.29166114],0.005,0.1,0.1253282098659075,2.999133744619916,0
2.5892632007598877,0.9340058660012838,[2.29191453],0.005,0.1,0.06728000709292002,2.966383835631518,0
2.597301721572876,0.9373276441858072,[2.29216747],0.005,0.1,0.023969144983043998,2.943884067682854,0
2.6072120666503906,0.9414310172372772,[2.29242061],0.005,0.1,-0.006654859372240182,2.916957247075487,0
2.616236448287964,0.9449481941385374,[2.29267332],0.005,0.1,-0.02729527639066823,2.893732014502667,0
2.6260595321655273,0.9490515671900073,[2.29292467],0.005,0.1,-0.04047175573631596,2.867121668781803,0
2.6352603435516357,0.9525687440912673,[2.2931739],0.005,0.1,-0.048255655006912854,2.8439778626546954,0
2.6488263607025146,0.9580399081598941,[2.29342112],0.005,0.1,-0.3282834944505701,2.807034852897965,0
2.657015562057495,0.9615570850611541,[2.29366713],0.005,0.1,-0.3627908315235046,2.7843227547436586,0
2.668304920196533,0.9660512555460977,[2.29391264],0.005,0.1,-0.031292323132183775,2.754878872468894,0
2.67737078666687,0.9697638311640945,[2.29415816],0.005,0.1,0.07941249910317609,2.7313517133375975,0
2.685298204421997,0.9728902106318811,[2.29440305],0.005,0.1,0.09703488818229675,2.711771536077595,0
2.6950979232788086,0.9769935836833512,[2.29464567],0.005,0.1,0.08017206120185125,2.6859247769858623,0
2.7071869373321533,0.9818785516017681,[2.29488579],0.005,0.1,0.054446867042171165,2.65462906562941,0
2.7195658683776855,0.9869589182369213,[2.29512459],0.005,0.1,0.03010241513655075,2.6223917500349936,0
2.727254629135132,0.9898898989879715,[2.29536303],0.005,0.1,0.010466779117233444,2.604740165236352,0
2.7352404594421387,0.9932116771724948,[2.29560089],0.005,0.1,-0.004047448692474092,2.5852690689557214,0
2.743882417678833,0.9967288540737549,[2.29583725],0.005,0.1,-0.014106310390559818,2.563977481728481,0
2.7512118816375732,0.9998552335415416,[2.29607133],0.005,0.1,-0.020650084753313674,2.5458779602674055,0
2.7616450786590576,1.0039586065930115,[2.2963025],0.005,0.1,-0.02457088284821426,2.52087188699012,0
2.769216537475586,1.0068895873440618,[2.29653026],0.005,0.1,-0.02660728035257319,2.504072658306968,0
2.7799320220947266,1.0107975616787952,[2.2967546],0.005,0.1,-0.027330697976728595,2.4798384700605958,0
2.7902305126190186,1.0152917321637385,[2.29697616],0.005,0.1,-0.02716591835516151,2.452941290105436,0
2.798283100128174,1.0186135103482619,[2.29719521],0.005,0.1,-0.026420456328354235,2.4340741561237644,0
2.8072080612182617,1.0225214846829955,[2.2974113],0.005,0.1,-0.02531260687618942,2.4109590168501143,0
2.816221237182617,1.026234060300992,[2.29762446],0.005,0.1,-0.02399480878644654,2.3891879697247114,0
2.8252146244049072,1.0299466359189888,[2.29783505],0.005,0.1,-0.022571851166964016,2.3676576569622108,0
2.835646390914917,1.034050008970459,[2.29804338],0.005,0.1,0.2549238277660497,2.3439246527969453,0
2.845211982727051,1.0379579833051924,[2.29824974],0.005,0.1,0.2894932983528522,2.3214805423787013,0
2.8548500537872314,1.0416705589231892,[2.2984541],0.005,0.1,-0.0402399488182652,2.3009781229526287,0
2.864267587661743,1.0459693306913957,[2.29865611],0.005,0.1,-0.14810811508042482,2.2763759148632503,0
2.87226939201355,1.0490957101591825,[2.2988558],0.005,0.1,-0.16226347631907462,2.2588040182235645,0
2.8817174434661865,1.0528082857771792,[2.29905361],0.005,0.1,0.13443172568975442,2.2380922481500582,0
2.8922066688537598,1.0569116588286493,[2.29924988],0.005,0.1,0.19719718029551747,2.2152039849095817,0
2.9043450355529785,1.0616012280303293,[2.2994453],0.005,0.1,-0.1056929059797744,2.1886152199950404,0
2.912564516067505,1.0651184049315896,[2.29964041],0.005,0.1,-0.19146828547604344,2.170089799104905,0
2.922288656234741,1.0692217779830595,[2.29983534],0.005,0.1,0.08730057181929626,2.1472332258925304,0
2.931800603866577,1.0729343536010563,[2.30003019],0.005,0.1,0.1534006239347681,2.1279177489835366,0
2.940582275390625,1.0764515305023163,[2.30022474],0.005,0.1,0.13662150339327234,2.10909629397763,0
2.950294256210327,1.0805549035537865,[2.3004188],0.005,0.1,0.0947038641184012,2.0872212627001745,0
2.9595608711242676,1.08446287788852,[2.30061253],0.005,0.1,0.05151952690408798,2.0665751859075585,0
2.968271255493164,1.08798005478978,[2.3008057],0.005,0.1,0.01551410270128142,2.0487911816915307,0
2.978362798690796,1.0918880291245132,[2.30099816],0.005,0.1,-0.01152485014583206,2.027700071306022,0
2.9897806644439697,1.0965775983261934,[2.30119039],0.005,0.1,-0.030400899973590894,2.003379302067554,0
2.9995920658111572,1.1004855726609268,[2.3013828],0.005,0.1,-0.042697234762230134,1.983331854299809,0
3.0091798305511475,1.10439354699566,[2.30157508],0.005,0.1,-0.0500262308812814,1.9640643271753746,0
3.0187830924987793,1.1084969200471304,[2.30176669],0.005,0.1,-0.053762919915540205,1.9431639776555973,0
3.0262508392333984,1.1114279007981802,[2.30195715],0.005,0.1,-0.054987760112996824,1.9291612487790877,0
3.037968158721924,1.116312868716597,[2.30214636],0.005,0.1,-0.054511212226133754,1.9038530798864206,0
3.0471770763397217,1.1200254443345938,[2.3023349],0.005,0.1,-0.052923226927823516,1.8854784772478899,0
3.0565106868743896,1.123542621235854,[2.30252327],0.005,0.1,-0.050643997266668975,1.868311189375222,0
3.06549072265625,1.1274505955705874,[2.3027116],0.005,0.1,-0.04796751258908788,1.8492895950419583,0
3.0731594562530518,1.1305769750383738,[2.30289996],0.005,0.1,-0.04509603373386545,1.8343222385510396,0
3.0821938514709473,1.1344849493731075,[2.3030881],0.005,0.1,-0.0421661953311351,1.8161680797159143,0
3.0901949405670166,1.137806727557631,[2.30327517],0.005,0.1,-0.03926824010668564,1.8008930007514325,0
3.098656415939331,1.141128505742154,[2.30346046],0.005,0.1,-0.03645994387694452,1.7849350714119163,0
3.1112308502197266,1.1462088723773076,[2.3036443],0.005,0.1,-0.3098149344793966,1.760033270974682,0
3.124246120452881,1.151289239012461,[2.30382793],0.005,0.1,-0.3404009163348133,1.735629557275209,0
3.134953737258911,1.1557834094974044,[2.30401238],0.005,0.1,-0.2829191298251976,1.7148598682191607,0
3.1446313858032227,1.1594959851154014,[2.30419789],0.005,0.1,-0.20460603178093606,1.69796638367632,0
3.1548285484313965,1.1634039594501346,[2.30438431],0.005,0.1,-0.13200946766954044,1.680323242415604,0
3.1645166873931885,1.1677027312183414,[2.30457153],0.005,0.1,-0.07346286105375152,1.6609265153436477,0
3.1721534729003906,1.170829110686128,[2.3047591],0.005,0.1,-0.029682641675826224,1.6476271882411828,0
3.180163621902466,1.1743462875873882,[2.30494638],0.005,0.1,0.0013807510297977402,1.6319863281757323,0
3.1881604194641113,1.1774726670551747,[2.30513279],0.005,0.1,0.022430711920521193,1.61880744699372,0
3.1961612701416016,1.1805990465229617,[2.30531785],0.005,0.1,0.03598768665458633,1.605031035903437,0
3.204141616821289,1.183920824707485,[2.30550114],0.005,0.1,0.044124242406846675,1.5910816262500387,0
3.2127585411071777,1.1872426028920084,[2.30568268],0.005,0.1,0.04843998674511773,1.5759320587846517,0
3.2223961353302,1.1913459759434786,[2.30586276],0.005,0.1,0.0501241585429479,1.5587607441645732,0
3.233306646347046,1.1958401464284218,[2.30604166],0.005,0.1,0.05003948143860968,1.538773356117982,0
3.241152286529541,1.199357323329682,[2.3062193],0.005,0.1,-0.2272375098184155,1.5238598814138664,0
3.2491488456726074,1.2026791015142053,[2.30639503],0.005,0.1,-0.2623225880971938,1.509990208561768,0
3.261145830154419,1.2073686707158855,[2.30656924],0.005,0.1,-0.20960783446676914,1.4895157498634848,0
3.2701640129089355,1.2108858476171456,[2.30674311],0.005,0.1,-0.13612204413785706,1.475581784280873,0
3.278184652328491,1.2140122270849323,[2.3069165],0.005,0.1,-0.06827681562489107,1.4633928150933753,0
3.290173053741455,1.2187017962866122,[2.30708867],0.005,0.1,-0.2903574793251613,1.4440425541034267,0
3.299450159072876,1.2226097706213457,[2.3072596],0.005,0.1,-0.28407630478459356,1.4280803943099734,0
3.3142504692077637,1.2286671308401824,[2.30743013],0.005,0.1,0.07399123384287784,1.4026319017633033,0
3.3242688179016113,1.2325751051749159,[2.30760155],0.005,0.1,-0.07566346479623834,1.3872106194985396,0
3.3325510025024414,1.2360922820761762,[2.30777405],0.005,0.1,-0.08342400983757238,1.373984818754036,0
3.3406951427459717,1.2392186615439627,[2.30794693],0.005,0.1,-0.04301904574451948,1.3618971127008246,0
3.348637342453003,1.2429312371619592,[2.30811985],0.005,0.1,0.005734497661016781,1.3475288684201627,0
3.3582305908203125,1.246839211496693,[2.30829252],0.005,0.1,0.04784429638629534,1.3329594373947349,0
3.3691487312316895,1.2513333819816361,[2.30846468],0.005,0.1,0.079239816009999,1.3150967438277317,0
3.378671407699585,1.2552413563163693,[2.30863668],0.005,0.1,0.10026931124238529,1.3003234389840281,0
3.3861148357391357,1.2583677357841563,[2.30880852],0.005,0.1,0.1127621107917354,1.2891882461123951,0
3.397160291671753,1.262666507552363,[2.30897988],0.005,0.1,0.39481767676581025,1.2725823784122605,0
3.405149221420288,1.2657928870201498,[2.30915081],0.005,0.1,0.4293057241938427,1.2616097823992256,0
3.4131617546081543,1.2689192664879365,[2.30932079],0.005,0.1,0.09633427326974747,1.25064481157434,0
3.4236814975738525,1.2732180382561433,[2.30948912],0.005,0.1,-0.016812212048788577,1.23469677370008,0
3.4349207878112793,1.27810300617456,[2.30965599],0.005,0.1,0.23856287999145248,1.216306686543769,0
3.444197654724121,1.281815581792557,[2.30982187],0.005,0.1,0.2851795382149901,1.2034910050147551,0
3.4541029930114746,1.285918954844027,[2.30998662],0.005,0.1,0.2522966612285205,1.188768948697452,0
3.463815212249756,1.2900223278954968,[2.31015041],0.005,0.1,0.19703512059718886,1.1737774071937233,0
3.4711475372314453,1.292953308646547,[2.31031336],0.005,0.1,0.14270292154486847,1.1636167563862354,0
3.4811348915100098,1.2970566816980171,[2.31047506],0.005,0.1,0.0972806532424854,1.1490709087211317,0
3.4894630908966064,1.3001830611658038,[2.31063544],0.005,0.1,0.062190245780115117,1.1389333756985007,0
3.499154806137085,1.304091035500537,[2.31079444],0.005,0.1,0.03634759197666797,1.125619338458262,0
3.507126808166504,1.3076082124017971,[2.31095198],0.005,0.1,0.017956647970375644,1.1137127481181903,0
3.517599582672119,1.3119069841700037,[2.31110853],0.005,0.1,0.005243954104321536,1.0988133935946278,0
3.52978777885437,1.3167919520884206,[2.31126477],0.005,0.1,-0.0032878588312840852,1.08251489087244,0
3.5387420654296875,1.3199183315562075,[2.31142099],0.005,0.1,-0.008812929343618114,1.0723335888947323,0
3.5462303161621094,1.3230447110239942,[2.31157689],0.005,0.1,-0.01221431024613517,1.0626728433636723,0
3.5559096336364746,1.3269526853587275,[2.31173173],0.005,0.1,-0.014139028999862632,1.0503375313457572,0
3.565143346786499,1.3310560584101976,[2.3118849],0.005,0.1,-0.015052897630400021,1.036863536609777,0
3.574023485183716,1.3349640327449313,[2.31203637],0.005,0.1,-0.015287002710003205,1.0242138461021149,0
3.5834856033325195,1.3386766083629278,[2.31218639],0.005,0.1,-0.015074299928500989,1.0123249841983941,0
3.5921359062194824,1.3423891839809245,[2.31233492],0.005,0.1,-0.014577246945142841,1.001021344699542,0
3.6025500297546387,1.3466879557491311,[2.31248197],0.005,0.1,-0.013908146300223462,0.9869664463872126,0
3.6112818717956543,1.3500097339336545,[2.31262801],0.005,0.1,-0.013143877675240018,0.9767069408194069,0
3.6194851398468018,1.3533315121181781,[2.31277318],0.005,0.1,-0.012336449467289946,0.966999363819236,0
3.627167224884033,1.3566532903027015,[2.31291714],0.005,0.1,-0.011520497839530974,0.9568027829729461,0
3.636087417602539,1.3603658659206983,[2.31305959],0.005,0.1,-0.010718586505763404,0.9459093910941755,0
3.6472458839416504,1.3648600364056418,[2.31320035],0.005,0.1,-0.009944936262117647,0.9321594546674304,0
3.655418634414673,1.368181814590165,[2.31333947],0.005,0.1,-0.009208040400555135,0.9221816454621942,0
3.6681017875671387,1.3730667825085818,[2.31347744],0.005,0.1,-0.008512493178896987,0.9072361284910255,0
3.678954601287842,1.3775609529935253,[2.31361516],0.005,0.1,-0.007860264273336266,0.8937238972329256,0
3.6895194053649902,1.381859724761732,[2.31375336],0.005,0.1,-0.007251584186285461,0.8814044454436761,0
3.701456308364868,1.3863538952466754,[2.31389218],0.005,0.1,0.269352802653624,0.8686091777405364,0
3.713531970977783,1.3916296605985656,[2.31403173],0.005,0.1,0.30300238025786447,0.8533187772624514,0
3.7223448753356934,1.3951468374998257,[2.31417208],0.005,0.1,-0.02764729869851676,0.8439669259945497,0
3.732097864151001,1.3994456092680323,[2.3143128],0.005,0.1,-0.13640777200251053,0.8320301534536331,0
3.7416226863861084,1.4033535836027657,[2.31445355],0.005,0.1,0.1246198217839932,0.8212971950683863,0
3.752079963684082,1.407261557937499,[2.31459425],0.005,0.1,-0.09844822686453948,0.8106698877090849,0
3.7610929012298584,1.410778734838759,[2.31473482],0.005,0.1,-0.15779240473291833,0.8011961454125837,0
3.770085096359253,1.414491310456756,[2.31487498],0.005,0.1,-0.15124859355830733,0.791680584545136,0
3.7795298099517822,1.4183992847914892,[2.31501427],0.005,0.1,0.15312116876638307,0.7812538481358761,0
3.789079427719116,1.422111860409486,[2.31515248],0.005,0.1,0.2176848188158515,0.7714472713451087,0
3.7990882396698,1.4262152334609561,[2.3152897],0.005,0.1,0.19015158937748589,0.7606980761837818,0
3.8100838661193848,1.4307094039458996,[2.31542602],0.005,0.1,0.135912659264814,0.7490491190367878,0
3.820094585418701,1.4348127769973695,[2.31556149],0.005,0.1,0.08174893834520883,0.7385179666939508,0
3.8280699253082275,1.4381345551818931,[2.31569621],0.005,0.1,0.036919554500373555,0.7301410407513409,0
3.8365228176116943,1.4418471307998897,[2.31583021],0.005,0.1,0.0031703754700983973,0.7208740269088448,0
3.844078302383423,1.44477811155094,[2.31596351],0.005,0.1,-0.02063667809971402,0.7136455596032919,0
3.8531007766723633,1.4486860858856732,[2.31609594],0.005,0.1,-0.03647138695587976,0.704379624807682,0
3.861332654953003,1.4520078640701966,[2.31622715],0.005,0.1,-0.04629274948803253,0.6961882267443691,0
3.8710789680480957,1.4561112371216667,[2.31635707],0.005,0.1,-0.051756242628907836,0.6861539255151001,0
3.8795783519744873,1.45943301530619,[2.31648566],0.005,0.1,-0.054157363217551796,0.6784908414353151,0
3.889427900314331,1.4633409896409235,[2.31661272],0.005,0.1,-0.054466298573851005,0.6690548835612454,0
3.8986146450042725,1.4668581665421834,[2.31673825],0.005,0.1,-0.053389256984788816,0.6607002036532916,0
3.9091901779174805,1.4709615395936537,[2.31686246],0.005,0.1,0.22460846204136842,0.6510401885593775,0
3.9188411235809326,1.4744787164949138,[2.31698556],0.005,0.1,0.260221411363991,0.6428719144175562,0
3.929349899291992,1.478972886979857,[2.31710795],0.005,0.1,0.20789734753443911,0.6321919178692323,0
3.9370508193969727,1.482490063881117,[2.31723014],0.005,0.1,0.13470436942715877,0.6242823297641071,0
3.947596311569214,1.4867888356493237,[2.3173524],0.005,0.1,0.06708181432961721,0.6146447416462878,0
3.955667018890381,1.4901106138338471,[2.31747452],0.005,0.1,0.013296239137822283,0.6076586679422737,0
3.963052272796631,1.4930415945848974,[2.31759612],0.005,0.1,-0.025974124107495028,0.6011689852315617,0
3.9710733890533447,1.496167974052684,[2.31771669],0.005,0.1,-0.05279753060023638,0.5943653377805934,0
3.984351873397827,1.5016391381213108,[2.31783601],0.005,0.1,-0.0698829994177679,0.5817731110700531,0
3.9930624961853027,1.5053517137393075,[2.31795452],0.005,0.1,-0.07974801723555089,0.5742314737521675,0
4.0030517578125,1.5094550867907774,[2.31807257],0.005,0.1,-0.08445672023917628,0.5652424053070387,0
4.011045455932617,1.5127768649753008,[2.31819005],0.005,0.1,-0.08559695565913053,0.5582744673624129,0
4.022100210189819,1.5170756367435079,[2.31830672],0.005,0.1,-0.08434433631938186,0.5491379478716192,0
4.030437231063843,1.5202020162112944,[2.31842272],0.005,0.1,-0.08154708338578176,0.5428803244730094,0
4.040060997009277,1.524109990546028,[2.31853839],0.005,0.1,-0.07780537149171954,0.5350243729181412,0
4.0490710735321045,1.5278225661640248,[2.31865361],0.005,0.1,-0.07353680461436296,0.527901859388993,0
4.059059381484985,1.5321213379322314,[2.31876829],0.005,0.1,-0.34506553616233754,0.5189422534361648,0
4.070150136947632,1.5368109071339113,[2.31888275],0.005,0.1,-0.3736313926965957,0.5096907096198535,0
4.078023910522461,1.5399372866016983,[2.31899705],0.005,0.1,-0.31405211402256894,0.5039168893354434,0
4.090055227279663,1.544626855803378,[2.31911067],0.005,0.1,-0.2336415393911588,0.4950902797240247,0
4.100061655044556,1.5487302288548483,[2.31922316],0.005,0.1,-0.15899759816887848,0.487086852401079,0
4.109424829483032,1.5524428044728453,[2.31933471],0.005,0.1,-0.09848489055842474,0.4796858340220484,0
4.119412183761597,1.556546177524315,[2.31944586],0.005,0.1,-0.052838035930340886,0.4720179458993508,0
4.1287267208099365,1.560258753142312,[2.3195569],0.005,0.1,-0.020016831910758665,0.4651618313129797,0
4.1362996101379395,1.5635805313268354,[2.31966768],0.005,0.1,0.0026786858321111977,0.459372514118189,0
4.146515607833862,1.5674885056615686,[2.31977792],0.005,0.1,0.017769439992755754,0.4522117845988695,0
4.155093431472778,1.5710056825628287,[2.31988755],0.005,0.1,0.027330983709484828,0.4458562272100534,0
4.165000677108765,1.5747182581808254,[2.31999669],0.005,0.1,0.03296745655260415,0.43922771756187695,0
4.1745805740356445,1.5788216312322956,[2.32010543],0.005,0.1,0.3119118769342503,0.4319905666116626,0
4.184326648712158,1.5825342068502923,[2.32021405],0.005,0.1,0.07004235467022875,0.42523454804424354,0
4.192020654678345,1.5856605863180788,[2.32032276],0.005,0.1,-0.018376196472883334,0.4202055015837758,0
4.200052261352539,1.589177763219339,[2.3204312],0.005,0.1,-0.04036349584024328,0.41445573474280983,0
4.208877801895142,1.5928903388373359,[2.3205389],0.005,0.1,-0.036297983305926415,0.4080856888367971,0
4.2180750370025635,1.596798313172069,[2.32064582],0.005,0.1,-0.02418033692105875,0.4014735100758747,0
4.226560115814209,1.600510888790066,[2.32075209],0.005,0.1,-0.011482092206425877,0.39528366588046326,0
4.235005855560303,1.6034418695411163,[2.32085784],0.005,0.1,-0.2769101358976282,0.3904511756903616,0
4.246766567230225,1.6083268374595328,[2.32096317],0.005,0.1,-0.3021022348446929,0.3824829263889453,0
4.257405996322632,1.6124302105110029,[2.32106836],0.005,0.1,-0.24152663396599677,0.3756317764179457,0
4.2650306224823,1.6153611912620527,[2.32117345],0.005,0.1,-0.161944878302906,0.37100555821447817,0
4.276008367538452,1.620050760463733,[2.32127795],0.005,0.1,-0.08942033583551573,0.3637137573837022,0
4.28800892829895,1.6249357283821497,[2.32138183],0.005,0.1,-0.031874835055922444,0.35594727818813204,0
4.2970290184021,1.62845290528341,[2.32148554],0.005,0.1,0.010296267172791803,0.35067330564188187,0
4.304992437362671,1.6313838860344596,[2.32158916],0.005,0.1,0.03938074843853404,0.34658346864490397,0
4.315136432647705,1.63548725908593,[2.32169238],0.005,0.1,-0.2177856423461008,0.34042647426915845,0
4.325042963027954,1.6397860308541365,[2.32179512],0.005,0.1,-0.2396114122951768,0.3340403400294272,0
4.334757089614868,1.6438894039056067,[2.32189749],0.005,0.1,0.09740309058129029,0.32805486406825063,0
4.343984127044678,1.6476019795236037,[2.32199958],0.005,0.1,0.20872420899548827,0.3227060392031349,0
4.354305744171143,1.6520961500085467,[2.32210165],0.005,0.1,0.2237163546061388,0.31610153734262053,0
4.362015962600708,1.6552225294763336,[2.32220388],0.005,0.1,0.202157467052843,0.31199296546087774,0
4.3709001541137695,1.6587397063775937,[2.32230611],0.005,0.1,0.17049944585115862,0.3071128256919679,0
4.381090879440308,1.6630384781458003,[2.32240835],0.005,0.1,0.13955853429280257,0.30095697800691507,0
4.393413066864014,1.6679234460642172,[2.32251096],0.005,0.1,0.11305260282419229,0.2943929687147987,0
4.403095483779907,1.6718314203989504,[2.32261386],0.005,0.1,-0.18438412898893417,0.2893869614587699,0
4.411152124404907,1.6751531985834738,[2.32271668],0.005,0.1,0.04174172943651287,0.2849966630082693,0
4.421022653579712,1.679256571634944,[2.32281926],0.005,0.1,0.11695156838613763,0.2796296711279623,0
4.42998743057251,1.6825783498194673,[2.32292144],0.005,0.1,0.12787316084351524,0.2755660585332653,0
4.440080404281616,1.6866817228709376,[2.32302296],0.005,0.1,0.11448435743331532,0.2702645418824337,0
4.4502222537994385,1.6909804946391442,[2.32312374],0.005,0.1,-0.1816006927660928,0.26476114531731504,0
4.460074424743652,1.6950838676906144,[2.32322393],0.005,0.1,0.041798152776624325,0.2596475543891861,0
4.471045017242432,1.6993826394588212,[2.3233236],0.005,0.1,0.11348509458335014,0.2543593770740989,0
4.486221075057983,1.7056353983943944,[2.32342316],0.005,0.1,0.12133846330874873,0.24639681072275318,0
4.494975805282593,1.708957176578918,[2.32352309],0.005,0.1,0.10568921988446917,0.24274997548338345,0
4.5099523067474365,1.7152099355144914,[2.32362362],0.005,0.1,0.08417722095995944,0.2350783435288291,0
4.519054651260376,1.7191179098492249,[2.32372513],0.005,0.1,0.06385456790846297,0.23070066538359035,0
4.528268814086914,1.7224396880337483,[2.32382772],0.005,0.1,0.04700993349306946,0.2270636388594491,0
4.536327600479126,1.7257614662182716,[2.32393099],0.005,0.1,0.03392158241539911,0.22362596220853245,0
4.546008348464966,1.729669440553005,[2.32403442],0.005,0.1,0.02412248228830483,0.21933001158416163,0
4.5543599128723145,1.7329912187375285,[2.32413757],0.005,0.1,0.0169548802040176,0.21590291570424772,0
4.564202547073364,1.7368991930722617,[2.32424007],0.005,0.1,0.011793006323037307,0.211654247516237,0
4.573115825653076,1.7406117686902585,[2.32434175],0.005,0.1,0.00811621688504831,0.20767046331342498,0
4.581295013427734,1.7439335468747819,[2.32444265],0.005,0.1,0.005518820028286515,0.20417586687224357,0
4.588988542556763,1.7466691289090954,[2.32454261],0.005,0.1,0.0036962671451185223,0.2015396350735429,0
4.597072124481201,1.7501863058103553,[2.32464138],0.005,0.1,0.0024251438634782536,0.19786792332500647,0
4.60827374458313,1.754485077578562,[2.3247389],0.005,0.1,-0.27449436706786007,0.19345654924681657,0
4.615967273712158,1.7576114570463488,[2.32483513],0.005,0.1,-0.3082256596620694,0.19047792038502226,0
4.624958276748657,1.7613240326643456,[2.32492989],0.005,0.1,-0.2535426924428551,0.18673792953761803,0
4.63798451423645,1.7664043992994989,[2.32502337],0.005,0.1,0.09830077465256146,0.1815578689391487,0
4.6464903354644775,1.7699215762007592,[2.325116],0.005,0.1,0.20176169498555546,0.17821937960637532,0
4.655126094818115,1.7734387531020193,[2.32520801],0.005,0.1,-0.07287363962072924,0.17490905726566286,0
4.662979602813721,1.776565132569806,[2.32529929],0.005,0.1,-0.1401624113881423,0.17216908137388454,0
4.67205286026001,1.7802777081878027,[2.32538948],0.005,0.1,-0.1262187743490225,0.16887944373586794,0
4.683534145355225,1.7849672773894825,[2.32547843],0.005,0.1,-0.08725296741940036,0.16435575635804467,0
4.690933465957642,1.7875074607070596,[2.32556631],0.005,0.1,-0.046586489492651845,0.16224592769720578,0
4.699721574783325,1.7910246376083194,[2.32565313],0.005,0.1,-0.2885783481157055,0.1590633623217929,0
4.70904278755188,1.7949326119430529,[2.32573893],0.005,0.1,-0.2961064381133003,0.15561361222063771,0
4.718163728713989,1.798449788844313,[2.32582385],0.005,0.1,-0.4991919399352777,0.15253578358148,0
4.72821307182312,1.8021623644623095,[2.32590804],0.005,0.1,-0.4446320200606976,0.149346887716444,0
4.736956596374512,1.8052887439300964,[2.3259915],0.005,0.1,-0.5881794346138314,0.1468543467854803,0
4.745970010757446,1.8082197246811464,[2.32607424],0.005,0.1,-0.7611852488722338,0.14420536776553836,0
4.753958702087402,1.8111507054321965,[2.32615638],0.005,0.1,-0.9016713401402696,0.1419625949139236,0
4.76196551322937,1.8140816861832465,[2.3262379],0.005,0.1,-0.7181353075041036,0.13952511471432927,0
4.7705912590026855,1.8175988630845066,[2.32631879],0.005,0.1,-0.7325567331601976,0.13666855005431533,0
4.778954744338989,1.82033444511882,[2.32639922],0.005,0.1,-1.075228068392612,0.13446458048487625,0
4.788293123245239,1.82385162202008,[2.32647928],0.005,0.1,-1.169547224314885,0.1316827190827647,0
4.798991918563843,1.8273687989213399,[2.32655906],0.005,0.1,-1.427980131861098,0.12891742589989086,0
4.8090550899505615,1.8308859758226002,[2.32663866],0.005,0.1,-1.6730196534140567,0.1261758088215596,0
4.8170082569122314,1.8332307604234404,[2.32671806],0.005,0.1,-1.5710744000624624,0.12452399735504385,0
4.828501462936401,1.836943336041437,[2.32679719],0.005,0.1,-1.6339551142064388,0.12157268515425876,0
4.83794379234314,1.8400697155092236,[2.32687628],0.005,0.1,-1.7183549928260735,0.11924928693734847,0
4.8485188484191895,1.8431960949770103,[2.32695553],0.005,0.1,-2.049066165233927,0.11694984329815888,0
4.8561341762542725,1.8459316770113239,[2.32703482],0.005,0.1,-1.8195889381439683,0.11508925416288375,0
4.865105152130127,1.8484718603289005,[2.32711392],0.005,0.1,-1.70753501198363,0.11323528586799726,0
4.873563766479492,1.8508166449297407,[2.32719263],0.005,0.1,-1.6340912145493687,0.11166814401775725,0
4.882483005523682,1.8531614295305805,[2.32727079],0.005,0.1,-1.5674251055028803,0.10996729308920829,0
4.889962911605835,1.8553108154146838,[2.32734841],0.005,0.1,-1.4967988715699967,0.10843958619571055,0
4.8979034423828125,1.857069403865314,[2.3274255],0.005,0.1,-1.6963932350907613,0.1072920907100849,0
4.908409118652344,1.8598049858996273,[2.32750207],0.005,0.1,-1.648680623422908,0.10528731770842092,0
4.916921138763428,1.8615635743502574,[2.32757829],0.005,0.1,-1.7866547541587747,0.10416453375886489,0
4.926736354827881,1.864103757667834,[2.32765415],0.005,0.1,-1.66072671438031,0.1024374120219397,0
4.936965703964233,1.866643940985411,[2.32772968],0.005,0.1,-1.7298581423602153,0.10072998523195081,0
4.9462058544158936,1.8685979281527776,[2.32780499],0.005,0.1,-1.8279054499338403,0.0994197614042437,0
4.953908205032349,1.870161117886671,[2.32788008],0.005,0.1,-1.6186614572197213,0.09846956267266929,0
4.961943626403809,1.8719197063373008,[2.32795482],0.005,0.1,-1.33080208694202,0.09731546833624388,0
4.969993829727173,1.8734828960711942,[2.3280292],0.005,0.1,-1.3323905800770097,0.0962924324079383,0
4.977973937988281,1.8748506870883508,[2.32810322],0.005,0.1,-1.1348524248955971,0.09548317958540185,0
4.98901891708374,1.8770000729724543,[2.32817679],0.005,0.1,-1.4491862286993968,0.09408382060373932,0
5.0005457401275635,1.8787586614230845,[2.3282501],0.005,0.1,-1.575190786150644,0.09290940293195282,0
5.009228467941284,1.8803218511569777,[2.32832355],0.005,0.1,-1.3216718112481352,0.09195089849728116,0
5.016938209533691,1.8814942434573978,[2.32839735],0.005,0.1,-1.5303315217816238,0.09123589115516526,0
5.025918960571289,1.8828620344745544,[2.3284714],0.005,0.1,-1.2777267264053145,0.09045806317734156,0
5.0352466106414795,1.8842298254917114,[2.32854546],0.005,0.1,-1.461333669888115,0.08961710469471289,0
5.044961452484131,1.8854022177921312,[2.32861947],0.005,0.1,-1.1809027506257423,0.08891560336141424,0
5.0546863079071045,1.8865746100925513,[2.32869338],0.005,0.1,-1.342239400569155,0.08825236849142151,0
5.0667619705200195,1.887747002392971,[2.32876712],0.005,0.1,-1.5990643715007573,0.08751852355318533,0
5.07601261138916,1.8887239959766546,[2.32884087],0.005,0.1,-1.2665743454982166,0.08696157947702916,0
5.083967924118042,1.8893101921268645,[2.32891477],0.005,0.1,-1.068337462955998,0.08663858017864041,0
5.09235405921936,1.8898963882770747,[2.32898867],0.005,0.1,-0.6621366910569553,0.08633988906531846,0
5.100001811981201,1.8904825844272846,[2.32906223],0.005,0.1,-0.5342424128317632,0.08603538823388285,0
5.108935594558716,1.8910687805774946,[2.32913525],0.005,0.1,-0.5138518294783894,0.08569640469916306,0
5.119767665863037,1.891459578010968,[2.32920792],0.005,0.1,-0.8018237844357925,0.08549803528261761,0
5.128883123397827,1.8918503754444413,[2.32928028],0.005,0.1,-0.8487135601954616,0.08531002371347698,0
5.1417176723480225,1.8924365715946512,[2.32935224],0.005,0.1,-1.0749196138154358,0.08499997618138687,0
5.151873350143433,1.8924365715946512,[2.32942393],0.005,0.1,-1.0269489636742162,0.08504061505742426,0
5.1604132652282715,1.8926319703113879,[2.32949544],0.005,0.1,-0.6114460912059158,0.08497162032340164,0
5.170070171356201,1.8928273690281245,[2.32956664],0.005,0.1,-0.42524439550149046,0.08489641408621174,0
5.178954362869263,1.8928273690281245,[2.32963724],0.005,0.1,-0.3431530681528687,0.08494069160337962,0
5.1876442432403564,1.8928273690281245,[2.32970708],0.005,0.1,-0.030026435114510974,0.08498945409902538,0
5.195937633514404,1.8928273690281245,[2.32977604],0.005,0.1,0.022321463621313598,0.08503026602607675,0
5.204859972000122,1.8926319703113879,[2.32984397],0.005,0.1,0.25652301126716925,0.08519640336845141,0
5.213933229446411,1.8928273690281245,[2.32991085],0.005,0.1,0.7777432233527982,0.08513221866093337,0
5.225895404815674,1.8928273690281245,[2.32997684],0.005,0.1,1.0069803267328636,0.08519816284941598,0
5.234935998916626,1.8928273690281245,[2.33004207],0.005,0.1,1.3625984152254018,0.08522303125642099,0
5.243989706039429,1.8928273690281245,[2.33010646],0.005,0.1,1.6749925631278693,0.08526930635676117,0
5.254724979400635,1.8928273690281245,[2.33017004],0.005,0.1,2.17005216298001,0.08532698547754908,0
5.262899875640869,1.8928273690281245,[2.33023289],0.005,0.1,2.6038280884322873,0.08534402038020542,0
5.270900249481201,1.8926319703113879,[2.33029482],0.005,0.1,2.904207307830684,0.08548071045542827,0
5.279296875,1.8928273690281245,[2.3303556],0.005,0.1,3.0697102485000642,0.0854067296103581,0
5.288300514221191,1.8926319703113879,[2.33041518],0.005,0.1,3.123500945709524,0.08555696369540251,0
5.298548221588135,1.8926319703113879,[2.33047358],0.005,0.1,3.093618056706579,0.0855931089279805,0
5.307361125946045,1.8926319703113879,[2.3305308],0.005,0.1,3.005346605173316,0.08561971861712883,0
5.3159565925598145,1.8926319703113879,[2.33058671],0.005,0.1,2.87898145303453,0.08564364197481934,0
5.324853420257568,1.8926319703113879,[2.33064118],0.005,0.1,2.7298117307707237,0.0856785513858508,0
5.333844423294067,1.8926319703113879,[2.33069421],0.005,0.1,2.568883443387528,0.0857122318595435,0
5.34386134147644,1.8928273690281245,[2.33074589],0.005,0.1,2.4039186713180514,0.08562853966536065,0
5.354014158248901,1.8928273690281245,[2.33079627],0.005,0.1,2.2401504338169804,0.0856565223132939,0
5.366692066192627,1.8928273690281245,[2.33084545],0.005,0.1,2.0810016403663294,0.08569214646744677,0
5.375872373580933,1.8926319703113879,[2.33089712],0.005,0.1,1.9286065589711443,0.08829784350081274,0
5.383926868438721,1.8928273690281245,[2.33096473],0.005,0.1,1.7841979596152513,0.10055387980427707,0
5.394313335418701,1.8926319703113879,[2.331058],0.005,0.1,1.6483882658382445,0.0868282539531338,0
5.40536904335022,1.8926319703113879,[2.33117128],0.005,0.1,1.521370602285212,0.08775752594845894,0
5.414262771606445,1.8926319703113879,[2.33129934],0.005,0.1,1.4030608813119525,0.08720981123893118,0
5.424258232116699,1.8926319703113879,[2.33144117],0.005,0.1,1.293197234258559,0.08698950872229251,0
5.431890487670898,1.8926319703113879,[2.33159399],0.005,0.1,1.191408949136401,0.08664668308289161,0
5.440992593765259,1.8926319703113879,[2.33175439],0.005,0.1,1.0972637973396768,0.0864794475317637,0
5.449930191040039,1.8926319703113879,[2.33191846],0.005,0.1,1.0103001477470408,0.08642708725377624,0
5.457863092422485,1.8926319703113879,[2.33208231],0.005,0.1,0.930048433513758,0.0865027476890769,0
5.46688175201416,1.8926319703113879,[2.33224208],0.005,0.1,0.8560452069683491,0.08669004230377926,0
5.477985620498657,1.8928273690281245,[2.33239342],0.005,0.1,0.7878420640184381,0.0869532085189219,0
5.485947132110596,1.8928273690281245,[2.33253144],0.005,0.1,0.7250110403785429,0.08755664397409567,0
5.494247198104858,1.8926319703113879,[2.33265189],0.005,0.1,0.6671476011635086,0.08776971196512559,0
5.503340244293213,1.8926319703113879,[2.33275124],0.005,0.1,0.613872006370175,0.08877943468724059,0
5.510818719863892,1.8926319703113879,[2.33282608],0.005,0.1,0.5648295964149195,0.08877059473863307,0
5.522159099578857,1.8926319703113879,[2.33287187],0.005,0.1,0.5196903747120447,0.09232046290468598,0
5.529823064804077,1.8926319703113879,[2.3328831],0.005,0.1,0.4781481472534381,0.09161068980686499,0
5.539304733276367,1.8926319703113879,[2.33285572],0.005,0.1,0.43991939739158104,0.09403989532823272,0
5.548269271850586,1.8926319703113879,[2.33278541],0.005,0.1,0.4047420170209297,0.09694926233065365,0
5.556488037109375,1.8926319703113879,[2.33266624],0.005,0.1,0.37237397569262004,0.10042625339852461,0
5.563811540603638,1.8926319703113879,[2.33249439],0.005,0.1,0.34259198168001137,0.09813426312065612,0
5.573106288909912,1.8926319703113879,[2.33226793],0.005,0.1,0.31519016998529453,0.1033176294730884,0
5.582361936569214,1.8926319703113879,[2.3319824],0.005,0.1,0.2899788391791107,0.10921745006268035,0
5.590489387512207,1.8926319703113879,[2.331631],0.005,0.1,0.2667832500020608,0.11562214664280987,0
5.5999250411987305,1.8926319703113879,[2.33120707],0.005,0.1,0.24544249257320613,0.12251064559533915,0
5.609822750091553,1.8926319703113879,[2.33070416],0.005,0.1,0.2258084249678749,0.12994996066987902,0
5.620012521743774,1.8926319703113879,[2.33011606],0.005,0.1,0.20774468323111656,0.13784670173584024,0
5.627824306488037,1.8926319703113879,[2.3294405],0.005,0.1,0.1911257611552491,0.1264012138947191,0
5.638022422790527,1.8926319703113879,[2.32867875],0.005,0.1,0.17583615707074024,0.13815973453651653,0
5.646657228469849,1.8926319703113879,[2.32782819],0.005,0.1,0.16176958427065688,0.1498694040714858,0
5.655146598815918,1.8926319703113879,[2.32688267],0.005,0.1,0.1488282413649264,0.16121776623729575,0
5.664389133453369,1.8926319703113879,[2.32583669],0.005,0.1,0.13692213874088716,0.17209180166376345,0
5.673818588256836,1.8926319703113879,[2.32468986],0.005,0.1,0.12596847732122934,0.15128256749453345,0
5.687022686004639,1.8926319703113879,[2.32344173],0.005,0.1,0.11589107591126269,0.20315348545327305,0
5.69587779045105,1.8926319703113879,[2.32208784],0.005,0.1,0.10661984358137518,0.17189526991279278,0
5.706279277801514,1.8926319703113879,[2.32062459],0.005,0.1,0.09809029371497505,0.228642552860857,0
5.714808225631714,1.8926319703113879,[2.31904931],0.005,0.1,0.09024309655185427,0.18810116897164036,0
5.723779201507568,1.8926319703113879,[2.31736538],0.005,0.1,0.08302366726156027,0.20161865652884012,0
5.734235048294067,1.8926319703113879,[2.31557612],0.005,0.1,0.0763817867843334,0.2139650131029097,0
5.7438037395477295,1.8926319703113879,[2.31367984],0.005,0.1,0.0702712528741754,0.22442871441345574,0
5.751794815063477,1.8926319703113879,[2.31168093],0.005,0.1,0.06464955896705338,0.186416461118661,0
5.763195991516113,1.8926319703113879,[2.30958359],0.005,0.1,0.059477598675657606,0.25689044016757373,0
5.7722392082214355,1.8928273690281245,[2.30738101],0.005,0.1,0.05471939387978298,0.25959298303900397,0
5.7797956466674805,1.8926319703113879,[2.30507366],0.005,0.1,0.05034184453812486,0.2084095523488357,0
5.78879189491272,1.8926319703113879,[2.30267397],0.005,0.1,0.046314498493182095,0.22292002667842958,0
5.798711776733398,1.8926319703113879,[2.30018759],0.005,0.1,0.042609339676402486,0.23738222250895671,0
5.808792591094971,1.8926319703113879,[2.29761383],0.005,0.1,0.03920059324616286,0.24929485859871883,0
5.817803621292114,1.8926319703113879,[2.29495215],0.005,0.1,0.0360645463071806,0.2589015188780873,0
5.8292763233184814,1.8926319703113879,[2.29220251],0.005,0.1,0.03317938296710363,0.2669056004526553,0
5.8391523361206055,1.8926319703113879,[2.28935891],0.005,0.1,0.030525032584883684,0.3455731092290592,0
5.8468029499053955,1.8928273690281245,[2.28641674],0.005,0.1,0.02808303015669676,0.2606186993470584,0
5.854811668395996,1.8926319703113879,[2.28338512],0.005,0.1,0.025836387869183665,0.27109258067678904,0
5.864436388015747,1.8926319703113879,[2.28027209],0.005,0.1,0.02376947692716483,0.2802895581382773,0
5.873261213302612,1.8926319703113879,[2.27707843],0.005,0.1,0.021867918834252743,0.2879324534235455,0
5.880802631378174,1.8926319703113879,[2.27381178],0.005,0.1,0.020118485370395303,0.22593062288044655,0
5.890206575393677,1.8928273690281245,[2.27049237],0.005,0.1,0.018509006570781625,0.1870375621337666,0
5.898759603500366,1.8926319703113879,[2.26713762],0.005,0.1,0.01702828606613164,0.21891535513138471,0
5.907770156860352,1.8926319703113879,[2.2637487],0.005,0.1,0.015666023195549904,0.24488367623415902,0
5.918076515197754,1.8926319703113879,[2.26031955],0.005,0.1,0.014412741350202082,0.2655212904962053,0
5.925785064697266,1.8926319703113879,[2.25685172],0.005,0.1,0.013259722049393208,0.2123138633253104,0
5.935009241104126,1.8926319703113879,[2.25335349],0.005,0.1,0.012198944290486869,0.24049367202233213,0
5.94493842124939,1.8926319703113879,[2.24982487],0.005,0.1,0.011223028750779507,0.2617594657117797,0
5.954942941665649,1.8926319703113879,[2.24625874],0.005,0.1,0.010325186453189257,0.2793524493454419,0
5.964767217636108,1.8926319703113879,[2.24264882],0.005,0.1,0.009499171538664593,0.2913204970470773,0
5.974236011505127,1.8928273690281245,[2.23898989],0.005,0.1,0.00873923781678276,0.2989166895723655,0
5.9838056564331055,1.8926319703113879,[2.23527806],0.005,0.1,0.00804009879228806,0.3031679646023583,0
5.992395639419556,1.8926319703113879,[2.23151067],0.005,0.1,0.0073968908894985665,0.30450175758394815,0
5.999757289886475,1.8926319703113879,[2.2276936],0.005,0.1,0.006805139618754173,0.23015956499728357,0
6.01072883605957,1.8926319703113879,[2.22383991],0.005,0.1,0.006260728449544674,0.24815621270930346,0
6.019748210906982,1.8926319703113879,[2.21995405],0.005,0.1,0.005759870173784688,0.25956223997277317,0
6.029203653335571,1.8926319703113879,[2.21603323],0.005,0.1,0.005299080560024425,0.2652399788583201,0
6.039096832275391,1.8926319703113879,[2.21206905],0.005,0.1,0.004875154115322232,0.34146471792650807,0
6.046736478805542,1.8926319703113879,[2.20805555],0.005,0.1,0.004485141786166283,0.2441987878020149,0
6.055839776992798,1.8928273690281245,[2.20400322],0.005,0.1,0.004126330443321868,0.24404593002973032,0
6.067482948303223,1.8926319703113879,[2.19991524],0.005,0.1,0.0037962240078903368,0.31180413611168245,0
6.078524589538574,1.8926319703113879,[2.19578166],0.005,0.1,0.0034925260872830572,0.28364829876477626,0
6.086712598800659,1.8928273690281245,[2.19160936],0.005,0.1,0.003213124000317191,0.20141286067387926,0
6.097752809524536,1.8928273690281245,[2.18741258],0.005,0.1,0.002956074080303548,0.2602555439315505,0
6.105754137039185,1.8926319703113879,[2.1831976],0.005,0.1,0.0027195881538874785,0.18587607793708888,0
6.113747835159302,1.8926319703113879,[2.17898335],0.005,0.1,0.002502021101582229,0.1401445133940346,0
6.121754169464111,1.8926319703113879,[2.17480539],0.005,0.1,0.0023018594134596795,0.1369539421403072,0
6.132819175720215,1.8926319703113879,[2.17069358],0.005,0.1,0.0021177106603857227,0.1478357185646799,0
6.142714977264404,1.8926319703113879,[2.16665407],0.005,0.1,0.0019482938075568335,0.15321245840370779,0
6.151713848114014,1.8926319703113879,[2.16267953],0.005,0.1,0.0017924303029536667,0.15421282866000688,0
6.160722970962524,1.8926319703113879,[2.15876402],0.005,0.1,0.0016490358787183438,0.1520316787102639,0
6.169747352600098,1.8926319703113879,[2.1549029],0.005,0.1,0.0015171130084215524,0.14777495320177722,0
6.180429935455322,1.8926319703113879,[2.15108729],0.005,0.1,0.001395743967748302,0.17961352368058986,0
6.191478252410889,1.8926319703113879,[2.14729988],0.005,0.1,0.0012840844503287684,0.19804480125013185,0
6.201002597808838,1.8926319703113879,[2.14352742],0.005,0.1,0.0011813576943026992,0.16795873221071211,0
6.209801912307739,1.8926319703113879,[2.13977556],0.005,0.1,0.0010868490787586458,0.11581371567453273,0
6.220218181610107,1.8926319703113879,[2.13605519],0.005,0.1,0.000999901152458068,0.13781211643116625,0
6.228345632553101,1.8926319703113879,[2.13237098],0.005,0.1,0.000919909060261502,0.09653023417980584,0
6.238171339035034,1.8926319703113879,[2.12873197],0.005,0.1,0.0008463163354406383,0.09270716036050693,0
6.245734691619873,1.8926319703113879,[2.12514616],0.005,0.1,0.0007786110286054253,0.08886615922261937,0
6.254678726196289,1.8926319703113879,[2.12162005],0.005,0.1,0.000716322146317019,0.06576915672874585,0
6.265159368515015,1.8926319703113879,[2.11815911],0.005,0.1,0.0006590163746116773,0.08682483553891718,0
6.273586750030518,1.8926319703113879,[2.11476329],0.005,0.1,0.0006062950646427565,0.06326646356643104,0
6.283806800842285,1.8924365715946512,[2.11143635],0.005,0.1,0.0005577914594713456,0.06467450239732608,0
6.293867111206055,1.8924365715946512,[2.10818067],0.005,0.1,0.0005131681427136436,0.06558698301834856,0
6.3037168979644775,1.8924365715946512,[2.10499361],0.005,0.1,0.0004721146912965563,0.0631317316651031,0
6.312207460403442,1.8924365715946512,[2.10187308],0.005,0.1,-0.2756040141626881,0.062178767000624906,0
6.319758415222168,1.892045774161178,[2.09882071],0.005,0.1,-0.30876336496540924,0.04677285790330123,0
6.328697204589844,1.892045774161178,[2.09584101],0.005,0.1,-0.5297364358822026,0.04940802244656958,0
6.337250232696533,1.8918503754444413,[2.09293297],0.005,0.1,-0.486805444292269,0.05099820869237697,0
6.350642204284668,1.891459578010968,[2.09008705],0.005,0.1,-0.6372509273244304,0.06612921100165162,0
6.360671043395996,1.891264179294231,[2.08729068],0.005,0.1,-0.813731982280903,0.061412470957910255,0
6.369701862335205,1.8910687805774946,[2.08453691],0.005,0.1,-0.9553003071679027,0.0575837809497475,0
6.378410816192627,1.890873381860758,[2.08182741],0.005,0.1,-1.047265147557987,0.042066722854898694,0
6.388331890106201,1.8904825844272846,[2.07916711],0.005,0.1,-1.093217164495254,0.04331026919637624,0
6.397261381149292,1.8902871857105479,[2.07655585],0.005,0.1,-1.1025035630886895,0.043861253000442704,0
6.406768798828125,1.8898963882770747,[2.0739892],0.005,0.1,-0.8089508144069124,0.04392038178658071,0
6.414696931838989,1.889700989560338,[2.07146681],0.005,0.1,-0.4639514727791726,0.03315736821949645,0
6.424099922180176,1.8895055908436014,[2.06899177],0.005,0.1,-0.43840714513743295,0.035489775121494184,0
6.433603525161743,1.8891147934101278,[2.06656252],0.005,0.1,-0.2392815088307881,0.03693982874222767,0
6.44195294380188,1.888919394693391,[2.06417365],0.005,0.1,-0.01922518392633228,0.03761447992434833,0
6.451426982879639,1.888528597259918,[2.06182032],0.005,0.1,-0.11004753649679586,0.03773516513094391,0
6.4618144035339355,1.8881377998264446,[2.05949824],0.005,0.1,-0.006357646109154083,0.037410373230357556,0
6.470094919204712,1.887942401109708,[2.05720731],0.005,0.1,0.1403403990906581,0.027971011525048158,0
6.477678298950195,1.887747002392971,[2.05495091],0.005,0.1,0.27133035676293416,0.029694841657480053,0
6.487372398376465,1.8873562049594979,[2.0527282],0.005,0.1,0.3691182540124562,0.030652402688618414,0
6.495351552963257,1.8869654075260245,[2.05053489],0.005,0.1,0.4332059682802948,0.03091919062159586,0
6.503711938858032,1.8867700088092878,[2.04836743],0.005,0.1,0.4690670862977743,0.030634991133877253,0
6.512158393859863,1.8863792113758147,[2.04622624],0.005,0.1,0.4833968228637501,0.022970994576241955,0
6.52215313911438,1.885988413942341,[2.04411503],0.005,0.1,0.20623168310175524,0.024322617922392084,0
6.530705451965332,1.8857930152256044,[2.04203359],0.005,0.1,0.16143014919839577,0.02499945311902107,0
6.540658712387085,1.8854022177921312,[2.03998162],0.005,0.1,0.1980248260327759,0.01908992394831593,0
6.552107572555542,1.8850114203586577,[2.03795887],0.005,0.1,0.2514997962137761,0.02698485732452626,0
6.5603461265563965,1.8846206229251845,[2.03595879],0.005,0.1,0.29723197896343717,0.02608305721993088,0
6.568770885467529,1.8844252242084478,[2.03397584],0.005,0.1,0.3282150856902102,0.025134391660873702,0
6.576735019683838,1.8840344267749745,[2.03201155],0.005,0.1,0.3446236186312457,0.018607273398090634,0
6.586001396179199,1.8838390280582376,[2.03007018],0.005,0.1,0.3490860341308983,0.01954900171305652,0
6.594784498214722,1.8834482306247644,[2.02815509],0.005,0.1,0.34466490845992315,0.015145492736217861,0
6.6042163372039795,1.8830574331912913,[2.02626885],0.005,0.1,0.3340873175079694,0.01683031150611121,0
6.613677024841309,1.8828620344745544,[2.02441023],0.005,0.1,0.3195280392063213,0.018056049891793394,0
6.621884107589722,1.882471237041081,[2.02257475],0.005,0.1,0.3026185839849026,0.018943394315154568,0
6.630106210708618,1.8820804396076078,[2.0207582],0.005,0.1,0.2845337452795718,0.019552441318415135,0
6.637952566146851,1.8818850408908712,[2.01895668],0.005,0.1,0.26609214750307875,0.01989381010305959,0
6.647257089614868,1.8814942434573978,[2.01716648],0.005,0.1,0.24784647111316976,0.02036256032718709,0
6.659435272216797,1.8811034460239244,[2.01538371],0.005,0.1,0.23015640227046302,0.02111039629252658,0
6.667733669281006,1.880908047307188,[2.01360756],0.005,0.1,0.21324447531082197,0.015999332692650116,0
6.676723480224609,1.8805172498737142,[2.0118405],0.005,0.1,0.19723744245613734,0.017333214361592655,0
6.686020612716675,1.8803218511569777,[2.01008119],0.005,0.1,0.18219627243615769,0.01908068874536698,0
6.694714307785034,1.8799310537235043,[2.00832773],0.005,0.1,0.16813757728352266,0.014926281277671049,0
6.70274019241333,1.8797356550067679,[2.00658086],0.005,0.1,0.15504874018976667,0.0177082201909179,0
6.710630893707275,1.8793448575732945,[2.00484054],0.005,0.1,0.14289849155650636,0.014276608220674301,0
6.720167875289917,1.8791494588565578,[2.00310215],0.005,0.1,0.13164423374916578,0.02449811552811007,0
6.729702949523926,1.8787586614230845,[2.00135307],0.005,0.1,0.12123706316617752,0.02625782843322398,0
6.738325595855713,1.8785632627063478,[1.9995857],0.005,0.1,0.11162517232220526,0.020034938640765068,0
6.7477216720581055,1.8781724652728744,[1.99780062],0.005,0.1,0.3787944784253582,0.023619593918248735,0
6.756458520889282,1.8779770665561377,[1.99599322],0.005,0.1,0.40374126836610746,0.026943705169395513,0
6.764878034591675,1.8775862691226646,[1.99415428],0.005,0.1,0.34110762279342977,0.030050733881557087,0
6.773777961730957,1.8773908704059277,[1.99227491],0.005,0.1,0.2580801781707114,0.03295548681997609,0
6.7841737270355225,1.8770000729724543,[1.99034657],0.005,0.1,0.1811641825941514,0.0357749556212037,0
6.791752099990845,1.8768046742557176,[1.98836644],0.005,0.1,0.11865614257886829,0.027199573232189116,0
6.799633264541626,1.8764138768222445,[1.98633671],0.005,0.1,0.07124011814627645,0.03232885112462643,0
6.8086302280426025,1.8762184781055076,[1.98425894],0.005,0.1,0.03683788595574225,0.025460125474221496,0
6.8177783489227295,1.8758276806720344,[1.98213415],0.005,0.1,0.012720464351889884,0.03182852631467617,0
6.827693223953247,1.8754368832385613,[1.9799569],0.005,0.1,-0.003655583710545178,0.03746274199347419,0
6.8360490798950195,1.8752414845218242,[1.97771614],0.005,0.1,-0.014383593356250318,0.04223276214920316,0
6.844577789306641,1.8748506870883508,[1.97540808],0.005,0.1,-0.2971203693574932,0.03236222783738973,0
6.853823900222778,1.8746552883716143,[1.97303533],0.005,0.1,-0.33412017657401294,0.03893965049198088,0
6.861619234085083,1.8744598896548776,[1.97060001],0.005,0.1,-0.28095327435182427,0.030502046916729232,0
6.87213397026062,1.8740690922214043,[1.968097],0.005,0.1,-0.2054829638203644,0.05383273269717283,0
6.879603385925293,1.8736782947879311,[1.96550795],0.005,0.1,-0.134704519248455,0.056293294970186855,0
6.887633323669434,1.8734828960711942,[1.96282427],0.005,0.1,-0.07726830575320046,0.041366813868663664,0
6.897680759429932,1.8732874973544575,[1.96005259],0.005,0.1,0.24192440811898813,0.047003115072751005,0
6.906597375869751,1.8730920986377209,[1.95719147],0.005,0.1,0.3058146469007291,0.051335788745356346,0
6.9186012744903564,1.872505902487511,[1.95422487],0.005,0.1,0.27168856757200727,0.07377461662741679,0
6.927617311477661,1.8721151050540379,[1.95113939],0.005,0.1,0.20922492607330842,0.051803311114368526,0
6.937626838684082,1.8719197063373008,[1.94793947],0.005,0.1,0.14699398232774924,0.05416623492563346,0
6.946593999862671,1.8715289089038274,[1.94462938],0.005,0.1,0.09489791878242675,0.055779814909907376,0
6.957930088043213,1.8711381114703542,[1.94119724],0.005,0.1,0.05482476370979807,0.0753901365794823,0
6.9664976596832275,1.8709427127536178,[1.93763375],0.005,0.1,0.025578987464663465,0.05110638271063528,0
6.974668264389038,1.8705519153201442,[1.93395674],0.005,0.1,0.005069376838980058,0.036731608405151994,0
6.983630180358887,1.8705519153201442,[1.93019043],0.005,0.1,-0.008791194960429582,0.04034520223073445,0
6.993430852890015,1.870161117886671,[1.92633943],0.005,0.1,-0.01777177327636484,0.042334435544318455,0
7.002623081207275,1.8695749217364608,[1.92239996],0.005,0.1,-0.02326142253127853,0.042849496403824884,0
7.013338088989258,1.869379523019724,[1.91836951],0.005,0.1,-0.02630482219973436,0.041761045898364865,0
7.02498459815979,1.868988725586251,[1.91423814],0.005,0.1,-0.027666625697945656,0.0523256355562998,0
7.032604694366455,1.8687933268695143,[1.90999841],0.005,0.1,-0.02789621305630062,0.033966968683519116,0
7.0422468185424805,1.868402529436041,[1.90567934],0.005,0.1,-0.027382850662865457,0.030162689851751415,0
7.053213596343994,1.8680117320025675,[1.90131485],0.005,0.1,-0.3024375627748228,0.03631059157303853,0
7.066562652587891,1.867620934569094,[1.89689129],0.005,0.1,-0.3342971891442759,0.0374455705002209,0
7.075908660888672,1.8672301371356208,[1.89238061],0.005,0.1,-0.2777831026247094,0.02816581431370708,0
7.083730936050415,1.8668393397021477,[1.8877859],0.005,0.1,-0.2002169597621039,0.01623071525272948,0
7.091714143753052,1.866643940985411,[1.88312812],0.005,0.1,-0.12820701838378465,0.011892607284667756,0
7.099898815155029,1.8662531435519374,[1.87841732],0.005,0.1,-0.07012957852468352,0.007482187961632175,0
7.108625173568726,1.8660577448352007,[1.87366274],0.005,0.1,-0.02673156278570367,0.0025269481197642825,0
7.11860990524292,1.8656669474017276,[1.86888148],0.005,0.1,0.0040148341496190655,-0.0011868825478761696,0
7.126583576202393,1.8654715486849907,[1.86408004],0.005,0.1,0.02479741640265879,-0.005687068941785804,0
7.1379101276397705,1.8650807512515175,[1.85924757],0.005,0.1,0.038125390703088805,-0.014834372117858152,0
7.1460723876953125,1.8648853525347808,[1.85436747],0.005,0.1,0.046063161437265576,-0.019464596759579587,0
7.155109405517578,1.8646899538180441,[1.84943533],0.005,0.1,0.05020435224636326,-0.023839426543174433,0
7.162697076797485,1.8644945551013075,[1.84445715],0.005,0.1,0.3277721255175838,-0.028056659282192562,0
7.17164158821106,1.864103757667834,[1.83944733],0.005,0.1,0.3606737562351855,-0.02288943358708497,0
7.181553602218628,1.8635175615176243,[1.83442713],0.005,0.1,0.3042134941393528,-0.028184983024876886,0
7.189624547958374,1.8633221628008876,[1.8294151],0.005,0.1,0.22605559042613527,-0.023472735200379218,0
7.204197406768799,1.8621497705004673,[1.82441174],0.005,0.1,-0.39902833862485176,-0.05483953578372027,0
7.213475227355957,1.8615635743502574,[1.81940239],0.005,0.1,-1.076668161251408,-0.04059979987176881,0
7.228443384170532,1.8601957833331009,[1.81437609],0.005,0.1,-1.9055977570539178,-0.07508152028402233,0
7.2366623878479,1.8596095871828908,[1.80932515],0.005,0.1,-2.32684050385328,-0.05305684431757287,0
7.245566129684448,1.8584371948824707,[1.80425916],0.005,0.1,-2.7848882370141923,-0.053562620140178464,0
7.254364967346191,1.8572648025820506,[1.79920202],0.005,0.1,-3.4103778073174658,-0.03963676525856548,0
7.263599634170532,1.8560924102816307,[1.79417426],0.005,0.1,-3.6539777374564606,-0.04437865413398712,0
7.273580312728882,1.8547246192644742,[1.7891862],0.005,0.1,-3.960515843565348,-0.04821670267148405,0
7.283608913421631,1.8531614295305805,[1.78423946],0.005,0.1,-3.9055132523744036,-0.05115028118577344,0
7.2927961349487305,1.8515982397966873,[1.77933558],0.005,0.1,-3.6976788899506836,-0.053437522069088556,0
7.301723957061768,1.8500350500627938,[1.77447601],0.005,0.1,-3.435749079371111,-0.05524038398421756,0
7.31154465675354,1.848081062895427,[1.76965536],0.005,0.1,-3.4409765692217054,-0.07487480961908585,0
7.319557189941406,1.8465178731615337,[1.76486923],0.005,0.1,-3.2139054082298477,-0.05241859478390153,0
7.327558755874634,1.8447592847109036,[1.76013412],0.005,0.1,-2.9166107373564305,-0.03872489223442907,0
7.337680101394653,1.8424145001100636,[1.75547043],0.005,0.1,-2.8942291145974863,-0.04403794505670582,0
7.3475141525268555,1.8402651142259603,[1.75088166],0.005,0.1,-3.2059296119591387,-0.04814991969868714,0
7.35810923576355,1.8377249309083836,[1.74635733],0.005,0.1,-2.9754335828000427,-0.06875379933157802,0
7.366553544998169,1.8357709437410168,[1.74188833],0.005,0.1,-2.3024009549691784,-0.04834648564251196,0
7.377199172973633,1.8328399629899665,[1.73747949],0.005,0.1,-1.8631572898729483,-0.05054716270811715,0
7.3876707553863525,1.83029977967239,[1.73313462],0.005,0.1,-1.8363304393457218,-0.05227571130972544,0
7.395705938339233,1.8281503937882868,[1.7288502],0.005,0.1,-1.6493245797590919,-0.05363292424325382,0
7.404525995254517,1.8258056091874466,[1.72462291],0.005,0.1,-1.150441937940982,-0.054534402626825615,0
7.4130613803863525,1.8232654258698702,[1.7204556],0.005,0.1,-0.6321173709345094,-0.03925411381350284,0
7.422692537307739,1.82033444511882,[1.71635646],0.005,0.1,-0.7505054826547535,-0.04326151687091165,0
7.43330454826355,1.8172080656510334,[1.71232572],0.005,0.1,-0.49033855054892017,-0.04671373423812765,0
7.442497253417969,1.8140816861832465,[1.70835669],0.005,0.1,-0.42786290850330766,-0.048759756116398496,0
7.4506518840789795,1.8117369015824063,[1.70444326],0.005,0.1,-0.1597415192650279,-0.050383446887231925,0
7.46366024017334,1.8076335285309364,[1.70057999],0.005,0.1,-0.15046672483348417,-0.050575665288239584,0
7.473520517349243,1.8047025477798866,[1.696762],0.005,0.1,-0.22449714417368963,-0.05084620127041323,0
7.485182762145996,1.801185370878626,[1.69297919],0.005,0.1,-0.03255373726504186,-0.06791136039557093,0
7.492602825164795,1.7986451875610496,[1.68922287],0.005,0.1,0.4849929989089941,-0.04617427722610381,0
7.501071453094482,1.7957142068099994,[1.68549723],0.005,0.1,0.7271918515678649,-0.04715011827002763,0
7.509646415710449,1.7925878273422127,[1.68181133],0.005,0.1,0.8259846015107928,-0.03371869000797236,0
7.518552303314209,1.7894614478744262,[1.6781724],0.005,0.1,0.8499181486719269,-0.03798401756091511,0
7.5286219120025635,1.7859442709731659,[1.67458022],0.005,0.1,0.8350006407926893,-0.04119482443909064,0
7.537867546081543,1.7826224927886425,[1.67102813],0.005,0.1,0.8003874119979083,-0.043799849793969496,0
7.546660900115967,1.779300714604119,[1.66750965],0.005,0.1,0.7564040255953659,-0.045993465114347466,0
7.554542541503906,1.776369733853069,[1.66401831],0.005,0.1,0.9847218032311958,-0.04817877671153501,0
7.562958002090454,1.7732433543852826,[1.66055373],0.005,0.1,0.9694851566191227,-0.034804762785377245,0
7.573165655136108,1.7695307787672858,[1.65712054],0.005,0.1,1.1431234860547044,-0.04043365074368753,0
7.58185338973999,1.7662090005827624,[1.65371546],0.005,0.1,1.0548324336736004,-0.04547719171888974,0
7.59302020072937,1.7619102288145554,[1.65032836],0.005,0.1,1.162355790774482,-0.04957171534618854,0
7.600543260574341,1.7589792480635058,[1.6469559],0.005,0.1,1.2985536803901403,-0.03662380483084753,0
7.6127331256866455,1.7540942801450887,[1.64360062],0.005,0.1,0.8504478069265322,-0.04351305542048338,0
7.628663778305054,1.7480369199262518,[1.64024313],0.005,0.1,0.841207583383728,-0.09412143855947236,0
7.63768458366394,1.7443243443082552,[1.63684534],0.005,0.1,0.9649432505879233,-0.0875503638835592,0
7.646568298339844,1.7408071674069951,[1.63340193],0.005,0.1,1.0964080588368144,-0.08729617678711055,0
7.658297061920166,1.7361175982053152,[1.62993604],0.005,0.1,0.9161880805500773,-0.0827031337763571,0
7.668089151382446,1.7322096238705815,[1.62645255],0.005,0.1,1.210929859264139,-0.08091536126376758,0
7.677135705947876,1.728497048252585,[1.62294059],0.005,0.1,1.3120388677868948,-0.08055295658179987,0
7.685614109039307,1.7249798713513247,[1.61939791],0.005,0.1,1.0398045865966035,-0.05687156273702832,0
7.695553302764893,1.7204857008663814,[1.61582977],0.005,0.1,0.9626389841844519,-0.06367565098193083,0
7.7055675983428955,1.7167731252483849,[1.61223258],0.005,0.1,0.9513952929869351,-0.0699146204676016,0
7.7135396003723145,1.7134513470638615,[1.60859536],0.005,0.1,0.9520980150121905,-0.0753923150803735,0
7.72149395942688,1.710129568879338,[1.60490853],0.005,0.1,0.9450887887302267,-0.08006769336104143,0
7.733536720275879,1.7048538035274479,[1.60115589],0.005,0.1,0.9255870026221671,-0.11346145298209635,0
7.743467092514038,1.7003596330425044,[1.59731586],0.005,0.1,0.8946609075791552,-0.10683851799438183,0
7.752807140350342,1.696451658707771,[1.59337065],0.005,0.1,1.131234571904972,-0.13778218861656633,0
7.76179838180542,1.6927390830897744,[1.58930602],0.005,0.1,1.3954193476627856,-0.12482996444505962,0
7.770946025848389,1.688831108755041,[1.5851276],0.005,0.1,1.6015547617358323,-0.08424558142883463,0
7.779212236404419,1.6851185331370444,[1.58085784],0.005,0.1,1.7306138955316532,-0.08781443151249466,0
7.787562608718872,1.6819921536692575,[1.5765087],0.005,0.1,1.789565864910545,-0.09144602080324879,0
7.797893047332764,1.6776933819010509,[1.57207492],0.005,0.1,1.7932676627863842,-0.12697093165904336,0
7.806468963623047,1.6739808062830537,[1.56756143],0.005,0.1,1.7569563518882734,-0.12825616194368344,0
7.815068483352661,1.6702682306650571,[1.5629981],0.005,0.1,1.6935764928130013,-0.11948406187222813,0
7.825465202331543,1.6659694588968506,[1.55840286],0.005,0.1,1.6131998165352797,-0.11280128295033068,0
7.837874174118042,1.6606936935449603,[1.55376717],0.005,0.1,1.5232633358126357,-0.14246176956129725,0
7.84680962562561,1.6569811179269638,[1.54907675],0.005,0.1,1.429057369366278,-0.12800189529039624,0
7.857477903366089,1.6524869474420203,[1.54432884],0.005,0.1,1.3342270737093243,-0.11690602927944867,0
7.867526054382324,1.6481881756738137,[1.5395305],0.005,0.1,1.2412027753368515,-0.10915298789306194,0
7.876913785934448,1.6440848026223436,[1.53468894],0.005,0.1,1.1515401914767454,-0.10355798397621048,0
7.8855626583099365,1.64017682828761,[1.5298115],0.005,0.1,1.0661774883253068,-0.09930568118869877,0
7.893649101257324,1.6364642526696132,[1.52490559],0.005,0.1,0.9856241305009193,-0.0961978539702649,0
7.902673244476318,1.6329470757683533,[1.5199785],0.005,0.1,0.9100970302924647,-0.0937705106434913,0
7.911628484725952,1.629429898867093,[1.51504477],0.005,0.1,0.8396173697124769,-0.06557389475401398,0
7.922659873962402,1.6249357283821497,[1.51012474],0.005,0.1,0.7740787117663941,-0.07072016245798189,0
7.9343109130859375,1.6198553617469964,[1.5052213],0.005,0.1,0.7132944571370672,-0.1012416049869939,0
7.943903923034668,1.6157519886955263,[1.50032262],0.005,0.1,0.6570305952696363,-0.09537095652500757,0
7.952125787734985,1.6124302105110029,[1.49543366],0.005,0.1,0.6050280664831686,-0.0658430754356869,0
7.9604573249816895,1.6091084323264795,[1.49057338],0.005,0.1,0.5570178306203828,-0.07027858757922621,0
7.971050262451172,1.6044188631247993,[1.4857577],0.005,0.1,0.5127308439254769,-0.05054474788220943,0
7.980457544326782,1.6007062875068025,[1.48099973],0.005,0.1,0.47190450080752466,-0.05843425745935956,0
7.992451190948486,1.595625920871649,[1.4763031],0.005,0.1,0.4342866361041253,-0.06368090281304707,0
8.00204062461853,1.5915225478201793,[1.4716565],0.005,0.1,0.3996378561106517,-0.09287558652443313,0
8.01069712638855,1.5876145734854459,[1.46705013],0.005,0.1,0.3677327353191498,-0.06364218075221424,0
8.02030897140503,1.5833158017172388,[1.46248929],0.005,0.1,0.33836025291716504,-0.066851061566327,0
8.031178951263428,1.5790170299490323,[1.45797808],0.005,0.1,0.31132372869809577,-0.06947254013887677,0
8.040445804595947,1.5751090556142986,[1.45351267],0.005,0.1,0.28644043787108814,-0.07096608924033805,0
8.049561023712158,1.5715918787130385,[1.44908954],0.005,0.1,0.2635410281990593,-0.07239186699257508,0
8.057493448257446,1.5680747018117789,[1.44470531],0.005,0.1,0.24246882375823375,-0.07355965160415526,0
8.065464735031128,1.564948322343992,[1.44036336],0.005,0.1,0.2230790723604737,-0.05244658625103814,0
8.075251817703247,1.5608449492925216,[1.43607279],0.005,0.1,0.20523817473985284,-0.058875737679947165,0
8.085458278656006,1.556741576241052,[1.43183382],0.005,0.1,0.18882292048646396,-0.0638841491884303,0
8.095073699951172,1.5524428044728453,[1.42763912],0.005,0.1,0.17371974665969664,-0.06750153287706599,0
8.102473497390747,1.5493164250050584,[1.42348865],0.005,0.1,0.15982402879748087,-0.04903119037054459,0
8.112440824508667,1.5450176532368518,[1.4193885],0.005,0.1,-0.12899894987455446,-0.05661459383622892,0
8.121540546417236,1.5415004763355917,[1.41532931],0.005,0.1,-0.17388579350260727,-0.0879080659392663,0
8.130021810531616,1.537592502000858,[1.41129568],0.005,0.1,-0.12961007183503626,-0.061074602134482556,0
8.14635419845581,1.530558148198338,[1.40727399],0.005,0.1,-0.0634810703971925,-0.11916147505418688,0
8.155444383621216,1.5266501738636047,[1.40323857],0.005,0.1,-0.2781564099803615,-0.10659238929700632,0
8.16353726387024,1.5233283956790813,[1.39917469],0.005,0.1,-0.26308619625306356,-0.09822769041135102,0
8.171477556228638,1.5200066174945577,[1.39509789],0.005,0.1,0.10229413906575133,-0.09878862924529214,0
8.182831525802612,1.5153170482928777,[1.39102843],0.005,0.1,0.23378618047898098,-0.12223516890580266,0
8.192999839782715,1.5112136752414076,[1.38696273],0.005,0.1,0.2621772692203408,-0.10814216516654146,0
8.203491449356079,1.506914903473201,[1.38289098],0.005,0.1,0.2488294171098662,-0.09810125408894384,0
8.212897300720215,1.5028115304217309,[1.37881215],0.005,0.1,0.22159176494082908,-0.09119903825747093,0
8.222429990768433,1.4987081573702605,[1.37472574],0.005,0.1,0.19239764988568553,-0.08614203677084588,0
8.230684280395508,1.4951909804690007,[1.37063182],0.005,0.1,0.1658116638430514,-0.08270202132728996,0
8.241183519363403,1.4910876074175305,[1.36653093],0.005,0.1,0.14312709272444912,-0.07965735000252011,0
8.249517440795898,1.487375031799534,[1.36243064],0.005,0.1,0.12429132061125939,-0.05521922569619427,0
8.258549451828003,1.483662456181537,[1.35833781],0.005,0.1,0.10878216263197019,-0.08256359579687486,0
8.268524646759033,1.478972886979857,[1.35425189],0.005,0.1,0.09598552846828154,-0.056315697547990415,0
8.279429912567139,1.4744787164949138,[1.35017282],0.005,0.1,0.08534186112272106,-0.08160114139906205,0
8.290432453155518,1.4701799447267068,[1.34610088],0.005,0.1,0.07638964355468518,-0.05551406607054508,0
8.29840874671936,1.4668581665421834,[1.34204295],0.005,0.1,0.06876631843040265,-0.05850378175799504,0
8.308740377426147,1.4625593947739768,[1.33800511],0.005,0.1,0.062194132625357654,-0.060152040682754135,0
8.318416833877563,1.4588468191559802,[1.33398625],0.005,0.1,0.05646279939266463,-0.061215990993606494,0
8.32703447341919,1.45532964225472,[1.3299856],0.005,0.1,0.0514136204096854,-0.06174449889025703,0
8.334451913833618,1.4522032627869332,[1.32601499],0.005,0.1,0.04692647565697378,-0.06217927822990098,0
8.343525648117065,1.4484906871689365,[1.3220966],0.005,0.1,0.04290974572154324,-0.062101810078320926,0
8.352100133895874,1.444582712834203,[1.3182365],0.005,0.1,0.0392927510963771,-0.06154690480671249,0
8.359478950500488,1.4414563333664165,[1.31443319],0.005,0.1,0.036020187206741154,-0.043250635526981746,0
8.372491836547852,1.435789770581053,[1.31068517],0.005,0.1,0.033048074906485876,-0.06483047110333683,0
8.384954690933228,1.4305140052291627,[1.30697321],0.005,0.1,0.030340832456151864,-0.08168066065436942,0
8.394425630569458,1.4266060308944293,[1.30327542],0.005,0.1,0.02786916417361213,-0.07220371842684344,0
8.403388500213623,1.4226980565596958,[1.29958564],0.005,0.1,0.025608537776664695,-0.06528032004714714,0
8.412827253341675,1.4187900822249626,[1.29590503],0.005,0.1,0.02353808342902465,-0.06015732100480182,0
8.420960187911987,1.4154683040404392,[1.29223503],0.005,0.1,0.2976781534847747,-0.05655475316383683,0
8.429104328155518,1.4117557284224425,[1.28857724],0.005,0.1,0.3290609015674134,-0.053573769222773446,0
8.437428951263428,1.4086293489546555,[1.28493878],0.005,0.1,0.2723643390201566,-0.03683613876322923,0
8.44577145576477,1.404916773336659,[1.28133661],0.005,0.1,0.19481021326582376,-0.026768107576408413,0
8.45339035987854,1.4021811913023456,[1.27779019],0.005,0.1,0.12293751349293246,-0.02087755178957563,0
8.462403059005737,1.398468615684349,[1.27431007],0.005,0.1,0.06507479568096952,-0.026861367651826364,0
8.47046160697937,1.394951438783089,[1.2708991],0.005,0.1,0.021936310896550057,-0.02074989402186899,0
8.481854677200317,1.3896756734311988,[1.26755376],0.005,0.1,-0.008527894474642604,-0.03791348109616119,0
8.491311311721802,1.3859630978132023,[1.26426001],0.005,0.1,-0.02902044812061725,-0.039016865577932595,0
8.50342082977295,1.3810781298947854,[1.26100558],0.005,0.1,-0.042060299340879084,-0.03907396612449842,0
8.513428211212158,1.3767793581265784,[1.25778512],0.005,0.1,-0.04971808505614106,-0.03900351492249236,0
8.52341890335083,1.3726759850751085,[1.25459382],0.005,0.1,-0.05359124937223296,-0.038802288256872215,0
8.53443717956543,1.3683772133069014,[1.2514223],0.005,0.1,-0.05486676938521129,-0.05219607379448241,0
8.54437255859375,1.3640784415386948,[1.24826243],0.005,0.1,0.22163326178113466,-0.03455832480750757,0
8.556487321853638,1.3589980749035415,[1.24511231],0.005,0.1,0.2563440556856204,-0.04791062419914079,0
8.56905484199524,1.3535269108349148,[1.2419598],0.005,0.1,-0.07251082399708889,-0.05857467482962246,0
8.576913595199585,1.350400531367128,[1.23878923],0.005,0.1,0.09699542581029093,-0.05213996713789466,0
8.586394309997559,1.346297158315658,[1.23559751],0.005,0.1,0.11756546706161078,-0.04759428523607107,0
8.595396280288696,1.3425845826976612,[1.2323871],0.005,0.1,0.0848589557154591,-0.04491981554416201,0
8.607388019561768,1.337504216062508,[1.22915436],0.005,0.1,0.04019332411998506,-0.057797588448604775,0
8.616899251937866,1.3334008430110378,[1.22589055],0.005,0.1,-0.0003189940819572877,-0.052258770341381794,0
8.625875234603882,1.3292974699595674,[1.22259904],0.005,0.1,-0.03179277698388657,-0.03495020987555418,0
8.634388446807861,1.325584894341571,[1.21929356],0.005,0.1,-0.05399461944407505,-0.03679190105119894,0
8.644132375717163,1.3216769200068375,[1.21598558],0.005,0.1,-0.0683446115811883,-0.02628604914339324,0
8.654372215270996,1.3175735469553675,[1.21268453],0.005,0.1,-0.07661967406924224,-0.03065712429056912,0
8.665264129638672,1.3132747751871607,[1.20939216],0.005,0.1,-0.08044691124882125,-0.034194886794887275,0
8.674432516098022,1.3093668008524273,[1.20610369],0.005,0.1,-0.08114941067984544,-0.03714441869064434,0
8.686335563659668,1.304091035500537,[1.2028085],0.005,0.1,-0.07973847673586892,-0.054336304434411065,0
8.696391344070435,1.2999876624490672,[1.19949102],0.005,0.1,-0.07695823297366058,-0.052018276517695985,0
8.705718040466309,1.296079688114334,[1.19614353],0.005,0.1,-0.07334181896909397,-0.050677228834792344,0
8.716410398483276,1.2915855176293904,[1.19276517],0.005,0.1,-0.06926317497975987,-0.04987704768548355,0
8.727728605270386,1.28689594842771,[1.18934852],0.005,0.1,-0.0649794771935003,-0.06764787665645894,0
8.736422777175903,1.2829879740929768,[1.1858871],0.005,0.1,-0.06066390093771473,-0.04533222918657909,0
8.747654676437378,1.2782984048912969,[1.18238138],0.005,0.1,-0.0564300524921484,-0.06514748069509932,0
8.75537657737732,1.2747812279900368,[1.17883149],0.005,0.1,-0.052349790976144575,-0.04454264385923683,0
8.764718294143677,1.2708732536553033,[1.17524402],0.005,0.1,-0.048466036647833485,-0.04783253841875678,0
8.772361278533936,1.2679422729042533,[1.17163094],0.005,0.1,-0.04480187851653459,-0.034953047883690996,0
8.780333995819092,1.26462049471973,[1.16800218],0.005,0.1,-0.041366997863422,-0.04194582913875261,0
8.789489507675171,1.2609079191017332,[1.16435869],0.005,0.1,-0.03816216790802903,-0.047964147683120975,0
8.799196004867554,1.256804546050263,[1.16069368],0.005,0.1,-0.035182385953946786,-0.05296924632764969,0
8.808522462844849,1.2528965717155296,[1.15700057],0.005,0.1,-0.032419039396031565,-0.057457352865859526,0
8.81703519821167,1.2493793948142695,[1.1532805],0.005,0.1,-0.02986139240899026,-0.04201759796888305,0
8.824429273605347,1.2460576166297461,[1.14954124],0.005,0.1,-0.027497596902466944,-0.05060433653367254,0
8.83335280418396,1.2421496422950127,[1.14578895],0.005,0.1,-0.025315371555990316,-0.03828570071548486,0
8.842985153198242,1.2380462692435428,[1.14202048],0.005,0.1,-0.023302450158264,-0.07108463132722956,0
8.850351333618164,1.2347244910590192,[1.13822475],0.005,0.1,-0.021446870295657505,-0.05169307208018244,0
8.86327600479126,1.2294487257071294,[1.1343916],0.005,0.1,-0.019737152137720267,-0.08561329052674214,0
8.87136197090149,1.226126947522606,[1.13051999],0.005,0.1,-0.01816240207305195,-0.08643326372458782,0
8.881446838378906,1.2220235744711359,[1.12662525],0.005,0.1,-0.016712365421843227,-0.08726231869026256,0
8.894232749938965,1.216552410402509,[1.12270321],0.005,0.1,-0.01537744506838275,-0.11937677380089366,0
8.904906511306763,1.2120582399175657,[1.11871633],0.005,0.1,-0.01414869768915408,-0.1480563110081761,0
8.912360191345215,1.2091272591665154,[1.11464976],0.005,0.1,-0.013017815637494918,-0.15004508073972048,0
8.920443773269653,1.2056100822652553,[1.11053417],0.005,0.1,-0.011977100023388518,-0.09925172145736413,0
8.929728031158447,1.2020929053639953,[1.10639584],0.005,0.1,-0.011019428768533686,-0.09970813576160237,0
8.937936305999756,1.1985757284627352,[1.10223104],0.005,0.1,-0.010138222190654472,-0.10097693728227417,0
8.94699215888977,1.194667754128002,[1.09802801],0.005,0.1,-0.009327407822197325,-0.10196286393690565,0
8.955158233642578,1.191150577226742,[1.09377701],0.005,0.1,-0.008581385581401169,-0.10330243268860488,0
8.964841842651367,1.186851805458535,[1.08947032],0.005,0.1,-0.007894994004466324,-0.1037343243323231,0
8.975017309188843,1.1825530336903283,[1.08510213],0.005,0.1,-0.0072634779727689175,-0.10400675925884617,0
8.98363709449768,1.1792312555058049,[1.08066841],0.005,0.1,-0.006682458177077176,-0.10512976528474749,0
8.992615461349487,1.1753232811710714,[1.07616678],0.005,0.1,-0.006147902432422439,-0.10547502489057832,0
9.002199411392212,1.1712199081196015,[1.07159634],0.005,0.1,-0.005656098874423674,-0.1054599659347436,0
9.012321710586548,1.1669211363513945,[1.06695757],0.005,0.1,-0.0052036310101813785,-0.10506083246124225,0
9.02405309677124,1.1620361684329779,[1.06224365],0.005,0.1,-0.00478735456129928,-0.13983447610994332,0
9.031866550445557,1.1587143902484545,[1.05745031],0.005,0.1,-0.00440437601877513,-0.09456755867343403,0
9.040431022644043,1.155392612063931,[1.05259259],0.005,0.1,-0.004052032812905894,-0.09686008744064578,0
9.048324584960938,1.151875435162671,[1.04770133],0.005,0.1,-0.0037278750008298035,-0.09814241021537187,0
9.059703350067139,1.1471858659609908,[1.04281167],0.005,0.1,-0.0034296483698495945,-0.09859493578299239,0
9.069293022155762,1.143082492909521,[1.03793711],0.005,0.1,-0.27919363853736,-0.09858560494665643,0
9.080130577087402,1.1391745185747875,[1.03307288],0.005,0.1,-0.31206582104095604,-0.09822834848260331,0
9.08832597732544,1.1352665442400542,[1.02821565],0.005,0.1,-0.2567363369485636,-0.09733966703025204,0
9.098400592803955,1.1307723737551107,[1.02336337],0.005,0.1,-0.45647604182514445,-0.09548369413738954,0
9.10827898979187,1.1262782032701673,[1.01851519],0.005,0.1,-0.4188814094426464,-0.09337934480223901,0
9.117906093597412,1.1223702289354338,[1.01366369],0.005,0.1,-0.3069815237020541,-0.12260270810115975,0
9.128222942352295,1.1184622546007006,[1.00879616],0.005,0.1,0.08730581329216633,-0.11064167819788465,0
9.137296915054321,1.1145542802659671,[1.0039181],0.005,0.1,0.22052128612308725,-0.0744845158634651,0
9.147913694381714,1.1100601097810237,[0.99904287],0.005,0.1,-0.034323936256662746,-0.10284846158541458,0
9.156254768371582,1.1065429328797636,[0.99416799],0.005,0.1,-0.08925386332831305,-0.09547018597273679,0
9.166545867919922,1.1022441611115568,[0.98929222],0.005,0.1,0.20773502687138443,-0.08922001921675088,0
9.174306392669678,1.098726984210297,[0.98442263],0.005,0.1,0.28308270709347694,-0.08496909382328671,0
9.183908700942993,1.0950144085923001,[0.97956581],0.005,0.1,0.2693488659754414,-0.08168266169830088,0
9.191289186477661,1.0918880291245132,[0.97473451],0.005,0.1,-0.04973034127205378,-0.0568984277530679,0
9.201390027999878,1.0877846560730433,[0.96993963],0.005,0.1,-0.12987058326229314,-0.08475261329234016,0
9.211347103118896,1.0836812830215732,[0.96518332],0.005,0.1,0.15975097421622686,-0.058426450894992626,0
9.220542430877686,1.0797733086868397,[0.96047382],0.005,0.1,0.23545236383354057,-0.06252318308426345,0
9.231171131134033,1.075474536918633,[0.9558175],0.005,0.1,-0.05097559267235599,-0.06567097174715088,0
9.239766597747803,1.0715665625838997,[0.95121216],0.005,0.1,-0.12293782010317787,-0.06845531737478866,0
9.248532056808472,1.0680493856826394,[0.94666187],0.005,0.1,-0.11069400571869134,-0.04936987024494059,0
9.256375551223755,1.0645322087813796,[0.9421828],0.005,0.1,-0.07233384253404376,-0.03787935950192148,0
9.268300533294678,1.0596472408629627,[0.93778038],0.005,0.1,-0.0319846399304754,-0.07024217468699462,0
9.276253700256348,1.0563254626784393,[0.93344391],0.005,0.1,0.0017225005504597976,-0.0513513385066434,0
9.285722732543945,1.0526128870604428,[0.92916267],0.005,0.1,0.02686587032993388,-0.08620855775127152,0
9.2955002784729,1.048704912725709,[0.92491853],0.005,0.1,0.32019043492012134,-0.08798057001574108,0
9.306687831878662,1.0436245460905555,[0.92068689],0.005,0.1,0.3642570320695417,-0.12238873862042379,0
9.314273834228516,1.040498166622769,[0.91646039],0.005,0.1,0.31531882585985394,-0.1238350885273975,0
9.325766563415527,1.035808597421089,[0.9122467],0.005,0.1,0.24194750623804245,-0.15599427384652734,0
9.33625078201294,1.0315098256528823,[0.90802686],0.005,0.1,0.17174590475077486,-0.1866791701495019,0
9.344616413116455,1.028188047468359,[0.90377568],0.005,0.1,0.11384230592841191,-0.12366205685704978,0
9.35229229927063,1.0248662692838355,[0.8995035],0.005,0.1,0.06953424006925962,-0.08740517059225587,0
9.36031460762024,1.0211536936658387,[0.89523508],0.005,0.1,0.037188057456698974,-0.06616012673722443,0
9.371381044387817,1.0166595231808953,[0.89097322],0.005,0.1,0.014393119256390335,-0.12088576753558834,0
9.382702827453613,1.0119699539792153,[0.88669276],0.005,0.1,-0.0011679974161479343,-0.12740916412681508,0
9.39128828048706,1.0082573783612183,[0.88237094],0.005,0.1,-0.011429195419978062,-0.1347908394258067,0
9.402781009674072,1.0035678091595384,[0.87798638],0.005,0.1,-0.01789704164672999,-0.19459916582139375,0
9.41154408454895,1.000246030975015,[0.87351034],0.005,0.1,-0.02169977331842917,-0.18896060307272952,0
9.4196035861969,0.9969242527904917,[0.86893737],0.005,0.1,-0.02366142180596399,-0.13317399361850013,0
9.428700923919678,0.9930162784557581,[0.86428224],0.005,0.1,-0.024373591233808112,-0.147498387798545,0
9.437259674072266,0.989499101554498,[0.85955775],0.005,0.1,-0.024255633118385717,-0.11007761375597325,0
9.445286989212036,0.985981924653238,[0.85477489],0.005,0.1,-0.023601718378574436,-0.13358959618859995,0
9.4534330368042,0.9826601464687146,[0.84994304],0.005,0.1,-0.022616248785701204,-0.10326703224296543,0
9.46125340461731,0.9793383682841913,[0.84508069],0.005,0.1,-0.02143986276737951,-0.08433256148881503,0
9.472562074661255,0.9746487990825112,[0.84019285],0.005,0.1,-0.02016823665031932,-0.1706843092958251,0
9.480805397033691,0.971131622181251,[0.83526276],0.005,0.1,-0.018865533343892953,-0.12774650120403516,0
9.488712310791016,0.9680052427134643,[0.83028688],0.005,0.1,-0.01757395041061162,-0.1539304311268886,0
9.49722409248352,0.9644880658122044,[0.82526235],0.005,0.1,-0.016320461589912398,-0.17525541581505105,0
9.506244421005249,0.9605800914774709,[0.82017655],0.005,0.1,0.2609168032684611,-0.1916440378306199,0
9.515237808227539,0.9568675158594742,[0.81501949],0.005,0.1,0.2951764023699002,-0.20442691427660553,0
9.524636030197144,0.9529595415247408,[0.8097943],0.005,0.1,-0.0348926072387655,-0.14924853979589434,0
9.534394025802612,0.9488561684732707,[0.80451529],0.005,0.1,-0.1431052460608736,-0.17267417574777633,0
9.543247699737549,0.9451435928552739,[0.79918471],0.005,0.1,-0.15760246916081572,-0.19154629896513523,0
9.551237344741821,0.9418218146707505,[0.79379476],0.005,0.1,0.13876073329942482,-0.20631127085080445,0
9.560253381729126,0.9383046377694905,[0.78833993],0.005,0.1,-0.07482986383444752,-0.21705084097756805,0
9.568243026733398,0.9345920621514938,[0.7828272],0.005,0.1,-0.13510705293743533,-0.15793795555881052,0
9.579203367233276,0.9304886891000236,[0.77726367],0.005,0.1,0.14309498558906164,-0.2519876206950972,0
9.590214729309082,0.9257991198983436,[0.7716355],0.005,0.1,0.1996734485864432,-0.24876693777949244,0
9.599226236343384,0.9218911455636103,[0.7659323],0.005,0.1,0.17174313091089644,-0.24642628559565619,0
9.609110355377197,0.9179831712288767,[0.76015726],0.005,0.1,0.11984682864607313,-0.24484122505891495,0
9.618226766586304,0.9142705956108801,[0.75431453],0.005,0.1,0.06865561483009303,-0.24378977382069086,0
9.627658605575562,0.91016722255941,[0.74840912],0.005,0.1,0.02659390274176556,-0.2422164451551862,0
9.63932991027832,0.9050868559242566,[0.7424467],0.005,0.1,-0.004855511326473355,-0.23919138977878426,0
9.649133682250977,0.9007880841560499,[0.73643358],0.005,0.1,-0.30289247030203376,-0.2371067990060773,0
9.65955638885498,0.8964893123878431,[0.73037646],0.005,0.1,-0.3504705272100944,-0.2349563591104317,0
9.667275428771973,0.8931675342033197,[0.72430176],0.005,0.1,-0.02811698083461775,-0.23893035617433991,0
9.679696798324585,0.8880871675681662,[0.71824244],0.005,0.1,0.07640641207811634,-0.3130466248168881,0
9.687472105026245,0.8847653893836429,[0.71219792],0.005,0.1,-0.18602618570119597,-0.2867366619610293,0
9.697191953659058,0.8808574150489095,[0.70615872],0.005,0.1,-0.2384857449981571,-0.2664584112257831,0
9.706448316574097,0.8767540419974394,[0.70012742],0.005,0.1,-0.21050484069742398,-0.25114153484243107,0
9.71432876586914,0.8734322638129159,[0.69410714],0.005,0.1,0.11662593883168959,-0.24055104873914174,0
9.726558208465576,0.8683518971777625,[0.68809249],0.005,0.1,-0.07554810054958969,-0.3027396419123297,0
9.735236644744873,0.8648347202765025,[0.68208867],0.005,0.1,-0.12148028725225425,-0.30752439087566324,0
9.744303941726685,0.8609267459417691,[0.6761274],0.005,0.1,-0.11013771847187487,-0.27511408897361866,0
9.753212690353394,0.8572141703237723,[0.67022689],0.005,0.1,0.19485224580617477,-0.25215738100239904,0
9.762256860733032,0.8535015947057756,[0.66438494],0.005,0.1,0.25807199159322763,-0.23535315254335476,0
9.773052453994751,0.8486166267873589,[0.65859158],0.005,0.1,-0.0477052482511057,-0.28935848579190626,0
9.781243324279785,0.8454902473195721,[0.65283057],0.005,0.1,-0.13759101924066564,-0.2575814199497347,0
9.791813611984253,0.8406052794011555,[0.64709725],0.005,0.1,0.13680801113858557,-0.23256234209633397,0
9.799237966537476,0.837283501216632,[0.64141275],0.005,0.1,0.19869087597422014,-0.23530121084987363,0
9.809361457824707,0.8331801281651618,[0.63581098],0.005,0.1,0.17800150067429893,-0.21762984407393954,0
9.817383289337158,0.8298583499806385,[0.63030412],0.005,0.1,0.1325188273496589,-0.2047071106632816,0
9.827443838119507,0.8259503756459051,[0.62488607],0.005,0.1,0.08610419406450509,-0.193959469669827,0
9.836190938949585,0.822433198744645,[0.61955907],0.005,0.1,0.04717499966754429,-0.13574837287681576,0
9.845331192016602,0.8181344269764383,[0.6143324],0.005,0.1,0.017486563531980377,-0.14265179675272793,0
9.85418152809143,0.8146172500751782,[0.60920588],0.005,0.1,-0.003795384340103708,-0.14692911464220765,0
9.865211248397827,0.8101230795902348,[0.6041645],0.005,0.1,-0.018281328283570028,-0.19632668712959248,0
9.875224351882935,0.8062151052555014,[0.59919568],0.005,0.1,-0.02760725367324678,-0.13396507065725022,0
9.883682489395142,0.8026979283542414,[0.59430328],0.005,0.1,-0.03316844022061893,-0.1350002430549823,0
9.891203880310059,0.7995715488864547,[0.58949085],0.005,0.1,-0.03606273413402428,-0.1346745269732384,0
9.90214991569519,0.794686580968038,[0.58475456],0.005,0.1,-0.037115619966216956,-0.13173605513058592,0
9.910576343536377,0.7911694040667778,[0.58009141],0.005,0.1,-0.03693013664848131,-0.12867458476775076,0
9.919203042984009,0.7872614297320444,[0.57549912],0.005,0.1,-0.03593797865509672,-0.1247569517009638,0
9.930505990982056,0.7825718605303643,[0.57097601],0.005,0.1,-0.034443325691048396,-0.12000376484275153,0
9.938617944717407,0.7790546836291042,[0.56652685],0.005,0.1,-0.03265753350124304,-0.0851059518776728,0
9.948331594467163,0.7749513105776341,[0.56216159],0.005,0.1,-0.030725404594901938,-0.09021621654683197,0
9.956148386001587,0.7718249311098475,[0.55788809],0.005,0.1,-0.028744554902832342,-0.06715860448412943,0
9.967228174209595,0.7675261593416408,[0.55370654],0.005,0.1,-0.026779443900370792,-0.10349053307151242,0
9.97575068473816,0.7640089824403806,[0.54960498],0.005,0.1,-0.024871418519742824,-0.10151276388650847,0
9.984142541885376,0.7604918055391207,[0.54557281],0.005,0.1,-0.023045842509347755,-0.09942976785215527,0
9.993211269378662,0.7567792299211239,[0.54160634],0.005,0.1,-0.02131712452807053,-0.09772117770413863,0
10.002161502838135,0.753066654303127,[0.5377074],0.005,0.1,-0.019692245754285083,-0.07033527581061311,0
10.011193037033081,0.7491586799683937,[0.53388796],0.005,0.1,-0.01817322322319986,-0.05394469511088647,0
10.022654294967651,0.7440783133332403,[0.5301513],0.005,0.1,-0.29279718168322827,-0.08928100177892996,0
10.03329849243164,0.7399749402817702,[0.52648184],0.005,0.1,-0.32460870205615466,-0.09170710000157917,0
10.042722940444946,0.7358715672303001,[0.52286491],0.005,0.1,-0.26829512406945777,-0.09406201992721491,0
10.052591562271118,0.7315727954620934,[0.51929228],0.005,0.1,-0.19108530273955773,-0.09679903939587696,0
10.062448978424072,0.7272740236938866,[0.51575546],0.005,0.1,-0.3955620931516489,-0.10003143456724692,0
10.07116436958313,0.7237568467926265,[0.51225196],0.005,0.1,-0.37110627756986453,-0.07384568963048002,0
10.081156969070435,0.7196534737411566,[0.5087845],0.005,0.1,-0.27312749248782614,-0.08524282068748654,0
10.09152364730835,0.7153547019729498,[0.50534083],0.005,0.1,-0.1668127504823927,-0.13286207941458447,0
10.099127531051636,0.7124237212218996,[0.50190268],0.005,0.1,-0.07601187832285639,-0.0961138557358281,0
10.108182430267334,0.7087111456039029,[0.49846641],0.005,0.1,-0.006546495424126601,-0.10776363053161883,0
10.11751651763916,0.7046077725524329,[0.49502739],0.005,0.1,0.31896735480554433,-0.11875071444036667,0
10.126543283462524,0.7006997982176995,[0.49157351],0.005,0.1,0.38521521203580766,-0.12899719349108404,0
10.134172677993774,0.6975734187499129,[0.48810076],0.005,0.1,0.3507697441022154,-0.09679294068299903,0
10.142273902893066,0.6940562418486528,[0.4846199],0.005,0.1,0.2862364274439042,-0.07717402447743824,0
10.153275966644287,0.6897574700804461,[0.48113157],0.005,0.1,0.22084131653203248,-0.14517486009324174,0
10.164162635803223,0.6850679008787659,[0.47761247],0.005,0.1,0.16494368314533556,-0.15489333442636313,0
10.173846006393433,0.6805737303938224,[0.47404214],0.005,0.1,0.1207454636675166,-0.16348055998198122,0
10.186826467514038,0.6751025663251957,[0.47040228],0.005,0.1,-0.1887751880734781,-0.23097433804244066,0
10.19514799118042,0.671976186857409,[0.46666908],0.005,0.1,-0.24661707723698478,-0.22140874976947664,0
10.205470323562622,0.6678728138059389,[0.46283104],0.005,0.1,-0.20946904098251695,-0.21421157818315242,0
10.215176343917847,0.6639648394712055,[0.45889582],0.005,0.1,-0.1462787471401232,-0.1513694546768705,0
10.227241277694702,0.6590798715527887,[0.45487089],0.005,0.1,-0.08495365721872754,-0.2253078027239374,0
10.235153913497925,0.6555626946515287,[0.45075527],0.005,0.1,-0.0348614861584068,-0.1587059851482897,0
10.244149923324585,0.6522409164670053,[0.4465577],0.005,0.1,0.0025145103611642836,-0.1706472061513983,0
10.255146980285645,0.6473559485485886,[0.44228679],0.005,0.1,0.028664285215518177,-0.178324186733622,0
10.269479751586914,0.641103189613015,[0.43792623],0.005,0.1,0.04588678804872534,-0.3176915795329926,0
10.279269933700562,0.636999816561545,[0.43345559],0.005,0.1,0.056411792296302526,-0.21004155798504706,0
10.288049459457397,0.6330918422268116,[0.42888425],0.005,0.1,0.3381418693633014,-0.2032113981278581,0
10.2962806224823,0.6297700640422882,[0.42423016],0.005,0.1,0.3735752031244848,-0.19904882962040352,0
10.30415940284729,0.6262528871410281,[0.41950989],0.005,0.1,0.318485749689017,-0.14141617558705508,0
10.313738822937012,0.6223449128062948,[0.41474665],0.005,0.1,-0.0351452337459483,-0.15349759854076847,0
10.323474168777466,0.6182415397548247,[0.409953],0.005,0.1,0.13478175917412596,-0.1622885567864302,0
10.333141326904297,0.6141381667033546,[0.40513235],0.005,0.1,0.16335255103705615,-0.1680255126959638,0
10.34697151184082,0.6084716039179912,[0.40028065],0.005,0.1,0.13901796509309794,-0.22794322635481418,0
10.357435703277588,0.6041728321497843,[0.39538002],0.005,0.1,0.1006032032436198,-0.2751036536909123,0
10.365144729614258,0.6012418513987344,[0.39042439],0.005,0.1,0.06374619106498168,-0.18409597688660403,0
10.373151779174805,0.5979200732142109,[0.38544814],0.005,0.1,0.03362865230152886,-0.184745572924611,0
10.384125471115112,0.5932305040125309,[0.38049619],0.005,0.1,0.011000012515233392,-0.18021963143945735,0
10.39548397064209,0.5881501373773773,[0.37557633],0.005,0.1,-0.005049760391220748,-0.2320592614502087,0
10.40555453300476,0.5840467643259073,[0.37066553],0.005,0.1,-0.015871084185401726,-0.27070837278887055,0
10.415262937545776,0.5803341887079105,[0.36574533],0.005,0.1,0.2532760168443649,-0.23376282062153372,0
10.427549362182617,0.5750584233560204,[0.36080907],0.005,0.1,0.28235732959092485,-0.26365956105541805,0
10.435104131698608,0.5717366451714971,[0.35586649],0.005,0.1,0.2252237211333915,-0.2660937312162185,0
10.444090604782104,0.5684148669869737,[0.35094762],0.005,0.1,0.14848160900141066,-0.2270547090946111,0
10.453117370605469,0.564702291368977,[0.34606465],0.005,0.1,0.07822478068332386,-0.2536917771911264,0
10.46111798286438,0.5611851144677169,[0.34121441],0.005,0.1,0.022466313765584313,-0.16574397199680885,0
10.469716787338257,0.5576679375664568,[0.33642123],0.005,0.1,-0.01829916783207672,-0.16593107100360535,0
10.479091167449951,0.5535645645149868,[0.33171876],0.005,0.1,-0.04627187663908201,-0.1552991768387248,0
10.48950982093811,0.54926579274678,[0.32710887],0.005,0.1,-0.06425523541450609,-0.18974371625857,0
10.49992299079895,0.5449670209785733,[0.32257364],0.005,0.1,-0.07483412248752636,-0.16645415091030885,0
10.509105205535889,0.5410590466438399,[0.31810467],0.005,0.1,-0.08012077165856508,-0.14905748775592362,0
10.517099857330322,0.5377372684593165,[0.31370736],0.005,0.1,-0.08173740762286887,-0.1023872670861314,0
10.525829076766968,0.5340246928413197,[0.30939799],0.005,0.1,-0.08088428960985525,-0.07477541397009203,0
10.533348321914673,0.5305075159400596,[0.3051898],0.005,0.1,-0.07842739176324315,-0.08261287772720416,0
10.543162822723389,0.5262087441718529,[0.30108176],0.005,0.1,-0.07497975870001633,-0.08668499759317697,0
10.551766395568848,0.5226915672705928,[0.29706701],0.005,0.1,-0.07096840207454255,-0.08868065790786438,0
10.562950134277344,0.5181973967856495,[0.29313964],0.005,0.1,-0.06668606339610064,-0.08820354548382396,0
10.573117733001709,0.5144848211676527,[0.28929464],0.005,0.1,-0.06232988008464049,-0.08680170550609236,0
10.581915855407715,0.5105768468329194,[0.28553278],0.005,0.1,0.21800872460917292,-0.06263490635173166,0
10.590394020080566,0.5070596699316593,[0.28185958],0.005,0.1,0.25529486972221627,-0.06660364951527246,0
10.599077701568604,0.5033470943136626,[0.27827442],0.005,0.1,0.20417021684218684,-0.06848215791274041,0
10.609060287475586,0.49904832254545584,[0.27477155],0.005,0.1,-0.14419743122527898,-0.068318249509709,0
10.617980241775513,0.49553114564419576,[0.27134613],0.005,0.1,0.031719617921792065,-0.06731460229941869,0
10.628094911575317,0.491232373875989,[0.26799412],0.005,0.1,0.06661310514033578,-0.06515805647017857,0
10.637113094329834,0.48751979825799224,[0.26471224],0.005,0.1,0.04866788558459974,-0.0627420341622281,0
10.648537158966064,0.4826348303395755,[0.26149374],0.005,0.1,-0.2595041801424995,-0.07654786979864488,0
10.656089067459106,0.4793130521550521,[0.25833306],0.005,0.1,-0.32342418800827905,-0.05248956322023051,0
10.667153120040894,0.47462348295337203,[0.25523008],0.005,0.1,-0.016630781813433082,-0.06505317497029918,0
10.675087451934814,0.47110630605211196,[0.2521811],0.005,0.1,0.07540280623506151,-0.058224871108550354,0
10.683692455291748,0.46778452786758856,[0.24918684],0.005,0.1,-0.19614584224239667,-0.04078159023084713,0
10.693147420883179,0.46368115481611855,[0.24625205],0.005,0.1,-0.2547816178848694,-0.05154861198222127,0
10.7010817527771,0.4607501740650684,[0.24337708],0.005,0.1,0.04537708799096443,-0.036508087136162694,0
10.710060358047485,0.45684219973033496,[0.24056556],0.005,0.1,0.12745457806469984,-0.03591016729334422,0
10.718095302581787,0.4535204215458116,[0.23782386],0.005,0.1,0.12218573859933354,-0.027057254785255898,0
10.729316711425781,0.4486354536273949,[0.23515372],0.005,0.1,-0.18771212802111903,-0.036053350531679455,0
10.738284587860107,0.4451182767261348,[0.23255],0.005,0.1,-0.2585290415126469,-0.03391277269360924,0
10.748368501663208,0.4406241062411914,[0.23000825],0.005,0.1,0.04023403364358752,-0.03154470550589594,0
10.756360054016113,0.43691153062319465,[0.22753083],0.005,0.1,0.124715712782304,-0.02322631114010794,0
10.766493082046509,0.4328081575717246,[0.22512241],0.005,0.1,0.12265067481362926,-0.02338926644879796,0
10.776174545288086,0.4289001832369912,[0.22278375],0.005,0.1,0.09163814305259922,-0.02311433113750925,0
10.78555703163147,0.4253830063357311,[0.22051234],0.005,0.1,0.05609724160847532,-0.022557186920625943,0
10.793069839477539,0.42225662686794435,[0.21830843],0.005,0.1,0.3012161691801001,-0.017382234346653633,0
10.801055192947388,0.41893484868342096,[0.21617705],0.005,0.1,0.3104820117473329,-0.014265710737125585,0
10.809077739715576,0.4154176717821609,[0.21412189],0.005,0.1,0.23831686671449925,-0.015366729078146435,0
10.818100214004517,0.4119004948809009,[0.21214042],0.005,0.1,0.4268208785087084,-0.015962459539305463,0
10.83031702041626,0.4072109256792208,[0.21022527],0.005,0.1,0.6583227460182945,-0.019679548225748328,0
10.838181495666504,0.4042799449281707,[0.20836994],0.005,0.1,0.5757463356104713,-0.014846929126704704,0
10.847511291503906,0.40056736931017395,[0.20657333],0.005,0.1,0.6768556413420761,-0.014646938512255616,0
10.857031345367432,0.39665939497544056,[0.20483433],0.005,0.1,0.5337403522068107,-0.014228847370361185,0
10.865299701690674,0.3933376167909172,[0.20314945],0.005,0.1,0.3327717642335577,-0.013767549244637469,0
10.876059770584106,0.38884344630597373,[0.20151555],0.005,0.1,0.4234035442573986,-0.013062412935470342,0
10.884021759033203,0.3857170668381871,[0.19993175],0.005,0.1,0.5856297620406014,-0.010332476289666994,0
10.892047882080078,0.3825906873704003,[0.19839901],0.005,0.1,0.457020490580387,-0.010461823933184306,0
10.900042057037354,0.3794643079026136,[0.19691772],0.005,0.1,0.25371370727425496,-0.008686020996095728,0
10.913075685501099,0.37457933998419685,[0.19548598],0.005,0.1,0.3379764091731772,-0.010527451658950216,0
10.923046350479126,0.37086676436620014,[0.19409824],0.005,0.1,0.4947708550373778,-0.009994706445586369,0
10.932029247283936,0.3671541887482034,[0.19274962],0.005,0.1,0.6391923274837609,-0.009493302366510397,0
10.94007134437561,0.36402780928041667,[0.19143761],0.005,0.1,0.46848095511627263,-0.009022413716846681,0
10.949047565460205,0.3607060310958933,[0.19016162],0.005,0.1,0.49914855568579114,-0.007224631767669094,0
10.960118055343628,0.3566026580444232,[0.18892102],0.005,0.1,0.30680519908590154,-0.008449401750013588,0
10.969397783279419,0.3530854811431631,[0.18771185],0.005,0.1,0.3515542493211846,-0.007865323315708876,0
10.978414058685303,0.3497637029586398,[0.18653068],0.005,0.1,0.18388772434206838,-0.007356151315537797,0
10.988133192062378,0.3462465260573797,[0.18537765],0.005,0.1,-0.02252662880211738,-0.005847921622102428,0
11.000058889389038,0.3419477542891729,[0.18425279],0.005,0.1,-0.20192873597248118,-0.006685720160100762,0
11.009022951126099,0.3388213748213862,[0.18315447],0.005,0.1,-0.0600849950665622,-0.005308492448790757,0
11.018475770950317,0.3353041979201261,[0.18208121],0.005,0.1,-0.11706774158990978,-0.006080681712315772,0
11.028341293334961,0.3315916223021294,[0.18103027],0.005,0.1,-0.22584108232712571,-0.005570066232944759,0
11.03799819946289,0.32768364796739596,[0.18000065],0.005,0.1,-0.0518756069945613,-0.004383523806321837,0
11.048635959625244,0.3237756736326626,[0.17899424],0.005,0.1,0.1807008340833472,-0.004233737896078873,0
11.05719804763794,0.32104009159834923,[0.17801112],0.005,0.1,0.3857920723173869,-0.004144502800793273,0
11.070969343185425,0.31595972496319574,[0.17704865],0.005,0.1,0.5384362351033303,-0.004538105022779641,0
11.07934284210205,0.3132241429288824,[0.17610326],0.005,0.1,0.36269045416588913,-0.0041600066227817315,0
11.086989641189575,0.310488560894569,[0.17517448],0.005,0.1,0.3862808839562536,-0.0033079472885240535,0
11.100059747695923,0.30579899169288893,[0.17426198],0.005,0.1,0.46494002133325074,-0.004292884344863725,0
11.108502388000488,0.3026726122251022,[0.1733642],0.005,0.1,0.5408067661956988,-0.004172943889290116,0
11.120444059371948,0.2985692391736321,[0.1724822],0.005,0.1,0.5948699979501806,-0.004222723513613836,0
11.128374099731445,0.29602905585605543,[0.1716157],0.005,0.1,0.34846368479640133,-0.003585866103721448,0
11.13601565361023,0.2934888725384787,[0.17076439],0.005,0.1,0.04794181346382659,-0.0026780450136375507,0
11.146397113800049,0.29016709435395527,[0.16993025],0.005,0.1,0.06255694586794955,-0.002483948580790739,0
11.155271768569946,0.28723611360290524,[0.16911375],0.005,0.1,0.17511863496819063,-0.002330512506958232,0
11.16309905052185,0.2845005315685919,[0.16831516],0.005,0.1,0.019692611097200746,-0.0019081601670921857,0
11.173070430755615,0.2811787533840685,[0.16753462],0.005,0.1,0.08330753653051558,-0.002135612576225567,0
11.184606313705444,0.2772707790493351,[0.16677005],0.005,0.1,-0.07167123830957894,-0.0019325529172611032,0
11.193339824676514,0.2745351970150217,[0.16601967],0.005,0.1,0.009307197120165894,-0.001794094236068079,0
11.2014479637146,0.271995013697445,[0.16528397],0.005,0.1,0.15076626515987046,-0.0014663679793053917,0
11.209012985229492,0.2698456278133416,[0.16456524],0.005,0.1,0.28301367879050676,-0.001284665238077419,0
11.218001127243042,0.2673054444957649,[0.16386532],0.005,0.1,0.6598101266447571,-0.0012800694676318059,0
11.22802209854126,0.26437446374471485,[0.16318363],0.005,0.1,1.0358423169069355,-0.0012535095319934312,0
11.237000942230225,0.26183428042713813,[0.16251861],0.005,0.1,1.6037905519505267,-0.0012275237983225991,0
11.247110605239868,0.2594894958262981,[0.16186885],0.005,0.1,2.106380102131976,-0.0011977560773640701,0
11.256205320358276,0.2575355086589314,[0.16123312],0.005,0.1,2.4671555800277707,-0.0011753516805268836,0
11.265145540237427,0.25558152149156466,[0.16061033],0.005,0.1,2.6841137188870414,-0.0011454369624491504,0
11.274006605148315,0.2534321356074613,[0.1599995],0.005,0.1,3.057369623245406,-0.0011133118996929472,0
11.282032489776611,0.25186894587356795,[0.15940061],0.005,0.1,2.821269631430002,-0.0009475184524170464,0
11.29171371459961,0.24991495870620126,[0.15881444],0.005,0.1,2.9520375232717617,-0.0009524591437962564,0
