t_s,q_rad,q_des_rad,K,B,Kff,jerk,tau_Nm,reward
0.0053746700286865234,0.06233219063899781,[0.00504709],9.825212432529046,0.9781515540661307,1.9737818648793566,0.0,9.9,1.0187586745348125
0.06348061561584473,0.06233219063899781,[0.02456376],9.650424865058092,0.9563031081322615,1.9475637297587132,0.0,9.999,1.251795544749521
0.12807750701904297,0.06233219063899781,[0.06162938],9.475637297587138,0.9344546621983922,1.92134559463807,0.0,9.99999,1.4999012164447818
0.19131088256835938,0.06252758935573448,[0.11374601],9.300849730116184,0.9126062162645229,1.8951274595174268,0.0,9.9999999,1.091753343539558
0.2553985118865967,0.06233219063899781,[0.17860213],9.12606216264523,0.8907577703306536,1.8689093243967834,0.0,9.999999999,0.5669546531392915
0.3192718029022217,0.06233219063899781,[0.25406858],8.951274595174274,0.8689093243967844,1.84269118927614,0.0,9.99999999999,0.5006409436763608
0.38649582862854004,0.06233219063899781,[0.33800255],8.77648702770332,0.847060878462915,1.8164730541554968,0.0,-9.8000000000001,0.5000002507451099
0.4472355842590332,0.06233219063899781,[0.42791403],8.601699460232366,0.8252124325290457,1.7902549190348536,0.0,-9.998000000000001,0.500000000002462
0.511286735534668,0.06233219063899781,[0.52097076],8.426911892761412,0.8033639865951765,1.7640367839142101,0.0,-9.99998,0.5
0.5758481025695801,0.06233219063899781,[0.61434559],8.252124325290458,0.7815155406613071,1.7378186487935667,0.0,-9.999999800000001,0.5
0.6430246829986572,0.06252758935573448,[0.70547329],8.077336757819502,0.7596670947274378,1.7116005136729235,0.0,-5.0499999980000005,0.5
0.7031135559082031,0.05901041245447442,[0.79223922],7.902549190348549,0.7378186487935685,1.6853823785522803,-5.0,-5.000499999980001,0.4817320621239355
0.767080545425415,0.033999376712180625,[0.87374572],7.727761622877595,0.7159702028596993,1.659164243431637,-5.0,-5.0000049999998,0.4817320621239355
0.8315026760101318,0.00820674610294015,[0.95074477],7.55297405540664,0.6941217569258299,1.6329461083109935,-5.0,-5.000000049999998,0.4817320621239355
0.8950583934783936,-0.01680428963935364,[1.02469183],7.378186487935686,0.6722733109919605,1.6067279731903503,-5.0,-5.0000000005,0.4817320621239355
0.9592313766479492,-0.034194775428917294,[1.0969459],7.203398920464732,0.6504248650580913,1.5805098380697071,2.0277115538877695,4.899999999995,0.4969486609630422
1.023003101348877,-0.03907974334733405,[1.16856597],7.028611352993777,0.6285764191242219,1.5542917029490637,5.0,4.99899999999995,0.4817320621239355
1.0885124206542969,-0.013287112738093578,[1.24020019],6.853823785522822,0.6067279731903527,1.5280735678284203,5.0,4.9999899999999995,0.4817320621239355
1.1562130451202393,0.013873308888303588,[1.31221172],6.679036218051868,0.5848795272564833,1.501855432707777,5.0,4.999999900000001,0.4817320621239355
1.2149853706359863,0.03732115489670401,[1.384572],6.504248650580913,0.563031081322614,1.475637297587134,5.0,4.999999999,0.4817320621239355
1.2790048122406006,0.06272298807247115,[1.45672763],6.329461083109958,0.5411826353887447,1.4494191624664907,5.0,4.99999999999,0.4817320621239355
1.3453755378723145,0.08949261226539497,[1.52782227],6.154673515639004,0.5193341894548753,1.4232010273458477,5.0,-4.9000000000001,0.4817320621239355
1.4109129905700684,0.10786009163864198,[1.59692973],5.97988594816805,0.5,1.3969828922252046,-5.0,-4.999000000000001,0.4817320621239355
1.470973014831543,0.08421684691350488,[1.66293543],5.805098380697095,0.5,1.3707647571045614,-5.0,-4.99999,0.4817320621239355
1.535635232925415,0.0584242163042644,[1.72434172],5.63031081322614,0.5,1.3445466219839184,-5.0,-4.999999900000001,0.4817320621239355
1.601067304611206,0.03224078826155059,[1.77951573],5.455523245755186,0.5,1.3183284868632752,-5.0,-4.999999999,0.4817320621239355
1.6630558967590332,0.0072297525192568,[1.82709944],5.280735678284231,0.5,1.292110351742632,-5.0,-4.99999999999,0.4817320621239355
1.7269370555877686,-0.017976681939773663,[1.86605567],5.105948110813277,0.5,1.2658922166219888,-5.0,-4.9999999999999005,0.4817320621239355
1.7911875247955322,-0.03517176901260064,[1.89546024],5.0,0.5,1.2396740815013456,4.4270114366819735,-4.999999999999999,0.48562170428852125
1.858525276184082,-0.044550907415960815,[1.91449556],5.0,0.5,1.2134559463807026,5.0,-5.0,0.4817320621239355
1.9189343452453613,-0.04748188816701086,[1.92262058],5.0,0.5,1.1872378112600595,5.0,-5.0,0.4817320621239355
1.9829466342926025,-0.04767728688374754,[1.9195411],5.0,0.5,1.1610196761394163,5.0,-5.0,0.4817320621239355
2.047072172164917,-0.04767728688374754,[1.9050742],5.0,0.5,1.1348015410187733,5.0,-5.0,0.4817320621239355
2.115279197692871,-0.04767728688374754,[1.87938466],5.0,0.5,1.10858340589813,5.0,-5.0,0.4817320621239355
2.175001859664917,-0.04767728688374754,[1.84328946],5.0,0.5,1.082365270777487,5.0,-5.0,0.4817320621239355
2.2389750480651855,-0.04767728688374754,[1.79808103],5.0,0.5,1.0561471356568437,5.0,4.9,0.4817320621239355
2.3029680252075195,-0.04552790099964417,[1.74508688],5.0,0.5,1.0299290005362005,5.0,4.9990000000000006,0.4817320621239355
2.3713274002075195,-0.018367479373247002,[1.68545605],5.0,0.5,1.0037108654155575,5.0,4.99999,0.4817320621239355
2.4308884143829346,0.005471164068626767,[1.62026476],5.0,0.5,0.9774927302949143,5.0,4.999999900000001,0.4817320621239355
2.494966506958008,0.03106839596113057,[1.55059724],5.0,0.5,0.9512745951742712,5.0,4.999999999,0.4817320621239355
2.5593016147613525,0.05705642528710771,[1.47749344],5.0,0.5,0.9250564600536281,5.0,4.99999999999,0.4817320621239355
2.6277668476104736,0.08421684691350488,[1.40191328],5.0,0.5,0.898838324932985,4.397104012022233,4.9999999999999005,0.4858125446715491
2.6869559288024902,0.10805549035537865,[1.32473619],5.0,0.5,0.8726201898123418,1.1649257337562324,4.999999999999999,0.49899082959132396
2.7508766651153564,0.13365272224788244,[1.24675897],5.0,0.5,0.8464020546916986,-2.0377083182384768,5.0,0.49691859328318383
2.8183698654174805,0.1610085425910163,[1.16869252],5.0,0.5,0.8201839195710555,-4.873914519354601,5.0,0.48262577745460056
2.884108304977417,0.18680117320025674,[1.09116414],5.0,0.5,0.7939657844504124,-5.0,5.0,0.4817320621239355
2.942925214767456,0.21044441792539384,[1.01472462],5.0,0.5,0.7677476493297692,-5.0,5.0,0.4817320621239355
3.0069408416748047,0.2360416498178977,[0.93985192],5.0,0.5,0.741529514209126,-5.0,5.0,0.4817320621239355
3.0726675987243652,0.26281127401082144,[0.86695304],5.0,0.5,0.715311379088483,-5.0,5.0,0.4817320621239355
3.134904384613037,0.2876269110363786,[0.79636993],5.0,0.5,0.6890932439678399,-5.0,5.0,0.4817320621239355
3.198920965194702,0.31361494036235577,[0.72838545],5.0,0.5,0.6628751088471967,-5.0,5.0,0.48173206212393666
3.2629520893096924,0.3390167735381229,[0.66322637],5.0,0.5,0.6366569737265535,-5.0,5.0,0.4817320628654156
3.329634666442871,0.36617719516452,[0.60106838],5.0,0.5,0.6104388386059104,-5.0,5.0,0.48174819302159066
3.390748977661133,0.3906020347566038,[0.54204252],5.0,0.5,0.5842207034852673,-5.0,5.0,0.4919170129223894
3.454773187637329,0.41678546279931766,[0.48614688],5.0,0.5,0.5580025683646241,-5.0,4.432663248627581,0.863783035388092
3.518810987472534,0.44218729597508477,[0.43355713],5.0,0.5,0.531784433243981,-5.0,9.944326632486277,1.4669465192061315
3.586380958557129,0.4695431163182186,[0.3848743],5.0,0.5,0.5055662981233379,-5.0,9.999443266324864,0.7201425018342538
3.6469647884368896,0.49338175976009235,[0.34040523],5.0,0.5,0.4793481630026947,-4.990268534454887,9.999994432663248,0.49107743395583764
3.7111260890960693,0.5191743903693328,[0.29987827],5.0,0.5,0.4531300278820516,-4.866196580670639,9.999999944326634,0.48274630528944434
3.776339054107666,0.5455532171287834,[0.26292161],5.0,0.5,0.42691189276140845,-4.394447942245641,9.999999999443267,0.48582954947166146
3.839040517807007,0.5709550503045504,[0.22925255],5.0,0.5,0.4006937576407653,-4.123684637038795,-8.747807009357018,0.4875005269928719
3.9028878211975098,0.5891271309610607,[0.19864683],5.0,0.5,0.3744756225201221,-5.0,-9.987478070093571,0.48173206212399255
3.967031955718994,0.564702291368977,[0.17090454],5.0,0.5,0.3482574873994789,-5.0,-9.999874780700937,0.4817320621239694
4.031536102294922,0.5381280658927898,[0.14584371],5.0,0.5,0.3220393522788358,-5.0,-9.999998747807009,0.4817320621239785
4.099236011505127,0.511358441699866,[0.12329993],5.0,0.5,0.2958212171581926,-5.0,-9.99999998747807,0.48173206212401865
4.159015893936157,0.4869336021077822,[0.10311941],5.0,0.5,0.2696030820375494,-5.0,-5.049999999874781,0.48173206212409564
4.222873210906982,0.4613363702152784,[0.08515622],5.0,0.5,0.24338494691690624,-5.0,-5.000499999998748,0.4817320621244465
4.286862134933472,0.43476214473909125,[0.06926973],5.0,0.5,0.21716681179626307,-2.543163350108788,-4.228639856223204,0.49520856130942187
4.356613397598267,0.4074063243959575,[0.05532197],5.0,0.5,0.19094867667561988,2.196780840450714,-1.6776097754386943,0.49642051185413777
4.414783954620361,0.38356768095408367,[0.04317728],5.0,0.5,0.16473054155497668,5.0,-0.37399336175743697,0.48173206221024123
4.478832721710205,0.3583612464950532,[0.0327033],5.0,0.5,0.13851240643433352,5.0,-0.009648908986132866,0.4817320627381849
4.543959617614746,0.33178702101886604,[0.02377158],5.0,0.5,0.11229427131369034,5.0,-0.06980447637368897,0.4817320678702793
4.606852293014526,0.3134195416456191,[0.01625813],5.0,0.5,0.08607613619304716,5.0,-0.3716291326667959,0.481732083500282
4.670860528945923,0.2968106507230021,[0.01004406],5.0,0.5,0.05985800107240398,5.0,-0.7051719106689296,0.48173213409402826
4.734838247299194,0.2755121905987051,[0.00501524],5.0,0.5,0.0336398659517608,5.0,-0.9913018126344246,0.48173250334479956
4.800595998764038,0.24952416127272792,[0.00106229],5.0,0.5,0.0074217308311176206,2.363814482135005,-1.1894836356992267,0.49586217070210975
4.8627471923828125,0.22431772681369744,[-0.0019189],5.0,0.5,0.0,2.482974934908654,-1.1468416218627373,0.4954674805001412
4.9268293380737305,0.198525096204457,[-0.00402703],5.0,0.5,0.0,3.988997324339438,-1.0203185929765188,0.4885673810888567
4.9907543659210205,0.1725370668784798,[-0.0053657],5.0,0.5,0.0,5.0,-1.0267035173105912,0.4835143113547981
5.058129787445068,0.14557204396881931,[-0.00604906],5.0,0.5,0.0,5.0,-0.9365935514112734,0.49180611684798636
5.118804693222046,0.12095180565999888,[-0.00617884],5.0,0.5,0.0,5.0,-0.7596444263226565,0.5211931515690571
5.182805776596069,0.09554997248423175,[-0.00583124],5.0,0.5,0.0,5.0,-0.5929578012812398,0.6097442023275699
5.247224807739258,0.06975734187499127,[-0.00507094],5.0,0.5,0.0,5.0,-0.4381448525307324,0.8080593609333522
5.312433242797852,0.04357391383227746,[-0.00395975],5.0,0.5,0.0,5.0,-0.29280128902058233,1.1181563251501565
5.3747618198394775,0.018953675523457014,[-0.00255576],5.0,0.5,0.0,5.0,-0.1516846083682738,1.3933528490088112
5.438780307769775,-0.006838955085783458,[-0.00091202],5.0,0.5,0.0,5.0,-0.0063377002952980654,1.47473097078487
5.502760410308838,-0.02442483959208378,[0.00092366],5.0,0.5,0.0,5.0,0.09382679292127229,1.3611374828151646
5.566783428192139,-0.03360857927870728,[0.00290806],5.0,0.5,0.0,5.0,0.14500422209270236,1.2476402314347197
5.630730390548706,-0.036148762596283995,[0.00500087],5.0,0.5,0.0,5.0,0.14556451810350132,1.1944579168517433
5.694810390472412,-0.033803977995443955,[0.00716284],5.0,0.5,0.0,5.0,0.11945929181135251,1.1966010628574941
5.761554718017578,-0.027160421626397167,[0.00935696],5.0,0.5,0.0,5.0,0.08174896356808958,1.247631889942011
5.822727680206299,-0.019344472956930356,[0.01155132],5.0,0.5,0.0,5.0,0.05348118879186468,1.3079390230342933
5.886785268783569,-0.010160733270306851,[0.01371983],5.0,0.5,0.0,5.0,0.019078797130220822,1.3739398436365993
5.95080304145813,-0.0017585884506300322,[0.01584114],5.0,0.5,0.0,5.0,-0.00540795250983499,1.4216618421532083
6.016679763793945,0.005861961502100107,[0.01789813],5.0,0.5,0.0,0.30750836098857093,-0.02237822148752168,1.4713714428961777
6.084385633468628,0.008597543536413491,[0.01987762],5.0,0.5,0.0,-5.0,-0.012956917189927182,1.4566051073668178
6.142854690551758,0.008597543536413491,[0.02176973],5.0,0.5,0.0,-5.0,0.011200873927549222,1.4476259339307627
6.206756830215454,0.008597543536413491,[0.02356725],5.0,0.5,0.0,-5.0,0.028770102034484147,1.4379031700530738
6.272334337234497,0.008597543536413491,[0.02526456],5.0,0.5,0.0,-5.0,0.04060592827716231,1.4276892950766353
6.334744215011597,0.008988340969886831,[0.02685708],5.0,0.5,0.0,-5.0,0.04663076059920048,1.4198699463173003
6.398719549179077,0.010160733270306851,[0.02834062],5.0,0.5,0.0,-5.0,0.039511258053263665,1.4177677634603782
6.46272349357605,0.012310119154410226,[0.02971103],5.0,0.5,0.0,-4.119467952115955,0.026838572376953192,1.4287646288087674
6.52674126625061,0.015241099905460279,[0.03096507],5.0,0.5,0.0,-3.0561148125973734,0.017122021848621993,1.4448495951528122
6.596309423446655,0.018562878089983675,[0.03210093],5.0,0.5,0.0,-2.651333719687192,-0.0019042353965201561,1.4588024106131154
6.654723882675171,0.021103061407560384,[0.03311799],5.0,0.5,0.0,-3.3318203078376425,-0.005770907040934541,1.4633453957149287
6.718722820281982,0.021493858841033726,[0.03401729],5.0,0.5,0.0,-5.0,-0.00211979676297332,1.4508516217632201
6.785015821456909,0.02129846012429706,[0.03480102],5.0,0.5,0.0,-5.0,0.004546462495210585,1.4459250393153622
6.846744775772095,0.021493858841033726,[0.03547226],5.0,0.5,0.0,-5.0,0.01217809870970827,1.4434066423375391
6.9107067584991455,0.02129846012429706,[0.03603515],5.0,0.5,0.0,-4.92457723358809,0.016941076909658136,1.4397649445755039
6.9766857624053955,0.02129846012429706,[0.03649417],5.0,0.5,0.0,-4.358635585534939,0.02063008678662817,1.4409244305134088
7.041952610015869,0.021493858841033726,[0.0368541],5.0,0.5,0.0,-3.6899721436969957,0.02312376389598335,1.4438749993104154
7.102672100067139,0.0216892575577704,[0.03712031],5.0,0.5,0.0,-3.070998672485187,0.02804503668524497,1.4465213125064786
7.166690826416016,0.022275453707980408,[0.0372987],5.0,0.5,0.0,-1.7206632682393739,0.026569889215097203,1.453664989759944
7.232170104980469,0.023252447291663758,[0.03739508],5.0,0.5,0.0,-0.9228218085018052,0.02305947477632879,1.4601531947522723
7.296983242034912,0.02462023830882045,[0.03741528],5.0,0.5,0.0,-0.16736105486532782,0.018097042046454855,1.467766775318631
7.358675956726074,0.02618342804271381,[0.03736534],5.0,0.5,0.0,0.15688554119537168,0.012730968778610324,1.475284738161605
7.422683477401733,0.027746617776607176,[0.03725143],5.0,0.5,0.0,0.27879169877079246,0.005852161342617359,1.4820361042637011
7.4874701499938965,0.0289190100770272,[0.03707961],5.0,0.5,0.0,-0.24304015452798716,0.0012326870266867497,1.4867252749431774
7.55514669418335,0.030091402377447216,[0.03685575],5.0,0.5,0.0,-1.1461294730258376,-0.003858246706538197,1.4899135766997602
7.614710092544556,0.030091402377447216,[0.03658564],5.0,0.5,0.0,-2.814758250162929,-0.0015449847046685881,1.4857373250378187
7.678749322891235,0.029700604943973877,[0.03627483],5.0,0.5,0.0,-3.27492072760913,-0.0006069360729702571,1.4834728051304016
7.744303941726685,0.029700604943973877,[0.03592836],5.0,0.5,0.0,-2.6671504177514143,-0.002059101636761652,1.487005528790549
7.806657075881958,0.029700604943973877,[0.03555098],5.0,0.5,0.0,-2.0750146639204674,-0.001570063530977782,1.4899830913457064
7.870616912841797,0.029700604943973877,[0.03514733],5.0,0.5,0.0,-1.5755188543909744,-0.0032941324377688133,1.492239828730209
7.936934947967529,0.029700604943973877,[0.03472168],5.0,0.5,0.0,-1.1818510844844616,-0.004517957807515812,1.4939317717100278
8.001281499862671,0.029700604943973877,[0.03427806],5.0,0.5,0.0,-0.8828746066049724,-0.005100273365993143,1.4952382516188814
8.066958904266357,0.029309807510500538,[0.03382041],5.0,0.5,0.0,-0.9366381199547091,-0.0027775870628997668,1.4952865357664538
8.126657485961914,0.0289190100770272,[0.03335268],5.0,0.5,0.0,-1.0825291855043502,0.0004855370030145633,1.4952046548565319
8.190598726272583,0.028528212643553853,[0.03287876],5.0,0.5,0.0,-0.941337310503195,0.002787363129404352,1.4955625170289195
8.25880241394043,0.028528212643553853,[0.0324023],5.0,0.5,0.0,-0.17115841781150287,0.002887727676839907,1.4969809860700891
8.318652153015137,0.028528212643553853,[0.03192673],5.0,0.5,0.0,0.10519748662149644,0.0033848047975581167,1.4976844433493142
8.382618188858032,0.028528212643553853,[0.03145526],5.0,0.5,0.0,0.1687723971534693,0.003067039863817972,1.4982667380310493
8.447038173675537,0.028528212643553853,[0.03099078],5.0,0.5,0.0,0.1497273258823948,0.0026384922140554614,1.4987711984968102
8.513951778411865,0.028528212643553853,[0.03051399],5.0,0.5,0.0,0.10590045610165458,-0.2472845294094342,1.4992032964171784
8.574616193771362,0.028332813926817187,[0.03003227],5.0,0.5,0.0,-0.4909265723714391,0.2839350695007208,1.499243160072215
8.63846731185913,0.0236432447251371,[0.02984862],5.0,0.5,0.0,-5.0,1.1041673448875233,1.4740603000214143
8.70306944847107,0.025206434459030463,[0.03076692],5.0,0.5,0.0,2.1431657345790134,2.2280445155435156,1.4904277872484863
8.766510248184204,0.046895692016800855,[0.03382121],5.0,0.5,0.0,5.0,2.6749478085064466,1.4481214626973646
8.830524206161499,0.07249292390930466,[0.03991612],5.0,0.5,0.0,5.0,3.0680631833233587,1.2904948475727123
8.894587278366089,0.09789475708507178,[0.04974604],5.0,0.5,0.0,5.0,3.046445961521137,1.110709607247295
8.960652828216553,0.12407818512778561,[0.06371618],5.0,0.5,0.0,5.0,2.749731238837152,0.9642610821558817
9.027106046676636,0.1510432080374461,[0.08190278],5.0,0.5,0.0,5.0,2.327121447336678,0.8661289678448998
9.086536407470703,0.1748818514793199,[0.10419396],5.0,0.5,0.0,2.8759702851439783,2.132023674503603,0.8619972691490899
9.150453090667725,0.20028368465508697,[0.13074383],5.0,0.5,0.0,-0.2788911329687349,3.2841623799096897,0.8801039018687331
9.216376781463623,0.2266625114145375,[0.1622667],5.0,0.5,0.0,-3.162909996493072,4.12505483672401,0.9289348897254914
9.283509016036987,0.2540183317576713,[0.19964122],5.0,0.5,0.0,-5.0,4.731850416764255,1.035298163279811
9.342487812042236,0.2770753803325984,[0.24349942],5.0,0.5,0.0,-5.0,4.875185056194598,1.2798738776587926
9.406501293182373,0.3028680109418389,[0.29425884],5.0,0.5,0.0,-5.0,5.388095414861391,1.4670178140660932
9.471797466278076,0.3290514389845527,[0.35228549],5.0,0.5,0.0,-5.0,5.693111537792014,1.3793917699819818
9.534666299819946,0.35464867087705654,[0.41765293],5.0,0.5,0.0,-5.0,5.089309289796938,0.9338069904826828
9.598591089248657,0.3798551053360869,[0.48983572],5.0,0.5,0.0,-5.0,4.42483048969159,0.5707295478245242
9.662478685379028,0.4058431346620641,[0.56789545],5.0,0.5,0.0,-5.0,3.8058316482612375,0.4869680986852215
9.729070663452148,0.4322219614215146,[0.65074439],5.0,0.5,0.0,-5.0,3.359854577853162,0.48180323414994886
9.79114818572998,0.4576237945972817,[0.73733221],5.0,0.5,0.0,-5.0,3.3710671310022136,0.48173222224115214
9.854557991027832,0.4828302290563122,[0.82628349],5.0,0.5,0.0,-5.0,1.3431266349204667,0.4817320621807046
9.918489217758179,0.5088182583822893,[0.91539316],5.0,0.5,0.0,-5.0,-0.14029506342795053,0.4817320621239399
9.985288143157959,0.5350016864250031,[1.00216661],5.0,0.5,0.0,-5.0,-1.0980774902416999,0.4817320621239355
10.046454191207886,0.5506335837639368,[1.08449665],5.0,0.5,0.0,-5.0,-1.2676632620442492,0.4817320621239355
10.110485315322876,0.5375418697425798,[1.16076218],5.0,0.5,0.0,-5.0,-1.1230335210140763,0.4817320621239355
10.174417972564697,0.511944637850076,[1.23004726],5.0,0.5,0.0,-5.0,0.6190138628432189,0.4817320621239355
10.241556882858276,0.4855658110906255,[1.29259056],5.0,0.5,0.0,-5.0,3.176810789780075,0.4817320621239355
10.30255389213562,0.47989924830526204,[1.34959741],5.0,0.5,0.0,5.0,5.104166838521175,0.4817320621239355
10.366453647613525,0.5049102840475559,[1.40258351],5.0,0.5,0.0,5.0,6.681704916220906,0.4817320621239355
10.430826663970947,0.5307029146567964,[1.4530156],5.0,0.5,0.0,5.0,7.522573546862409,0.4817320621239355
10.497060298919678,0.5578633362831935,[1.5020352],5.0,0.5,0.0,5.0,7.7042952316206375,0.4817320621239355
10.558517217636108,0.581897378441804,[1.55032309],5.0,0.5,0.0,5.0,7.606143672856113,0.4817320621239355
10.622445344924927,0.6076900090510444,[1.5982269],5.0,0.5,0.0,5.0,7.431704734528409,0.4817320621239355
10.687437534332275,0.6336780383770215,[1.64589522],5.0,0.5,0.0,5.0,7.18342573445239,0.4817320621239355
10.756115913391113,0.6614246561536288,[1.69333471],5.0,0.5,0.0,4.697115523235427,6.934914693658531,0.48384317613686334
10.814452886581421,0.6846771034452925,[1.74040711],5.0,0.5,0.0,2.800481490161948,6.532462439002242,0.49419584371925246
10.878410816192627,0.7106651327712696,[1.7868408],5.0,0.5,0.0,0.7174147883590576,6.259815852550489,0.4996170157239953
10.944844007492065,0.7370439595307202,[1.83233489],5.0,0.5,0.0,-1.3145478965711739,6.091701320749434,0.49871530223335425
11.0107901096344,0.763813583723644,[1.87663138],5.0,0.5,0.0,-2.65216924349413,5.993894296962741,0.494791206830016
11.070411205291748,0.7876522271655179,[1.91951352],5.0,0.5,0.0,-3.4802385927414754,5.958149857904366,0.49106458145303244
11.134376525878906,0.8132494590580216,[1.96080705],5.0,0.5,0.0,-3.9451361592673457,5.9637612736159475,0.48854727897156325
11.201504707336426,0.840214481967682,[2.00038761],5.0,0.5,0.0,-3.8813818805271616,6.003758564651483,0.4889103424131094
11.26761269569397,0.8662025112936592,[2.03817522],5.0,0.5,0.0,-4.165015157362908,6.035391716774285,0.48725195143472594
11.326398372650146,0.8898457560187963,[2.07411272],5.0,0.5,0.0,-3.904560003249581,6.160639862187138,0.48877900242561484
11.390454292297363,0.9154429879113001,[2.10815633],5.0,0.5,0.0,-3.7475784932919565,6.219302531685274,0.48965392363084576
11.4563467502594,0.941626415954014,[2.14027878],5.0,0.5,0.0,-3.608771041724808,6.237578024056899,0.49039888062970277
11.51839828491211,0.966442052979571,[2.17046605],5.0,0.5,0.0,-3.458883800256527,6.213574721665292,0.4911729300002619
11.582355260848999,0.9920392848720748,[2.19871313],5.0,0.5,0.0,-3.0163624770373145,6.168548547801437,0.49327278003939923
11.646532773971558,1.0176365167645787,[2.22502753],5.0,0.5,0.0,-3.0795724005387823,6.124216941358798,0.49298988532032617
11.71320652961731,1.0442107422407658,[2.24943149],5.0,0.5,0.0,-2.9806246715339433,6.077413757494936,0.49343019793766646
11.774369239807129,1.0684401831161128,[2.27196037],5.0,0.5,0.0,-3.0885331105532847,6.042887704932778,0.49294932036250216
11.838402032852173,1.09384201629188,[2.29266091],5.0,0.5,0.0,-2.9294458752574233,6.0038284285549866,0.4936524485247524
11.902592658996582,1.1196346469011205,[2.31159007],5.0,0.5,0.0,-2.9554976167138323,5.9652960214252975,0.49353978392983944
11.969604969024658,1.1462088723773076,[2.32881338],5.0,0.5,0.0,-2.724709946728506,5.912795614414406,0.49450396704451216
12.030373334884644,1.1710245094028648,[2.34440232],5.0,0.5,0.0,-2.4223731241954685,5.8610147866675355,0.49565096292281524
12.094356536865234,1.196426342578632,[2.35843261],5.0,0.5,0.0,-2.125372993332925,5.7995815924364225,0.49664866806664515
12.15830659866333,1.2220235744711359,[2.37098321],5.0,0.5,0.0,-1.861016826132142,5.73008118745302,0.4974284908024309
12.223471641540527,1.2480116037971127,[2.38213515],5.0,0.5,0.0,-1.6350674850850706,5.650070120687844,0.49801384091646195
12.286442041397095,1.2732180382561433,[2.39197047],5.0,0.5,0.0,-1.4447947070374125,5.56852802270341,0.49844852675648654
12.350412607192993,1.2978382765649636,[2.40057166],5.0,0.5,0.0,-1.2848240736201852,5.485157283086134,0.4987726725756288
12.41655945777893,1.324412502041151,[2.40802113],5.0,0.5,0.0,-0.8735489025610148,5.387227118229996,0.49943227967107967
12.483007907867432,1.3511821262340749,[2.41440062],5.0,0.5,0.0,-0.7250517257304083,5.283641934922891,0.4996088217364449
12.54231572151184,1.374629972242475,[2.41979057],5.0,0.5,0.0,-0.40464454625178,5.192033560018953,0.49987812878951404
12.606312990188599,1.3998364067015054,[2.42424336],5.0,0.5,0.0,-0.36094233514504676,4.8218165933914925,0.49990302937258807
12.671176671981812,1.4254336385940094,[2.42745166],5.0,0.5,0.0,-0.6863495956213446,3.4852298695256168,0.499649453887754
12.736406564712524,1.4514216679199867,[2.4284398],5.0,0.5,0.0,-0.7845081716306771,2.0522086712968384,0.4995420662371784
12.798478603363037,1.4758465075120701,[2.42593915],5.0,0.5,0.0,-1.0574668034191146,1.0954735314349062,0.4991682770268901
12.862359285354614,1.5010529419711007,[2.41878536],5.0,0.5,0.0,-1.0461209518087782,0.12343720291733912,0.4991860143916756
12.927728176116943,1.526454775146868,[2.40594825],5.0,0.5,0.0,-1.4849080362856384,-0.4766593329862236,0.4983613237895675
12.990289449691772,1.5469716404042184,[2.38674145],5.0,0.5,0.0,-5.0,-0.32476618081278585,0.4817320621239355
13.054282665252686,1.5506842160222152,[2.36097497],5.0,0.5,0.0,-5.0,-0.1147720900608094,0.4817320621239355
13.118316650390625,1.5403280840351714,[2.32880949],5.0,0.5,0.0,-5.0,0.3558578493278639,0.4817320621239355
13.182379722595215,1.5260639777133946,[2.29068339],5.0,0.5,0.0,-5.0,0.9375862410812293,0.4817320621239355
13.24633002281189,1.5213744085117145,[2.24724987],5.0,0.5,0.0,-3.932872085072723,1.2676696451552358,0.48861755799294104
13.310358762741089,1.5387648943012782,[2.19922855],5.0,0.5,0.0,5.0,1.3920690543137362,0.4817320621239355
13.374259948730469,1.564362126193782,[2.14734945],5.0,0.5,0.0,5.0,1.3776797137432741,0.4817320621239355
13.440067052841187,1.5901547568030223,[2.09234212],5.0,0.5,0.0,5.0,1.2836479932147224,0.4817320621239355
13.502254962921143,1.6149703938285795,[2.03491669],5.0,0.5,0.0,5.0,1.132741534411866,0.481732062123936
13.566230773925781,1.64017682828761,[1.97574729],5.0,0.5,0.0,5.0,0.9000026496955802,0.48173206228952536
13.63086223602295,1.6651878640299036,[1.91545692],5.0,0.5,0.0,5.0,0.6304650851868967,0.4817356897946259
13.69730544090271,1.6915666907893543,[1.85461637],5.0,0.5,0.0,5.0,0.3188189800596663,0.48663932196823806
13.758239030838013,1.7152099355144914,[1.79374747],5.0,0.5,0.0,4.014938787731252,0.0061894111329909955,0.7793770887309576
13.82225751876831,1.739830173823312,[1.73332143],5.0,0.5,0.0,1.3344867592543874,-0.340357310750187,1.4902391199368537
13.886367797851562,1.7529218878446686,[1.67375479],5.0,0.5,0.0,-5.0,-0.6385007877906422,0.7672399162753059
13.953747987747192,1.7488185147931987,[1.6154107],5.0,0.5,0.0,-5.0,-0.8548051106857558,0.5101842896464102
14.014352798461914,1.728301649535848,[1.5586035],5.0,0.5,0.0,-5.0,-1.1132793769928584,0.4848847729919869
14.078255891799927,1.702509018926608,[1.50360058],5.0,0.5,0.0,-5.0,-1.251944386154197,0.4820980489509783
14.142497539520264,1.6767163883173675,[1.45062359],5.0,0.5,0.0,-5.0,-1.3504213936204508,0.4817683658466933
14.210423946380615,1.6493605679742336,[1.39985161],5.0,0.5,0.0,-5.0,-1.4241269154989766,0.481735976148247
14.270251989364624,1.625326525815623,[1.35142527],5.0,0.5,0.0,-5.0,-1.501656581229725,0.481732366689626
14.334306955337524,1.5989476990561724,[1.30545],5.0,0.5,0.0,-0.8937989909822619,-1.5653251339970475,0.49940570226850484
14.399496078491211,1.5727642710134586,[1.26206113],5.0,0.5,0.0,3.9563727523504966,-1.3071218928279915,0.48848270885934175
14.462273836135864,1.5465808429707448,[1.22175287],5.0,0.5,0.0,5.0,-0.016904901574138965,0.481732062808223
14.526308298110962,1.5211790097949778,[1.18564614],5.0,0.5,0.0,5.0,1.3545303397730855,0.4817320622903629
14.590296268463135,1.4994897522372075,[1.15517421],5.0,0.5,0.0,5.0,2.3118646000124223,0.4817320621743552
14.655864238739014,1.510432080374461,[1.13165234],5.0,0.5,0.0,5.0,2.835773610062901,0.48173206212428066
14.718217372894287,1.534661521249808,[1.11607912],5.0,0.5,0.0,5.0,2.715587819860989,0.4817320621239361
14.782222509384155,1.560258753142312,[1.10907973],5.0,0.5,0.0,5.0,2.6332501318800494,0.4817320621239355
14.846266031265259,1.5852697888846057,[1.11092495],5.0,0.5,0.0,5.0,2.044594792024845,0.4817320621239355
14.912633895874023,1.6110624194938463,[1.1214396],5.0,0.5,0.0,5.0,1.213445371683568,0.4817320621239355
14.974178314208984,1.63548725908593,[1.14000878],5.0,0.5,0.0,5.0,0.3515826457725736,0.4817320621239355
15.038236379623413,1.6603028961114872,[1.16577611],5.0,0.5,0.0,4.668787021351093,-0.2862512688328619,0.4840343375852559
15.102202415466309,1.6849231344203075,[1.19780961],5.0,0.5,0.0,0.7967756400644723,-0.8107171075042922,0.4995276395292449
15.169272899627686,1.6956700638408244,[1.23515654],5.0,0.5,0.0,-5.0,-1.1539407840248603,0.4817320621239355
15.230261325836182,1.681210558802311,[1.27687252],5.0,0.5,0.0,-5.0,-1.2073830956202611,0.4817320621239418
15.294315338134766,1.655027130759597,[1.3220729],5.0,0.5,0.0,-5.0,-1.083628746499647,0.4817320623588725
15.358723640441895,1.6292345001503563,[1.36995292],5.0,0.5,0.0,-5.0,-0.8807800299702101,0.48173351003722564
15.424037456512451,1.6024648759574327,[1.41978472],5.0,0.5,0.0,-5.0,-0.6159292821578628,0.4829948820661111
15.486202955245972,1.577453840215139,[1.47091522],5.0,0.5,0.0,-5.0,-0.3122729028227423,0.5850343928325349
15.55009651184082,1.5510750134556883,[1.52278182],5.0,0.5,0.0,-5.0,0.09929043518851854,1.3337898363303633
15.61416244506836,1.5254777815631846,[1.57492988],5.0,0.5,0.0,-2.1403559687024876,0.5361548808722241,1.1097781558443967
15.678254842758179,1.5075010996234108,[1.62698411],5.0,0.5,0.0,5.0,0.8849596222389693,0.5392741799313597
15.742203712463379,1.506133308606254,[1.67860563],5.0,0.5,0.0,5.0,1.133003860479948,0.4843396216956055
15.806291103363037,1.525868578996658,[1.729483],5.0,0.5,0.0,5.0,1.2547082764971837,0.4819826335720498
15.870542764663696,1.5510750134556883,[1.77933408],5.0,0.5,0.0,5.0,1.3368406246208735,0.4817618788730774
15.936590433120728,1.577453840215139,[1.82794771],5.0,0.5,0.0,5.0,1.588467294369901,0.4817356090283901
15.998207092285156,1.6014878823737493,[1.87532273],5.0,0.5,0.0,5.0,2.2273180394938756,0.48173236891311877
16.06217622756958,1.627085114266253,[1.92158852],5.0,0.5,0.0,5.0,2.2027362661340764,0.48173209140130313
16.127148628234863,1.6522915487252834,[1.96663304],5.0,0.5,0.0,5.0,1.7777390502807908,0.4817320647386405
16.190258264541626,1.6767163883173675,[2.01003651],5.0,0.5,0.0,2.1541391358448103,1.4376858515688757,0.4965576513908257
16.25421905517578,1.7017274240596612,[2.0512949],5.0,0.5,0.0,-1.3792215974365096,1.1275755493764132,0.49858596573271957
16.31819748878479,1.7267384598019548,[2.08999723],5.0,0.5,0.0,-4.170029730405079,1.2103094802641066,0.48722163217446895
16.384296417236328,1.7529218878446686,[2.1259533],5.0,0.5,0.0,-5.0,1.415212810791849,0.48173206212475467
16.44672989845276,1.7769559300032791,[2.15915276],5.0,0.5,0.0,-5.0,1.5669848988831088,0.48173206212414066
16.51020884513855,1.8017715670288363,[2.18953548],5.0,0.5,0.0,-5.0,1.218497772932654,0.48173206212402253
16.574137926101685,1.82678260277113,[2.21658512],5.0,0.5,0.0,-5.0,-0.21955727470514283,0.4817320621239989
16.640271425247192,1.852184435946897,[2.23916659],5.0,0.5,0.0,-5.0,-1.4920013059994206,0.48173206212403374
16.70218276977539,1.861172776916784,[2.25602741],5.0,0.5,0.0,-5.0,-1.9556760604097148,0.4817320621239642
16.766810417175293,1.8385065257753306,[2.26616768],5.0,0.5,0.0,-5.0,-2.4491055830438766,0.4817320621239356
16.831352949142456,1.81212769901588,[2.26878285],5.0,0.5,0.0,-5.0,-2.453596092551867,0.4817320621239355
16.89671778678894,1.785358074822956,[2.26339651],5.0,0.5,0.0,-5.0,-2.0540038390960595,0.4817320621239355
16.95814609527588,1.7609332352308722,[2.25002528],5.0,0.5,0.0,-5.0,-1.3215613457562865,0.4817320621239355
17.02218461036682,1.7345544084714217,[2.22907582],5.0,0.5,0.0,-5.0,-0.7535268851039598,0.4817320621239355
17.087096452713013,1.7081755817119713,[2.20114537],5.0,0.5,0.0,-4.123845501257937,-0.21240384943850685,0.48749956399075367
17.15350365638733,1.681210558802311,[2.16693409],5.0,0.5,0.0,-0.14781411799675181,0.2467357865878412,0.4999837358472516
17.214234828948975,1.6569811179269638,[2.12722471],5.0,0.5,0.0,5.0,0.6325634019510112,0.4817320621239355
17.27817130088806,1.6409584231545566,[2.08282779],5.0,0.5,0.0,5.0,0.8157992690025788,0.4817320621239355
17.343601942062378,1.6429124103219235,[2.03452979],5.0,0.5,0.0,5.0,0.8346134548354736,0.48173206212398323
17.410123825073242,1.6642108704462204,[1.98307937],5.0,0.5,0.0,5.0,0.685089429201122,0.48173206359773213
17.47014856338501,1.6882449126048311,[1.92919197],5.0,0.5,0.0,5.0,0.49058697530438167,0.4817411270579652
17.534132957458496,1.7130605496303881,[1.8735419],5.0,0.5,0.0,5.0,0.22727610951342475,0.4875265217971795
17.603379487991333,1.7400255725400484,[1.81674909],5.0,0.5,0.0,5.0,-0.07660780065635545,0.7898416476304441
17.666826963424683,1.7613240326643456,[1.75937688],5.0,0.5,0.0,5.0,-0.3758146890738961,1.4809740712805446
17.726133346557617,1.769335380050549,[1.70193684],5.0,0.5,0.0,-5.0,-0.6193513653371321,0.884855483308285
17.79009199142456,1.7626918236815023,[1.64488773],5.0,0.5,0.0,-5.0,-0.8093336677795743,0.5440465858336632
17.854443788528442,1.7394393763898388,[1.58863343],5.0,0.5,0.0,-5.0,-0.9667809242597972,0.49231526798122704
17.918110847473145,1.7134513470638615,[1.53352543],5.0,0.5,0.0,-5.0,-1.1611444445131438,0.4832740739846305
17.982115268707275,1.6876587164546208,[1.47986617],5.0,0.5,0.0,-5.0,-1.2831315377773385,0.48190973823582994
18.046043157577515,1.6616706871286435,[1.42820109],5.0,0.5,0.0,-5.0,0.0025642325474460673,0.4817504906583182
18.11267638206482,1.6352918603691935,[1.37972602],5.0,0.5,0.0,-5.0,1.4476671794821392,0.4817341849125764
18.173968076705933,1.617510577146156,[1.33596973],5.0,0.5,0.0,5.0,2.0327922497000586,0.48173219247307353
18.23811173439026,1.6321654809014066,[1.29829587],5.0,0.5,0.0,5.0,2.6408757280882513,0.4817320623318731
18.30220627784729,1.6571765166437002,[1.26793553],5.0,0.5,0.0,5.0,2.974607608746782,0.4817320621240047
18.368364095687866,1.6831645459696776,[1.24599203],5.0,0.5,0.0,5.0,3.1565628997687805,0.4817320621239355
18.430087327957153,1.7073939868450245,[1.23320138],5.0,0.5,0.0,5.0,2.596406660297672,0.4817320621239355
18.494110584259033,1.7322096238705815,[1.22971772],5.0,0.5,0.0,5.0,1.7611949183832796,0.4817320621239355
18.558228492736816,1.7574160583296121,[1.23524786],5.0,0.5,0.0,5.0,1.1911650833650975,0.4817320621239355
18.625532150268555,1.7834040876555892,[1.24878551],5.0,0.5,0.0,3.4397280177044443,-1.7019166364626928,0.49126957411758526
18.68607807159424,1.8048979464966233,[1.26826653],5.0,0.5,0.0,-5.0,-3.517177326610557,0.4817320621239355
18.75009536743164,1.7890706504409528,[1.29172841],5.0,0.5,0.0,-5.0,-2.9334605190143024,0.4817320621239355
18.814520597457886,1.762887222398239,[1.31855673],5.0,0.5,0.0,-5.0,-1.0001873387281097,0.4817320621239355
18.88110876083374,1.7357268007718416,[1.34902585],5.0,0.5,0.0,-5.0,-0.3346791749026412,0.48173206212403813
18.942028999328613,1.7111065624630215,[1.38319945],5.0,0.5,0.0,-5.0,-0.18296606179525415,0.48173206258172324
19.006011962890625,1.6851185331370444,[1.42070702],5.0,0.5,0.0,-5.0,-0.06388513633515687,0.48173290817168873
19.070732593536377,1.6589351050943304,[1.46104002],5.0,0.5,0.0,-5.0,0.04470736916657596,0.4821286976961558
19.13453245162964,1.6350964616524568,[1.50365571],5.0,0.5,0.0,-0.7988284549885627,0.16347620397725018,0.5311019561111187
19.198018550872803,1.6173151784294195,[1.54801005],5.0,0.5,0.0,5.0,0.30371313391430876,0.8643798904648154
19.262065172195435,1.6077406413093227,[1.59358766],5.0,0.5,0.0,5.0,0.4467153453271331,1.442462544216272
19.328205108642578,1.6073498438758493,[1.63991444],5.0,0.5,0.0,5.0,0.5740792836361641,1.2906234541902322
19.38997459411621,1.616338184845736,[1.68655691],5.0,0.5,0.0,5.0,0.6697172213932749,0.8547481416075435
19.45398712158203,1.635878056519403,[1.73312215],5.0,0.5,0.0,5.0,0.7376634442150505,0.6326101830424726
19.518974542617798,1.6610844909784337,[1.7792605],5.0,0.5,0.0,5.0,0.7857122815938774,0.5429623115986654
19.5824236869812,1.685704729287254,[1.82466307],5.0,0.5,0.0,5.0,0.9326247912848868,0.5027604069711483
19.651798009872437,1.7128651509136512,[1.86905952],5.0,0.5,0.0,5.0,1.0378615763721402,0.4893341191891168
19.710020303726196,1.7359221994885783,[1.91221818],5.0,0.5,0.0,5.0,1.110686003960753,0.483729170845529
19.774007081985474,1.761128633947609,[1.95394398],5.0,0.5,0.0,3.061754987098273,1.1561063320706055,0.49366010756238776
19.839988708496094,1.786530467123376,[1.99407666],5.0,0.5,0.0,-0.42287449209045924,1.1919278733180314,0.5000482514046769
19.90710473060608,1.8129092938828264,[2.03248833],5.0,0.5,0.0,-3.7382856744726944,1.2199721449355647,0.48976951753142095
19.966032028198242,1.8357709437410168,[2.06908042],5.0,0.5,0.0,-5.0,1.2623438750985871,0.48175076819025237
20.030694007873535,1.861172776916784,[2.10378171],5.0,0.5,0.0,-5.0,1.2953873576215549,0.4817397811768656
20.096805095672607,1.8867700088092878,[2.13654604],5.0,0.5,0.0,-5.0,1.3192343935058064,0.4817358731473869
20.15799617767334,1.910804050967898,[2.1673486],5.0,0.5,0.0,-5.0,1.3369812886675265,0.48173398243870325
20.221927642822266,1.9354242892767186,[2.19622465],5.0,0.5,0.0,-5.0,1.4967991060250367,0.4817332984507421
20.28600263595581,1.9604353250190127,[2.22319335],5.0,0.5,0.0,-5.0,1.0345046290289914,0.4817330693043237
20.35313844680786,1.9862279556282532,[2.24789497],5.0,0.5,0.0,-5.0,-0.009741526057995505,0.4817331914098821
20.413950204849243,2.0094804029199165,[2.26947653],5.0,0.5,0.0,-5.0,-0.9289033720363118,0.4817334064782587
20.477978229522705,2.0210089272073803,[2.2868849],5.0,0.5,0.0,-5.0,-1.8682573720694864,0.48173278646253387
20.54403829574585,2.003032245267607,[2.29911399],5.0,0.5,0.0,-5.0,-2.149749030904631,0.4817320864217249
20.609473705291748,1.976067222357946,[2.305439],5.0,0.5,0.0,-5.0,-1.9573070174148781,0.4817320625015475
20.669918060302734,1.951446984049126,[2.30558231],5.0,0.5,0.0,-5.0,-1.3894648362926425,0.48173206213672537
20.73393702507019,1.9250681572896753,[2.29963693],5.0,0.5,0.0,-5.0,-0.925408880607405,0.4817320621245864
20.799027681350708,1.8986893305302248,[2.28789711],5.0,0.5,0.0,-5.0,-0.4222101361472414,0.48173206212400504
20.865073204040527,1.871333510187091,[2.27078242],5.0,0.5,0.0,-4.416378284684295,0.01902292653117676,0.48568969443026827
20.925960540771484,1.8474948667452171,[2.24881556],5.0,0.5,0.0,-0.35810232364112293,0.42555209877846867,0.4999045492167742
20.98991322517395,1.8269780014878667,[2.2225738],5.0,0.5,0.0,5.0,0.6815558295653713,0.481732062123961
21.054336071014404,1.8199436476853468,[2.19264119],5.0,0.5,0.0,5.0,0.8134877810988361,0.48173206212479647
21.12272000312805,1.8310813745393368,[2.15958918],5.0,0.5,0.0,5.0,0.7846945349780103,0.48173206254700884
21.181960105895996,1.8533568282473172,[2.12397673],5.0,0.5,0.0,5.0,0.6761524981719802,0.48173249751289887
21.247320890426636,1.8783678639896109,[2.08640831],5.0,0.5,0.0,5.0,0.775198064636976,0.4819061125267732
21.309966564178467,1.9029881022984314,[2.04775355],5.0,0.5,0.0,5.0,1.5227310015495388,0.49685705437667044
21.37464737892151,1.927608340607252,[2.00939956],5.0,0.5,0.0,5.0,2.774226352663844,0.7441122879042912
21.438108682632446,1.9520331801993358,[1.97312623],5.0,0.5,0.0,5.0,3.610187486673416,1.396592849742667
21.50489330291748,1.978021209525313,[1.94069162],5.0,0.5,0.0,4.038339044350545,4.164947620071966,1.2447735080986804
21.568290948867798,2.0026414478341334,[1.91342668],5.0,0.5,0.0,1.3757615932968248,3.6136445026470594,0.7021407360093546
21.630107879638672,2.0262846925592704,[1.89195219],5.0,0.5,0.0,-1.6211687523751217,2.7499294035122803,0.5251251066403118
21.693935871124268,2.0511003295848274,[1.87630019],5.0,0.5,0.0,-4.136889939407972,1.848227694525894,0.48963965338475257
21.757962465286255,2.075915966610385,[1.86619548],5.0,0.5,0.0,-5.0,1.0118111956147737,0.48188331815221447
21.821948289871216,2.099950008768995,[1.86120357],5.0,0.5,0.0,-5.0,0.3577485986070619,0.48174325792141776
21.88587260246277,2.1243748483610787,[1.86083939],5.0,0.5,0.0,-5.0,-0.13222851663808166,0.48173299016687937
21.95026159286499,2.1460641059188497,[1.8646169],5.0,0.5,0.0,-5.0,-0.5133337772507289,0.4817321938546124
22.01571559906006,2.1517306687042126,[1.87205647],5.0,0.5,0.0,-5.0,-0.710437354849605,0.4817322228552628
22.07794690132141,2.1370757649489627,[1.88268734],5.0,0.5,0.0,-5.0,-0.7692771163144867,0.4817344557663807
22.14214301109314,2.111087735622985,[1.89605837],5.0,0.5,0.0,-5.0,-0.6625438670911988,0.48182841192092873
22.205951690673828,2.0849043075802713,[1.91175287],5.0,0.5,0.0,-5.0,-0.5455373145055614,0.48422004211785635
22.274286031723022,2.0573530885204008,[1.92938786],5.0,0.5,0.0,-5.0,-0.361046254464846,0.519548182346272
22.333848476409912,2.0321466540613704,[1.94860874],5.0,0.5,0.0,-5.0,-0.2012256635239707,0.7293875583941254
22.40426468849182,2.0038138401345535,[1.96908023],5.0,0.5,0.0,-4.423428002869665,0.09893524117740699,1.2712625749940334
22.46191167831421,1.979779797975943,[1.99049231],5.0,0.5,0.0,0.06918720849339977,0.347907929861453,1.4773062360174094
22.526917695999146,1.959458331435329,[2.01257134],5.0,0.5,0.0,5.0,0.5664515613661139,1.05054799099927
22.589893341064453,1.9508607878989157,[2.03507025],5.0,0.5,0.0,5.0,0.6985154772289418,0.7238702574484719
22.653921604156494,1.9567227494010155,[2.05776368],5.0,0.5,0.0,5.0,0.7462360943870905,0.6115199293846211
22.71788501739502,1.976067222357946,[2.08045135],5.0,0.5,0.0,5.0,0.7257507511380329,0.5948629981308887
22.7834792137146,2.0014690555337133,[2.10295747],5.0,0.5,0.0,5.0,0.6757711316942845,0.6091886383871837
22.84698486328125,2.025893895125797,[2.12512834],5.0,0.5,0.0,5.0,0.6361919497702252,0.6212593639370865
22.909842491149902,2.0505141334346177,[2.14683092],5.0,0.5,0.0,5.0,0.5995049138613708,0.6381248331162993
22.97387671470642,2.0751343717434376,[2.16795199],5.0,0.5,0.0,5.0,0.5671908574002971,0.6602579023176831
23.039262533187866,2.0997546100522584,[2.18839701],5.0,0.5,0.0,5.0,0.5340012289056134,0.6894664763767995
23.102475881576538,2.1239840509276053,[2.20808821],5.0,0.5,0.0,2.1128089605357037,0.4974861408871548,0.7396861149608432
23.16585087776184,2.1482134918029527,[2.22696288],5.0,0.5,0.0,-1.192835929727738,0.4612491790172641,0.7882413341196006
23.229777097702026,2.1726383313950364,[2.2449726],5.0,0.5,0.0,-3.990836399641693,0.4226986557800247,0.839466009639499
23.296035051345825,2.1968677722703833,[2.26208214],5.0,0.5,0.0,-5.0,0.38183733418805604,0.9088979882109581
23.36087703704834,2.218361631111417,[2.27826773],5.0,0.5,0.0,-5.0,0.3499349765009487,0.9695816870836865
23.42177176475525,2.234579724600561,[2.2935156],5.0,0.5,0.0,-5.0,0.34143205318770986,0.9809624595494724
23.485766887664795,2.2488438309223375,[2.30782117],5.0,0.5,0.0,-5.0,0.3428070448685778,0.9804746289966773
23.552724599838257,2.258809165475908,[2.32118822],5.0,0.5,0.0,-5.0,0.3615692690063913,0.9409504598029859
23.6136794090271,2.264671126978008,[2.33362757],5.0,0.5,0.0,-5.0,0.3928642615283144,0.8680872708293208
23.677745580673218,2.2681883038792683,[2.34515587],5.0,0.5,0.0,-5.0,0.4354256340647709,0.7875390342465323
23.741979598999023,2.270728487196845,[2.35579532],5.0,0.5,0.0,-5.0,0.47671788109631197,0.7169428501427202
23.807393312454224,2.2742456640981046,[2.36557266],5.0,0.5,0.0,-5.0,0.5053880071095597,0.6703325903231571
23.86975622177124,2.278935233299785,[2.37451795],5.0,0.5,0.0,-3.014281430170521,0.521153785081022,0.6541435778927849
23.933719396591187,2.2857741883855685,[2.38266407],5.0,0.5,0.0,1.500018702840268,0.524763758214393,0.6512953450483148
23.997900247573853,2.295153326788929,[2.39004661],5.0,0.5,0.0,5.0,0.5112009607758864,0.646874456643461
24.06458806991577,2.307854243376812,[2.39670313],5.0,0.5,0.0,5.0,0.47664204233978025,0.6879493164035895
24.125787496566772,2.320164362531223,[2.40267225],5.0,0.5,0.0,5.0,0.43916147403290223,0.7380055098658662
24.189722537994385,2.3336468739860523,[2.40799323],5.0,0.5,0.0,5.0,0.39611819802708004,0.8127852548783276
24.255120515823364,2.3459569931404625,[2.41270585],5.0,0.5,0.0,4.542013252943441,0.35625583321992144,0.8950882412692698
24.317633628845215,2.3570947199944534,[2.41684971],5.0,0.5,0.0,0.6829569477786788,0.3186905378689546,0.9892698821669197
24.381767749786377,2.3656922635308666,[2.42046379],5.0,0.5,0.0,-4.098295259846325,0.29345135123826155,1.0364724218666719
24.446199655532837,2.3711634275994937,[2.42358646],5.0,0.5,0.0,-5.0,0.2836474411649481,1.0588926064154551
24.510037422180176,2.373312813483597,[2.4262554],5.0,0.5,0.0,-5.0,0.28811817566107084,1.0526078699649664
24.577521800994873,2.3735082122003335,[2.42850732],5.0,0.5,0.0,-5.0,0.3006568930270097,1.027817183186182
24.637697219848633,2.3735082122003335,[2.43037755],5.0,0.5,0.0,-5.0,0.3084306223995029,1.005438315430916
24.701695442199707,2.3735082122003335,[2.43189985],5.0,0.5,0.0,-4.993650512606715,0.3147808436903632,0.9874245147916891
24.767038583755493,2.3735082122003335,[2.43310648],5.0,0.5,0.0,-3.3560746654389506,0.31950342526143455,0.9831377319752755
24.82976222038269,2.3735082122003335,[2.43402825],5.0,0.5,0.0,-1.4641104454004206,0.32247390153489086,0.9790957665592033
24.893651962280273,2.37370361091707,[2.43469453],5.0,0.5,0.0,0.16786295423997954,0.3257512053140874,0.9751984928130111
24.95786762237549,2.3735082122003335,[2.43513347],5.0,0.5,0.0,1.404030008329641,0.3301620125415837,0.96641889021409
25.02374839782715,2.37370361091707,[2.43537178],5.0,0.5,0.0,2.2610273187749623,0.3308497296939939,0.9635982838715547
25.085673570632935,2.37370361091707,[2.43543435],5.0,0.5,0.0,2.805970154956892,0.32950438322692105,0.9608413183207855
25.149659633636475,2.3735082122003335,[2.43534416],5.0,0.5,0.0,3.1132206696919678,0.32890608561296675,0.958293345287991
25.2137131690979,2.37370361091707,[2.43512237],5.0,0.5,0.0,3.2481980110851874,0.32527585074225096,0.962475191839254
25.27989435195923,2.37370361091707,[2.4347885],5.0,0.5,0.0,3.2630793196645955,0.322192911530247,0.9662668502880054
25.34165930747986,2.37370361091707,[2.43436042],5.0,0.5,0.0,3.197305305211894,0.31877069465762925,0.9715459913210966
25.405699491500854,2.3735082122003335,[2.43385457],5.0,0.5,0.0,3.0796896758263212,0.31709894924840737,0.9757006403717958
25.469674825668335,2.37370361091707,[2.43328605],5.0,0.5,0.0,2.9307717399057083,0.3130978549335615,0.9852842898316316
25.538576126098633,2.3735082122003335,[2.43266864],5.0,0.5,0.0,2.7648996082268593,0.31053534419273504,0.9909312558877149
25.597961902618408,2.37370361091707,[2.43201464],5.0,0.5,0.0,2.591905135234117,0.3049334462349722,1.0016231973519387
25.661622762680054,2.37370361091707,[2.43133502],5.0,0.5,0.0,2.418383356584116,0.3009522693486936,1.010311309862217
25.7264621257782,2.37370361091707,[2.43063952],5.0,0.5,0.0,2.2486403231769656,0.29672870502468635,1.0191634932825546
25.79450535774231,2.3735082122003335,[2.42993679],5.0,0.5,0.0,2.0853815382072485,0.2935922202428664,1.0257361588225775
25.853536367416382,2.3735082122003335,[2.42923438],5.0,0.5,0.0,1.930205271920145,0.2891088063612282,1.0345974324531366
25.91770625114441,2.37370361091707,[2.42853886],5.0,0.5,0.0,1.7839526039803482,0.2846979347162996,1.0456908371473848
25.982211589813232,2.37370361091707,[2.42785601],5.0,0.5,0.0,1.6469539103691835,0.28149050999829067,1.0542577272426352
26.049520015716553,2.3735082122003335,[2.42719086],5.0,0.5,0.0,1.51920130135353,0.27960038346020766,1.0602219510600406
26.1096408367157,2.3735082122003335,[2.42654776],5.0,0.5,0.0,1.4004685116743638,0.27676132880079146,1.0682459588808157
26.173669576644897,2.37370361091707,[2.42593041],5.0,0.5,0.0,1.2903937117204933,0.2743802112186992,1.0782978387783602
26.238906383514404,2.37370361091707,[2.42534213],5.0,0.5,0.0,1.18853627190876,0.2731669053575476,1.0856110142144173
26.30395007133484,2.37370361091707,[2.4247857],5.0,0.5,0.0,1.0944153003641186,0.2712902705794298,1.092515521313878
26.36553692817688,2.37370361091707,[2.42426326],5.0,0.5,0.0,1.0075354725905923,0.26894781858463496,1.0989869389875841
26.43013095855713,2.37370361091707,[2.42377636],5.0,0.5,0.0,0.9274040347172494,0.26684697043489625,1.105008320985808
26.497835397720337,2.3735082122003335,[2.42332598],5.0,0.5,0.0,0.8535417031710907,0.26496081207177097,1.1081992183936697
26.560914754867554,2.37370361091707,[2.42291251],5.0,0.5,0.0,0.7854893664180049,0.26064536963422924,1.1156673448677035
26.621559143066406,2.3735082122003335,[2.42253574],5.0,0.5,0.0,0.7228119195743581,0.25797183426930886,1.1179370491347784
26.68571901321411,2.3735082122003335,[2.42219503],5.0,0.5,0.0,0.6651001591469503,0.2550775382864708,1.1221275335939656
26.751347303390503,2.3735082122003335,[2.42188944],5.0,0.5,0.0,0.611971382317017,0.25279967132281683,1.1258817857608774
26.813568830490112,2.37370361091707,[2.42161789],5.0,0.5,0.0,0.5630691372153523,0.2500327333401601,1.1315809540519188
26.877504348754883,2.37370361091707,[2.42137927],5.0,0.5,0.0,0.518062432252923,0.24987711548276778,1.1345060095869164
26.941551685333252,2.37370361091707,[2.42117258],5.0,0.5,0.0,0.47664461597115415,0.2502322068521522,1.137038017679771
27.005521297454834,2.3735082122003335,[2.42099678],5.0,0.5,0.0,0.43853207154644,0.2504572873677632,1.136826841892896
27.069544792175293,2.3735082122003335,[2.4208507],5.0,0.5,0.0,0.403462823241836,0.2506128664068598,1.138615957585055
27.133535623550415,2.3735082122003335,[2.42073312],5.0,0.5,0.0,0.3711951195868801,0.2503248731685447,1.140056695627623
27.198490858078003,2.37370361091707,[2.42064268],5.0,0.5,0.0,0.34150603556850984,0.2488531126185921,1.1435277521355334
27.26538610458374,2.37370361091707,[2.42057794],5.0,0.5,0.0,0.31419012060978846,0.24833942886772575,1.1443233979477587
27.32550549507141,2.3735082122003335,[2.4205373],5.0,0.5,0.0,0.28905810848311353,0.24814182630956505,1.142464477748066
27.389526844024658,2.37370361091707,[2.4205191],5.0,0.5,0.0,0.26593569807062856,0.24723343025018513,1.1450550530498451
27.454086780548096,2.3735082122003335,[2.42052174],5.0,0.5,0.0,0.2446624090116376,0.24802361032957612,1.1426700803833458
27.5217547416687,2.3735082122003335,[2.42054373],5.0,0.5,0.0,0.22509051304153993,0.2488119891095897,1.1424112214118594
27.58154273033142,2.37370361091707,[2.42058358],5.0,0.5,0.0,0.20708403972388612,0.24736548055866645,1.1442967272667688
27.64555335044861,2.37370361091707,[2.42063983],5.0,0.5,0.0,0.19051785395398665,0.24798630605749206,1.1436219494906
27.71383810043335,2.37370361091707,[2.42071108],5.0,0.5,0.0,0.17527680182329736,0.248510271615024,1.142765104000821
27.778626680374146,2.37370361091707,[2.420796],5.0,0.5,0.0,0.16125492100738492,0.2489668150281769,1.1417420430433587
27.83756375312805,2.3735082122003335,[2.42089327],5.0,0.5,0.0,0.14835471165776568,0.24953479385164698,1.1382057816883335
27.90146017074585,2.3735082122003335,[2.42100152],5.0,0.5,0.0,0.13648646375682716,0.2500658691895548,1.136898695650499
27.965564727783203,2.37370361091707,[2.42111942],5.0,0.5,0.0,0.1255676369784604,0.24879298106571768,1.137838516558859
28.03000044822693,2.3735082122003335,[2.42124568],5.0,0.5,0.0,0.11552228924570958,0.2503227800789128,1.1339477378907656
28.093454837799072,2.3735082122003335,[2.4213791],5.0,0.5,0.0,0.10628055036392148,0.25066696109597275,1.1323338767723223
28.157588481903076,2.37370361091707,[2.42151859],5.0,0.5,0.0,0.09777813731531587,0.250075658217608,1.1330121889182712
28.224427938461304,2.3735082122003335,[2.42166306],5.0,0.5,0.0,0.08995590801644633,0.2514119335332885,1.1288972474611543
28.28593611717224,2.3735082122003335,[2.42181148],5.0,0.5,0.0,0.08275945055557979,0.25130142802762767,1.1271000270101212
28.3495135307312,2.3735082122003335,[2.42196281],5.0,0.5,0.0,0.0761387051374478,0.2514794648879575,1.1252669990051578
28.413554191589355,2.37370361091707,[2.42211606],5.0,0.5,0.0,0.07004761616487211,0.2504830431340015,1.1257784717513246
28.478328943252563,2.37370361091707,[2.42212321],5.0,0.5,0.0,0.06444381207857647,-0.3853276453785201,1.1256924257981142
28.54245376586914,2.37311741476686,[2.42130017],5.0,0.5,0.0,-0.7688267682789266,-1.9539515978264517,1.1281253988548414
28.605539083480835,2.3611980930459233,[2.41836855],5.0,0.5,0.0,-5.0,-3.0854848324198287,1.0018538763033087
28.669365882873535,2.3352100637199458,[2.41191644],5.0,0.5,0.0,-5.0,-3.8799930463629293,0.7900037902710556
28.734053373336792,2.309417433110706,[2.4007276],5.0,0.5,0.0,-5.0,-4.264184044338507,0.6704485904279162
28.797550916671753,2.2832340050679916,[2.38388374],5.0,0.5,0.0,-5.0,-4.344906120046416,0.6135842251180582
28.861430883407593,2.2574413744587516,[2.36098149],5.0,0.5,0.0,-5.0,-3.455593383226451,0.5989041898727232
28.9257390499115,2.2312579464160374,[2.33249603],5.0,0.5,0.0,-3.964658272207997,-1.6298806534431802,0.6171917945645815
28.989888429641724,2.2052699170900603,[2.29983916],5.0,0.5,0.0,-0.9665782756247177,0.21681299836893908,0.6664876829339059
29.053553104400635,2.18006348263103,[2.26488372],5.0,0.5,0.0,2.9335822625020995,1.6637254208494512,0.7308244692259804
29.11747932434082,2.165213180159043,[2.229442],5.0,0.5,0.0,5.0,2.493595195377675,0.9199371425650407
29.18223261833191,2.1835806595322897,[2.19501342],5.0,0.5,0.0,5.0,2.5692671696843505,1.4559292078810342
29.246739625930786,2.209177891424794,[2.1626625],5.0,0.5,0.0,5.0,2.151956144022417,1.1304635987422427
29.309338331222534,2.2337981297336142,[2.1330317],5.0,0.5,0.0,5.0,1.6530486541396776,0.6129658550313737
29.373392343521118,2.258809165475908,[2.1064942],5.0,0.5,0.0,5.0,1.1545246596413818,0.4913900536285852
29.437748432159424,2.2840155999349383,[2.0834258],5.0,0.5,0.0,5.0,1.3615184769552853,0.4820520417097333
29.502065658569336,2.309222034393969,[2.06427529],5.0,0.5,0.0,5.0,0.942662024539731,0.4817382076787889
29.565436124801636,2.3336468739860523,[2.04925661],5.0,0.5,0.0,1.5086856156716433,0.3929949746515627,0.4983086079235179
29.62940287590027,2.3584625110116098,[2.03827856],5.0,0.5,0.0,-2.766044046056777,-0.14398635710714314,0.49433690787916085
29.6940176486969,2.3824965531702205,[2.031111],5.0,0.5,0.0,-5.0,-0.6234385446708404,0.48173206214278824
29.75814414024353,2.3918756915735804,[2.02745495],5.0,0.5,0.0,-5.0,-0.9425438615254457,0.4817320621268524
29.82147979736328,2.3783931801187506,[2.02698565],5.0,0.5,0.0,-5.0,-1.0667494177184702,0.4817320621427301
29.886932134628296,2.351232758492353,[2.0293742],5.0,0.5,0.0,-5.0,-1.0694080493201634,0.4817320631286265
29.951853275299072,2.325049330449639,[2.03429013],5.0,0.5,0.0,-5.0,-1.047388332311804,0.4817321075044697
