t_s,q_rad,q_des_rad,jerk
0.005472898483276367,-0.012896315304620235,2.0090578839537533e-05,0.0
0.01721668243408203,-0.012896315304620235,0.00010430233684611401,0.0
0.026140689849853516,-0.012896315304620235,0.0002850108695784861,0.0
0.038033485412597656,-0.012896315304620235,0.0005863164317310588,0.0
0.047975778579711914,-0.012896315304620235,0.0010404235025925869,0.0
0.057211875915527344,-0.012896315304620235,0.0016674524386794346,0.0
0.06724977493286133,-0.012896315304620235,0.0024751795099213388,0.0
0.07725071907043457,-0.012896315304620235,0.003479730701719069,0.0
0.0852043628692627,-0.012896315304620235,0.004704244842563659,0.0
0.09516358375549316,-0.012896315304620235,0.006169902190369904,0.0
0.10621309280395508,-0.012896315304620235,0.007894911858306188,0.0
0.11815357208251953,-0.012700916587883566,0.009903258583587161,0.0
0.1271965503692627,-0.012700916587883566,0.012212484338680689,0.0
0.13837218284606934,-0.012505517871146895,0.014822929609871865,0.0
0.14727139472961426,-0.012505517871146895,0.01773816103965633,0.276038359678681
0.15618610382080078,-0.012310119154410226,0.02094582748706168,0.3091629628401227
0.16558408737182617,-0.012114720437673556,0.02441059421964158,0.530104065926939
0.1751866340637207,-0.011919321720936885,0.028104449490203985,0.7631820236121072
0.18390274047851562,-0.011528524287463544,0.03200521196156018,0.9467250522344184
0.19225454330444336,-0.010942328137253534,0.036080615702002355,1.0680839576334362
0.20129728317260742,-0.010746929420516863,0.04029086431616797,1.4095827355158206
0.2097916603088379,-0.009965334553570182,0.044603740174336194,1.4641284320353252
0.21819734573364258,-0.009379138403360172,0.04899354317081518,1.6743803725115332
0.22718167304992676,-0.008597543536413491,0.053429117622318244,2.150767650059865
0.2382192611694336,-0.007425151235993469,0.05788055566373876,2.8725660712891954
0.24718666076660156,-0.0062527589355734475,0.062325381882326086,3.2257360282160876
0.2559206485748291,-0.005080366635153426,0.06674358960905327,3.3543964954828898
0.26480913162231445,-0.0037125756179967346,0.07111814620433769,3.6221050200313414
0.2739262580871582,-0.0019539871673667024,0.07543162107774135,4.1162954987985785
0.2841765880584717,0.0,0.0796723876033982,4.816159789551589
0.29364633560180664,0.0021493858841033727,0.08383978089995066,5.0
0.3012051582336426,0.004103373051470075,0.08793218401344792,5.0
0.311260461807251,0.006838955085783458,0.09194733294854084,5.0
0.32117247581481934,0.009574537120096843,0.09589613603679623,5.0
0.3299140930175781,0.012114720437673556,0.09980187368633046,5.0
0.339205265045166,0.015045701188723608,0.10369237464590018,5.0
0.3490428924560547,0.018367479373247002,0.10759929255824423,5.0
0.3578932285308838,0.0216892575577704,0.11155727982724385,5.0
0.36717700958251953,0.0255972318925038,0.1155898514493102,5.0
0.3761618137359619,0.02911440879376387,0.11970968592552653,4.81313663064398
0.3847334384918213,0.03263158569502393,0.12394537976221241,4.683456981786151
0.3948688507080078,0.03693035746323068,0.128339206252632,4.264589780751555
0.4051506519317627,0.040642933081227406,0.13293161604061007,3.50497551906496
0.41484689712524414,0.044746306132697485,0.13776026196662391,2.4618693476614233
0.4221775531768799,0.04767728688374754,0.14284181926865303,1.2200881620450779
0.43218374252319336,0.05197605865195429,0.14817367198740589,-0.41644573018258346
0.44118165969848633,0.05549323555321435,0.15377019028857922,-1.588112845974989
0.44982290267944336,0.05901041245447442,0.15965945855488678,-2.6444571132816517
0.4573986530303955,0.06194139320552447,0.16586290213974617,-3.7072668869069294
0.46567845344543457,0.06487237395657452,0.17237711331263547,-4.249699134256438
0.4749171733856201,0.06858494957457126,0.17917685376302375,-5.0
0.48517441749572754,0.07249292390930466,0.186253667016499,-5.0
0.49498677253723145,0.07659629696077475,0.19361241005941496,-5.0
0.5042026042938232,0.08030887257877146,0.20125028954139595,-4.99981236408755
0.5121729373931885,0.08363065076329486,0.20914150892920533,-4.9294957153436165
0.5211784839630127,0.08714782766455492,0.2172411015020368,-4.79080373914514
0.5306000709533691,0.09086040328255167,0.2255201946898906,-4.598956738114316
0.5401568412780762,0.09515917505075841,0.2339631072901074,-4.371257268425994
0.5491774082183838,0.09867635195201847,0.24254915455930362,-4.122821115849529
0.5593719482421875,0.1023889275700152,0.251253860679254,-3.865436766982522
0.5687141418457031,0.10610150318801194,0.2600501474613933,-3.6076888839908476
0.5777089595794678,0.10981407880600867,0.2689095626495479,-3.355503774171513
0.5861577987670898,0.11313585699053208,0.27779193168525856,-3.1127590028893444
0.5951507091522217,0.1168484326085288,0.28664848496698375,-2.881822419125072
0.6048195362091064,0.12075640694326222,0.29544732565365245,-2.6639841536272515
0.6121602058410645,0.12368738769431226,0.304160562254871,-2.4597850072123446
0.6211559772491455,0.12720456459557233,0.3127530471240192,-2.2692580748743483
0.6297826766967773,0.13072174149683238,0.3212059176204933,-2.0921026157148765
0.6401998996734619,0.13482511454830248,0.32951463942018133,-1.9278070767706303
0.6491744518280029,0.1385376901662992,0.3376767200104505,-1.7757348996138402
0.6585421562194824,0.1424456645010326,0.34569214342652155,-1.635183539817034
0.6671600341796875,0.14615824011902934,0.3535529687691531,-1.5054244390936722
0.6761581897735596,0.14967541702028941,0.3612450255050174,-1.3857295816602972
0.6861782073974609,0.1535833913550228,0.36877072986195597,-1.275388678498758
0.696176290512085,0.15768676440649287,0.37614707625355037,-1.1737198560714623
0.7061755657196045,0.16179013745796297,0.38339290311100105,-1.080075881628917
0.7166426181793213,0.16569811179269636,0.39054062004783346,-0.9938473528019458
0.725205659866333,0.16921528869395644,0.3976212968704345,-0.91446384970672
0.7345468997955322,0.17312326302868986,0.40463980034014174,-0.8413937442887083
0.7441549301147461,0.17703123736342324,0.41160296991590817,-0.7741431480207505
0.7551791667938232,0.18133000913162997,0.41853107241872806,-0.7122543292138266
0.7651925086975098,0.18562878089983675,0.42544284256899345,-0.6553038263720354
0.7752096652984619,0.18953675523457011,0.4323550711114532,-0.6029004108945026
0.7851758003234863,0.19364012828604024,0.4392822287097177,-0.5546830015581887
0.7956430912017822,0.19813429877098362,0.446236192427325,-0.5103185979546614
0.8046321868896484,0.20145607695550702,0.4532261715691222,-0.46950027570626246
0.812197208404541,0.20497325385676707,0.46025879515700124,-0.43194526957292223
0.8201358318328857,0.2080996333245538,0.4673256888015696,-0.3973931591590539
0.8281350135803223,0.21122601279234052,0.47439344243747206,-0.6416425239143013
0.8370325565338135,0.2147431896936006,0.48144556433173064,-0.6455205144048262
0.8461735248565674,0.21826036659486067,0.48849256364087595,-0.5635158580160889
0.8561475276947021,0.22216834092959406,0.4955300208093692,-0.4626756837499064
0.8641479015350342,0.22529472039738077,0.5025528851151669,-0.369377997632779
0.873162031173706,0.22900729601537753,0.5095561343962232,-0.29180301709027484
0.8836238384246826,0.2336968652170576,0.5165339875022957,-0.23052835784082515
0.8931629657745361,0.23721404211831768,0.5235033362962728,-0.18337824701095795
0.9026389122009277,0.2411220164530511,0.5304767806268729,-0.14753422286580625
0.9114871025085449,0.24444379463757446,0.5374515081978819,-0.39640907222505506
0.9191360473632812,0.2475701741053612,0.5444128513551253,-0.40888190892898324
0.92897629737854,0.25225974330704126,0.5513365834531644,-0.0619185159983576
0.9387943744659424,0.2561677176417747,0.5582120160333048,0.05956496073108268
0.9490296840667725,0.2602710906932448,0.5650398323703293,0.08464726433633468
0.9573996067047119,0.26359286887776817,0.5718196751054669,0.07290698533858078
0.9657225608825684,0.2667192483455549,0.5785407882780075,0.05066560392820258
0.973163366317749,0.2698456278133416,0.5851839985890414,0.02866074276178278
0.9828205108642578,0.27375360214807504,0.5917429258465559,0.01056903582236264
0.9911351203918457,0.27687998161586175,0.5982126808370627,-0.27899039924602853
1.00115966796875,0.2807879559505952,0.6045799919148592,-0.32155990563929526
1.009477138519287,0.2843051328518552,0.6108435323155196,0.003386629761896659
1.0187289714813232,0.28821310718658855,0.6170118882062351,0.10885448965891859
1.0281662940979004,0.29192568280458536,0.623092333127134,0.1223050687871733
1.0368118286132812,0.29583365713931875,0.629082196491521,0.10210281264807386
1.0447313785552979,0.2987646378903688,0.6349705585764579,0.07367753846754503
1.0521607398986816,0.30189101735815554,0.6407572199418069,0.047121124110425835
1.0604238510131836,0.3054081942594156,0.6464425866030868,0.02564674785486546
1.0699255466461182,0.3091207698774123,0.6520188360644384,0.009581158382438375
1.0781285762786865,0.3122471493451991,0.6574799827056705,-0.001805313646794442
1.090122938156128,0.3173275159803524,0.6628296055604334,-0.009500016409916365
1.099867820739746,0.32143088903182254,0.6680870725134519,-0.014429975747411762
1.1081657409667969,0.32436186978287257,0.6732689067968312,-0.017359835718852287
1.1167917251586914,0.32768364796739596,0.678373556621436,-0.01888067227110663
1.1271765232086182,0.3315916223021294,0.6833924829994935,-0.019432276270291357
1.1351704597473145,0.3351087992033895,0.6883266706925798,-0.019333795312255764
1.144646167755127,0.3390167735381229,0.6931851598979911,-0.01881269283632822
1.153136968612671,0.34272934915611963,0.6979687887922259,-0.01802876338797313
1.1622416973114014,0.346637323490853,0.7026791415519508,-0.0170928050890415
1.170151948928833,0.3497637029586398,0.7073260177117288,-0.016080611916032665
1.178725242614746,0.35347627857663644,0.7119112577447714,-0.015043220473380307
1.1891610622406006,0.35757965162810657,0.716437546010337,0.262024058762297
1.198275089263916,0.36129222724610327,0.7209158611740416,0.2961475304288556
1.2086303234100342,0.3657863977310467,0.7253566994466555,-0.03403249360239083
1.2186150550842285,0.3696943720657801,0.7297700192581639,-0.14233728908043858
1.228163719177246,0.37340694768377686,0.7341651881188056,0.11912605732397458
1.2361364364624023,0.3769241245850368,0.7385429978636584,0.17250883723124405
1.2461576461791992,0.3804413014862969,0.7428968786762011,0.14667684049724375
1.2551324367523193,0.3841538771042937,0.7472298955732566,0.09848564297832116
1.2638185024261475,0.3876710540055538,0.751553212639242,0.051069282619452254
1.2711384296417236,0.3906020347566038,0.755868625154517,0.012298696902878974
1.280668020248413,0.3943146103746005,0.7601698778310174,-0.016469122455570633
1.2889084815979004,0.3976363885591239,0.7644601102522899,-0.03635253589911219
1.2981152534484863,0.40154436289385737,0.7687422442756418,-0.04916109165307109
1.3071315288543701,0.40545233722859075,0.7730109135975711,-0.0566679845378287
1.3154776096343994,0.4089695141298508,0.7772700353086874,-0.06036141651607893
1.3261170387268066,0.4128774884645843,0.7815312318212804,0.21463753467020308
1.3358628749847412,0.4169808615160543,0.7858042620363845,0.24851162241541874
1.344632625579834,0.42049803841731437,0.7900970279428725,-0.08071307168669473
1.353151798248291,0.4236244178851011,0.7944155698927869,-0.1872959651253698
1.3621134757995605,0.4275323922198345,0.7987641405793156,0.0763484622632447
1.371110200881958,0.4310495691210946,0.8031374882501064,0.13215910452853097
1.3805675506591797,0.434957543455828,0.8075223738429621,0.10885733669930889
1.389986276626587,0.439060916507298,0.8119146184036916,0.06320242066679213
1.3985652923583984,0.4425780934085581,0.8163175749828399,0.01826579591106793
1.4081299304962158,0.44609527030981816,0.8207255861044179,-0.01812076990093755
1.4187588691711426,0.45058944079476154,0.825133038614866,-0.04462331998989687
1.4262380599975586,0.4537158202625483,0.8295421604443955,-0.062372252659344124
1.4358282089233398,0.45801459203075506,0.833947105318429,-0.07318175628051482
1.44610595703125,0.46192256636548845,0.8383497928067093,-0.07882477698477847
1.4567914009094238,0.4664167368504319,0.8427659660702276,-0.08078611893225054
1.4661202430725098,0.4697385150349553,0.8471938638855415,-0.08021987192273577
1.4754793643951416,0.47345109065295204,0.8516170352968886,-0.07798468973784947
1.485407829284668,0.47735906498768543,0.8560352556691029,-0.07470097876472448
1.4941225051879883,0.4808762418889455,0.8604550112308519,-0.07080713486153038
1.5021328926086426,0.48380722263999554,0.864860504452504,-0.06660697287817244
1.5117707252502441,0.4879105956914656,0.8692313806358565,-0.062306923575261755
1.5225741863250732,0.492404766176409,0.8735646469212607,-0.05804403684008495
1.5324738025665283,0.4967035379446158,0.8778652426918606,-0.05390653648931773
1.542104721069336,0.5004161135626125,0.8821379660031974,-0.04994865718311765
1.552259922027588,0.504324087897346,0.8863944968049419,-0.046201229035238836
1.5610966682434082,0.5080366635153426,0.8906451551445994,-0.042679162760006883
1.569788932800293,0.5115538404166027,0.8948848583657488,-0.039386705647001155
1.5791399478912354,0.5156572134680728,0.8991094064412182,-0.03632110906786944
1.5891060829162598,0.5195651878028061,0.9033221774352497,-0.03347517162189904
1.5973303318023682,0.5228869659873295,0.9075188629593759,-0.030838990472098163
1.6071631908416748,0.526794940322063,0.9116885803181234,-0.02840115738241422
1.61700439453125,0.5308983133735331,0.9158350232884264,-0.02614956676656555
1.6261019706726074,0.5342200915580564,0.9199674071082478,-0.024071953643084325
1.6341302394866943,0.5375418697425798,0.9240794533577203,-0.022156244321909817
1.6441810131072998,0.5418406415107866,0.9281647205327355,-0.020390777864231643
1.6526696681976318,0.5455532171287834,0.9322231612149442,-0.018764438901230675
1.6621320247650146,0.54926579274678,0.9362537037793722,-0.01726673012762454
1.6711292266845703,0.5527829696480401,0.9402545286069576,-0.01588780418043057
1.6798505783081055,0.5563001465493002,0.9442178631120216,-0.014618468583172985
1.6903066635131836,0.560598918317507,0.948131274251671,-0.013450173219122405
1.7001168727874756,0.5645068926522403,0.9519897591148961,-0.01237498685066799
1.7100725173950195,0.5686102657037104,0.9557947292617442,-0.011385567146540574
1.7189173698425293,0.5723228413217071,0.9595476017740318,-0.010475127246415444
1.7281062602996826,0.5756446195062305,0.963249890075939,-0.009637400897259174
1.737440824508667,0.5795525938409639,0.9669032393365427,-0.008866607507017517
1.7453219890594482,0.582483574592014,0.9705042807646712,-0.00815741798369466
1.7571139335632324,0.5873685425104307,0.9740506528412725,-0.00750492189905008
1.7652103900909424,0.5904949219782174,0.977546118898571,-0.006904596295020382
1.7737126350402832,0.5942074975962143,0.980989319684088,-0.006352276294974075
1.7841284275054932,0.5985062693644211,0.9843797828178417,-0.005844127583839561
1.7936375141143799,0.6024142436991544,0.9877230244452024,-0.005376620751904079
1.8011159896850586,0.605540623166941,0.9910192406817829,-0.004946507454058962
1.8091208934783936,0.6090578000682011,0.9942641158198918,-0.2805891579900825
1.8172383308410645,0.6119887808192512,0.9974547306406859,-0.31334970530415995
1.8258755207061768,0.6158967551539846,1.0005893680754034,-0.257917514927446
1.8360836505889893,0.6196093307719813,1.0036777502702368,-0.18152436900674027
1.8440840244293213,0.622735710239768,1.006728690201434,-0.11071820069770234
1.8546597957611084,0.6272298807247115,1.0097396780850345,-0.05383559274996631
1.8631529808044434,0.6305516589092349,1.012719458892116,-0.011598039635716324
1.8728160858154297,0.6346550319607048,1.0156809208443491,0.0180378472061289
1.8821747303009033,0.6379768101452282,1.0186246800565388,0.03776872484187556
1.8916072845458984,0.6418847844799619,1.0215461162320096,0.050108098064344145
1.8995678424835205,0.6448157652310118,1.0244464245724445,0.057121628776672775
1.9087603092193604,0.6487237395657451,1.0273315667488156,0.06040220782004043
1.9161341190338135,0.6520455177502685,1.0302013409429236,0.06113263991397569
1.9240729808807373,0.6553672959347919,1.033045535026192,0.06016955091339493
1.9320836067199707,0.6586890741193153,1.0358554669561544,0.058122100419449686
1.9400849342346191,0.6620108523038388,1.0386335062942653,0.055417035913510576
1.9480922222137451,0.6651372317716254,1.0413817140410997,0.05234917752085909
1.9575369358062744,0.6692406048230957,1.044101645820799,0.04911920246104301
1.9657680988311768,0.672562383007619,1.0467992167115967,0.04586129066626911
1.9760825634002686,0.6764703573423524,1.0494747883120648,0.04266305099585724
1.9861047267913818,0.6805737303938224,1.052132941056466,-0.23645862500375514
1.9967608451843262,0.6848725021620292,1.05478641043724,0.0035196937958575786
2.004107713699341,0.6879988816298159,1.0574325398156532,0.0889717343446643
2.016310930252075,0.6930792482649695,1.0600602579080636,0.10736276478043214
2.0274391174316406,0.6973780200331761,1.0626737224712628,0.09937750099954712
2.0355303287506104,0.7006997982176995,1.0652812168073247,0.08322374058731677
2.0460574626922607,0.7049985699859063,1.0678857572751144,0.06651025385103257
2.055654525756836,0.7087111456039029,1.070490501979623,0.05199397467208129
2.0636065006256104,0.7120329237884264,1.0730989157635755,0.04031936167453365
2.072770833969116,0.7157454994064231,1.0757148501639353,0.031294109316870926
2.081118106842041,0.7194580750244197,1.0783374469446547,0.024461219721357987
2.090506076812744,0.7233660493591532,1.0809617538049892,0.019338985321835034
2.098545551300049,0.7264924288269399,1.08358939115236,0.015508738607388271
2.1071019172668457,0.7296188082947267,1.086227564456205,0.01263615394001891
2.1178839206695557,0.7339175800629335,1.0888830566945842,0.010466093691301774
2.1276094913482666,0.7380209531144034,1.0915620771364019,0.008808964628364616
2.1351020336151123,0.7411473325821902,1.0942645853287671,0.007526146353692936
2.145071268081665,0.7450553069169236,1.0969850856506251,0.0065172778687327595
2.1544108390808105,0.748963281251657,1.09972449415446,0.005710098893863919
2.1642141342163086,0.7526758568696538,1.1024890999653592,0.005052706759689914
2.172197103500366,0.7559976350541772,1.1052840695412622,0.004507818012523154
2.180453062057495,0.7593194132387007,1.1081078468974266,0.004048590401887381
2.189065933227539,0.762641191423224,1.1109531036891547,0.003655615838426061
2.198580741882324,0.7665491657579574,1.1138188447660724,0.0033147725330548612
2.208509683609009,0.7706525388094273,1.1167092995015317,0.0030156984505224607
2.2181344032287598,0.774560513144161,1.1196218590975553,0.002750709751892475
2.2280588150024414,0.7786638861956309,1.1225481265040276,0.002514035882675991
2.2380189895629883,0.7825718605303643,1.1254910205224338,0.0023012789931229818
2.247730255126953,0.786870632298571,1.1284628056406614,0.002109031832045934
2.2579774856567383,0.7909740053500411,1.1314674516522767,0.2779729670609313
2.268066167831421,0.7948819796847746,1.1345020274067397,0.31093881004239865
2.277970314025879,0.7989853527362445,1.1375631865811069,0.2556966914332666
2.2882702350616455,0.8030887257877147,1.1406472670059251,0.17947925143039414
2.2970659732818604,0.8068013014057114,1.143750352498465,0.10883532052225155
2.305058717727661,0.8099276808734982,1.146863544244968,0.0521023825687987
2.3131587505340576,0.8130540603412848,1.1499691416630158,0.010002813967159727
2.3210489749908447,0.815985041092335,1.1530519403782642,-0.01950592543656294
2.3295016288757324,0.819502217993595,1.1561085528266366,-0.03911968624658049
2.337052345275879,0.822433198744645,1.1591407343178353,-0.051351213160549435
2.3464670181274414,0.8265365717961152,1.1621498498354017,-0.058265456088433296
2.3548784255981445,0.8296629512639019,1.1651325219515465,-0.061454641943441954
2.3660757541656494,0.8347433178990552,1.1680815830272726,-0.06210095840518193
2.3765361309051514,0.839042089667262,1.1710006918247584,-0.06106045929369991
2.3850600719451904,0.8423638678517854,1.173898161671577,-0.05894177488734756
2.3950464725494385,0.8462718421865187,1.1767724627510092,-0.056171163554562434
2.406151056289673,0.8509614113881988,1.1796231613218087,-0.053042993942010404
2.4165689945220947,0.8554555818731422,1.182460404464254,-0.04975752686249748
2.428044080734253,0.8601451510748225,1.1852986333776736,-0.046448558421377295
2.4360806941986084,0.8630761318258724,1.188140818774302,-0.04320334384462916
2.4440743923187256,0.8660071125769225,1.1909800361726401,-0.04007680865558218
2.452099561691284,0.8691334920447094,1.1938108629302802,-0.037101608211416934
2.4610722064971924,0.8728460676627059,1.1966291942831457,-0.03429520634097795
2.4705567359924316,0.8769494407141761,1.199442797316585,-0.03166483149061049
2.4784164428710938,0.879880421465226,1.202263991790363,-0.029210930584305256
2.487063407897949,0.8835929970832228,1.2050873349854028,-0.026929564293264336
2.4970850944519043,0.8875009714179563,1.2079086087801199,-0.02481405897207383
2.505044937133789,0.8908227496024795,1.2107298709830978,-0.02285613818655645
2.5131490230560303,0.894144527787003,1.2135420689076213,-0.0210466909125321
2.5238308906555176,0.8984432995552097,1.216349087694853,-0.019376286800262803
2.5340466499328613,0.9025466726066799,1.2191712917414015,-0.01783551592589324
2.542067289352417,0.9056730520744666,1.222014821649922,-0.0164152072290936
2.5520570278167725,0.9097764251259366,1.2248792584216694,-0.015106563519124278
2.5626208782196045,0.9138797981774068,1.2277754741038394,-0.01390123947756235
2.571434736251831,0.9177877725121402,1.230712274080693,-0.012791381063423589
2.5790746212005615,0.9207187532631901,1.2336851472641572,-0.011769639107217046
2.5870723724365234,0.9240405314477135,1.2366783502632557,-0.010829165952887302
2.5955379009246826,0.9273623096322371,1.23967812879788,-0.009963601260636574
2.6030542850494385,0.930293290383287,1.242678232441347,-0.00916705116952865
2.6120293140411377,0.933810467284547,1.2456730775369809,-0.008434063683371459
2.6200406551361084,0.9373276441858072,1.2486630648597898,-0.007759602214067898
2.6300177574157715,0.941626415954014,1.251653480828807,-0.007139018574843354
2.6391637325286865,0.945729789005484,1.254648020886844,-0.006568026265465463
2.6480236053466797,0.9490515671900073,1.2576438922178335,-0.006042674587917718
2.656022548675537,0.9519825479410575,1.260632994264998,-0.2815976835961715
2.6650314331054688,0.9554997248423175,1.2636132282646857,-0.31427758515174464
2.6740269660949707,0.9592123004603142,1.2665876331628703,-0.2587711897903114
2.6820757389068604,0.9623386799281008,1.2695535458605092,-0.18230976766271076
2.692861557006836,0.9666374516963077,1.27250866990294,-0.11144077990869238
2.7020416259765625,0.9701546285975677,1.2754611988401876,-0.054500374337390065
2.7110788822174072,0.9736718054988278,1.2784183792769606,-0.2882480044740343
2.7195231914520264,0.9775797798335613,1.281376616417837,-0.29168779665028327
2.728025436401367,0.9810969567348212,1.2843282145285049,0.05922370874854213
2.737102508544922,0.9846141336360814,1.2872724698553308,0.1808141017571992
2.746032476425171,0.9881313105373414,1.2902093310087124,0.20329115268349068
2.7540194988250732,0.9914530887218647,1.293134135613933,0.18714357395110642
2.7637648582458496,0.9951656643398614,1.2960491376144117,0.1593811815402918
2.774453639984131,0.9998552335415416,1.2989625417721293,0.13124109950462048
2.7843523025512695,1.0039586065930115,1.301882170747427,0.1067511238024541
2.7940287590026855,1.0078665809277452,1.3048213408293754,-0.18922979544109472
2.804060935974121,1.0117745552624784,1.3077918627620095,-0.23808530662484811
2.812028408050537,1.0150963334470018,1.310786109353751,-0.1952268656089327
2.82206392288208,1.0188089090649985,1.3137980194528516,-0.12863691339040076
2.833622694015503,1.023303079549942,1.3168410148524066,-0.3415522222042522
2.841031789779663,1.026234060300992,1.3199204221244936,-0.3238773300506985
2.849036455154419,1.0295558384855157,1.3230285312171137,-0.2314240947341772
2.861048460006714,1.0344408064039323,1.3261654166181271,-0.12968125849246945
2.869690418243408,1.0377625845884557,1.3293378483159521,-0.042722134536972836
2.8800525665283203,1.0418659576399256,1.3325518625958914,-0.2525712935534169
2.889070987701416,1.0453831345411857,1.3358126835890582,-0.23905216427226728
2.898115634918213,1.0494865075926558,1.339124592939774,-0.15330845475150023
2.906029462814331,1.0528082857771792,1.3424839987212709,-0.058760033745554316
2.916585683822632,1.057107057545386,1.3458870975811121,0.021364424772469394
2.925023078918457,1.0602334370131727,1.349336531442582,0.08136434715372808
2.9350242614746094,1.0643368100646429,1.352826715429637,0.12250781148064466
2.9440531730651855,1.067853986965903,1.3563514089364774,0.14829214435415106
2.9530434608459473,1.0713711638671628,1.3599041799040175,0.16245230792148335
2.9637949466705322,1.0756699356353696,1.363477735900419,0.16822963019934345
2.9730634689331055,1.078991713819893,1.3670705041983138,-0.10784712889183204
2.9831655025482178,1.0832904855880998,1.370679014966076,-0.14489379273116154
2.9920237064361572,1.08680766248936,1.374298147931302,0.17984318542146943
3.001122236251831,1.0905202381073567,1.3779164206366528,0.28117799254283105
3.011051893234253,1.0946236111588266,1.381526310423525,0.011911191649938146
3.02103590965271,1.09853158549356,1.3851244996870384,-0.04963320947502445
3.0297486782073975,1.1018533636780836,1.3886968345730626,-0.03200196314731042
3.0380218029022217,1.105175141862607,1.3922254091371842,0.008157928415630962
3.048436164855957,1.1090831161973405,1.3956974426486068,0.04784376920639591
3.057522773742676,1.112795691815337,1.399107444195097,0.07926253066782778
3.0660297870635986,1.1161174699998604,1.4024488765180623,0.10109857753945165
3.0757710933685303,1.1200254443345938,1.4057084821876928,0.11448695847711886
3.0882580280303955,1.1249104122530105,1.4088735450763328,0.12123755510416978
3.09700608253479,1.1280367917207974,1.4119350037410416,0.1231133211628426
3.107008934020996,1.1317493673387942,1.4148842747807286,-0.15445272330531395
3.1157946586608887,1.1352665442400542,1.4177133705439455,-0.19136968995587655
3.1253528594970703,1.1391745185747875,1.4204141319413954,-0.14148699360600298
3.1340296268463135,1.1428870941927842,1.4229794543447225,-0.07143467415324611
3.1439990997314453,1.1467950685275177,1.4254046962876668,-0.007340460667465909
3.153045654296875,1.1505076441455144,1.4276853020184432,0.04274542766256928
3.160989284515381,1.1534386248965642,1.4298166955603104,0.0782913713778271
3.169555187225342,1.1569558017978245,1.431794706791754,0.10146222716474015
3.178011894226074,1.160277579982348,1.4336156404226914,0.11502829531311612
3.1859912872314453,1.1630131620166613,1.4352756012001935,0.12154372935002072
3.194331407546997,1.166725737634658,1.4367675526810253,0.12309240198385282
3.2046797275543213,1.1706337119693915,1.438078593489073,0.12127042082156811
3.213131904602051,1.1741508888706513,1.439195227093008,0.11725402050799553
3.223637819290161,1.1778634644886483,1.440098161353073,0.11188708504118447
3.232029438018799,1.1811852426731717,1.4407604513125445,0.10576234997316716
3.2405622005462646,1.184507020857695,1.441160004740034,0.09928815489687343
3.248500108718872,1.1876334003254816,1.4412685328158328,0.09274007290361128
3.2580041885375977,1.191150577226742,1.4410582811573838,0.08629945402694851
3.2660012245178223,1.194081557977792,1.4405109251409005,0.08008156241205333
3.275831937789917,1.1979895323125254,1.439593437261176,0.07415580963340596
3.284611463546753,1.201702107930522,1.4382598752421563,0.06856014887234924
3.294038772583008,1.2056100822652553,1.4364657384896078,0.06331123149901267
3.302023410797119,1.2087364617330423,1.4341877043705606,0.058411525019567756
3.310012102127075,1.211667442484092,1.4314226033683177,0.05385427037880232
3.320591449737549,1.2157708155355622,1.4281492659455923,0.04962691236724484
3.3310353755950928,1.219483391153559,1.424331329627462,0.04571345614407133
3.3395490646362305,1.2228051693380821,1.419938404358761,0.04209607150551482
3.3500263690948486,1.2269085423895523,1.4149465257125404,0.03875617214038794
3.359482765197754,1.2302303205740757,1.4093383769170844,0.0356751298470315
3.3680222034454346,1.233552098758599,1.4031261158190107,-0.24320362367038123
3.378755807876587,1.2380462692435428,1.3963247108020775,-0.27894547387084406
3.3881616592407227,1.2415634461448029,1.3889065720138567,-0.22625894397867435
3.397038221359253,1.245080623046063,1.3808781347747805,-0.1523938090485616
3.4050419330596924,1.2480116037971127,1.3722979796557124,-0.08391481322426668
3.413999557495117,1.2515287806983728,1.3632224795089238,-0.029174185640039874
3.4243876934051514,1.2560229511833163,1.3536824348509995,0.011092058357592399
3.4320032596588135,1.2587585332176296,1.343686782287093,0.03891385978056328
3.443056344985962,1.2628619062690998,1.3332498640925492,0.05697544210667535
3.4549691677093506,1.2675514754707797,1.3223678568220925,0.06777882793638078
3.464489221572876,1.2708732536553033,1.3110448944865687,0.073379085251326
3.4730396270751953,1.2741950318398267,1.2993154961490263,0.07535933727175284
3.483001232147217,1.2773214113076135,1.2872171851725551,0.07489338765615272
3.491706609725952,1.2806431894921368,1.2748113844803852,-0.20320878878983095
3.501279830932617,1.2831833728097135,1.2621789411174906,-1.0675086306423431
3.509999990463257,1.2857235561272902,1.2493938978298516,-1.943537047236065
3.519840717315674,1.2880683407281304,1.236504465515228,-2.909612580855506
3.528002977371216,1.2900223278954968,1.2235182676106617,-3.962251943477952
3.536637783050537,1.2911947201959169,1.2104486989355265,-5.0
3.544468402862549,1.2921717137796,1.1973510500482092,-5.0
3.5538084506988525,1.2923671124963367,1.1842946319193874,-5.0
3.5639967918395996,1.2923671124963367,1.1713247397225106,-5.0
3.572877883911133,1.291780916346127,1.1584816976847934,-5.0
3.5819904804229736,1.290608524045707,1.1458179919222033,-5.0
3.5907018184661865,1.2886545368783402,1.133349640275716,-5.0
3.5992579460144043,1.286505150994237,1.1210760687557726,-5.0
3.608236789703369,1.2837695689599238,1.1090267446532964,-5.0
3.6171133518218994,1.2808385882088735,1.0972271053439655,-5.0
3.626021385192871,1.2773214113076135,1.0856972736960844,-5.0
3.636977434158325,1.2732180382561433,1.0744665604864418,-5.0
3.6450085639953613,1.26989626007162,1.0635456591840642,-5.0
3.6536033153533936,1.26637908317036,1.0529300955145302,-5.0
3.6620492935180664,1.2630573049858367,1.0426273147428062,-5.0
3.6721415519714355,1.2587585332176296,1.0326542440750126,-5.0
3.680429220199585,1.2550459575996329,1.0230124897140103,-3.5947465268215772
3.6895534992218018,1.2511379832648997,1.013690458734858,-1.5401077433412613
3.70003342628479,1.2466438127799562,1.0046763828633756,1.7319248325085113
3.708987236022949,1.2429312371619592,0.9959679482499326,4.753488922099707
3.718308210372925,1.2388278641104893,0.9875606560648885,5.0
3.7260663509368896,1.2357014846427024,0.9794378257688026,5.0
3.7349777221679688,1.2317935103079691,0.9715923747750801,5.0
3.745975971221924,1.2272993398230259,0.9640157078198462,5.0
3.753981590270996,1.2237821629217658,0.9566878863051489,5.0
3.763735055923462,1.2196787898702957,0.949589017285996,5.0
3.773008346557617,1.215966214252299,0.9427087238970929,5.0
3.7812867164611816,1.2124490373510388,0.9360346699899109,5.0
3.7911431789398193,1.2085410630163056,0.9295432783073478,5.0
3.7996177673339844,1.2046330886815722,0.9232209500938584,5.0
3.808088779449463,1.2009205130635754,0.9170626159031393,5.0
3.818619966506958,1.1962309438618952,0.9110497876348052,5.0
3.8285579681396484,1.1925183682438982,0.9051414695428986,5.0
3.837977409362793,1.1886103939091652,0.8993104822823492,5.0
3.8460264205932617,1.1852886157246416,0.8935524510673685,5.0
3.8560068607330322,1.1809898439564348,0.8878492017903135,5.0
3.864661693572998,1.1772772683384383,0.8821709332162253,5.0
3.871975898742676,1.174541686304125,0.8765023268346795,5.0
3.8817946910858154,1.1700475158191814,0.8708282398975996,5.0
3.8900320529937744,1.166725737634658,0.86512200353011,4.889590537736213
3.901076555252075,1.1620361684329779,0.8593729778464696,4.31096024467492
3.90960955619812,1.1585189915317178,0.85357121622406,3.915809436521072
3.9170830249786377,1.155392612063931,0.8476949158892966,3.8838663224969343
3.925938129425049,1.1516800364459343,0.841725449519555,3.6523005220986127
3.9353978633880615,1.1473812646777275,0.8356608817810542,3.356626112498268
3.945528268814087,1.143082492909521,0.829513754376343,3.0562073552089926
3.9549784660339355,1.1387837211413143,0.8232819429126815,2.7746659935863187
3.964407205581665,1.1346803480898442,0.816951056880342,2.5194000201535456
3.9729785919189453,1.131163171188584,0.8105236756698173,2.290862456428339
3.981037139892578,1.1278413930040605,0.8040168455712902,2.086863228259603
3.9904017448425293,1.1239334186693273,0.7974327462726665,1.9044828387529829
4.000035524368286,1.1204162417680672,0.7907611532823762,1.7408621952368086
4.009718656539917,1.1161174699998604,0.7839951525317131,1.5934797658547772
4.017986059188843,1.1126002930986003,0.7771439992421479,1.460206945816203
4.028904438018799,1.1077153251801837,0.770217516519408,1.3392767724438923
4.0379931926727295,1.10439354699566,0.7631997291240196,1.2292263429694124
4.04659628868103,1.1004855726609268,0.7560794235098008,1.1288380565145937
4.056025981903076,1.0965775983261934,0.7488753337734475,1.0370886978603822
4.064022541046143,1.0930604214249333,0.7416180801016166,0.9531083877279385
4.073463201522827,1.0887616496567265,0.7343227397072071,0.8761486694918337
4.083614110946655,1.0846582766052566,0.7269912332539294,1.0815965039560966
4.0909881591796875,1.0813364984207332,0.7196270846189848,1.0499269641155027
4.099980354309082,1.0776239228027364,0.7122468570165224,0.6592853590703678
4.108123064041138,1.0741067459014764,0.7048893758565495,0.4954035893577958
4.11597752571106,1.0711757651504263,0.6975880028790906,0.4297311797953469
4.1259706020355225,1.0670723920989562,0.6903477872827053,0.4030031678605826
4.1345696449279785,1.0633598164809595,0.6831618728600702,0.38905753621528727
4.144967317581177,1.058865645996016,0.6760252444333087,0.37720881060117695
4.1569764614105225,1.0537852793608626,0.6689344692720409,0.36376004086854863
4.164945363998413,1.0502681024596026,0.661898127202464,0.6240245623672769
4.173952102661133,1.0463601281248691,0.6549346603394692,0.6394478501305672
4.18453311920166,1.0418659576399256,0.6480387430441052,0.2893901020757944
4.193943023681641,1.0379579833051924,0.6411853554578303,0.16072411107178552
4.202991247177124,1.0342454076871956,0.6343747940047519,0.12586411479607637
4.212595462799072,1.0301420346357255,0.6276283668467934,0.12632267873768177
4.220357894897461,1.0266248577344654,0.6209542135692204,0.13655081977551842
4.228987216949463,1.0231076808332054,0.6143493854445439,0.1463428080038029
4.238953590393066,1.0190043077817355,0.6078117131307347,0.15237776356800203
4.24795126914978,1.0152917321637385,0.6013489767120664,0.1542277798943585
4.256041049957275,1.0119699539792153,0.5949770956341239,0.4285663690041192
4.266076326370239,1.0078665809277452,0.5886908852001671,0.18130243083380265
4.274931907653809,1.0039586065930115,0.5824765176374976,0.08692535764039552
4.284350872039795,0.9998552335415416,0.5763404911832166,0.05866639458452934
4.2925097942352295,0.9963380566402815,0.5702883305023577,0.05636266923867469
4.300350666046143,0.9928208797390216,0.5643241785583372,0.33821624589892846
4.309893846511841,0.9889129054042881,0.5584598105708163,0.10188097993151432
4.31839919090271,0.9853957285030279,0.552695992729609,0.018408395091258058
4.325995683670044,0.9822693490352413,0.5470326075138996,-0.00020351604741976337
4.336400032043457,0.9777751785502978,0.5414773886583513,0.0056084150547351
4.34700083732605,0.9730856093486179,0.5360198060265284,0.018113255468301913
4.358030080795288,0.9683960401469377,0.5306342161972801,0.030179933936039342
4.367812871932983,0.9644880658122044,0.5253071538039529,0.039450696141050484
4.376971006393433,0.9607754901942076,0.5200432490194172,0.045586320136812374
4.384952545166016,0.9572583132929476,0.5148617874239354,0.048999625228416194
4.395947456359863,0.9529595415247408,0.5097708517233465,-0.22573853951593115
4.405350923538208,0.9490515671900073,0.5047536036816397,-0.25909400409319105
4.4132959842681885,0.945729789005484,0.49979561647253,-0.20527757289793108
4.420937776565552,0.9422126121042239,0.49489972423508544,-0.13115358231615398
4.429985046386719,0.9383046377694905,0.4900754933550781,-0.06300027283466887
4.439600706100464,0.9340058660012838,0.4853232958199709,-0.008962648194944065
4.450382471084595,0.9293162967996036,0.48063581528947213,0.03037012902249571
4.4609901905059814,0.9252129237481336,0.47600672939951877,0.05713027615034959
4.468929767608643,0.9218911455636103,0.4714306631415883,0.07407204512136029
4.4770402908325195,0.9185693673790868,0.46690992526686054,0.08374449567985583
4.485584497451782,0.9150521904778267,0.46245310916333215,0.08823352615522569
4.493709325790405,0.9115350135765666,0.45806027678644695,0.08914177725963612
4.50195574760437,0.90782243795857,0.45373106176163247,0.08765474836973734
4.511457443237305,0.9037190649070999,0.4494715535374905,0.08462711783024819
4.520486831665039,0.9002018880058399,0.4452798162629521,0.0806631379480943
4.5289390087127686,0.8970755085380532,0.4411536884102959,0.07618285209993778
4.537943601608276,0.8931675342033197,0.437091097232748,0.07147337581663554
4.546929597854614,0.8892595598685864,0.43308345512998286,0.06672722019718758
4.555963754653931,0.8853515855338528,0.42912962514355985,0.062070296756889506
4.563957691192627,0.8820298073493293,0.4252285280058684,0.05758207797081172
4.574129104614258,0.8779264342978594,0.42137275676897995,0.05330995871714448
4.58193039894104,0.8744092573965994,0.4175621059623174,0.04927940666646452
4.591939926147461,0.8701104856283925,0.41380237204314135,0.0455010912648314
4.59993839263916,0.8669841061606058,0.4100921293425153,0.04197586289522705
4.6079185009002686,0.8638577266928191,0.4064298282025665,0.038698211585528025
4.615938425064087,0.8605359485082957,0.4028199077690858,0.03565865529887835
4.625331163406372,0.8568233728902991,0.3992599563839505,0.032845377440494164
4.634325742721558,0.8527199998388288,0.3957418534610106,0.030245339499868473
4.642915725708008,0.8490074242208321,0.3922643765365945,0.02784502794748482
4.652667760848999,0.8450994498860988,0.38882654504737063,0.02563094715166488
4.66093373298645,0.841386874268102,0.3854217519241273,0.023589936644857562
4.671682834625244,0.837283501216632,0.38204438451255307,0.021709367527724052
4.682466983795166,0.8322031345814787,0.37868442411093206,0.019977256259934878
4.693313360214233,0.8277089640965352,0.3753337565960123,0.0183823224853487
4.701939344406128,0.8241917871952751,0.37199673632160657,0.016914009411044297
4.711031913757324,0.820088414143805,0.36868253105199755,0.015562479573272718
4.719986915588379,0.8165712372425449,0.3653936742445633,0.014318594852071945
4.729311227798462,0.8126632629078115,0.36212723048071355,0.013173886817193593
4.737019062042236,0.8097322821567615,0.35888105310428847,0.012120521560111647
4.7453930377960205,0.8062151052555014,0.3556586398135573,0.011151261817534426
4.75391960144043,0.8025025296375047,0.3524681630338425,0.010259428260036889
4.762790679931641,0.7987899540195079,0.349311707513565,0.00943886117087248
4.770931005477905,0.7952727771182478,0.34619102527944373,0.008683883297378795
4.778930187225342,0.7921463976504612,0.3431125559113618,0.2840276240263428
4.78795051574707,0.7884338220324644,0.3400816835562047,0.3165131502399024
4.796139717102051,0.7849166451312045,0.33710283076596387,0.26082792359608653
4.805600166320801,0.7810086707964708,0.33417518702544957,0.18420197251132459
4.81421422958374,0.7772960951784743,0.33129363413473367,0.11318161519245684
4.821902275085449,0.7741697157106875,0.3284541270746925,0.05610194757462904
4.831707239151001,0.7702617413759542,0.3256536354830929,0.2897214551956575
4.840925693511963,0.7661583683244839,0.3228939821752564,0.293043373654535
4.850370168685913,0.7622503939897506,0.3201810246709304,-0.05797657626649805
4.860915899276733,0.7579516222215439,0.31751264879544977,0.09637162095171148
4.870583772659302,0.7538482491700736,0.3148804733163172,0.10692738494717383
4.879436731338501,0.7505264709855504,0.31228544736443065,0.06789326166637427
4.889668941497803,0.7460323005006069,0.3097361360048823,0.019492958966033695
4.899274587631226,0.7421243261658735,0.3072374614053911,-0.022961111501966548
4.90738320350647,0.7388025479813501,0.3047915211340911,0.22087967121450325
4.915959119796753,0.7354807697968269,0.3024035497457144,0.23188873220701278
4.923914194107056,0.7319635928955668,0.30008334721278307,0.16305159242934297
4.933816194534302,0.7278602198440967,0.29783765116748684,0.07962641345221053
4.942925453186035,0.7243430429428366,0.29566648950010765,0.0063991528971261286
4.952536582946777,0.7206304673248398,0.2935709111211111,-0.04970798825536478
4.9609291553497314,0.7167224929901064,0.29155600912912105,-0.08904559828222952
4.969117641448975,0.7134007148055831,0.2896277970890593,-0.1144407262021315
4.978081941604614,0.7092973417541131,0.2877903543072156,-0.1291480118643213
4.98679780960083,0.7059755635695895,0.28604686347697317,0.13996870777726989
4.996952772140503,0.7018721905181196,0.28440081490507113,0.1716265962227893
5.005393743515015,0.6983550136168594,0.2828543045729214,0.11874822306379136
5.014847755432129,0.694447039282126,0.28140831563419594,0.04727108589170629
5.02346134185791,0.6907344636641293,0.2800636406154354,-0.017181450260690543
5.033478021621704,0.6870218880461326,0.2788208074337712,-0.066919905612584
5.0418994426727295,0.683309312428136,0.27767988224146783,-0.10166708156256135
5.0508832931518555,0.6797921355268758,0.2766403611899202,-0.12376509713588511
5.059284925460815,0.6764703573423524,0.27570409677299834,-0.13610627894335445
5.0678815841674805,0.6727577817243556,0.2748770289734425,-0.1413276603874224
5.075906038284302,0.6694360035398322,0.27416912483309813,-0.1415684717155199
5.083912134170532,0.6663096240720454,0.2735923943390376,0.13757739602538288
5.094801425933838,0.6616200548703655,0.27316336928220847,0.17595877112471153
5.103919267654419,0.6579074792523687,0.272907221454623,0.12741001307108374
5.113815784454346,0.6538041062008986,0.2728464606126318,0.05856509601552397
5.121894121170044,0.6502869292996385,0.27299011463241457,-0.00443743115020117
5.132917881011963,0.6454019613812219,0.273345329409756,-0.053534979436172844
5.143907308578491,0.6412985883297517,0.27392873080943114,-0.08818417059532511
5.154884099960327,0.6366090191280717,0.27475244712540725,-0.11053943439219538
5.162901401519775,0.6336780383770215,0.27581207415611303,-0.1233620802443924
5.17194676399231,0.6299654627590249,0.2770948523365416,-0.1291985754435011
5.182331323623657,0.6254712922740814,0.27859949360474084,-0.1301262131391262
5.191705942153931,0.6217587166560847,0.280327989957114,-0.12773543299883794
5.200960874557495,0.6180461410380881,0.2822662728191726,-0.12319754534600762
5.211922883987427,0.6137473692698813,0.28439896260120473,-0.1173521171840411
5.221909046173096,0.6098393949351478,0.2867157417564984,-0.11078806692275447
5.231905937194824,0.6053452244502044,0.28920442387331025,-0.10391033309200155
5.240923643112183,0.6016326488322077,0.2918513458639676,-0.09699143858258955
5.2519402503967285,0.5971384783472642,0.294641807254128,-0.09020998302854641
5.2598772048950195,0.5936213014460042,0.29756053637250046,-0.0836787395769678
5.267889499664307,0.5904949219782174,0.30058697132296963,-0.07746485580333567
5.279228210449219,0.586000751493274,0.30370159156348536,-0.07160422149325918
5.28792929649353,0.5822881758752773,0.30689137122646987,-0.06611160337147964
5.296916961669922,0.5787709989740173,0.31013881264388676,-0.06098774466502541
5.306461572647095,0.5748630246392838,0.3134278983092965,-0.056224306708581875
5.314708709716797,0.5715412464547605,0.31674923052244497,-0.051807285764853106
5.323894262313843,0.5680240695535003,0.3200892496418762,-0.04771935764932871
5.333911180496216,0.5639206965020302,0.3234359807447895,-0.04394147147459386
5.342890977859497,0.5602081208840336,0.32678391008696395,-0.040453919520351024
5.353122234344482,0.5559093491158269,0.3301281668237057,-0.037237043022215165
5.360925674438477,0.5527829696480401,0.3334692288933024,-0.3103100457179515
5.371943235397339,0.5484841978798334,0.3368072736239652,-0.34070243877460293
5.380784273147583,0.5447716222618366,0.34013275768180945,-0.2830886915814533
5.391890287399292,0.5400820530601566,0.34343296209092744,-0.20468651489558198
5.4000654220581055,0.5367602748756332,0.34670672990313683,-0.13203063930461964
5.408668518066406,0.5332430979743731,0.34995795576936145,-0.07344532135683535
5.417891502380371,0.5293351236396396,0.3531760493330946,-0.02964058952401134
5.427010774612427,0.5258179467383796,0.35634771034379076,0.001437581605913613
5.436804294586182,0.5219099724036462,0.35947153758893674,0.022495696695525057
5.4482691287994385,0.5174158019187027,0.3625562083480699,0.036056363512829766
5.456012010574341,0.5140940237341795,0.36560954180870475,0.32023200860766626
5.464943885803223,0.5103814481161826,0.36862462296522674,0.3576711603578939
5.47692084312439,0.5054964801977658,0.3715960197939556,0.304255668494263
5.485173940658569,0.5021747020132425,0.37453345090033613,0.22808285681915158
5.495000839233398,0.4982667276785091,0.37744541060752246,0.15631802810120482
5.503383159637451,0.494749550777249,0.38033464572637715,0.09773207101464716
5.511878252029419,0.4914277725927257,0.38319913269672984,0.053348257587670325
5.523911476135254,0.4863474059575722,0.38603289118795364,-0.2547080797996176
5.533972978591919,0.48204863418936544,0.3888358139089265,-0.31004140916213596
5.546858072280884,0.47735906498768543,0.3916173448110599,0.006274259226815404
5.556852102279663,0.47345109065295204,0.39439034526136757,0.10604727710840108
5.566893815994263,0.46915231888474523,0.3971613270653588,-0.16017423887492352
5.574875831604004,0.4662213381336952,0.3999314280146057,-0.21570345618064207
5.583873748779297,0.46250876251569845,0.40269721526186886,-0.1902507605499739
5.594487428665161,0.45820999074749164,0.4054562915867989,-0.14127489199704973
5.602881669998169,0.454497415129495,0.4082118334283715,-0.09233467808416693
5.611196756362915,0.4513710356617082,0.4109622965874926,-0.05159656947181182
5.620204210281372,0.44746306132697483,0.4137071298585654,-0.020620620568975557
5.628894567489624,0.4437504857089781,0.4164463177233568,0.0015739300627409993
5.638542413711548,0.43984251137424474,0.4191804478549865,0.016705018670284694
5.646900177001953,0.43632533447298466,0.4219154729694607,0.026486305446694627
5.657874822616577,0.4320265627047779,0.4246567687117393,0.03236867588049799
5.666377544403076,0.42850938580351783,0.42740903350536524,0.03548952075904335
5.677549839019775,0.424210614035311,0.43017599382777383,0.3127406793114899
5.686850309371948,0.4208888358507877,0.43296044911129394,0.6218311905902033
5.696586847305298,0.4175670576662643,0.43576427346386437,0.8749848020165834
5.705859899520874,0.41463607691521426,0.43858850400903915,1.6036044472528637
5.714932441711426,0.4117050961641642,0.4414284484277475,2.6036815290926203
5.723897933959961,0.4093603115633242,0.44427951314182734,3.1938707219413285
5.733465194702148,0.40701552696248405,0.4471422076328772,4.053690338587737
5.7418622970581055,0.4046707423616441,0.450011545587717,5.0
5.751690864562988,0.4025213564775407,0.45287800064813355,5.0
5.762448072433472,0.40056736931017395,0.4557424750954381,5.0
5.772444009780884,0.39900417957628065,0.4586145650452142,5.0
5.78121280670166,0.3978317872758606,0.46149255283155505,5.0
5.789858818054199,0.397050192408914,0.4643653113929977,5.0
5.798564910888672,0.39626859754196725,0.46722759736039193,5.0
5.806884765625,0.3958778001084939,0.4700748432770759,5.0
5.815876245498657,0.3958778001084939,0.4728986525400655,5.0
5.8244311809539795,0.3958778001084939,0.47569621043888216,5.0
5.833899974822998,0.39626859754196725,0.4784693956155681,5.0
5.84341025352478,0.39685479369217724,0.4812196789111229,5.0
5.850876092910767,0.3974409898423873,0.4839441331970676,5.0
5.858877658843994,0.3986133821428072,0.48663627213995736,5.0
5.867790699005127,0.40017657187670064,0.48929504572201116,5.0
5.876046180725098,0.40154436289385737,0.49191997622292416,5.0
5.887879848480225,0.4038891474946974,0.4945111390013618,5.0
5.897552490234375,0.4066247295290108,0.4970773674187941,5.0
5.904869794845581,0.40857871669637746,0.4996224033291398,5.0
5.913861274719238,0.4111189000139542,0.5021415257374164,4.993611395325956
5.926356315612793,0.4150268743486876,0.5046396737375706,5.0
5.934241533279419,0.4179578550997376,0.5071257365496162,5.0
5.9446046352386475,0.42186582943447104,0.5095991969664715,4.627070123839491
5.953730583190918,0.42577380376920443,0.5120601146296676,4.36055279288705
5.963824272155762,0.4294863793872012,0.514513327208569,3.8505736011792298
5.971823692321777,0.4328081575717246,0.5169589379395226,3.036850493839832
5.979869365692139,0.43593453703951135,0.5193929904407898,1.415371951099406
5.9915759563446045,0.44101490367466467,0.5218215212587981,0.3769693372247459
6.000657558441162,0.4447274792926615,0.5242544277761946,-0.8329866823230372
6.0108747482299805,0.4486354536273949,0.5266912558813299,-2.410372133952989
6.020343542098999,0.45273882667886495,0.5291364937449373,-4.329518880653616
6.029854774475098,0.45684219973033496,0.5315985940696235,-5.0
6.039194107055664,0.4611409714985418,0.5340753534953772,-5.0
6.046872138977051,0.46368115481611855,0.5365648591978837,-5.0
6.055291652679443,0.46719833171737857,0.5390654539587663,-5.0
6.063838481903076,0.47052010990190196,0.541571019690449,-5.0
6.07485556602478,0.4748188816701087,0.5440856677563531,-5.0
6.083308696746826,0.4781406598546321,0.5466173802683801,-5.0
6.091821670532227,0.48146243803915545,0.549158614285063,-5.0
6.102038383483887,0.48576120980736226,0.5517025788325438,-5.0
6.110886096954346,0.48927838670862234,0.5542569689037069,-5.0
6.119446277618408,0.4931863610433557,0.5568232842629162,-5.0
6.127105474472046,0.49631274051114244,0.5593932143039745,-5.0
6.135463237762451,0.4998299174124025,0.5619594457825747,-5.0
6.143864154815674,0.5027608981634525,0.5645156202087498,-5.0
6.154853820800781,0.5074504673651327,0.5670605889861023,-5.0
6.164858102798462,0.511358441699866,0.5695976438099152,-4.830966406234314
6.174333095550537,0.5156572134680728,0.5721294422535254,-4.566384673927756
6.18386173248291,0.5193697890860695,0.5746581723713786,-4.266510354062221
6.1926350593566895,0.5228869659873295,0.5771857500968319,-3.9610498175283757
6.200831890106201,0.5262087441718529,0.5797096205253386,-3.664295423358481
6.211993217468262,0.5305075159400596,0.5822278977633382,-3.3827561968416875
6.222533941268921,0.5346108889915298,0.5847480377545116,-3.1190156329852927
6.230366230010986,0.5379326671760531,0.5872722354655124,-3.1497271177211283
6.238814830780029,0.5414498440773132,0.5897938406880767,-2.9555818949125534
6.249877214431763,0.5461394132789933,0.592311975097117,-2.690453421869293
6.2598631381988525,0.5502427863304634,0.5948305770423136,-2.4205573110662653
6.267958164215088,0.5535645645149868,0.5973485235643932,-2.1713595942244255
6.278162956237793,0.5576679375664568,0.5998647577071717,-1.9501180113073362
6.286858320236206,0.5611851144677169,0.6023827521122742,-1.7565127881324942
6.2984607219696045,0.5660700823861337,0.6049050428291309,-1.3114749520616558
6.306842088699341,0.5693918605706572,0.6074374449687012,-1.1303336637457597
6.316140413284302,0.5732998349053905,0.6099839833464963,-1.055019904621942
6.324711561203003,0.5766216130899139,0.6125386308334343,-1.0154319852761102
6.335227966308594,0.5807249861413839,0.6150914081256025,-0.9826843071910942
6.3458476066589355,0.5850237579095907,0.6176409982280533,-0.9465690339419743
6.354895830154419,0.5889317322443242,0.6201895296365355,-0.9048724685600648
6.36285400390625,0.5918627129953741,0.6227267370012213,-0.8584426049111926
6.371245622634888,0.5953798898966343,0.6252396913280167,-0.8090089820547831
6.382806062698364,0.6004602565317877,0.6277279738496159,-0.7582924292915105
6.392150163650513,0.6041728321497843,0.6301979175223207,-0.707699408971792
6.400943994522095,0.6080808064845178,0.6326476757538452,-0.934304806730685
6.410802841186523,0.6117933821025145,0.6350688075018519,-0.9198630521773041
6.419785737991333,0.6155059577205113,0.637457742727336,-0.8195096913182522
6.429280519485474,0.6194139320552446,0.6398151246535659,-0.7007258154962583
6.438328742980957,0.622735710239768,0.6421418970940241,-0.5901675404764309
6.446953773498535,0.6262528871410281,0.6444393900260709,-0.7722203303616142
6.454822778701782,0.6295746653255516,0.646705963078796,-0.7285988494249938
6.464320421218872,0.633482639660285,0.6489376203949099,-0.6118551484686203
6.471809387207031,0.6364136204113349,0.6511318328622708,-0.4864051340659607
6.480082035064697,0.6395399998791217,0.6532912860746168,-0.3761503278613674
6.4883644580841064,0.6426663793469085,0.6554231728570358,-0.5632613476196142
6.496816873550415,0.6459881575314318,0.657527003492608,-0.5277755737338001
6.508639097213745,0.6510685241665852,0.6596039359018908,-0.42102262244812755
6.520106077194214,0.6557580933682653,0.6616727786546159,-0.5825907889933304
6.5297980308532715,0.6594706689862622,0.6637507516832667,-0.7928693143685634
6.537805557250977,0.6624016497373121,0.6658360020128494,-0.9693652236931626
6.545833110809326,0.6651372317716254,0.6679232542025932,-1.0898165251936522
6.554492473602295,0.6682636112394121,0.6700179107733538,-1.1562579173873386
6.561810255050659,0.6704129971235157,0.6721300621483733,-1.7308858786161387
6.572339057922363,0.6735393765913023,0.6742690975434485,-2.339199971897213
6.581950426101685,0.6762749586256158,0.6764435541283425,-3.090749281991876
6.589790105819702,0.6784243445097191,0.6786557153835426,-3.7085369715985044
6.601661205291748,0.681355325260769,0.6809075941097112,-4.673448034080961
6.610811233520508,0.683309312428136,0.6832059315439126,-5.0
6.619267702102661,0.6852632995955026,0.6855507103185784,-5.0
6.628831148147583,0.6870218880461326,0.6879414089073701,-5.0
6.637301683425903,0.6885850777800259,0.6903769489520598,-5.0
6.6468610763549805,0.6901482675139192,0.6928504007983219,-5.0
6.656121253967285,0.6917114572478126,0.6953655075147237,-4.981253425419122
6.664809942245483,0.6928838495482326,0.6979297193376828,-5.0
6.672827959060669,0.693860843131916,0.7005328917374846,-4.187185234357003
6.682848215103149,0.6952286341490728,0.7031603392381119,-4.019812885459522
6.692662954330444,0.696205627732756,0.7058135862828572,-3.767797626740357
6.702252626419067,0.6969872225997028,0.7085024502554245,-3.4911966786944095
6.70984673500061,0.6977688174666494,0.711224324305845,-2.6652622393122334
6.718290567398071,0.6985504123335962,0.7139663626242708,-1.7873868123307077
6.72629976272583,0.6993320072005428,0.7167169595631562,-1.3141724363993428
6.7360758781433105,0.7001136020674896,0.7194699549566365,-0.7693612214176645
6.7448225021362305,0.7008951969344361,0.7222238303398418,-0.019739260772583644
6.754385471343994,0.7020675892348561,0.7249725591176482,0.9296788182615227
6.7638468742370605,0.7030445828185395,0.7277106278511815,1.7518856665812583
6.772818326950073,0.704021576402223,0.730433300267434,2.6319269291099197
6.78231954574585,0.7051939687026428,0.7331324344475684,3.6078382696627282
6.791886568069458,0.7063663610030629,0.7358096371701437,4.385902561398361
6.802481174468994,0.7077341520202196,0.7384749937264459,4.899797057248352
6.8103578090667725,0.7091019430373763,0.7411292659012851,5.0
6.819795370101929,0.710469734054533,0.7437654100268577,5.0
6.828364610671997,0.7120329237884264,0.7463825825085675,5.0
6.837419033050537,0.7134007148055831,0.7489853167073711,5.0
6.846843004226685,0.7149639045394763,0.7515784463450803,5.0
6.856647253036499,0.7171132904235799,0.7541670218119638,5.0
6.865776062011719,0.7190672775909466,0.7567513458327901,5.0
6.873813629150391,0.7206304673248398,0.7593275958133897,5.0
6.882652521133423,0.7225844544922065,0.7618981260034168,5.0
6.8907811641693115,0.7243430429428366,0.7644654187030471,5.0
6.8987815380096436,0.7261016313934666,0.7670271242147968,4.814623338187733
6.906773328781128,0.7278602198440967,0.7695817132057569,4.669614941079033
6.915784597396851,0.7302050044449367,0.7721283963380616,4.233082981683895
6.92578649520874,0.7329405864792501,0.7746724329943168,4.286901231094764
6.934776782989502,0.7354807697968269,0.7772242279459386,4.160905605901268
6.94283127784729,0.7376301556809302,0.7797876473659329,3.9510182146011354
6.951581001281738,0.7403657377152436,0.7823664364786173,3.706584060386483
6.960470914840698,0.7429059210328203,0.7849694864186172,3.4529893290894935
6.969354152679443,0.7456415030671336,0.7875985852592521,3.4792303786480616
6.978798151016235,0.7487678825349204,0.7902550707436381,3.2728036260034363
6.989815950393677,0.7522850594361805,0.7929453569586219,3.5434819998972618
6.99782133102417,0.7550206414704939,0.7956687401579894,3.321760830140499
7.008817911148071,0.7587332170884905,0.7984239547894123,2.943752899620357
7.018434524536133,0.762054995273014,0.8012202985599294,2.5519171041377806
7.025795221328735,0.764985976024064,0.8040592138328057,2.1994545320293275
7.034789323806763,0.7683077542085874,0.8069298921015063,1.624206212484883
7.044424057006836,0.7722157285433208,0.8098276614811624,1.6191043077870408
7.055786848068237,0.7763191015947909,0.8127528992572794,1.7791296588690477
7.064812660217285,0.779836278496051,0.81570462933098,1.388494894342689
7.073793172836304,0.7835488541140476,0.81868062466182,0.8781062391183725
7.083628177642822,0.7876522271655179,0.8216775651184768,0.6916317603912159
7.091775894165039,0.7909740053500411,0.8246866899019469,0.3605498566509302
7.101824045181274,0.7948819796847746,0.8276993400597258,0.04148332548720879
7.110789060592651,0.7985945553027713,0.8307118974310607,-0.4896277743702179
7.119300365447998,0.8019163334872947,0.8337160660916559,-0.982230583081729
7.127816438674927,0.8054335103885547,0.8367038656371995,-1.3570524213920776
7.136056900024414,0.8089506872898149,0.8396681728919488,-1.6064480088975697
7.145396947860718,0.8124678641910749,0.8425984177090036,-1.748793805911033
7.154816627502441,0.815985041092335,0.8454893762505094,-2.084676702961359
7.164242506027222,0.8196976167103317,0.8483403458696096,-2.39404467534837
7.172828912734985,0.8232147936115918,0.8511467995843806,-2.3313280314574207
7.182816505432129,0.8275135653797985,0.8539047943965112,-2.408778726765399
7.191865921020508,0.8314215397145318,0.8566148193903026,-2.4877423284658198
7.199810743331909,0.8347433178990552,0.8592740455822067,-2.5223370937599188
7.208813667297363,0.838455893517052,0.8618804906727388,-2.5058040432001523
7.218525409698486,0.8421684691350487,0.8644367091187275,-2.4458794670233805
7.2267796993255615,0.8456856460363087,0.8669421226131732,-2.354017935467203
7.234811305999756,0.8488120255040955,0.8693936171099199,-2.2410781800490422
7.244104385375977,0.8529153985555658,0.871793230393945,-2.1159168519161002
7.253294229507446,0.8566279741735624,0.8741474439793481,-1.9852098274912537
7.263305187225342,0.8605359485082957,0.8764628887890311,-1.5776905458926065
7.2711334228515625,0.8636623279760824,0.8787423279918573,-1.4155724541157109
7.280352354049683,0.8671795048773426,0.8809851550902918,-1.6223274731283173
7.288342475891113,0.8701104856283925,0.8831956950631052,-1.6130698908465173
7.2972776889801025,0.8736276625296527,0.8853824464038599,-1.7926967125700055
7.3057849407196045,0.8771448394309127,0.8875492816770595,-1.7014644960261354
7.314581871032715,0.8800758201819627,0.8896960212370105,-1.795970576029906
7.323135614395142,0.8835929970832228,0.8918273067461192,-1.9107765854090057
7.331856727600098,0.8867193765510096,0.8939517489810698,-1.9873767112400103
7.342609643936157,0.8910181483192163,0.8960768595584658,-2.0132719981256613
7.353853702545166,0.8953169200874231,0.8982088599859488,-2.2697993180639333
7.363434553146362,0.8982479008384732,0.9003526285917157,-2.52461237004007
7.371814489364624,0.9007880841560499,0.902511795430452,-2.700163599416416
7.382461786270142,0.9041098623405732,0.9046889174693172,-2.784435825141076
7.391568899154663,0.90665004565815,0.9068856736434947,-3.341967978258001
7.399781942367554,0.90899483025899,0.9090990146462831,-3.6298167434851747
7.409315586090088,0.9115350135765666,0.91132201603434,-3.732578391496926
7.41676664352417,0.9132936020271968,0.9135486779287393,-4.263503053302421
7.425750017166138,0.9156383866280366,0.9157739156233882,-4.780258483166889
7.4347734451293945,0.9173969750786667,0.9179975711455762,-4.860866427195285
7.442852973937988,0.919155563529297,0.9202195713609058,-5.0
7.452748537063599,0.9209141519799268,0.9224399279867735,-5.0
7.462761640548706,0.9224773417138202,0.9246628111025866,-5.0
7.472356796264648,0.9240405314477135,0.9268920579913116,-5.0
7.480750322341919,0.9250175250313969,0.9291313041323331,-4.843328212975704
7.491832494735718,0.9263853160485537,0.9313841784363572,-4.85983275531988
7.50276255607605,0.9277531070657102,0.9336587727405361,-4.870646219611462
7.511785984039307,0.928534701932657,0.9359578128803786,-4.543086484240677
7.519771337509155,0.9293162967996036,0.9382750927054414,-3.562213171130818
7.528321743011475,0.9299024929498136,0.9406103993412175,-2.7906306171049806
7.536441087722778,0.930293290383287,0.9429638307893563,-2.1995528053638123
7.545795917510986,0.9308794865334971,0.9453311311888396,-2.028546030883482
7.554826259613037,0.9316610814004438,0.9477140576116231,-1.4488741458244523
7.564640045166016,0.9322472775506537,0.9501195079356567,-0.8303632635703494
7.574742317199707,0.9330288724176004,0.9525538698046538,-0.30689893268492635
7.584787368774414,0.9340058660012838,0.9550230859367627,0.6422616923411798
7.593632936477661,0.9347874608682304,0.9575327365432572,1.5404488650175443
7.60278844833374,0.9357644544519137,0.960082320912607,2.5091199965272057
7.613104820251465,0.9367414480355971,0.9626702020222911,3.562368367514749
7.621755123138428,0.9377184416192806,0.965297997034355,4.399984998716329
7.631778717041016,0.9386954352029638,0.9679573930277795,4.956221229793937
7.64179253578186,0.9402586249368571,0.9706331035587776,5.0
7.652281999588013,0.941626415954014,0.9733063961957304,5.0
7.660768985748291,0.9427988082544339,0.9759497134979984,5.0
7.6697773933410645,0.9443619979883273,0.9785283087953556,5.0
7.679243087768555,0.9459251877222207,0.9810013757244019,5.0
7.689283847808838,0.9474883774561141,0.9833258539085667,5.0
7.698586463928223,0.9490515671900073,0.9854625233042175,5.0
7.708509206771851,0.9506147569239006,0.9873773313634111,5.0
7.7167792320251465,0.9521779466577941,0.9890448553635702,5.0
7.725812196731567,0.9541319338251608,0.9904474297968346,5.0
7.735904216766357,0.9558905222757909,0.9915573240988071,4.735103868569513
7.7447733879089355,0.9578445094431576,0.992346338676953,4.589972442613491
7.7527735233306885,0.9597984966105241,0.9928134768680716,4.455900553440541
7.761791944503784,0.9619478824946276,0.992968447327507,4.297392687413296
7.770362854003906,0.9639018696619943,0.9928104930896429,3.8335258594565174
7.777737617492676,0.9656604581126244,0.9923378080982542,3.589504192435417
7.786736011505127,0.9678098439967278,0.9915612473896608,3.4195627336603867
7.795740604400635,0.9701546285975677,0.9905026149644076,2.9886908666252268
7.804354429244995,0.9724994131984078,0.9891816023695503,2.7958391321462024
7.814267158508301,0.9750395965159845,0.987616892607334,2.4066832806368024
7.82177996635437,0.9769935836833512,0.9858359195684678,1.9993769158627863
7.83076810836792,0.9797291657176646,0.9838725407136689,1.6396217721342217
7.840749740600586,0.982464747751978,0.9817580110072077,1.0678177779464986
7.849217653274536,0.9844187349193447,0.9795215698447891,0.5235629994712157
7.8577539920806885,0.986568120803448,0.9771944609181381,-0.1907336393067287
7.8682286739349365,0.9887175066875513,0.9748092150106327,-0.8217785920626138
7.875726222991943,0.9902806964214448,0.9723990681328479,-1.5722949774696917
7.885748624801636,0.9922346835888115,0.9699967491921413,-2.751892230590858
7.895735025405884,0.9937978733227049,0.967633288786273,-3.812507338255826
7.904379367828369,0.9953610630565983,0.9653384046124416,-4.587543236568514
7.9127702713012695,0.9963380566402815,0.9631410656134571,-5.0
7.922381639480591,0.9975104489407016,0.9610713722699177,-5.0
7.930743455886841,0.9984874425243848,0.9591583685778431,-5.0
7.938772439956665,0.9990736386745949,0.9574283278283562,-5.0
7.94972562789917,0.999659834824805,0.9559103128725229,-5.0
7.957748651504517,0.9998552335415416,0.9546283564462669,-5.0
7.968530893325806,1.0000506322582783,0.9536037021904413,-5.0
7.97675347328186,0.9998552335415416,0.9528668582974614,-5.0
7.985265016555786,0.999659834824805,0.9524360204686447,-5.0
7.993751764297485,0.9992690373913317,0.9523119341101868,-5.0
8.003636598587036,0.9986828412411217,0.952500461854337,-5.0
8.012327909469604,0.9979012463741749,0.9530118920564612,-5.0
8.02077579498291,0.9969242527904917,0.9538448302880057,-5.0
8.030725002288818,0.9959472592068082,0.9549876309525442,-5.0
8.039398670196533,0.9947748669063883,0.9564362892895222,-4.867496881483532
8.049497842788696,0.9934070758892316,0.9581934445407522,-4.8532877367670295
8.059739112854004,0.9918438861553381,0.9602591333904159,-4.269552816911653
8.068484544754028,0.9902806964214448,0.9626309902563387,-3.5621055984311614
8.07674241065979,0.9889129054042881,0.9652950757079879,-2.9064927241234866
8.08777141571045,0.9869589182369213,0.9682369833753798,-2.3572590420684483
8.095747709274292,0.9855911272197647,0.9714510493296737,-1.3662700316470207
8.10463285446167,0.9840279374858714,0.9749200928873087,-0.6809668367706132
8.11475157737732,0.9820739503185046,0.9786269674747761,0.059907880193710406
8.12460732460022,0.980119963151138,0.9825641277515885,0.6771915364848058
8.13331413269043,0.9783613747005078,0.9867226553467668,1.6813453974633492
8.14274549484253,0.976602786249878,0.9910924535160199,2.323067726317095
8.151520490646362,0.9752349952327212,0.9956624316506854,2.9743214063073005
8.160295724868774,0.9740626029323012,1.0004109189285468,4.021290844646996
8.170980215072632,0.9726948119151444,1.005307481633037,4.948501073754913
8.17915415763855,0.9717178183314611,1.0103340770362192,5.0
8.186738967895508,0.971131622181251,1.0154735547986573,5.0
8.194737911224365,0.9705454260310411,1.0206998297854784,5.0
8.203219652175903,0.969959229880831,1.0259986887990462,5.0
8.211738586425781,0.9697638311640945,1.0313565738200008,5.0
8.221486806869507,0.9695684324473578,1.0367599449839358,5.0
8.230718851089478,0.9697638311640945,1.0422048995761184,5.0
8.241744756698608,0.9701546285975677,1.0476773437653066,5.0
8.251691341400146,0.9705454260310411,1.0531632873546681,5.0
8.260744094848633,0.9717178183314611,1.0586660459668065,5.0
8.271731853485107,0.9730856093486179,1.064186273326557,5.0
8.279801368713379,0.9742580016490379,1.0697060919153218,5.0
8.28873586654663,0.9760165900996679,1.0752084370094934,5.0
8.2977135181427,0.9779705772670346,1.080678034844541,5.0
8.305766344070435,0.980119963151138,1.086093482923829,5.0
8.315420627593994,0.9826601464687146,1.0914432814294501,5.0
8.324220657348633,0.9853957285030279,1.0967242208706909,5.0
8.333240509033203,0.9885221079708147,1.1019326658072621,5.0
8.343755006790161,0.9924300823055481,1.1070647893040488,5.0
8.35477089881897,0.9969242527904917,1.1121168732838291,5.0
8.363189697265625,1.0004414296917516,1.1170856244247025,5.0
8.371742010116577,1.0039586065930115,1.1219684647502113,5.0
8.381698608398438,1.0080619796444819,1.1267577631434287,5.0
8.390181064605713,1.0113837578290052,1.1314420010300037,4.176521972383949
8.399030923843384,1.0150963334470018,1.136018779409668,3.107559370276507
8.409722566604614,1.0191997064984721,1.1404936758590865,1.5732861977825718
8.418049097061157,1.0223260859662586,1.1448731592505468,-0.39026122933270735
8.425697088241577,1.0252570667173089,1.1491582580232453,-2.390316180210842
8.435027599334717,1.0293604397687788,1.1533453808251442,-3.9934323189112737
8.444212436676025,1.0332684141035122,1.1574395350343034,-5.0
8.452742099761963,1.0365901922880356,1.1614529774918432,-5.0
8.460732221603394,1.0397165717558223,1.165391178231008,-5.0
8.469719409942627,1.0432337486570824,1.1692536732620498,-5.0
8.478724002838135,1.0467509255583425,1.1730478836292109,-5.0
8.487372875213623,1.0506588998930757,1.176787724197968,-5.0
8.495716333389282,1.054176076794336,1.1804792019589143,-5.0
8.504711151123047,1.0578886524123328,1.1841148450450236,-5.0
8.512704133987427,1.0610150318801193,1.1876889199977287,-5.0
8.520723104476929,1.0641414113479062,1.1912102367346995,-5.0
8.530701160430908,1.0682447843993763,1.1946930912463305,-5.0
8.542442560195923,1.073129752317793,1.1981559031220563,-4.882124372533623
8.55245327949524,1.0770377266525264,1.2016202585919413,-4.921657930217159
8.559813737869263,1.0797733086868397,1.2050913006596906,-4.669267614717903
8.571710109710693,1.08446287788852,1.208560349202841,-4.314800760622047
8.580701112747192,1.0881754535065165,1.2120259777160858,-3.943036354248753
8.588968515396118,1.0918880291245132,1.2154928998075116,-3.589020937002136
8.59872031211853,1.0957960034592467,1.2189647531253114,-3.264915372287117
8.609751224517822,1.1004855726609268,1.2224442248767544,-2.9728418529156766
8.617693185806274,1.1034165534119769,1.2259272062534619,-2.4348641589118323
8.627742052078247,1.107519926463447,1.2294099204578073,-2.16674107230874
8.635739803314209,1.1106463059312337,1.2328949948298145,-2.010453662875557
8.643800497055054,1.113968084115757,1.2363785530941598,-1.8957465053290012
8.653313875198364,1.1180714571672272,1.2398571921598442,-2.0695119504384474
8.661694288253784,1.121197836635014,1.2433280114638445,-2.002277635948383
8.670861959457397,1.124715013536274,1.246782618984887,-1.8461885869889814
8.679709911346436,1.1280367917207974,1.2502198330403729,-1.6689909697889624
8.689679861068726,1.1317493673387942,1.253644509361668,-1.4986360492458695
8.69945764541626,1.1360481391070005,1.2570606100539732,-1.3448682793386681
8.70877480506897,1.1399561134417342,1.2604713164577452,-1.209519028866455
8.719673871994019,1.144254885209941,1.2638791760134285,-1.0913026708956342
8.729052066802979,1.1481628595446745,1.267286202624813,-0.9879685802740032
8.738467693328857,1.152070833879408,1.2706939209557138,-0.8972044339936338
8.7466881275177,1.155392612063931,1.274103373164209,-0.8169665443764398
8.755119323730469,1.1587143902484545,1.2775095328120571,-0.7455597098995878
8.76369595527649,1.1620361684329779,1.2809022765812754,-0.6816170572097262
8.773729801177979,1.1665303389179214,1.2842784186836078,-0.6240475703798394
8.783539533615112,1.1702429145359179,1.287640578596054,-0.5719798746099953
8.792702674865723,1.1739554901539149,1.2909852835402498,-0.5247128592623851
8.803794384002686,1.1784496606388581,1.2943092515101104,-0.4816758416156812
8.813302516937256,1.182162236256855,1.2976200309581991,-0.442397806482125
8.821829795837402,1.1854840144413783,1.300923598871558,-0.40648421671542906
8.83080005645752,1.1891965900593753,1.3042141776472904,-0.37359974981189575
8.841676235198975,1.1931045643941083,1.3074864544263742,-0.06741715250554328
8.85255479812622,1.1975987348790518,1.3107456175850911,-0.006636604546376393
8.861685991287231,1.2013113104970485,1.3139908021558526,-0.31238254101332474
8.873216152191162,1.206391677132202,1.317215702986164,-0.12223296768720615
8.883853197097778,1.210495050183672,1.32042401010545,-0.08310502320617248
8.892003297805786,1.2134260309347222,1.3236182620804466,-0.0990430923861752
8.900201320648193,1.2167478091192456,1.3267908595013136,-0.12849566771218002
8.909295320510864,1.2204603847372424,1.3299306402575617,-0.15516197669265402
8.921416521072388,1.2251499539389223,1.3330367039594775,-0.17400256548340542
8.930405855178833,1.2286671308401824,1.3361125507908962,-0.18465552971689886
8.938708543777466,1.2319889090247058,1.3391524335622054,-0.18843214928202207
8.948452472686768,1.2358968833594395,1.3421512963554687,-0.1870158423552291
8.957266569137573,1.239609458977436,1.3451089152457842,-0.18195232130581043
8.966738939285278,1.243126635878696,1.3480210401401043,-0.17449303845257597
8.975698709487915,1.246839211496693,1.3508800971589425,-0.16558566757933313
8.984951257705688,1.250747185831426,1.3536834277927419,-0.15591738481851508
8.99269151687622,1.2536781665824763,1.3564323256532198,-0.422008413215321
9.00297999382019,1.2581723370674196,1.3591273567093671,-0.445234183772235
9.010702133178711,1.2612987165352065,1.3617652645105116,-0.1044632750149068
9.01993465423584,1.2648158934364664,1.3643396969671844,0.013983291439144042
9.031400680541992,1.2691146652046732,1.3668507237082683,0.03816877254807019
9.038708209991455,1.2720456459557232,1.3692983447557272,-0.24908944218419632
9.048865795135498,1.2759536202904564,1.371676401339653,-0.3030260331932028
9.0577073097229,1.2792753984749798,1.3739819161209594,-0.26794879667330657
9.065793752670288,1.2820109805092936,1.376212346656119,-0.2076583970678209
9.076390743255615,1.286505150994237,1.3783648084034341,-0.14821263410906715
9.085104942321777,1.2900223278954968,1.3804385346015102,-0.09855498750329893
9.094734907150269,1.2939303022302302,1.3824322174037325,-0.06030140736828838
9.102784395217896,1.2972520804147536,1.3843429342963627,-0.032264499974091046
9.111140489578247,1.300573858599277,1.3861666872938903,-0.0124571996077239
9.119822025299072,1.303700238067064,1.3879013398357376,0.0010862666214315154
9.129224061965942,1.3076082124017971,1.3895462749114624,0.010026484475467957
9.138546228408813,1.3111253893030574,1.391100835399547,0.015665497146663633
9.148563623428345,1.3152287623545271,1.392564310588132,0.018982123375694108
9.157646656036377,1.3187459392557874,1.3939355471205508,-0.25534536297234317
9.167684078216553,1.3228493123072576,1.3952128492627707,-0.2878495271297413
9.175673723220825,1.3257802930583074,1.3963945115840686,-0.23285659602626446
9.185465335845947,1.3294928686763046,1.397478441418376,-0.15734397800606456
9.194679737091064,1.3328146468608277,1.398461093707888,-0.08768329048656183
9.206071376800537,1.3376996147792444,1.399334248322146,-0.03209025573109683
9.216672897338867,1.3418029878307145,1.4000870465674446,0.008795401299569319
9.227933645248413,1.346297158315658,1.4007075456173508,0.037071463051508866
9.235759973526001,1.3494235377834447,1.401182369959699,0.05546992583409851
9.244788408279419,1.3525499172512316,1.4015018892352262,-0.20951190496871017
9.253979444503784,1.3562624928692282,1.4016550015622062,-0.23684313991522593
9.262660026550293,1.3593888723370147,1.401626076562631,-0.1796158306772644
9.272300958633423,1.3632968466717486,1.4013994276134192,-0.3799168286776233
9.281350135803223,1.366618624856272,1.4009592859190079,-0.620525750044515
9.289663076400757,1.3691588081738484,1.400297244727894,-0.8209518186751401
9.29961371421814,1.3726759850751085,1.3994111094872779,-1.236544993539483
9.308340549468994,1.375411567109422,1.3982878199527446,-1.627620733464441
9.31669545173645,1.3779517504269985,1.3969029743254988,-1.9169660199515486
9.327006578445435,1.3810781298947854,1.3952287928392904,-2.371613263438405
9.335283517837524,1.3832275157788887,1.3932484848971904,-2.7646454016553887
9.343255758285522,1.385376901662992,1.3909563679188854,-3.306023984573113
9.353283166885376,1.387721686263832,1.388330464992687,-3.752635904115106
9.361708164215088,1.3896756734311988,1.3853511861129653,-4.314883422166611
9.371704816818237,1.3916296605985656,1.3820153603431222,-5.0
9.381676435470581,1.3933882490491956,1.3783021977952625,-5.0
9.392179727554321,1.394951438783089,1.374156705466594,-5.0
9.401687860488892,1.3957330336500358,1.369531228121058,-5.0
9.410649299621582,1.3963192298002454,1.3644241474516028,-5.0
9.421651840209961,1.3967100272337187,1.3588351604728865,-5.0
9.431752443313599,1.396514628516982,1.352746652458182,-5.0
9.440197467803955,1.3963192298002454,1.3461466015661274,-5.0
9.44970417022705,1.3955376349332989,1.3390287345448582,-5.0
9.459681034088135,1.3945606413496152,1.3313927263932799,-5.0
9.469305515289307,1.3935836477659322,1.3232444068108635,-5.0
9.477670907974243,1.3922158567487755,1.3145957693426065,-5.0
9.48664665222168,1.3906526670148822,1.3054858000132203,-5.0
9.49496054649353,1.3886986798475154,1.2959760911802625,-5.0
9.505316734313965,1.386158496529939,1.286104246225393,-5.0
9.517536401748657,1.3826413196286786,1.2758666512058114,-5.0
9.526694297790527,1.3797103388776286,1.265266436622958,-5.0
9.537252187728882,1.3750207696759482,1.2543328618662006,-5.0
9.545652627944946,1.372285187641635,1.2430759103814626,-5.0
9.554672002792358,1.3687680107403752,1.2315294785933057,-5.0
9.562743186950684,1.365250833839115,1.2197874689585742,-4.572003686897039
9.572062730789185,1.3613428595043817,1.2079130323859841,-3.8462515153901466
9.580746173858643,1.3576302838863845,1.19592250447204,-2.8403214922001228
9.589208841323853,1.3537223095516515,1.1838520453006622,-1.9012170472678318
9.598623991012573,1.3502051326503914,1.1717348877409908,-0.03509223978972931
9.60905933380127,1.3459063608821848,1.159581752898099,1.775390517884754
9.618442296981812,1.3416075891139778,1.1474038355134626,3.7547368447070504
9.627657175064087,1.3376996147792444,1.135212595487551,5.0
9.638672828674316,1.3328146468608277,1.1230195590363454,5.0
9.64664077758789,1.3296882673930412,1.1108542135779766,5.0
9.654625654220581,1.3265618879252543,1.098760671121192,5.0
9.666782140731812,1.3214815212901008,1.0867411315050308,5.0
9.675618886947632,1.3177689456721042,1.0747804521862814,5.0
9.684154510498047,1.3140563700541072,1.0629028151220035,5.0
9.692639827728271,1.3103437944361107,1.051130557008584,5.0
9.703439950942993,1.3056542252344305,1.0394664564224951,5.0
9.713393211364746,1.3019416496164338,1.0279137918786379,5.0
9.721641302108765,1.2982290739984372,1.0164757870888206,5.0
9.729625463485718,1.2951026945306503,1.005170957587704,5.0
9.737627029418945,1.2915855176293904,0.9940458278967002,5.0
9.746236324310303,1.287677543294657,0.9831228515170021,5.0
9.75562572479248,1.2835741702431867,0.9723882090951838,5.0
9.765087842941284,1.27986159462519,0.9618449785259943,4.997886567318175
9.773661375045776,1.2765398164406667,0.9514961254408085,4.803013959807277
9.783250331878662,1.272631842105933,0.9413296181743638,4.525462525910811
9.791631698608398,1.2689192664879365,0.9313501204698762,3.943679372368888
9.80161428451538,1.265011292153203,0.9215630131585066,3.6031866114843334
9.811203718185425,1.2612987165352065,0.9119470212119846,3.637883101944442
9.81911849975586,1.2577815396339465,0.9024972684709643,3.46710524124811
9.828664779663086,1.2534827678657396,0.8932355381547771,3.2210071701166614
9.839231729507446,1.2487931986640595,0.8841672011617251,2.9587625386986964
9.848239421844482,1.245080623046063,0.875283595452538,2.7056400443735287
9.856669902801514,1.2415634461448029,0.8665762738761241,2.4710804715815646
9.865400075912476,1.2376554718100692,0.8580361996064391,2.257411512694749
9.874341011047363,1.233747497475336,0.8496652475901257,2.0639774955214953
9.883650302886963,1.230034921857339,0.8414744807258084,1.8890438628967674
9.893141508102417,1.225931548805869,0.8334588795079341,1.730636217940532
9.901625394821167,1.222414371904609,0.8256117733023463,1.5868797589399728
9.911105871200562,1.2183109988531389,0.8179370872908502,1.4561121519199713
9.920690774917603,1.214598423235142,0.8104237540409427,1.3368994547484645
9.92920446395874,1.211081246333882,0.8030481195159536,1.2280150575538
9.940106630325317,1.2065870758489385,0.7957881371564952,1.1284082277279466
9.949591636657715,1.202288304080732,0.7886234648141144,1.0371731735291339
9.957792282104492,1.1987711271794719,0.7815355138331557,0.9535224132976126
9.966590166091919,1.1950585515614751,0.7745195642316378,0.8767651712079737
9.97662615776062,1.190955178510005,0.7675707302572649,0.8062903359025094
9.98637342453003,1.186851805458535,0.7606599640067904,0.7415531702588212
9.995587348937988,1.1829438311238019,0.753774429972669,0.682064957675333
10.004614353179932,1.1792312555058049,0.7469273546279966,0.6273848888760616
10.014151811599731,1.1755186798878081,0.7401178759215111,0.8531519964593168
10.022621870040894,1.172001502986548,0.7333452233477634,0.8400511607607352
10.030627489089966,1.168484326085288,0.726620750347455,0.7424433921790072
10.038982629776001,1.164967149184028,0.7199422608603051,0.627260546533266
10.047593116760254,1.1610591748492947,0.7133076920409565,0.5207761401872446
10.057645320892334,1.1571512005145612,0.7067269459809481,0.4310753548192299
10.065617084503174,1.1536340236133011,0.7001968997132131,0.35864914036820217
10.074236392974854,1.1497260492785677,0.6937036584471191,0.3012425288136744
10.083674192428589,1.1462088723773076,0.687236093702818,0.25596457524147903
10.093533515930176,1.1417147018923641,0.680785567623704,0.2201232858154474
10.102631568908691,1.1376113288408942,0.674356401329279,0.1914889678055579
10.110603094100952,1.1340941519396341,0.6679636482097865,0.4443563070786082
10.12028694152832,1.1301861776049007,0.6616095711880077,0.1824133904925428
10.128937482833862,1.1268643994203773,0.6552857737580706,0.07832012466405366
10.138025522232056,1.1231518238023808,0.648985813313358,0.043892325390828574
10.146587133407593,1.1196346469011205,0.6427150774303796,0.3139497399843976
10.155203342437744,1.1159220712831237,0.6364888608149553,0.3509347281118037
10.166134357452393,1.1112325020814438,0.6303003863644255,0.025593670756816816
10.17390251159668,1.1081061226136568,0.6241342336569609,-0.07887033671646515
10.182600021362305,1.10439354699566,0.6180075654341408,0.18462103101142613
10.193266868591309,1.0998993765107168,0.6119354395040635,0.23827685763497894
10.201610565185547,1.0963821996094567,0.6059111082157871,0.21131171067283996
10.210101127624512,1.09266962399146,0.5999385941708015,0.16097424761079066
10.221601009368896,1.0877846560730433,0.5940125116150009,0.11074332577504001
10.229642391204834,1.0840720804550465,0.5881191919353166,0.06876166545364641
10.237620115280151,1.0807503022705232,0.5822749868494975,0.0365876428154868
10.247649908065796,1.0768423279357897,0.5764940924202212,0.01324569209880299
10.25661301612854,1.0729343536010563,0.5707702961794252,-0.002976309128138009
10.267282009124756,1.0686355818328495,0.5650985343756992,-0.013787790676768663
10.275713443756104,1.0651184049315896,0.559474769452514,-0.020637449906622366
10.285640716552734,1.0610150318801193,0.5539043116045671,-0.024662317697211583
10.294721126556396,1.0573024562621227,0.5483918945258838,-0.026716929951872408
10.304306268692017,1.053003684493916,0.5429330583543909,-0.027426140436119635
10.314684867858887,1.0485095140089724,0.5375242571413864,-0.02723826787303662
10.324360609054565,1.0442107422407658,0.532162727236742,-0.026470371141192623
10.333682298660278,1.0403027679060324,0.5268463675925587,-0.02534396255247022
10.344257593154907,1.0360039961378256,0.5215736583351333,-0.02401200322699397
10.35359811782837,1.0320960218030921,0.5163436185442684,-0.022578784797366205
10.361709833145142,1.028774243618569,0.511163353249717,-0.021114327020332523
10.371263027191162,1.0244754718503621,0.5060467068196448,-0.019664685226749905
10.380597352981567,1.0205674975156287,0.5009980068497395,-0.018259269897958192
10.389193058013916,1.0172457193311053,0.4960137897770318,-0.01691601316452743
10.398300409317017,1.0135331437131085,0.4910918704463141,-0.015644998120180383
10.407222509384155,1.0098205680951118,0.4862313209548058,-0.014450997780625476
10.415337562561035,1.0064987899105884,0.48143877248678424,-0.013335244267211523
10.425549745559692,1.0018092207089084,0.4767269971992171,-0.012296656468183701
10.435677766799927,0.9973150502239649,0.4720950266911604,-0.011332687833358657
10.444627523422241,0.9936024746059682,0.46753632121126476,-0.010439908356013376
10.452659845352173,0.9900852977047081,0.4630634252071074,-0.009614400987869962
10.461597442626953,0.9863727220867115,0.45869283846187936,-0.2848903885056454
10.472159385681152,0.9818785516017681,0.45442168386011905,-0.31731157540747545
10.481715679168701,0.9781659759837712,0.45024187498793183,-0.26156575209482347
10.49163556098938,0.9736718054988278,0.44615211110478503,-0.1848830688973343
10.499608278274536,0.9703500273143044,0.44215119721064833,-0.11380982979761921
10.507610082626343,0.9670282491297811,0.438247437770982,-0.05668102916882843
10.51865530014038,0.9625340786448376,0.4344473454330772,-0.014216637497182813
10.527618646621704,0.9586261043101042,0.43074574151939077,0.015628179722742098
10.536616563796997,0.9549135286921074,0.4271420624524518,0.035551440540660985
10.544632911682129,0.951591750507584,0.4236348460775005,-0.22797043632335506
10.554172992706299,0.9478791748895873,0.42021689653092326,-0.2539184860022443
10.565074682235718,0.9429942069711705,0.41688081233457963,-0.1953906120565735
10.57427430152893,0.9388908339197005,0.41361898516376905,-0.11843709940877964
10.583709955215454,0.9347874608682304,0.4104236745489631,-0.048750453309027705
10.593691110610962,0.9304886891000236,0.4072871006525033,0.0059408044429304085
10.601694583892822,0.9275577083489737,0.40420651359426685,0.04534091852076825
10.612590551376343,0.9228681391472936,0.4011784911771219,0.0717871716384843
10.620585918426514,0.9195463609627701,0.3981942227840321,0.08817604737506646
10.629463195800781,0.9160291840615101,0.39525045970402556,0.09715444863642228
10.637567043304443,0.9123166084435134,0.39234361878360274,0.10087492749348377
10.646584749221802,0.9084086341087799,0.3894700368260386,0.10098496522352907
10.655600547790527,0.9046960584907832,0.38663111602358,0.09869971415934757
10.66656231880188,0.9002018880058399,0.38381721387771806,0.09489298123569724
10.678593397140503,0.8953169200874231,0.3810094372955295,0.09018089463392989
10.687650442123413,0.8914089457526896,0.37820185720297683,0.08499040986657745
10.697635889053345,0.8871101739844829,0.3753997452886902,0.07961218807727471
10.70604133605957,0.8835929970832228,0.3726023864713313,0.07424003085000744
10.716577291488647,0.879294225315016,0.36980400983544964,0.068999655914663
10.72517704963684,0.8755816496970192,0.3669997932988511,0.06396939024407049
10.735761642456055,0.8712828779288125,0.3641857924599376,0.0591948975511819
10.745998859405518,0.8671795048773426,0.36135392570266606,0.05469957859813861
10.755603790283203,0.8632715305426091,0.35849783640836264,0.05049186924720938
10.76566457748413,0.8591681574911391,0.3556228359842451,0.04657033253395757
10.773613214492798,0.8558463793066157,0.35273392022698186,0.0429271913950483
10.781577348709106,0.8523292024053557,0.34983565139817535,0.03955076415075946
10.791580438613892,0.8478350319204122,0.3469372290785201,0.036427130787217474
10.799595594406128,0.8445132537358887,0.34404174744978516,0.03354126182280242
10.809567928314209,0.8404098806844187,0.34114713978609634,0.030877772956318085
10.817580223083496,0.8370881024998954,0.3382567767797549,0.02842142009049701
10.826600313186646,0.8333755268818985,0.3353738227455186,0.02615741502038283
10.835553169250488,0.8294675525471652,0.3324963636247046,0.024071617923456773
10.844107151031494,0.8257549769291685,0.32962774119161037,0.022150645827311684
10.854662656784058,0.8210654077274883,0.32677106255502847,0.020381924329754584
10.864223718643188,0.8171574333927549,0.3239244670435507,0.018753701517471653
10.874227046966553,0.8132494590580216,0.32108666009328507,0.017255037198051035
10.883244752883911,0.8095368834400247,0.31825684881402133,0.01587577648760542
10.892350196838379,0.8056289091052914,0.31543467810663256,0.014606513956303212
10.900590896606445,0.802307130920768,0.31262453425266634,0.013438552552256885
10.911104202270508,0.7978129604358245,0.30983473983081783,0.01236386014728871
10.919570684432983,0.7944911822513011,0.3070680425481763,0.01137502559526013
10.928053379058838,0.7905832079165678,0.30432243011439886,0.010465215529510501
10.9365873336792,0.7870660310153078,0.30159633713239903,0.009628132674547613
10.947134017944336,0.7825718605303643,0.2988886243872995,0.008857976131819757
10.956560134887695,0.7784684874788942,0.29620256786573734,0.008149403891171362
10.965586185455322,0.7749513105776341,0.29354508085734904,0.2835358573533683
10.976598501205444,0.7700663426592175,0.2909178884791093,0.3160606929672936
10.986570358276367,0.7661583683244839,0.2883144325943441,0.26041164055177224
10.995161771774292,0.7622503939897506,0.28572925547928396,0.18381897646308343
11.004621267318726,0.7583424196550171,0.2831657201619034,0.11282924787495852
11.014562606811523,0.7542390466035471,0.28062676711698525,0.0557777619752495
11.024113893508911,0.7505264709855504,0.2781110355122313,0.013384839398438843
11.033079385757446,0.7466184966508169,0.2756174574045242,-0.016393988571535914
11.043156147003174,0.742515123599347,0.2731452091855335,-0.036256372901009096
11.054316282272339,0.7378255543976668,0.27069366976964854,-0.048716732880785485
11.063063383102417,0.7339175800629335,0.2682623919744659,-0.055841571829242535
11.072569847106934,0.7302050044449367,0.2658510900611063,-0.05922455474351701
11.081868648529053,0.7264924288269399,0.2634631005911171,-0.060049198604077064
11.089571952819824,0.7233660493591532,0.2611081897711175,-0.05917278457256572
11.101531028747559,0.7182856827239998,0.2587909538107354,0.21883328452773604
11.111571550369263,0.713986910955793,0.25650130932068693,-0.021448769340661394
11.121535539627075,0.7094927404708496,0.25423070343666626,-0.10667026365911342
11.129915475845337,0.7059755635695895,0.2519821631894931,-0.12449013071813109
11.13857126235962,0.7026537853850661,0.24975827785051372,0.16031134218894985
11.148004531860352,0.6983550136168594,0.2475578665128278,0.21048251092780518
11.156629085540771,0.6948378367155994,0.2453831136464481,0.1730444095329891
11.165570259094238,0.6913206598143393,0.2432389921900598,0.11243282950573007
11.174540996551514,0.6876080841963426,0.241126359158527,0.05452639560998814
11.184539318084717,0.6831139137113991,0.23904259992816904,0.007838924461355892
11.193570613861084,0.6795967368101391,0.2369854155868946,-0.02645948825787338
11.203599214553833,0.675493363758669,0.23495280871309324,-0.04993441188722336
11.213361024856567,0.671389990707199,0.23294306145988208,-0.06486472359727244
11.22253680229187,0.6676774150892022,0.2309576610558991,-0.07342853436131
11.230647087097168,0.6639648394712055,0.22900074354623648,-0.07743406536323891
11.240533351898193,0.6598614664197354,0.22707269261149324,-0.07828157060705013
11.249997615814209,0.6557580933682653,0.22517075983107498,-0.07701178671306222
11.257861137390137,0.652436315183742,0.22329257241707723,-0.07437735321607382
11.266535997390747,0.6485283408490086,0.22143890846433517,-0.07091151667271758
11.276590824127197,0.6442295690808018,0.21961312967338253,-0.06698553909160929
11.286592483520508,0.6401261960293317,0.21781230093624745,-0.06285350536761275
11.297245264053345,0.6358274242611249,0.21602829749373972,-0.058685965908827485
11.305538654327393,0.632310247359865,0.2142597942827773,-0.05459459450968688
11.31357741355896,0.6291838678920781,0.21251116201784118,-0.05064997465747231
11.321558952331543,0.6256666909908181,0.2107859834584504,-0.04689428687939905
11.330549001693726,0.6217587166560847,0.20908711954840953,-0.04335028446444707
11.339569091796875,0.6182415397548247,0.20741419969684202,-0.04002760178165771
11.350107669830322,0.6139427679866178,0.20576162011528615,-0.03692716254103806
11.358546257019043,0.6106209898020944,0.20412714377449898,-0.03404424319403904
11.368553400039673,0.6063222180338877,0.20251645571118224,-0.03137058901033388
11.378026008605957,0.6022188449824176,0.20092924367914186,-0.028895865436045946
11.38720965385437,0.5981154719309476,0.19935764329128156,-0.026608644611835874
11.396773099899292,0.5940120988794776,0.1977999639380611,-0.024497067894385438
11.405561685562134,0.5902995232614808,0.19625969755863115,-0.02254928334090454
11.41395354270935,0.5865869476434841,0.19473733452611924,-0.020753727529375647
11.424396514892578,0.582483574592014,0.19323084907335977,-0.01909930024648669
11.43558406829834,0.5779894041070706,0.1917362457566778,-0.01757546593061751
11.44609546661377,0.5734952336221272,0.1902479372491538,-0.016172305479089672
11.455211400985718,0.5699780567208671,0.1887659287162334,-0.29091889451049413
11.462571382522583,0.5670470759698171,0.18729489670781865,-0.3228544645466569
11.470572710037231,0.5635298990685569,0.18583876926443105,0.009375485093738756
11.4789457321167,0.5598173234505602,0.18440079278753177,0.119592176138583
11.488071918487549,0.5559093491158269,0.1829814252356116,-0.14009403917533675
11.498905181884766,0.5516105773476201,0.1815787773463944,-0.19182912127828655
11.508278846740723,0.5477026030128868,0.18019123081180932,-0.16447232343235424
11.517568826675415,0.54399002739489,0.17881741437887927,-0.11487206395242745
11.527265787124634,0.5394958569099465,0.1774561755649425,-0.06615499436019466
11.53653621673584,0.5355878825752132,0.17610861538145323,-0.3022230548805345
11.546012878417969,0.5316799082404797,0.1747777003671117,-0.30547395946116174
11.554153203964233,0.528553528772693,0.17346379954643745,0.046563979233338076
11.561525583267212,0.5254271493049063,0.1721670998859071,0.16952058968108047
11.571563959121704,0.5213237762534362,0.17088771517180293,0.19331700937208635
11.58057165145874,0.5176112006354395,0.16962365438259885,0.1783427237856936
11.588999032974243,0.5137032263007061,0.16837513954182579,0.15158927267590813
11.59856629371643,0.5099906506827093,0.16714232268701582,0.12430701470638851
11.60799527168274,0.5056918789145026,0.1659233163762083,0.10054642576568995
11.617997646331787,0.5017839045797692,0.16471651049609212,0.08122776904195277
11.626551866531372,0.4982667276785091,0.16352241257699313,0.06603522604095391
11.636529922485352,0.49435875334377566,0.16234328886941557,0.05426545211644174
11.645496845245361,0.49045077900904227,0.16117911331810947,0.045182881454771645
11.654816627502441,0.48615200724083557,0.16002794383007676,0.03814908409205674
11.663562059402466,0.4826348303395755,0.15888812653545475,0.03265362422140321
11.672543048858643,0.4789222547215788,0.1577600460465211,0.028305802907927474
11.681031227111816,0.47560047653705534,0.15664578473706792,0.024813937624544896
11.689204216003418,0.47227869835253194,0.15554526076278355,0.021963377335153852
11.69761037826538,0.4689569201680086,0.154458312757734,0.019597363180840488
11.705532789230347,0.4658305407002219,0.15338649118962852,0.017601747213174913
11.714604139328003,0.46211796508222514,0.15232929095676104,0.015893345528894962
11.724555492401123,0.45801459203075506,0.151284502098076,0.29044966269629807
11.73363208770752,0.4541066176960216,0.15025029231888398,0.32227376344102443
11.743018388748169,0.45019864336128823,0.14922523898168744,0.2660242261948753
11.75150990486145,0.44648606774329147,0.14820835630546914,0.1889100988780742
11.760538578033447,0.44277349212529477,0.14720059657302353,0.11746233656212175
11.769076585769653,0.4392563152240347,0.1462045481526861,0.06000467057776804
11.77817678451538,0.434957543455828,0.1452211865732235,0.017248716102313096
11.787543773651123,0.4314403665545679,0.14425023833570005,-0.012856640510180999
11.795522689819336,0.4281185883700445,0.1432931703800172,-0.03301420716828909
11.803528070449829,0.4247968101855211,0.14235399361955212,-0.04574247730999822
11.811529874801636,0.4214750320009977,0.14143628843028522,-0.053111232918842025
11.820534944534302,0.417762456383001,0.1405409637936727,-0.05671682648740689
11.830011367797852,0.4140498807650042,0.13966803459407173,-0.057745017183129035
11.839587926864624,0.4103373051470075,0.13881723642517121,-0.05705498771538104
11.851038932800293,0.40545233722859075,0.13798816150055127,0.2207802225774965
11.86049771308899,0.4013489641771207,0.1371824412632683,0.2563797687907126
11.869972944259644,0.397050192408914,0.13640320157416225,0.2041389601642516
11.880850553512573,0.39294681935744386,0.1356522804910236,0.13108964339650092
11.891379594802856,0.38864804758923716,0.13493054497241722,0.06364628147234652
11.899974822998047,0.3851308706879771,0.13423980513118766,0.01005852039574772
11.907503128051758,0.3820044912201903,0.13358245767113483,-0.029006764848106496
11.918093204498291,0.37770571945198356,0.13296025815319,-0.05562532749932081
11.92726731300354,0.3741885425507235,0.13237443616145658,-0.07251101464199265
11.936897039413452,0.3700851694992534,0.13182609678157584,0.19385405654053453
11.945534229278564,0.36676339131473,0.13131613549899845,0.22245190002202564
11.95359754562378,0.3630508156967333,0.13084505718066122,-0.10965267655660063
11.96205472946167,0.3595336387954733,0.1304140356411197,-0.21744937104740675
11.972283124923706,0.35543026574400316,0.1300320734484703,0.04611019657861043
11.980666160583496,0.3519130888427431,0.12971592535599888,0.10257848071965832
11.988532304763794,0.3487867093749564,0.12948228461789868,0.08040345582309102
11.998429298400879,0.3446833363234863,0.1293513610821122,0.03615369867691232
12.007988214492798,0.34057996327201623,0.12934772042532333,-0.007230512779936856
12.01650857925415,0.3368673876540195,0.12949526202600023,0.23403210748396172
12.026561975479126,0.3325686158858127,0.12981620961400162,0.2422643647433665
12.0345458984375,0.3292468377012893,0.13031699161811183,-0.10504881581970302
12.045055627822876,0.32514346464981925,0.13099629944827265,-0.223559177585963
12.056495666503906,0.3208446928816125,0.1318794279650658,0.032843006845620276
12.067127704620361,0.3165459211134058,0.13300064995325672,0.08481814035004773
12.074549913406372,0.3132241429288824,0.13435895980526757,0.06007467040591268
12.085328578948975,0.3089253711606756,0.13593687755072292,0.014608173395871806
12.093982219696045,0.3054081942594156,0.13773940158029918,-0.029067801978263537
12.101707935333252,0.30228181479162886,0.1397681559490258,-0.0635199804408223
12.109522581100464,0.29915543532384214,0.14200704805117223,-0.08769394262465396
12.118000030517578,0.29544285970584544,0.14444749549230543,-0.10291293904032175
12.126478910446167,0.29192568280458536,0.1470797348324853,-0.11112187189123993
12.136389970779419,0.28782230975311524,0.14989313630147763,-0.11418040456981621
12.145468950271606,0.28410973413511853,0.15288399859741075,0.16240913734952192
12.155514240264893,0.28000636108364846,0.15603930401800034,0.1985060769977938
12.16447401046753,0.2764891841823884,0.159345881750856,0.14792390725760696
12.175482749938965,0.271995013697445,0.16279814408072243,0.07726658965795728
12.184763193130493,0.26828243807944824,0.1663893137680703,0.012642765715531967
12.194030284881592,0.26437446374471485,0.17011155540532247,-0.03791145990872598
12.203508138656616,0.2606618881267181,0.17395616352130283,-0.0738750344870537
12.212521314620972,0.257144711225458,0.1779064701460566,-0.09742083984490829
12.220902919769287,0.253627534324198,0.18193929412597035,-0.11132537041755264
12.231479406356812,0.24913336383925455,0.18604812726417616,0.15789071442299354
12.242254495620728,0.24444379463757446,0.19024043312997677,0.18918753305526095
12.250494956970215,0.2411220164530511,0.19450639265889555,-0.14038065764698782
12.261295318603516,0.2368232446848443,0.19882180922987186,-0.2458064975511731
12.272474765777588,0.2325244729166376,0.20317884503703101,0.01996044673271373
12.283111572265625,0.2280303024316942,0.207583347874111,0.07847786307173893
12.291499853134155,0.22451312553043412,0.21202513527871245,0.05820088795130952
12.300508737564087,0.22080054991243736,0.21648076746982625,0.015706333398358575
12.309178113937378,0.217478771727914,0.2209360772785088,-0.026056792367597427
12.316544532775879,0.2147431896936006,0.22537851130265424,-0.059336722660161614
12.326498985290527,0.21122601279234052,0.22979656335674856,0.19318852309585197
12.336963176727295,0.2075134371743438,0.23419224840069536,0.4874449765687847
12.345343589782715,0.20458245642329373,0.23856060244444355,1.0094191727265558
12.354514360427856,0.2016514756722437,0.24288468130366384,1.4934303546861067
12.36452341079712,0.1989158936379303,0.2471557003385649,2.6834492362812954
12.37343955039978,0.19637571032035359,0.25137174478600527,3.8424976188207833
12.382875919342041,0.1942263244362502,0.25553069369339737,5.0
12.393514633178711,0.19227233726888354,0.25963032468058994,5.0
12.401500225067139,0.1909045462517268,0.2636634454331352,5.0
12.410107612609863,0.18953675523457011,0.2676188676080943,5.0
12.420387506484985,0.18855976165088678,0.271492456899079,5.0
12.431460857391357,0.18758276806720342,0.2752910031946817,5.0
12.440104246139526,0.1873873693504668,0.2790206663616523,5.0
12.448512315750122,0.1873873693504668,0.2826776121581367,5.0
12.458553791046143,0.18758276806720342,0.28625955881349563,5.0
12.466503858566284,0.18816896421741344,0.2897657209022426,5.0
12.4755220413208,0.18895055908436015,0.29319191727960575,5.0
12.485466718673706,0.19031835010151682,0.29654118000930274,5.0
12.494356155395508,0.1918815398354102,0.29982286586258905,5.0
12.503496408462524,0.1938355270027769,0.30304685979068624,5.0
12.512513637542725,0.19598491288688025,0.3062178841912868,5.0
12.523186683654785,0.19911129235466699,0.3093418783818594,5.0
12.531193256378174,0.2016514756722437,0.3124309943351477,5.0
12.54017448425293,0.20497325385676707,0.3154909910126406,5.0
12.548028230667114,0.20829503204129046,0.3185280520930284,5.0
12.559046983718872,0.21259380380949724,0.32155426681796906,5.0
12.567942142486572,0.2161109807107573,0.3245806212546168,5.0
12.5759596824646,0.21904196146180732,0.3276106502877622,4.498605329834014
12.584444999694824,0.22236373964633074,0.33064134013274843,3.4004272745577815
12.593888282775879,0.22627171398106416,0.33367632062387514,2.001895312805146
12.602550268173218,0.22998428959906086,0.33672467670457973,0.19627100278909437
12.611899375915527,0.2336968652170576,0.33978758713634793,-1.399723676498188
12.621506214141846,0.23760483955179101,0.34285952765357214,-3.436297020544299
12.629920244216919,0.2409266177363144,0.3459417305876031,-5.0
12.63746953010559,0.24405299720410112,0.34904113361587064,-5.0
12.648040771484375,0.24854716768904456,0.3521633652936414,-5.0
12.655491352081299,0.2516735471568313,0.3553069412554996,-5.0
12.666138887405396,0.2561677176417747,0.35846445586807585,-5.0
12.673961877822876,0.2592940971095614,0.36163584286299866,-5.0
12.681466817855835,0.2624204765773481,0.36482106676678366,-5.0
12.693143606185913,0.2673054444957649,0.3680202332702587,-5.0
12.7040696144104,0.271408817547235,0.37124594409964606,-5.0
12.713661670684814,0.2755121905987051,0.3745086316631639,-5.0
12.72289752960205,0.2788339687832284,0.3778103811388151,-5.0
12.731470346450806,0.2823511456844885,0.3811522500319136,-5.0
12.74209189414978,0.2868453161694319,0.38453423965911626,-5.0
12.750499486923218,0.2905578917874287,0.38794928111233357,-5.0
12.758445262908936,0.29368427125521535,0.39138436777147745,-5.0
12.766467809677124,0.2972014481564754,0.39482780355508246,-5.0
12.775153398513794,0.3005232263409988,0.3982690752237469,-4.703579564548424
12.784490585327148,0.3044312006757322,0.4017099749461966,-4.437329770556388
12.796384334564209,0.309316168594149,0.40516233466225277,-4.178134426726122
12.804823637008667,0.31244254806193567,0.4086237483668866,-3.9203201180550513
12.81345272064209,0.3163505223966691,0.41208001707403924,-3.6648913799360097
12.824613094329834,0.3208446928816125,0.415528450012266,-3.4147835592181517
12.834455251693726,0.32475266721634594,0.4189710600990512,-3.172932157129228
12.844260692596436,0.328269844117606,0.42239849010089264,-2.941615902350115
12.855271816253662,0.3325686158858127,0.4258017243451609,-2.7223426625846763
12.865446329116821,0.33706278637075615,0.4291814107845445,-2.5159410772579966
12.874542474746704,0.34077536198875297,0.43253714101321566,-2.3227091729455838
12.883488416671753,0.34487873504022304,0.43585495961816206,-2.1425594576638076
12.89314889907837,0.3485913106582197,0.4391224335020945,-1.975139939661482
12.901449203491211,0.35210848755947977,0.4423373019303648,-1.8199275743275272
12.910094976425171,0.35562566446073984,0.4454936063786273,-1.6762971306744663
12.917869567871094,0.35875204392852655,0.4485861302934472,-1.5435702845284998
12.926449298858643,0.36226922082978663,0.45161081919298524,-1.4210496541332658
12.93446683883667,0.3657863977310467,0.4545608580614205,-1.3080417491353202
12.944049835205078,0.3696943720657801,0.45743455622443907,-1.203871942675231
12.9531569480896,0.3736023464005135,0.4602345624564231,-1.1078938038596056
12.96145510673523,0.37672872586830025,0.4629635236743033,-0.7434561430755445
12.97047209739685,0.3800505040528236,0.4656207756014104,-0.6289345577283553
12.980251789093018,0.383958478387557,0.4682029011743363,-0.8851361948738039
12.990062236785889,0.38825725015576373,0.47071083155294857,-0.6493340449082822
13.000022411346436,0.39216522449049723,0.4731491169470986,-0.5681554351263035
13.008456707000732,0.39548700267502057,0.4755189307680896,-0.5453716759205562
13.018525838851929,0.3997857744432273,0.47781871376919893,-0.5391755127383646
13.029136896133423,0.40447534364490745,0.4800539490306765,-0.5330277203274767
13.038806676864624,0.4081879192629041,0.48223606848473227,-0.5216672512191177
13.04647421836853,0.41131429873069086,0.4843692796781622,-0.5045267823301354
13.056425094604492,0.4154176717821609,0.486451716820262,-0.4827275212127306
13.066446781158447,0.41932564611689427,0.48848557487888644,-0.4577772583555544
13.075921773910522,0.42323362045162777,0.49047650376641405,-0.15502123610196916
13.086040019989014,0.42733699350309784,0.49242997486881906,-0.09451350839649716
13.095100402832031,0.4310495691210946,0.4943512091541858,-0.12237203769878958
13.10383677482605,0.4345667460223547,0.49624508371737425,-0.1719229167377711
13.11402440071106,0.4388655177905614,0.49811295164592256,-0.21698099037367014
13.121744394302368,0.44218729597508477,0.4999530856259349,-0.2494275747944417
13.1305992603302,0.4457044728763448,0.5017672458007496,-0.2686552777505321
13.139987468719482,0.44961244721107824,0.5035600227255839,-0.27674937398029176
13.147607803344727,0.45273882667886495,0.505335236419062,-0.2763995780727384
13.155881881713867,0.45645140229686165,0.5070931612385862,-0.27008051518255594
13.165931224822998,0.4605547753483318,0.5088311638166699,-0.2597990040908975
13.174965620040894,0.46407195224959186,0.5105500567907147,-0.24707748373671826
13.183952808380127,0.46758912915085193,0.5122535860966467,-0.23302243946246398
13.191457033157349,0.47052010990190196,0.5139450416670439,-0.21841218962448422
13.201439619064331,0.47462348295337203,0.5156272952360687,-0.2037781647887173
13.210469484329224,0.4781406598546321,0.5173000373573293,-0.18947161114498728
13.21967887878418,0.4818532354726288,0.5189603778398594,-0.17571508908365535
13.230462551116943,0.4859566085240989,0.5206120301105253,-0.16264083531448828
13.241351127624512,0.49084157644251564,0.5222642820312136,-0.15031869012785598
13.250195980072021,0.4945541520605124,0.5239192619675473,-0.13877610720865258
13.259618043899536,0.4982667276785091,0.5255729340849711,-0.12801232080770933
13.26843786239624,0.5017839045797692,0.5272219470317375,-0.11800827845209932
13.279439687728882,0.5062780750647126,0.5288664853818192,-0.10873354238527719
13.28845739364624,0.5099906506827093,0.530509685359862,-0.10015104028753437
13.298874855041504,0.5140940237341795,0.5321540535155503,-0.09222030044289584
13.306448459625244,0.5174158019187027,0.5338014885920225,-0.0848996250089267
13.316455841064453,0.5215191749701729,0.5354503972999525,-0.0781475231475702
13.325444459915161,0.5250363518714329,0.5370989900571891,-0.0719236310524852
13.336319923400879,0.529139724922903,0.5387508164918984,-0.06618927842757258
13.3464195728302,0.5330476992576364,0.540408284358349,-0.3369461728483944
13.35644268989563,0.5371510723091065,0.5420675347241332,-0.36520772512508604
13.366492748260498,0.5410590466438399,0.543727362134583,-0.5816719492759452
13.376917362213135,0.5449670209785733,0.5453914787541795,-1.0866675274689848
13.386457204818726,0.5482887991630967,0.5470576585530896,-1.575581031477301
13.396461963653564,0.5514151786308834,0.5487188522169021,-2.223553929137502
13.406517744064331,0.5541507606651968,0.5503740148774168,-3.0489848135272744
13.416988372802734,0.5570817414162468,0.5520272241063241,-4.014175843526181
13.425837755203247,0.5592311273003503,0.5536770143770268,-4.516774874910496
13.43601369857788,0.5621621080514002,0.55531726844637,-5.0
13.444987058639526,0.5641160952187669,0.5569453692746562,-5.0
13.453447818756104,0.5658746836693971,0.5585592280101433,-5.0
13.462981224060059,0.5678286708367637,0.5601572013374385,-5.0
13.472395420074463,0.5693918605706572,0.5617404967069848,-5.0
13.481422901153564,0.5709550503045504,0.5633078737843067,-5.0
13.490850925445557,0.5723228413217071,0.5648584978127495,-4.9296036282399625
13.500455617904663,0.5738860310556004,0.5663943555931343,-4.66520191153683
13.508454084396362,0.5744722272058105,0.5679149374468523,-4.332584376997111
13.518434286117554,0.5758400182229672,0.569417617386298,-3.9892076681526465
13.526390552520752,0.5766216130899139,0.570902910339089,-3.3836992281659297
13.535407781600952,0.5775986066735972,0.5723740246749861,-3.044264943289656
13.544780492782593,0.5783802015405439,0.5738340149229656,-2.542429511487205
13.554389953613281,0.5789663976907539,0.5752858182603141,-2.0531404882791957
13.563407897949219,0.5795525938409639,0.5767296843820825,-1.6362186371887093
13.574422836303711,0.580138789991174,0.5781662749210125,-1.3021795435810204
13.584458112716675,0.5803341887079105,0.5796019078818629,-1.3187083308239995
13.593762636184692,0.5807249861413839,0.5810425167963195,-0.8770782867974317
13.602446556091309,0.5807249861413839,0.5824882143039946,-0.6373442277042469
13.610410928726196,0.5809203848581206,0.5839367619546858,-0.22448365657620017
13.61866283416748,0.5809203848581206,0.585389781748595,0.16837394679166212
13.628123044967651,0.5811157835748574,0.586852288269663,0.47812716253940224
13.637404918670654,0.5811157835748574,0.5883292645620537,0.6965301285308605
13.645432472229004,0.5811157835748574,0.5898221731664746,1.1117017486987408
13.653893947601318,0.5811157835748574,0.5913293475780377,1.4980098466951561
13.663442373275757,0.5811157835748574,0.5928531378252979,1.7836492337726928
13.674425601959229,0.5811157835748574,0.5943992575472388,1.961198021584356
13.684441328048706,0.5811157835748574,0.5959727815839094,2.3227113501678733
13.694396257400513,0.5811157835748574,0.597578077878733,2.9229395519257024
13.703424215316772,0.581311182291594,0.5992187947610412,3.450915309888561
13.716156244277954,0.5817019797250673,0.6009016613523275,3.8138994032178477
13.725999116897583,0.581897378441804,0.602632096768686,4.285060769642607
13.736989259719849,0.582483574592014,0.6044105207895485,4.926152188826391
13.745394945144653,0.5826789733087506,0.6062368091958696,5.0
13.756259679794312,0.5832651694589607,0.6081101967361736,5.0
13.765436887741089,0.5838513656091707,0.6100292709369334,5.0
13.775388479232788,0.5844375617593808,0.6119883183840071,5.0
13.785444021224976,0.5852191566263274,0.613981768699233,5.0
13.79539704322815,0.586000751493274,0.6160079410641638,5.0
13.804423809051514,0.5867823463602206,0.6180610881835054,5.0
13.812931299209595,0.5877593399439041,0.6201357099225625,4.988326431040496
13.820481777191162,0.5885409348108508,0.6222302639313986,4.756316409939322
13.829045295715332,0.5897133271112708,0.6243394381922295,4.7164025180171905
13.839418888092041,0.5908857194116909,0.6264583618567775,4.689330388939684
13.8487548828125,0.5922535104288476,0.6285862488168764,4.339226687676938
13.856410503387451,0.5934259027292675,0.6307187765631742,4.175594162837015
13.866426944732666,0.5949890924631609,0.6328522690460718,4.329026766249464
13.874406814575195,0.5963568834803176,0.6349871751361034,3.9513771057584455
13.882404088973999,0.5977246744974742,0.6371168375203212,3.703094226193392
13.891093730926514,0.599678661664841,0.6392322172491476,3.4992040664895416
13.90187120437622,0.6022188449824176,0.6413366086544855,3.5823954038055326
13.912113666534424,0.6041728321497843,0.6434403075146573,3.699231884226206
13.921473503112793,0.6063222180338877,0.6455451573072842,3.4842740271572747
13.929776906967163,0.6082762052012545,0.6476459023678226,3.437547457612583
13.938943147659302,0.6108163885188312,0.649742419461795,3.1365804816941374
13.946584463119507,0.6123795782527245,0.651839072523046,2.7732928545675204
13.956888914108276,0.6153105590037747,0.6539403371375194,2.701721472329809
13.965879917144775,0.617459944887878,0.6560465418605124,2.4292222662248557
13.97436261177063,0.619804729488718,0.6581544137328796,2.1146484827998937
13.983490705490112,0.6223449128062948,0.6602616224337151,2.0969582822136887
13.994139671325684,0.6256666909908181,0.6623711825827544,1.8770238743477268
14.00420594215393,0.6287930704586048,0.6644952431838586,1.8872684424186934
14.014373302459717,0.6321148486431284,0.6666448095709051,1.670998591820208
14.025192975997925,0.6354366268276517,0.6688254603200131,1.4028303869220007
14.03716516494751,0.6393446011623851,0.6710474356735563,1.4281072659055516
14.047456741333008,0.6426663793469085,0.6733248013563272,0.9738568483439725
14.055360078811646,0.6452065626644852,0.6756595710294657,0.715858298130031
14.064360618591309,0.6485283408490086,0.6780380826038569,0.2854439144864812
14.072431802749634,0.6516547203167954,0.680448536971309,-0.12213496160291631
14.080489873886108,0.6545857010678453,0.6828911210206146,-0.44345519826373736
14.091364622116089,0.6588844728360521,0.685376245463737,-0.9466662053624427
14.099910974502563,0.6616200548703655,0.6879123096931259,-1.1254375950504312
14.110047340393066,0.6655280292050988,0.6904952316420782,-1.1522676127508311
14.122057676315308,0.6700221996900422,0.693125887852893,-1.1112475939551152
14.130414485931396,0.6729531804410924,0.695809330174575,-1.3188770555300673
14.138901710510254,0.6762749586256158,0.6985384882068674,-1.5512955274187565
14.14836072921753,0.6795967368101391,0.7013063744931712,-1.7289210046406578
14.156371593475342,0.6825277175611891,0.7041063516042193,-1.8344072448519366
14.165386438369751,0.6860448944624493,0.7069270942035193,-1.8746093781674322
14.174492359161377,0.6893666726469726,0.709763422899113,-2.139694670873253
14.183408975601196,0.692688450831496,0.7126105442860965,-2.4011497992381354
14.19481611251831,0.6971826213164394,0.7154639544361486,-2.3069073830263918
14.20439887046814,0.7005043995009628,0.7183291622580379,-2.364391887623574
14.214365005493164,0.7044123738356962,0.7212103858801684,-2.155399342517536
14.22339129447937,0.7075387533034829,0.72410121513738,-2.150483338545757
14.23415493965149,0.7118375250716897,0.726996099848601,-2.1864082215112806
14.24437141418457,0.7155501006896864,0.729899923193528,-2.202421243649016
14.25385570526123,0.7192626763076831,0.7328168571053035,-2.1825511174702905
14.263051748275757,0.7227798532089431,0.735745701954029,-2.1287113280979577
14.27141261100769,0.7257108339599934,0.7386855572986881,-2.3246566908994604
14.2813880443573,0.7290326121445166,0.7416308443049204,-2.535907373477947
14.291402101516724,0.7327451877625135,0.7445720119296194,-2.4054794911742743
14.300448417663574,0.7360669659470368,0.747506052967321,-2.1609466547221214
14.309399604797363,0.7391933454148236,0.7504354730944032,-2.176240261782077
14.319368124008179,0.742515123599347,0.7533624024407853,-2.2461773151702333
14.329683780670166,0.7462276992173437,0.7562885219164174,-2.2934673903501777
14.339354991912842,0.7493540786851303,0.7592149959189898,-2.296958415578782
14.350862979888916,0.753066654303127,0.7621471833457112,-2.2581193509426383
14.359416484832764,0.7559976350541772,0.7650891224428257,-2.185931987439555
14.367466688156128,0.7585378183717539,0.7680295359111927,-2.0904908869177015
14.376701831817627,0.7616641978395406,0.7709583953733669,-1.980610001531827
14.384905576705933,0.7642043811571174,0.7738763245942467,-1.8631895536247722
14.393352508544922,0.7669399631914308,0.7767790075050481,-1.7432929770447902
14.402348756790161,0.7700663426592175,0.7796580867111849,-1.6244599208576411
14.41610074043274,0.7743651144274242,0.7825149849207415,-1.5090540798623047
14.425081253051758,0.7771006964617375,0.7853591589731891,-1.3985702629895718
14.43534779548645,0.7800316772127877,0.7881895390950936,-1.5699187796128213
14.44436240196228,0.782767259247101,0.7910003060821263,-1.5045837044293888
14.454368829727173,0.7855028412814143,0.7937902773221165,-1.6334335321946478
14.463380336761475,0.7878476258822544,0.796554160900012,-1.78072822904759
14.472021341323853,0.7898016130496212,0.7992871262979767,-1.884607442596113
14.479804039001465,0.7915602015002512,0.8019888300066716,-2.2081928903139527
14.48768663406372,0.7933187899508811,0.8046552215769365,-2.5145441956841563
14.495381593704224,0.7948819796847746,0.8072792512794502,-3.0030031885285147
14.503928422927856,0.7966405681354046,0.8098553472543651,-3.4212576098368035
14.512063026428223,0.7983991565860346,0.8123829316940747,-3.4203443680652175
14.519904136657715,0.8001577450366647,0.8148621336064413,-3.2435885223016756
14.52836298942566,0.8019163334872947,0.8172901296607306,-3.004871906480238
14.537967443466187,0.8038703206546614,0.8196689783898171,-2.4794632571496913
14.547072649002075,0.8060197065387646,0.8220049050381544,-1.9318138573163264
14.555359601974487,0.8077782949893948,0.824300219437726,-0.9057978361441585
14.564350128173828,0.8097322821567615,0.8265538628432689,0.09017876711008188
14.57336711883545,0.8114908706073914,0.828769433319379,0.8861649779711456
14.581357717514038,0.8132494590580216,0.830950639532146,1.4558829226823429
14.59309458732605,0.8155942436588616,0.8331013900623104,1.827025481125962
14.603113651275635,0.8179390282597016,0.8352334167419808,2.0417853733136297
14.611389636993408,0.819502217993595,0.8373532418648553,2.1408842429714268
14.62043309211731,0.8216516038776983,0.8394589884504241,2.4342592269026637
14.62893533706665,0.8238009897618018,0.8415534101863863,2.4292004022815203
14.637366771697998,0.8257549769291685,0.8436390943835818,2.575895022835814
14.647074699401855,0.8280997615300084,0.8457184713201196,2.4366331748786343
14.657206296920776,0.8306399448475852,0.8478017718442108,2.4785518567526887
14.665525674819946,0.8323985332982152,0.8498935650539721,2.5411034973953095
14.67550015449524,0.8347433178990552,0.851989526609702,2.291882537391902
14.684601068496704,0.8370881024998954,0.8540899111877079,1.9621201919324083
14.692350149154663,0.8388466909505254,0.8561948525337078,1.921571283368831
14.700361728668213,0.8406052794011555,0.858300461192159,1.682756179033744
14.709971189498901,0.8429500640019953,0.8604076522297442,1.6813195150141846
14.717367172241211,0.8449040511693621,0.8625215299948044,1.4603774810810441
14.726344347000122,0.8470534370534655,0.8646425516434031,1.4692475343887665
14.736354112625122,0.8495936203710422,0.8667672078398602,1.256762439568201
14.746354341506958,0.8519384049718822,0.8688970418065729,1.2743303654701075
14.754460334777832,0.8540877908559856,0.8710379289777347,1.07130713405899
14.763921022415161,0.8566279741735624,0.873195265313252,0.822972278352488
14.772379159927368,0.8587773600576656,0.8753695383409729,0.8733933945455643
14.78180456161499,0.8609267459417691,0.877561796659125,0.7239148412003688
14.791361808776855,0.8632715305426091,0.8797779772158851,0.8058209009836956
14.80035400390625,0.8652255177099757,0.8820188486833851,0.6609624443451035
14.810401439666748,0.8677657010275525,0.8842908550569506,0.46267737084786176
14.818945169448853,0.8695242894781825,0.8866047697073283,0.2793109622364294
14.82645034790039,0.8716736753622859,0.8889547103072537,0.1322362498075564
14.836368799209595,0.8742138586798627,0.8913307803412516,0.023204823913292566
14.845405578613281,0.8765586432807027,0.8937352169212894,0.22289920899474958
14.854908227920532,0.8790988265982794,0.8961753611244628,0.2053482218583138
14.864390850067139,0.8814436111991195,0.8986574499898803,0.1187147337613696
14.872521877288818,0.8833975983664862,0.901181049222997,0.30091082596708935
14.88333249092102,0.8863285791175362,0.9037454267823863,0.2554034959209001
14.892345190048218,0.8884779650016396,0.9063604538405018,0.1421572146672882
14.902346134185791,0.891213547035953,0.909033762512907,0.02690989798710844
14.91102647781372,0.8935583316367929,0.9117599940010835,0.2086306789716057
14.91884970664978,0.8955123188041597,0.9145283411494061,0.17290631119073843
14.926373958587646,0.8974663059715264,0.9173290108666657,0.07187735965153996
