t_s,q_rad,q_des_rad,jerk
0.005769252777099609,-0.04748188816701086,0.001507054204225749,0.0
0.013927698135375977,-0.04748188816701086,0.007283994041887428,0.0
0.023922204971313477,-0.04748188816701086,0.018106553731552687,0.0
0.03337359428405762,-0.0472864894502742,0.033059966651125886,0.0
0.04487109184265137,-0.046895692016800855,0.05131868646953552,0.276038359678681
0.05445981025695801,-0.04611409714985418,0.07214238116254607,0.5852013225188036
0.06225442886352539,-0.04552790099964417,0.09487153721538424,1.3913437481244233
0.07126259803771973,-0.044550907415960815,0.11892352755786126,2.1876503748979728
0.07941937446594238,-0.0433785151155408,0.14378823713547376,3.079278170540525
0.08784604072570801,-0.04161992666491077,0.16902287978961905,4.347315482697689
0.09632158279418945,-0.03927514206407072,0.19424740913636157,5.0
0.10488343238830566,-0.036539560029757334,0.21914045588116676,5.0
0.11510109901428223,-0.03224078826155059,0.24343501994699004,5.0
0.125291109085083,-0.028528212643553853,0.2669140915632281,5.0
0.13583159446716309,-0.02442483959208378,0.2894045507959873,5.0
0.1444261074066162,-0.02129846012429706,0.3107720235008783,5.0
0.15288782119750977,-0.017781283223036994,0.33091674937751864,5.0
0.16188740730285645,-0.014068707605040257,0.3497695884454477,5.0
0.17241978645324707,-0.009769935836833513,0.36728970797195354,5.0
0.18051528930664062,-0.006448157652310118,0.3834602409619596,4.828497009730723
0.1899118423461914,-0.0027355820343133836,0.39828334994931575,3.435332901445658
0.19862771034240723,0.0005861961502100108,0.4117782289895632,1.320194379559022
0.2068493366241455,0.0037125756179967346,0.42397825719772814,-0.9174242765823087
0.2174396514892578,0.008011347386203481,0.43492835673707175,-2.7583248999678047
0.2268810272216797,0.011723923004200214,0.4446831007429968,-4.0886112995630794
0.2348940372467041,0.015045701188723608,0.4533027940378766,-5.0
0.24482154846191406,0.018758276806720344,0.4608518207181626,-5.0
0.25283145904541016,0.022275453707980408,0.467398493470884,-5.0
0.2621181011199951,0.02618342804271381,0.47301437683803677,-5.0
0.27082085609436035,0.02950520622723721,0.4777732620323389,-5.0
0.2818152904510498,0.034194775428917294,0.4817489982721145,-5.0
0.29083704948425293,0.03751655361344069,0.48501447928209807,-5.0
0.29895830154418945,0.04083833179796408,0.4876404758546054,-5.0
0.3068208694458008,0.04376931254901414,0.4896946548776346,-5.0
0.31780242919921875,0.048068084317220885,0.49124192349547263,-4.97236854797327
0.3278224468231201,0.05217145736869095,0.4923440022859241,-4.760419162731066
0.33750271797180176,0.05627483042016103,0.4930587363223347,-4.47226475623677
0.34846925735473633,0.06037820347163111,0.4934399509760476,-4.160654493058324
0.35746216773986816,0.06409077908962785,0.4935370691383656,-3.850769540114795
0.3658158779144287,0.06702175984067789,0.49339484957650664,-3.554109043644882
0.37601447105407715,0.07171132904235797,0.49305416193366186,-3.2754230079649584
0.38680553436279297,0.07581470209382805,0.492552387682142,-3.0161700193430327
0.3965301513671875,0.07991807514529814,0.4919231499836613,-2.776238499479799
0.4058234691619873,0.08382604948003153,0.49119671767363576,-2.5548006193371826
0.414337158203125,0.08734322638129159,0.4903998859396253,-2.350733280979583
0.42342615127563477,0.09086040328255167,0.4895558821955836,-2.162823251992961
0.43283939361572266,0.09476837761728506,0.4886849079496944,-1.713826543428696
0.441241979598999,0.09809015580180845,0.4878043748608775,-1.5215417398250959
0.44889235496520996,0.1010211365528585,0.4869288773920499,-1.4301937814256935
0.4583582878112793,0.10492911088759192,0.486070447474239,-1.3715412739007702
0.46581459045410156,0.10786009163864198,0.4852390559350048,-1.3181021827004176
0.47594714164733887,0.11196346469011205,0.48444280842231163,-1.2606780126921762
0.48480749130249023,0.11548064159137211,0.48368837384110364,-1.1977531034571123
0.4953477382659912,0.11997481207631551,0.48298139885910457,-1.130639651704137
0.5038399696350098,0.12310119154410225,0.4823258190504359,-1.061361369273037
0.512169599533081,0.1266183684453623,0.4817235263157276,-0.9918125485942433
0.5218548774719238,0.13033094406335904,0.48117572924192303,-0.9234891399455052
0.5315113067626953,0.13443431711482912,0.4806833077633564,-0.8574598919343065
0.5398364067077637,0.13775609529935254,0.4802462996374511,-0.7944254020674142
0.5488812923431396,0.1416640696340859,0.47986375468051606,-0.7347986725728527
0.558779239654541,0.14576744268555603,0.47953390034218907,-0.6787807364512306
0.5667629241943359,0.14889382215334274,0.4792551218504774,-0.6264228708214055
0.5767776966094971,0.15260639777133944,0.4790256734695626,-0.5776744679097623
0.585829496383667,0.1563189733893362,0.47884258936816654,-0.5324184149316852
0.5966935157775879,0.1608131438742796,0.4787027313483844,-0.49049652771879426
0.606806755065918,0.16491651692574968,0.4786039075703365,-0.4517274421202203
0.6180398464202881,0.1694106874106931,0.47854387771714246,-0.4159189555996362
0.6267938613891602,0.1727324655952165,0.4785193658311138,-0.38287636695396315
0.6357800960540771,0.17624964249647657,0.47852654270257783,-0.35240797286316894
0.6458237171173096,0.18035301554794664,0.4785618662245263,-0.32432856862202497
0.657973051071167,0.18523798346636342,0.4786222443407684,-0.2984615630948146
0.6664719581604004,0.18875516036762346,0.47870460411998267,-0.27464014224643013
0.6758358478546143,0.1924677359856202,0.478805596011163,-0.25270778791897663
0.6855027675628662,0.19657110903709027,0.4789220258525974,-0.23251836687838792
0.694286584854126,0.19989288722161366,0.4790510627915508,0.06210241972733212
0.7027797698974609,0.20321466540613706,0.4791900729776986,0.11232856787448992
0.7108001708984375,0.20653644359066042,0.4793365302316564,0.07296873147558688
0.7194721698760986,0.21024901920865718,0.4794880796374238,0.01136495219089341
0.7288405895233154,0.21396159482665392,0.47964280240490026,-0.04583303806517716
0.7385380268096924,0.21786956916138733,0.47979920275007587,-0.09019474964863199
0.7487187385559082,0.2219729422128574,0.47995610078677736,-0.12091211730282792
0.756824254989624,0.22529472039738077,0.4801126399746912,-0.13994876094985134
0.764794111251831,0.22842109986516748,0.4802678695693364,-0.14992786404234248
0.7752048969268799,0.23291527035011095,0.4804209556353194,-0.15329527512005967
0.784787654876709,0.236432447251371,0.48057198785109556,-0.1520543699628591
0.7943167686462402,0.23994962415263102,0.4807215255748082,-0.14774070651833884
0.8033480644226074,0.2434668010538911,0.480870169285375,-0.14148432248155723
0.8108148574829102,0.24659318052167786,0.481018385078596,-0.13409328351132052
0.8198959827423096,0.2505011548564112,0.48116649485627105,0.14990629602409605
0.8290753364562988,0.25440912919114467,0.4813154121199707,0.19117667027870244
0.8394722938537598,0.25870790095935137,0.4814665998203201,0.14415274928118496
0.8480315208435059,0.2624204765773481,0.4816216527192788,0.07590277721065761
0.8567657470703125,0.26554685604513484,0.4817816707148808,0.012874678061436759
0.8656473159790039,0.2692594316631316,0.4819472823700739,-0.03665113530547189
0.8759663105010986,0.27336280471460167,0.48212061478536283,-0.07197949448710443
0.8846113681793213,0.2770753803325984,0.4823044145135759,-0.09516013124268927
0.8941659927368164,0.2811787533840685,0.48249997326701977,-0.10888295881863339
0.9025106430053711,0.2843051328518552,0.4827088458638577,-0.11564643909347014
0.9115331172943115,0.288017708469852,0.4829325553224372,-0.11749619101598319
0.9218883514404297,0.2917302840878486,0.48317295040584324,-0.11600231525163204
0.930525541305542,0.2952474609891087,0.4834329981224679,-0.11232359998432101
0.9397702217102051,0.29896003660710546,0.483714461259164,-0.10729243909805745
0.9482276439666748,0.3026726122251022,0.4840194566846902,-0.10149420202160458
0.9572327136993408,0.30618978912636224,0.4843515440344206,-0.09533270103226427
0.9672646522521973,0.3102931621778323,0.4847143672130938,-0.0890809218385383
0.9771032333374023,0.3143965352293024,0.4851116196635374,-0.08291894004775224
0.9847323894500732,0.31752291469708915,0.4855450685545094,-0.07696162228037261
0.9936966896057129,0.32123549031508586,0.4860127118084579,-0.07127855723695412
1.0027425289154053,0.3245572684996093,0.48651298518174374,-0.06590824124212379
1.0140986442565918,0.3290514389845527,0.4870509694972516,-0.06086809158501118
1.02266526222229,0.3325686158858127,0.4876333837853533,-0.05616146682439502
1.0367486476898193,0.3384305773879129,0.48826697230743654,0.22425580149550822
1.0453171730041504,0.3419477542891729,0.4889604743358718,-0.014595172914542154
1.0554909706115723,0.34605112734064297,0.48971639374270165,-0.09905533459214699
1.0647366046905518,0.3497637029586398,0.4905347124081181,-0.11656555983597039
1.0740554332733154,0.35347627857663644,0.4914182388238783,-0.10779217603380473
1.0817484855651855,0.3564072593276865,0.49236636055386335,-0.09092890692877312
1.0897037982940674,0.35972903751220986,0.4933722105721386,-0.07357356900313265
1.0977060794830322,0.3630508156967333,0.49442979551476934,-0.33451277597371004
1.1067397594451904,0.36695879003146675,0.4955403553600447,-0.3554318640861322
1.1160805225372314,0.37106216308293677,0.49671177734994115,-0.01478630513704493
1.1239356994628906,0.37379774511725017,0.49795073739651197,0.10169948994835001
1.1337075233459473,0.37770571945198356,0.49925565844503816,0.12265314612415734
1.141906976699829,0.38063670020303364,0.5006212750052026,-0.16864593853463214
1.1497066020965576,0.3841538771042937,0.5020388705262654,-0.22708146871585977
1.161756992340088,0.38864804758923716,0.5035043579656606,-0.19670720599624897
1.1717932224273682,0.39275142064070717,0.505028824644241,-0.14114681340733598
1.1798911094665527,0.3960731988252306,0.506621068549444,-0.08633919983146307
1.1883540153503418,0.39939497700975396,0.5082764565385294,-0.04115135727930072
1.195695161819458,0.40271675519427735,0.5099827122599467,-0.007152954794345658
1.2047502994537354,0.4064293308122741,0.511724988454366,0.01686858697442256
1.215996265411377,0.41092350129721755,0.5135015119446542,0.03291106361277296
1.2252388000488281,0.41463607691521426,0.5153215540085112,0.04294127795445573
1.2336838245391846,0.4179578550997376,0.5171847887762888,0.048614507776301566
1.2427096366882324,0.4220612281512078,0.5190865530504978,0.05122350082327357
1.2507116794586182,0.4251876076189945,0.5210261182998702,0.05173541893995559
1.2599608898162842,0.4290955819537278,0.5229986784542633,0.05085398945954858
1.2678558826446533,0.4322219614215146,0.5249960658737429,0.049081125780741586
1.2770171165466309,0.43593453703951135,0.5270111408048945,0.04676909087961088
1.2858502864837646,0.43945171394077137,0.5290415712568378,0.04416150038557477
1.2941946983337402,0.4425780934085581,0.5310892120304597,0.041424245179796496
1.3017184734344482,0.44550907415960816,0.5331518253580035,-0.23737013419479902
1.3111200332641602,0.4494170484943415,0.5352237251906925,-0.2731971741815531
1.3186969757080078,0.4525434279621283,0.5373002065746297,-0.2207032271978336
1.3268280029296875,0.45586520614665166,0.5393774941574215,-0.14709533361017108
1.3346834182739258,0.45899158561443837,0.5414567525120142,-0.07890910499432936
1.343717098236084,0.4627041612324352,0.54353922777509,-0.02447712667650847
1.3528168201446533,0.4662213381336952,0.5456222477834953,0.015477632685101671
1.3609309196472168,0.4693477176014819,0.5477081527683786,0.04299359167184493
1.3696722984313965,0.47345109065295204,0.5497992148394922,0.06076030163039098
1.3804855346679688,0.4779452611378954,0.5518978900883591,0.07128295489010245
1.3896868228912354,0.48165783675589213,0.554015486289767,0.07661832231477614
1.3976588249206543,0.4849796149404155,0.5561573605741308,0.07835024402215558
1.4056859016418457,0.48810599440820224,0.5583193360519865,0.07765258815587499
1.4167184829711914,0.4926001648931457,0.5605075043579251,0.07537333186752541
1.4260249137878418,0.49631274051114244,0.5627368020728574,0.07211337895570905
1.4372282028198242,0.5008069109960859,0.5650154989634422,0.06829167223695631
1.4456510543823242,0.5039332904638726,0.5673409741522085,0.0641957050020096
1.453658103942871,0.507255068648396,0.5697009359536155,0.060019311195514194
1.4628291130065918,0.5111630429831293,0.5720903369805562,0.055890303121894705
1.4707415103912354,0.5144848211676527,0.5745153572555641,0.0518903811506963
1.4787704944610596,0.5180019980689128,0.5769762075544164,0.04806932550526341
1.486741542816162,0.5211283775366995,0.5794679928480018,0.04445503348332276
1.495654821395874,0.5248409531546963,0.5819867180656932,0.041060574430445515
1.5038032531738281,0.527967332622483,0.5845292073065907,0.037889121920521344
1.5129024982452393,0.5318753069572164,0.5870929988491962,0.03493738403122744
1.522524118423462,0.5355878825752132,0.589682168871899,0.03219797584039753
1.5307378768920898,0.5391050594764732,0.5923003529488459,0.029661049658682617
1.5392813682556152,0.5424268376609965,0.5949450139188883,0.027315406062494378
1.5466396808624268,0.5455532171287834,0.5976141502799645,0.30118760254801136
1.5546774864196777,0.5484841978798334,0.6003062180089768,0.3323136152983733
1.5634076595306396,0.5516105773476201,0.6030264103631928,-0.0006647085988004398
1.5730218887329102,0.5555185516823535,0.6057856132181827,-0.11157241117417224
1.5809407234191895,0.5588403298668769,0.6085932696083094,-0.12856204126048648
1.5886485576629639,0.562357506768137,0.611450847399545,-0.1105392777938519
1.5966157913208008,0.5656792849526604,0.6143462902017183,0.19269798235039093
1.606210708618164,0.5695872592873937,0.6172759902987192,-0.024229864148086838
1.613664150238037,0.5725182400384438,0.6202500945073609,-0.0911054661023963
1.6236085891723633,0.5766216130899139,0.6232703999860019,-0.09586461534892937
1.6326591968536377,0.5805295874246473,0.6263385175068784,0.19747070659607316
1.6419363021850586,0.5840467643259073,0.6294696727265713,0.25265072893741036
1.6506211757659912,0.5875639412271675,0.6326766333629771,0.21762873181429088
1.6586570739746094,0.5910811181284275,0.6359558089982814,-0.11843404058339219
1.6686925888061523,0.5951844911798975,0.6392966695208777,0.06591791198032876
1.6787006855010986,0.5990924655146309,0.6426973201659844,0.1059871603721343
1.6889920234680176,0.6030004398493644,0.6461707103529792,0.09071237490169115
1.698176383972168,0.6067130154673611,0.6497275639848037,0.05943047126810783
1.7088241577148438,0.6110117872355679,0.6533692867153976,0.028224671621213494
1.7176377773284912,0.6145289641368279,0.6570889374396525,0.0026337833314884675
1.7284624576568604,0.618632337188298,0.6608803571490571,-0.01631844012614821
1.7379567623138428,0.6225403115230315,0.6647536735505831,-0.029336269769477598
1.7462551593780518,0.6260574884242914,0.6687091617544627,-0.037617801735023874
1.754805564880371,0.6297700640422882,0.6727308999308884,-0.04234934115411978
1.7637102603912354,0.633482639660285,0.6768132248246039,-0.04453059838975773
1.7716257572174072,0.6366090191280717,0.6809593432735906,-0.04494185870685059
1.7806246280670166,0.6401261960293317,0.6851719727019271,-0.04416573825146539
1.7889881134033203,0.6432525754971185,0.6894448587402824,-0.042624755214861205
1.7966208457946777,0.6465743536816418,0.6937555566008499,-0.04061877614153091
1.8071393966674805,0.6508731254498485,0.698093683857504,0.23768158062416048
1.8156800270080566,0.654194903634372,0.7024676545910854,0.2731811205751711
1.8240351676940918,0.6577120805356321,0.7068760227231234,0.22047571147421371
1.831596851348877,0.6608384600034187,0.7113089497421459,0.1467366279699275
1.840611219406128,0.6645510356214154,0.715758148935131,0.07847428763805459
1.8486113548278809,0.6678728138059389,0.7202257224215632,0.02400361181905119
1.8588616847991943,0.671976186857409,0.7247225728257285,-0.015964762963006054
1.8666222095489502,0.6751025663251957,0.7292489706228981,-0.04347782844703989
1.8756136894226074,0.6788151419431923,0.7337960952384872,-0.06123106795377581
1.8836407661437988,0.6823323188444524,0.738356484707463,-0.07173375517407665
1.8930907249450684,0.6860448944624493,0.7429239257206522,-0.07704544892424266
1.901787281036377,0.6895620713637093,0.7475025997580361,-0.07875187557730953
1.9106531143188477,0.6928838495482326,0.7520961459818519,-0.07802816265422663
1.9206199645996094,0.6967918238829661,0.7567078891010276,-0.07572311229103862
1.9289963245391846,0.7005043995009628,0.7613500316018998,-0.07243815349373998
1.9386227130889893,0.704021576402223,0.7660234122707209,-0.06859254851016292
1.949042797088623,0.708124949453693,0.7707287430566458,-0.0644739698194352
1.9583139419555664,0.7118375250716897,0.7754759845547922,-0.06027633590833672
1.9656224250793457,0.7151593032562131,0.7802638045315659,-0.05612748062850084
1.9747004508972168,0.7188718788742098,0.7850812749670433,-0.052109084803608305
1.9827725887298584,0.7219982583419965,0.7899286278962007,0.22776747656646257
1.992727279663086,0.7262970301102033,0.7948155761260556,-0.011516108494389637
2.0025084018707275,0.7300096057282001,0.7997501318733792,-0.09632882656389141
2.0106005668640137,0.7333313839127235,0.8047289839589539,-0.11413156311021626
2.0191597938537598,0.7368485608139834,0.8097392616879753,0.17043337277383247
2.0275838375091553,0.7405611364319802,0.8147796579162653,0.22020980121049327
2.039581537246704,0.7452507056336604,0.8198685983825158,-0.09375406844713613
2.0495874881744385,0.7493540786851303,0.8250312916613216,-0.18802577035610524
2.0576364994049072,0.7524804581529171,0.8302686468625273,-0.19138866164303175
2.0684945583343506,0.7565838312043872,0.835560922440174,-0.1625433026254814
2.077219247817993,0.7601010081056472,0.8409009187700124,-0.12685698559161168
2.0845861434936523,0.7634227862901706,0.846282114063842,-0.09422599648590965
2.094628095626831,0.7675261593416408,0.8516987764577891,-0.06764799894530012
2.1051292419433594,0.7720203298265842,0.8571660518929373,-0.047257108233972604
2.113532304763794,0.7751467092943709,0.8626964252105634,-0.03216564985809174
2.1226348876953125,0.7788592849123676,0.868279691733928,-0.021261997987341626
2.131007671356201,0.7819856643801543,0.8738761474970429,-0.01352336969079807
2.1391143798828125,0.7855028412814143,0.8794419312852135,-0.00811193792516942
2.146536111831665,0.788629220749201,0.8849608382118093,-0.004380692222912738
2.1558997631073,0.7925371950839345,0.8904405032150163,-0.0018468348098189778
2.1635773181915283,0.7954681758349845,0.8958984520856031,-0.00015780731660232892
2.1765711307525635,0.800548542470138,0.9013501511993991,0.0009401634065186013
2.184983968734741,0.8038703206546614,0.9068195937529495,0.0016279174513975138
2.1960790157318115,0.8083644911396048,0.9123377893856275,0.0020333734479154168
2.2036426067352295,0.8114908706073914,0.9179204076536397,0.00224649235215435
2.212660551071167,0.8150080475086516,0.923559284963971,0.0023302282126648564
2.222987413406372,0.8191114205601217,0.9292582906563904,0.0023284301809758934
2.231374502182007,0.8228239961781183,0.9350312585484003,0.0022714906999278302
2.2400906085968018,0.8265365717961152,0.9408681083679993,0.0021803562851494956
2.2490720748901367,0.8304445461308485,0.9467604389276854,-0.2739689973135604
2.256563663482666,0.8333755268818985,0.9527010108215809,-0.3072147326593655
2.2661445140838623,0.8370881024998954,0.9586841701095735,-0.2522422364199999
2.2735137939453125,0.8400190832509454,0.9647052189561328,-0.17628133705874205
2.282026767730713,0.8429500640019953,0.9707375047511706,-0.10587936672618575
2.2925004959106445,0.8474442344869388,0.9767707967755154,-0.049373193503279414
2.306410789489746,0.8531107972723023,0.9828445299162191,-0.2835235212185831
2.316004514694214,0.8570187716070357,0.9890049368616147,-0.011297678358330038
2.3235487937927246,0.860340549791559,0.9952554710730476,0.09635559374556765
2.334016799926758,0.8640531254095558,1.0015873066652814,0.12940610924123153
2.3419013023376465,0.8669841061606058,1.0079926159951333,-0.14543629382465328
2.3515779972076416,0.871087479212076,1.0144522962752376,-0.18941656488035624
2.3617775440216064,0.8755816496970192,1.020975858815263,0.1276083805290003
2.369497776031494,0.8789034278815427,1.027584086962593,0.22307260576734375
2.3789753913879395,0.8828114022162762,1.0342687283024292,0.22637920504618086
2.3869338035583496,0.8859377816840628,1.0410227771924785,-0.07937211523609597
2.395143985748291,0.889454958585323,1.0478399024507683,-0.14955650970207263
2.4025685787200928,0.8925813380531097,1.054688041915983,0.1472797186885162
2.4110164642333984,0.8957077175208964,1.0615400423464139,0.22809198794173197
2.4185643196105957,0.898834096988683,1.068386372939732,0.22125310733936512
2.428520679473877,0.9029374700401532,1.0752192775645366,0.18483490650981804
2.436540365219116,0.9062592482246766,1.0820459925819723,0.14359360384663505
2.4445207118988037,0.9093856276924633,1.0888862802602461,0.10691198665293639
2.4528589248657227,0.9127074058769867,1.0957567855173713,0.07738515160732923
2.463085889816284,0.9168107789284567,1.1026711478169449,0.054843633252731644
2.4725451469421387,0.9207187532631901,1.1096268106285065,0.03817615176103319
2.4835312366485596,0.9252129237481336,1.1166207870704365,0.026108817801498558
2.4931535720825195,0.929120898082867,1.1236763456627585,0.017502218985947657
2.5004940032958984,0.9318564801171804,1.1307987499810062,0.011435204033906132
2.5090150833129883,0.9357644544519137,1.1379646227394222,0.007201445478402305
2.516615152359009,0.9386954352029638,1.1451532856293147,0.0042759922624251495
2.524510145187378,0.9420172133874872,1.1523466233351978,0.002276337569648822
2.534623146057129,0.9463159851556939,1.159541774530547,0.0009274083420682615
2.5425148010253906,0.9492469659067441,1.166735820801055,3.318036744953158e-05
2.5517871379852295,0.9529595415247408,1.1739128373257717,-0.0005451286528540652
2.561565399169922,0.9570629145762107,1.181071765852444,-0.0009052915122495313
2.569615125656128,0.9603846927607341,1.188211414945969,-0.0011159168664504069
2.578528881072998,0.9637064709452576,1.1953176683703144,-0.0012249813242497464
2.588855743408203,0.9680052427134643,1.2023907784499017,-0.0012659211504649744
2.5974197387695312,0.9715224196147245,1.209443005576028,-0.0012619552246335582
2.6054704189300537,0.9746487990825112,1.216471903871465,-0.001229139709795538
2.6145596504211426,0.9783613747005078,1.2234627606827186,-0.0011785198985657611
2.6244943141937256,0.9822693490352413,1.2304149984749235,-0.0011176426292953355
2.635477066040039,0.986568120803448,1.2373516146804568,-0.0010516174281623132
2.6454813480377197,0.990671493854918,1.2443145518784715,-0.0009838599720568518
2.6545910835266113,0.9945794681896515,1.2513262212249485,-0.0009166123268089841
2.6625254154205322,0.9977058476574382,1.2583577460811959,-0.0008513065452660346
2.6721410751342773,1.0016138219921717,1.265372346107663,-0.0007888184638726343
2.6795108318328857,1.0045448027432218,1.272350331957302,-0.0007296445958123405
2.6922645568847656,1.0098205680951118,1.2792751520913759,-0.0006740252042703133
2.7008135318756104,1.0133377449963719,1.286144337463074,0.2754163299426874
2.71197247505188,1.0176365167645787,1.2929783952716214,0.30858934688691503
2.7223525047302246,1.0219352885327855,1.299805608479453,0.25353703554782403
2.730487823486328,1.025061668000572,1.3066382453819316,-0.09854469644941183
2.739898681640625,1.029165041052042,1.3134749174002975,-0.20215347678293957
2.7484142780303955,1.0324868192365655,1.3203030784020022,0.07239590298270536
2.759598731994629,1.0371763884382457,1.327111895883009,0.1396407176303357
2.768961191177368,1.040498166622769,1.333903119402291,0.12568125891529502
2.777609348297119,1.0440153435240291,1.3406674012299453,0.08671814622638843
2.7854325771331787,1.0471417229918158,1.347386154681334,0.046066230614072584
2.795907497406006,1.0516358934767591,1.3540549073766852,0.012041589659363382
2.8054516315460205,1.0555438678114926,1.3606811875198526,-0.01352888615007401
2.813971757888794,1.058865645996016,1.3672610451418732,-0.03135638374511332
2.8232760429382324,1.062969019047486,1.3737916212776342,-0.042927141207180886
2.834878921508789,1.0674631895324294,1.3802925095839962,-0.04976965873415587
2.843479871749878,1.0709803664336897,1.3867805797718784,-0.053192368767022595
2.8529436588287354,1.0746929420516864,1.393248774563594,-0.0542252774554475
2.8628392219543457,1.078991713819893,1.3997020510186315,-0.05364171413064937
2.8742709159851074,1.0838766817383099,1.4061662158700208,-0.05200482327969398
2.882448673248291,1.0875892573563064,1.4126522610924113,-0.049715712347674454
2.891447067260742,1.0901294406738833,1.4191477901178844,-0.04705492907842061
2.900820732116699,1.09384201629188,1.4256315058980402,-0.04421535698890107
2.9100537300109863,1.0977499906266135,1.4320963856518432,-0.041327149312267955
2.917447805404663,1.1008763700944002,1.4385476739405916,-0.03847611464347063
2.926589250564575,1.1047843444291336,1.4449793679967868,-0.03571703289454296
2.9349398612976074,1.1079107238969204,1.4513760431452578,-0.033083181123405046
2.94244384765625,1.1108417046479702,1.4577362199793547,-0.030593087068074145
2.9521210193634033,1.115140476416177,1.4640593538328956,-0.02825528382297239
2.959446907043457,1.1180714571672272,1.4703349427623087,0.2499667222492617
2.9694480895996094,1.1219794315019607,1.4765550449052272,0.28512330013239356
2.9808430671691895,1.1264736019869042,1.4827252239699553,0.2319115807392509
2.988821506500244,1.1297953801714273,1.4888738175265122,-0.1184658023397526
2.996494770050049,1.1327263609224774,1.4950144780269046,-0.2204988770337291
3.006477117538452,1.1370251326906842,1.5011370978607859,0.05550554596718313
3.0146753787994385,1.1405423095919442,1.5072455565743026,0.12409277662532028
3.022439956665039,1.1434732903429943,1.5133439291018516,-0.16466737547408927
3.030730962753296,1.1469904672442544,1.5194250160274765,-0.2356145877381988
3.038468599319458,1.1499214479953044,1.5254956417468468,-0.22011868799229917
3.046811580657959,1.1534386248965642,1.5315623965301848,-0.17709090287495996
3.05605411529541,1.1569558017978245,1.5376198202160087,0.14479032067288095
3.0654356479644775,1.160863776132558,1.5436641413647703,-0.058509284284270435
3.0744545459747314,1.1647717504672912,1.54969308398509,-0.11554971998798626
3.083461046218872,1.1686797248020246,1.5557183331926878,-0.11327042376858396
3.093426465988159,1.1727830978534948,1.561763416506563,-0.09096399506637773
3.1034395694732666,1.1764956734714915,1.5678493701189171,-0.06535548321731799
3.1152381896972656,1.1811852426731717,1.5740081453016053,-0.042765052047684944
3.123488426208496,1.184507020857695,1.580267200276859,-0.02492544415450533
3.13552188873291,1.1890011913426384,1.586636894217743,-0.011706021526203769
3.1444365978240967,1.1927137669606351,1.59313970542306,-0.278383876272939
3.1540613174438477,1.1966217412953686,1.599794268199787,-0.30514089573864783
3.1614198684692383,1.1995527220464186,1.6065881508097164,-0.2458978817964244
3.1694350242614746,1.2030698989476787,1.6134818619657856,-0.1672682551643456
3.181368589401245,1.2079548668660955,1.6204557680641634,0.1807098104344103
3.1923179626464844,1.2124490373510388,1.6275358273660216,0.2710953635127899
3.2004129886627197,1.2155754168188255,1.6347437971967405,-0.01792863156611707
3.212146759033203,1.2206557834539788,1.642083387306094,-0.09795443882919812
3.221022605895996,1.2241729603552391,1.6495572165478256,0.181735886709049
3.229434013366699,1.2278855359732357,1.6571667929101643,0.2458944548378418
3.2377688884735107,1.2314027128744958,1.6649125982714765,-0.05052742400041087
3.245933771133423,1.2345290923422825,1.6727789968976752,-0.13009136101609942
3.254380226135254,1.237850870526806,1.6807214196476779,-0.12314879639977168
3.262507915496826,1.2411726487113293,1.6887017220599057,-0.08819243997820965
3.270408868789673,1.2441036294623793,1.6967028906920503,-0.04979904103573382
3.2834091186523438,1.2491839960975328,1.7047264079977604,-0.2930344313867819
3.296938180923462,1.2548505588828962,1.7128208383859613,-0.301184794868371
3.30539870262146,1.2583677357841563,1.7210271264108694,-0.22847499309809186
3.3167529106140137,1.2628619062690998,1.7293321985553136,-0.14080138053581037
3.3248355388641357,1.2661836844536232,1.7377244697063652,-0.06327779071897467
3.3328230381011963,1.2693100639214097,1.746209382011877,-0.0029926568027802553
3.3403828144073486,1.272631842105933,1.7547747730176908,0.04032343075105743
3.349424362182617,1.27634441772393,1.7633937227787886,0.06946154757189457
3.3583860397338867,1.27986159462519,1.772059153756286,0.08766457704986028
3.3664355278015137,1.28337877152645,1.7807808126358324,0.09783595787808624
3.3748064041137695,1.28689594842771,1.7895665248180046,0.10231455398916939
3.3824830055236816,1.2896315304620236,1.798406108585154,0.10288136551237002
3.3931519985198975,1.2943210996637038,1.8072742362913652,0.1008463118227292
3.4028985500335693,1.2980336752817005,1.8161655588810537,0.09714996199361586
3.413043737411499,1.301746250899697,1.8250916987313075,0.09245518173127054
3.4219377040863037,1.3054588265176938,1.8340622274090497,0.08722145293857471
3.429518461227417,1.3085852059854806,1.8430846628768407,0.08176193375433888
3.4387104511260986,1.3126885790369507,1.8521646443010693,0.07628587550397317
3.446406126022339,1.3158149585047374,1.8613062883724703,0.07092951223595537
3.454352855682373,1.3191367366892608,1.8705121123100519,0.06577824562622225
3.4638707637786865,1.3230447110239942,1.8797668648099977,0.060882421848864735
3.472240924835205,1.3265618879252543,1.889024398362678,0.3323068277975869
3.484377145767212,1.3312514571269343,1.898261710380482,0.36110966897577856
3.4934279918670654,1.3349640327449313,1.9075078751240007,0.3019825104462204
3.501363515853882,1.3380904122127177,1.916770672241849,-0.053886097672648264
3.509472370147705,1.3416075891139778,1.926007591539464,-0.16100542416590835
3.5180349349975586,1.345124766015238,1.935182318591493,0.1102956148265977
3.52746319770813,1.348641942916498,1.9442953808574404,0.17453890704033864
3.536486864089966,1.3519637211010214,1.9533768542551182,0.15780891238630235
3.546408176422119,1.3558716954357548,1.962450468206763,0.11629051139643307
3.556407928466797,1.3601704672039616,1.9715037697114104,0.07328325361771691
3.5653703212738037,1.3638830428219582,1.9805234133199703,0.03708856388763878
3.5748281478881836,1.3679864158734283,1.9895104953552443,0.009519449351165356
3.582430362701416,1.371112795341215,1.998450040088558,-0.010148331603201407
3.591625213623047,1.3750207696759482,2.0073139972919005,-0.2994515844621616
3.59975528717041,1.378342547860472,2.0160903730669086,-0.0649397028604428
3.607985019683838,1.3816643260449955,2.024768288491671,0.01842431128904349
3.6163644790649414,1.3849861042295188,2.0333243633670284,0.0370584576949534
3.6249473094940186,1.3883078824140422,2.0417497013071406,0.03086439737801934
3.6327757835388184,1.3918250593153023,2.0500477500404446,0.01748215318799748
3.6418285369873047,1.3955376349332989,2.058219406400314,0.0041181543487227995
3.6507437229156494,1.3990548118345592,2.066253296504041,-0.006750227560337087
3.6583924293518066,1.4019857925856087,2.0741285923674035,-0.014669025524462346
3.6701250076293945,1.4068707605040258,2.0818373911921118,-0.019957457538857963
3.6783246994018555,1.4099971399718125,2.089373350803466,-0.02315462014415925
3.688288688659668,1.4139051143065458,2.0967214868853907,-0.02479307766302164
3.6987528800964355,1.4182038860747526,2.1038868434142586,-0.02532080828354391
3.7079365253448486,1.4217210629760126,2.110882639985344,-0.02508676632550888
3.7156715393066406,1.425238239877273,2.117702374191248,-0.024350860373288968
3.72331166267395,1.4283646193450594,2.124332121551347,-0.023300966021357197
3.733139753341675,1.432663391113266,2.130768404687545,-0.022069835739348925
3.7413508892059326,1.4355943718643163,2.1370167285085593,-0.020749424212502143
3.7520556449890137,1.4396977449157864,2.1430748672129645,-0.019402149224438156
3.759525775909424,1.4426287256668366,2.1489405415081726,-0.01806938065891111
3.768556594848633,1.4465367000015699,2.154612961300413,-0.016777676620930892
3.777200937271118,1.4500538769028297,2.1600858953714357,-0.015543287008645764
3.7879419326782227,1.4541572499542998,2.1653611639932273,-0.01437536722363824
3.7958240509033203,1.4574790281388232,2.1704471532745133,-0.013278251075458568
3.8037984371185303,1.4608008063233466,2.1753513421814747,-0.012253046753582759
3.811325788497925,1.4639271857911336,2.1800754456550058,-0.011298750299950148
3.8224027156829834,1.4684213562760768,2.184616597132655,0.2656253421763403
3.8332881927490234,1.4727201280442836,2.1889828469655597,0.2995702676165323
3.844026803970337,1.4774096972459638,2.1931910055153185,0.2452315222259925
3.853632688522339,1.4815130702974335,2.1972507183295646,0.16984701818555759
3.8624026775360107,1.485030247198694,2.2011657721835927,0.09997067140927582
3.8724799156188965,1.4889382215334273,2.2049396581084415,0.04394480910263342
3.8810620307922363,1.4920646010012137,2.20857193733956,0.002496378924245455
3.8885583877563477,1.4951909804690007,2.212055657683266,-0.026412872922035098
3.8976125717163086,1.4989035560869972,2.2153860661454896,-0.04547479701950276
3.9083900451660156,1.503202327855204,2.218567519697759,-0.05719841843916969
3.9183108806610107,1.506914903473201,2.221608323333748,-0.06364523730547475
3.9273061752319336,1.510432080374461,2.2245162790047046,-0.06640428731740028
3.936640977859497,1.514535453425931,2.2273013376717974,-0.06665480480816757
3.9443018436431885,1.5178572316104544,2.2299723659226776,-0.06525011884614149
3.9527387619018555,1.5213744085117145,2.2325317085521674,-0.06279634627897719
3.960728883743286,1.5245007879795012,2.2349793653876744,0.2163209312213812
3.9693915843963623,1.527627167447288,2.2373138458750454,-0.023180995946882818
3.977998733520508,1.5313397430652846,2.2395348823429853,-0.10785640922650733
3.9852850437164307,1.5342707238163347,2.241645895479546,-0.1252950796000099
3.9942827224731445,1.5379832994343312,2.243650789392461,0.15977172924706085
4.004319906234741,1.5422820712025382,2.245556057908643,0.2101269882925017
4.013424396514893,1.5463854442540081,2.2473681140068353,-0.10322225445496591
4.025204181671143,1.5506842160222152,2.2490887894368043,-0.1968709639256285
4.034757852554321,1.5543967916402117,2.2507204579453735,-0.19962039531456643
4.043331146240234,1.557718569824735,2.252270128272809,-0.17018242245353937
4.052847146987915,1.5620173415929417,2.253746390990481,-0.1339311311982262
4.06191611289978,1.565534518494202,2.2551569342542837,-0.10076652318403705
4.071380138397217,1.5694424928289352,2.256506806028156,-0.07368790441797067
4.08037805557251,1.5731550684469322,2.2577988233928443,-0.05282965690234012
4.093676328659058,1.5782354350820853,2.2590408968617433,-0.03730348007447831
4.1034417152404785,1.5821434094168187,2.260245001952371,-0.02599656184447804
4.113399028778076,1.5864421811850258,2.261417788749723,-0.017884600604568823
4.121699333190918,1.5897639593695492,2.2625614575211044,-0.012128072943810169
4.13052773475647,1.5932811362708093,2.2636778615921194,-0.00807819827574976
4.139364004135132,1.596798313172069,2.264767142399923,-0.00525040367893069
4.151953220367432,1.6016832810904862,2.265829434261716,-0.27932875467305285
4.159832954406738,1.6048096605582727,2.2668677044474292,-0.035067333445075385
4.171412467956543,1.6094992297599529,2.267885730859071,0.054072272727763555
4.179362058639526,1.6126256092277396,2.2688852416803678,0.07567726200719874
4.188699007034302,1.616533583562473,2.2698650789553727,0.07052302953988873
4.198039293289185,1.6202461591804695,2.2708242372630747,0.0568853554843471
4.20925235748291,1.6251311270988864,2.2717631704733336,0.04242454704223887
4.219338417053223,1.6292345001503563,2.27268228812756,0.029937148367036658
4.2282469272613525,1.6329470757683533,2.2735819453935036,-0.25593981207397765
4.237255096435547,1.6364642526696132,2.274462453034232,-0.2964219514961799
4.24623703956604,1.64017682828761,2.2753240864135895,-0.24663828864225534
4.258734226226807,1.6450617962060268,2.2761680618373754,-0.17428827393385327
4.266277313232422,1.6479927769570768,2.2769953802659453,-0.10632693743576625
4.275556564331055,1.6517053525750736,2.277805793611873,-0.32745384568537805
4.285308837890625,1.6558087256265437,2.2785990539529184,-0.31968525034952466
4.295685052871704,1.6601074973947505,2.2793741190946126,-0.23585211296873937
4.303711891174316,1.6630384781458003,2.2801292770886827,-0.14062426379617038
4.312162160873413,1.6663602563303237,2.2808632029942135,-0.058133117603931125
4.321011304855347,1.669682034514847,2.281575854458726,0.0052810898633571315
4.3312201499938965,1.6741762049997908,2.2822682912805785,0.05044045056409929
4.341255187988281,1.6784749767679974,2.2829415418221237,0.08053618666611337
4.350536108016968,1.6821875523859942,2.2835965582494606,0.09909681154790782
4.3592445850372314,1.6859001280039907,2.2842342344903575,0.10922745015071553
4.369822263717651,1.6901988997721975,2.2848554353011554,0.1134080824353409
4.377431154251099,1.6933252792399842,2.285460208930648,0.11351759556218197
4.385250568389893,1.696451658707771,2.2860471403838343,0.11093318967940041
4.3963401317596436,1.700750430475978,2.2866159321150987,0.10664118071708953
4.406217336654663,1.7046584048107114,2.2871687673308,0.10133511109740413
4.414235830307007,1.7081755817119713,2.2877075954894686,0.09549464584061879
4.423340559005737,1.7116927586132313,2.288232662929856,0.08944585783739241
4.431654930114746,1.7152099355144914,2.288743536213412,0.08340590933637307
4.43927001953125,1.7181409162655412,2.2892399724545642,0.07751552645818487
4.44847559928894,1.7218534918835382,2.289721893054433,0.07186229013992587
4.4582648277282715,1.7259568649350083,2.2901899971506556,0.06649718243273754
4.4662394523620605,1.729083244402795,2.290645637918281,0.3374846160921566
4.474736928939819,1.7324050225873184,2.291090016879349,0.3658817806046213
4.482261896133423,1.735531402055105,2.2915241801640778,0.3063788358271162
4.49230694770813,1.739830173823312,2.2919490505643036,0.2262010693360082
4.500552177429199,1.7433473507245718,2.2923648470163682,0.15188537305443844
4.508224010467529,1.7464737301923585,2.2927711865475278,0.09175462119716833
4.520251274108887,1.7511632993940385,2.2931683681560386,0.04651520884299135
4.530505657196045,1.755071273728772,2.293557810349629,0.01410811365001809
4.53950572013855,1.7587838493467687,2.2939407048424023,-0.008178924694102955
4.547541379928589,1.762105627531292,2.2943169674777617,-0.02287462035123793
4.556912422180176,1.7662090005827624,2.2946865435079924,-0.03205922604409291
4.566224575042725,1.7695307787672858,2.2950494122576637,-0.037339474974308146
4.5772154331207275,1.7742203479689658,2.295405569005823,-0.03991120003052748
4.587622880935669,1.778128322303699,2.2957560588002632,-0.04064321823822212
4.596293926239014,1.7818408979216962,2.2961012704957326,-0.0401560487623612
4.6043860912323,1.7849672773894825,2.2964405141229314,-0.03888699046776388
4.613598108291626,1.7884844542907428,2.296773715925286,-0.03714064116377387
4.621706485748291,1.7920016311920028,2.297101336553457,-0.035126722828572196
4.629204511642456,1.7951280106597896,2.2974233089374954,-0.03298777107513578
4.6371893882751465,1.7982543901275763,2.297738657326054,-0.030819106141242402
4.645171642303467,1.8015761683120999,2.298046142040821,-0.02868309062696675
4.654318332672119,1.8050933452133597,2.298345712308496,-0.02661923408605006
4.664114713668823,1.8090013195480932,2.2986383264941668,-0.02465131466817996
4.674183130264282,1.8133000913163,2.298924401013217,-0.0227923759173813
4.68399453163147,1.8172080656510334,2.2992043124957746,-0.02104821879303611
4.694352149963379,1.8213114387025033,2.2994792561273343,-0.01941983258051145
4.703797817230225,1.8250240143205,2.299750250600176,-0.017905079991049858
4.7119221687316895,1.8285411912217602,2.300017350675029,-0.016499859460286356
4.720704793930054,1.8320583681230203,2.300280616818957,-0.015198901839715295
4.729199171066284,1.8353801463075436,2.3005400996426753,-0.013996312002064786
4.738213777542114,1.8388973232088037,2.3007954608719867,-0.01288593291567348
4.7480528354644775,1.8424145001100636,2.301046860088268,-0.011861586522603919
4.7596752643585205,1.8472994680284807,2.3012952240513425,-0.010917229433175935
4.7681684494018555,1.8510120436464772,2.301541336412035,-0.01004704999326712
4.780862331390381,1.8562878089983674,2.3017854890592377,-0.009245525250253551
4.78864049911499,1.8590233910326808,2.3020283294758284,-0.00850745071777981
4.797173500061035,1.862931365367414,2.3022700214597505,-0.007827951905636558
4.8061933517456055,1.8664485422686738,2.3025099261846482,-0.007202483826905947
4.81418251991272,1.8695749217364608,2.302747867869976,-0.0066268227733734825
4.822249412536621,1.8728966999209842,2.3029836931841636,-0.006097053308835518
4.830857276916504,1.876609275538981,2.3032169099472473,-0.005609552494526622
4.838332176208496,1.879540256290031,2.30344712029887,-0.0051609727103825165
4.848278522491455,1.883643629341501,2.303674387327253,-0.004748223984384287
4.8561882972717285,1.8867700088092878,2.3038991576973986,0.2716699032494837
4.864275932312012,1.889700989560338,2.304121080911508,0.3051439196707239
4.872927665710449,1.8930227677448612,2.304339497485927,-0.02567021742449946
4.88173770904541,1.896735343362858,2.3045545993520755,-0.13458405161605458
4.8905134201049805,1.9000571215473812,2.3047669477138366,-0.14973735115690703
4.899329423904419,1.9037696971653784,2.304977041238581,0.14601457626506809
4.907671213150024,1.9070914753499015,2.30518530226288,-0.06814377371363198
4.916180610656738,1.9106086522511616,2.3053917248290925,-0.12894706155611307
4.924511671066284,1.913930430435685,2.3055959532260037,-0.1272700299620269
4.932483434677124,1.9172522086202084,2.3057980571315158,-0.1042657311526648
4.942151069641113,1.9209647842382052,2.305998455011398,0.19852467937872248
4.954186677932739,1.9258497521566218,2.3061974927262923,0.25545538405246376
4.96222710609436,1.9291715303411452,2.306395119781071,0.21933696494334604
4.972372531890869,1.9330795046758789,2.3065909527025847,0.1574871840275998
4.982591867446899,1.9371828777273485,2.306785336734051,0.0972135167757332
4.991384029388428,1.9408954533453457,2.306979220388355,0.04773279270024834
4.999494314193726,1.944217231529869,2.3071727188688524,0.01055594038940762
5.007144451141357,1.947148212280919,2.30736494701568,-0.015722134558744306
5.017642498016357,1.951446984049126,2.307555492421024,-0.03330930334136646
5.025615930557251,1.9545733635169122,2.3077446520244824,-0.04435672662979023
5.033544063568115,1.957699742984699,2.307932349736036,-0.05066706072471411
5.041541576385498,1.9610215211692226,2.3081182042662967,-0.3296834435713787
5.05115008354187,1.9651248942206925,2.3083019031583905,-0.36350350037367773
5.059499979019165,1.9688374698386895,2.3084835004353335,-0.30758248739268695
5.067116022109985,1.9717684505897393,2.30866306051305,-0.22969885255926942
5.076160192489624,1.9750902287742627,2.3088403345502697,-0.15678475787693524
5.0851123332977295,1.9788028043922596,2.3090154119798223,-0.09744311601837018
5.093153715133667,1.9817337851433097,2.309188394569494,-0.052577398529985706
5.101876735687256,1.9854463607613064,2.3093590897475753,-0.020266486229159376
5.109288215637207,1.9885727402290931,2.309527626055182,0.0021059032987463065
5.118169784545898,1.9918945184136163,2.309694132437982,0.017002063644017698
5.126618385314941,1.9950208978814032,2.3098584461876075,0.026456582963084476
5.134148597717285,1.9981472773491897,2.31002043726688,-0.2439933034731062
5.142420291900635,2.0018598529671867,2.310180008039986,-0.27422065081936636
5.151289224624634,2.0055724285851833,2.3103373590138636,0.05797586290564277
5.160659551620483,2.0092850042031802,2.3104929379046237,0.1670214522543546
5.169820547103882,2.01280218110444,2.310647116936205,0.18148952455064116
5.177621126174927,2.0157331618554903,2.3108001942659944,-0.11546153135351847
5.185382604598999,2.0190549400400135,2.310952148292018,-0.17884494786159938
5.1951398849487305,2.0229629143747467,2.3111027050483908,-0.1528305959732683
5.2034337520599365,2.0266754899927437,2.311251888777926,-0.10113892236838647
5.211088180541992,2.029606470743794,2.3113997099710537,-0.04978690208720539
5.221131324768066,2.033709843795264,2.3115461480490955,-0.007703691204757113
5.229620933532715,2.037031621979787,2.31169141123366,-0.25254676240053886
5.237094402313232,2.0399626027308373,2.3118354259814353,-0.2641909920708424
5.2453718185424805,2.043088982198624,2.31197788528932,-0.19536249922769092
5.253986597061157,2.046606159099884,2.3121185342484916,-0.11135485338464009
5.26329779624939,2.050123336001144,2.312257386138476,-0.3131230744239888
5.272185564041138,2.0540313103358776,2.312394449216152,-0.28877932603010636
5.280289649963379,2.057157689803664,2.312529505006907,-0.19278748376124644
5.288641929626465,2.060284069271451,2.312662589341906,-0.08964995549064887
5.297112941741943,2.0636058474559746,2.312793738757079,-0.0027318472329374358
5.306212663650513,2.067318423073971,2.3129227737110294,0.062481949378421414
5.315162658691406,2.070835599975231,2.313049762802711,0.10756655289095882
5.325092792510986,2.0749389730267014,2.313174992846887,0.13631268292360862
5.335587978363037,2.079237744794908,2.3132987075545666,0.15270030759447795
5.344150066375732,2.0829503204129045,2.313421095586279,0.16016244116023848
5.3524768352508545,2.0860766998806914,2.3135423151368095,0.16141081191871637
5.361620903015137,2.0895938767819517,2.3136623189955423,0.15848423086612734
5.3708109855651855,2.093501851116685,2.3137808837747387,0.15286755495996318
5.378084897994995,2.096237433150998,2.313897841526432,0.14561742627360275
5.390127897262573,2.1009270023526785,2.314013065639283,0.1374714411271477
5.399385452270508,2.1044441792539383,2.3141268328661275,0.12893507008479288
5.409635782241821,2.1085475523054082,2.314239757477703,0.12034768444102488
5.417381048202515,2.111869330489932,2.31435216985982,0.11193130315467213
5.425103664398193,2.1151911086744555,2.3144639985352,0.10382592207793143
5.435078382492065,2.1190990830091887,2.3145750076231204,0.09611479440833459
5.443108558654785,2.1222254624769756,2.314684985105111,0.0888423530600982
5.4520533084869385,2.1257426393782355,2.314793757331138,0.08202682432682029
5.461793422698975,2.129846012429706,2.3149013814710897,0.07566905002296327
5.469232082366943,2.1327769931807556,2.3150081014246284,0.06975862116292371
5.478251934051514,2.136294170082016,2.3151141181704444,0.06427811556510923
5.4863951206207275,2.139615948266539,2.3152195768006005,-0.2168323557440019
5.494083642959595,2.1425469290175894,2.315324415750158,-0.2546443385159416
5.5031898021698,2.146259504635586,2.3154284311510236,0.0721641604886776
5.511523485183716,2.149385884103373,2.3155314597273793,0.17738251020988716
5.521871566772461,2.153293858438106,2.3156333615187883,-0.08690960438628953
5.5325541496276855,2.1572018327728397,2.3157343663309082,-0.14288731178809563
5.540036678314209,2.160328212240626,2.3158348445841117,0.1566009917530689
5.548067808151245,2.16364999042515,2.3159347611582213,0.23572900156532894
5.556048631668091,2.166971768609673,2.316033909860234,0.22603792691387492
5.565305233001709,2.170879742944406,2.316132114689165,0.18687595612581476
5.576093912124634,2.1749831159958766,2.3162293726186234,0.1434226197580424
5.5871922969818115,2.1796726851975565,2.3163260122508915,0.105122526146363
5.59506630897522,2.1826036659486063,2.3164221858959384,0.07449732417466486
5.604076147079468,2.1861208428498666,2.316517531130562,0.05126825779550407
5.612057209014893,2.18944262103439,2.316611869570525,-0.2418193090829184
5.620113849639893,2.1925690005021767,2.3167053722655995,-0.28717448402768125
5.628047227859497,2.1958907786867,2.3167982031833927,0.03534210795672779
5.636431932449341,2.1992125568712235,2.31689032823126,0.1385727914411653
5.6440839767456055,2.201948138905537,2.316981383347311,0.14991670902924153
5.653072834014893,2.205465315806797,2.317071086106752,0.1277187431486807
5.661815166473389,2.209177891424794,2.31715953949734,0.09740527939065116
5.670349836349487,2.212499669609317,2.3172469888693263,0.06906932007750109
5.678520679473877,2.2154306503603673,2.3173336238227797,0.04592511762412742
5.6885504722595215,2.2193386246951006,2.3174195967110105,0.028298957934256547
5.69608473777771,2.222269605446151,2.317505037998275,0.01545899086010462
5.707079172134399,2.226763775931094,2.317590047138364,0.006414263661978483
5.715012788772583,2.230280952832354,2.317674422734262,0.0002331307075829044
5.724001884460449,2.2337981297336142,2.3177577108126837,-0.003854307207433963
5.734123229980469,2.237510705351611,2.3178398172163543,-0.006444710429411831
5.7438623905181885,2.2414186796863445,2.3179209702716563,-0.00798355534289574
5.754075288772583,2.2453266540210777,2.318001359196814,-0.00879561528338789
5.76322078704834,2.249039229639074,2.318081126105062,-0.00911381169052249
5.771661758422852,2.252165609106861,2.318160406953096,-0.009103160982280784
5.779642105102539,2.2552919885746476,2.3182393361351252,-0.008879407205576534
5.787612438201904,2.258418368042435,2.3183180303123367,-0.00852299457200751
5.795068740844727,2.261349348793485,2.3183964622352145,-0.008089308251992087
5.804044246673584,2.265061924411482,2.3184744670948176,-0.007616068506766582
5.8139965534210205,2.268969898746215,2.318552012976433,-0.00712861528809844
5.825167655944824,2.273268670514421,2.3186292193673235,-0.006643658059161462
5.833060264587402,2.276590448698945,2.3187062279999613,-0.006171922515616082
5.841031789779663,2.2799122268834684,2.318783023078028,-0.005720011037889657
5.851096868515015,2.2838202012182016,2.3188594442141928,-0.005291705957623657
5.859056711196899,2.2865557832525156,2.318935491886129,-0.2809272393097221
5.8691933155059814,2.2902683588705117,2.3190112979672217,-0.5897134504285897
5.877567291259766,2.2930039409048253,2.319086986370976,-0.8434282382705958
5.8860695362091064,2.295934921655875,2.319162535233001,-1.2971214389468306
5.894003868103027,2.298475104973452,2.319237646039301,-1.4374021634811607
5.902149438858032,2.301210687007765,2.3193120643062057,-1.708900266753251
5.912538051605225,2.3047278639090254,2.319385982227932,-2.5026356425134524
5.922757387161255,2.3070726485098656,2.319459825937898,-2.731613351552914
5.930302143096924,2.309222034393969,2.319533691910235,-2.978492326650861
5.939234256744385,2.311371420278072,2.319607395822304,-3.4245249559097966
5.9479920864105225,2.3137162048789124,2.319680775408329,-3.808844562778543
5.955977201461792,2.3156701920462788,2.3197537053718835,-4.054565716379287
5.965017318725586,2.3176241792136456,2.3198262160733556,-4.436354719925622
5.9750075340271,2.3195781663810124,2.319898574893886,-4.736181403841599
5.983089208602905,2.3209459573981692,2.319970874013492,-5.0
5.993386745452881,2.322313748415326,2.320042945843592,-5.0
6.001080751419067,2.323486140715746,2.320114778239504,-5.0
6.011113166809082,2.3244631342994295,2.320186472132865,-5.0
6.019019842147827,2.325244729166376,2.320258103088127,-5.0
6.027859210968018,2.3260263240333225,2.3203296022406295,-5.0
6.036163806915283,2.326417121466796,2.3204007817984227,-5.0
6.047152519226074,2.3266125201835326,2.320471604461985,-5.0
6.055600166320801,2.3268079189002693,2.320542143691073,-4.664745460758411
6.064366340637207,2.327003317617006,2.3206123417354587,-4.334684484943507
6.0724968910217285,2.3268079189002693,2.3206821580394865,-4.0169912081375045
6.082168102264404,2.3268079189002693,2.3207516620869626,-3.7154381585078027
6.090008974075317,2.3266125201835326,2.3208207746073555,-2.8797153641991606
6.099515438079834,2.3266125201835326,2.3208893147279013,-2.2722590183307503
6.108012437820435,2.3266125201835326,2.3209571353651897,-1.5504157066764908
6.117971420288086,2.3266125201835326,2.3210240982950006,-0.6342466730947081
6.127743244171143,2.3266125201835326,2.3210902822818986,0.7301108060017487
6.137300252914429,2.3266125201835326,2.321155957059244,1.970795713853529
6.147945165634155,2.3266125201835326,2.3212212523108926,2.9122783727064645
6.157013654708862,2.3266125201835326,2.3212861729756455,3.819627221405923
6.1676177978515625,2.326417121466796,2.321350709551098,4.497753175326193
6.1769936084747314,2.3266125201835326,2.3214148412179485,4.919252387778795
6.186272382736206,2.326417121466796,2.3214785401729436,5.0
6.1949543952941895,2.326417121466796,2.321541776927773,5.0
6.203313589096069,2.326417121466796,2.321604426749734,4.980678004350661
6.211957931518555,2.326417121466796,2.321666214941834,4.842064849476969
6.2209694385528564,2.326417121466796,2.3217269250025825,4.633271662565314
6.229794263839722,2.3262217227500592,2.321786539155043,4.385951950899859
6.23817777633667,2.3262217227500592,2.3218451283723636,4.396624379747994
6.2461488246917725,2.3262217227500592,2.3219026810143713,4.159544664124712
6.25498104095459,2.3262217227500592,2.3219590933379655,3.8378193679805506
6.263006925582886,2.3262217227500592,2.322014350296135,3.503912168760304
6.270974397659302,2.3260263240333225,2.3220684641693756,3.1874778185762733
6.280564069747925,2.3262217227500592,2.3221213860249037,2.8985425184939517
6.291041374206543,2.3260263240333225,2.3221732204169676,2.3625387496594237
6.300059080123901,2.3260263240333225,2.3222241223545503,2.096507544648009
6.308611869812012,2.3260263240333225,2.3222740828875352,1.9427953436040237
6.318044900894165,2.3260263240333225,2.322323109731208,1.8311416359126644
6.327359199523926,2.3260263240333225,2.322371274011073,1.7322712679112562
6.3373565673828125,2.325830925316586,2.3224186161623757,1.6355152499953438
6.344985246658325,2.325830925316586,2.3224651022706113,1.538197513211042
6.353947162628174,2.325830925316586,2.3225105865699454,1.4407309027816018
6.363037347793579,2.325830925316586,2.3225549525948654,1.3444462401866397
6.3710668087005615,2.3256355265998496,2.3225982290762888,1.2507028958051865
6.378973960876465,2.3256355265998496,2.322640438981917,1.1605806565712982
6.386961221694946,2.3256355265998496,2.322681533703993,1.0748206707705048
6.39492392539978,2.3256355265998496,2.322721481951277,0.9938618798280752
6.403986215591431,2.3256355265998496,2.3227602690258045,0.9179049013511629
6.414066553115845,2.3254401278831125,2.322797940780616,0.8469754735825465
6.422942638397217,2.3254401278831125,2.3228345875022924,0.7809778027350479
6.433921575546265,2.3254401278831125,2.322876959324516,0.719735981444353
6.442901611328125,2.325244729166376,2.3229376280054987,0.6630246579788504
6.451931953430176,2.325244729166376,2.323017642524682,0.6105910103757572
6.460934162139893,2.325244729166376,2.32310874270249,0.5621700753204395
6.468955039978027,2.325244729166376,2.32320823262005,0.5174951704621699
6.477456092834473,2.325244729166376,2.3233169042583497,0.4763047772048754
6.485798358917236,2.325244729166376,2.3234341123593967,0.4383469140755219
6.495906352996826,2.325049330449639,2.323558437801729,0.4033817566730369
6.504941701889038,2.325049330449639,2.323688601437263,0.3711830493409987
6.514514446258545,2.325049330449639,2.3238234312592256,0.3415386967326399
6.521920442581177,2.325049330449639,2.323961502000613,0.31425080898010266
6.530910491943359,2.325049330449639,2.324101232068844,0.28913539187636045
6.539895296096802,2.325049330449639,2.3242411930089357,0.2660218148687248
6.547931671142578,2.3248539317329024,2.3243801035986578,0.24475214822506186
6.558102369308472,2.3248539317329024,2.3245167102149544,0.2251804316021932
6.566226959228516,2.3248539317329024,2.324649819661691,0.2071719158651391
6.573911666870117,2.3248539317329024,2.3247783315524884,0.19060230581297583
6.582692861557007,2.3248539317329024,2.324901277619252,0.17535702163150263
6.591950178146362,2.3248539317329024,2.3250178555581678,0.16133049011529374
6.600907802581787,2.3246585330161658,2.3251274122614403,0.14842547206399598
6.612128019332886,2.3246585330161658,2.3252293350473976,0.13655242911337817
6.621954679489136,2.3246585330161658,2.3253229776874584,0.12562893115643609
6.6323792934417725,2.3244631342994295,2.325407784372193,0.11557910412539943
6.640929698944092,2.3244631342994295,2.3254835091927624,0.10633311701889667
6.650371551513672,2.3244631342994295,2.3255500935055133,0.09782670651410254
6.658140420913696,2.3244631342994295,2.325607498800716,0.09000073719279998
6.667471170425415,2.3244631342994295,2.325655837674391,0.08280079525731596
6.6749560832977295,2.3242677355826924,2.325695459462262,0.07617681356471952
6.687233924865723,2.3242677355826924,2.325726733123884,0.07008272582914957
6.697066783905029,2.3242677355826924,2.3257497282603774,0.06447614790755041
6.706698417663574,2.3242677355826924,2.325764431063712,0.0593180841762635
6.715899705886841,2.3240723368659557,2.325771079353747,0.05457265711308621
6.723971366882324,2.3240723368659557,2.325770041126786,0.050206858313686875
6.73289680480957,2.323876938149219,2.325761516356485,0.04619031928734571
6.7414374351501465,2.323876938149219,2.3257455333133805,0.04249510049148586
6.751897573471069,2.323876938149219,2.3257221075103964,0.039095497175156674
6.761301755905151,2.323876938149219,2.3256912674075116,0.03596786070723755
6.770400524139404,2.323876938149219,2.325653063626784,0.03309043416492321
6.779640436172485,2.3236815394324823,2.3256075617871805,0.030443201051715225
6.7889063358306885,2.3236815394324823,2.3255548524661096,0.0280077461015675
6.797106027603149,2.3236815394324823,2.3254950623885966,0.02576712720723496
6.804917097091675,2.3236815394324823,2.325428559545379,0.02370575758631143
6.814418792724609,2.3236815394324823,2.3253559165903392,0.02180929736836537
6.822125673294067,2.323486140715746,2.325277433254257,0.020064553851166622
6.834038019180298,2.323486140715746,2.3251931776774772,0.018459389733662984
6.843868017196655,2.323486140715746,2.325103241334958,0.016982638688382762
6.853562831878662,2.323486140715746,2.3250077203508925,0.015624027686701153
6.861880540847778,2.323486140715746,2.3249069861022837,0.014374105537137336
6.874886512756348,2.323290741999009,2.3248016680350174,0.013224177139926555
6.886232376098633,2.323290741999009,2.3246918590134777,0.012166243000765003
6.89584755897522,2.3230953432822723,2.3245774347613644,0.0111929435831268
6.905710697174072,2.3228999445655356,2.324458594741867,0.010297508112172518
6.918241262435913,2.3228999445655356,2.3243350938266096,-0.26656465220449543
6.9258527755737305,2.322704545848799,2.3242068167609076,-0.3004471519561811
6.936305522918701,2.3225091471320622,2.3240744877409676,-0.5220855199083287
6.945086717605591,2.322313748415326,2.323938800239953,-0.4797666015925366
6.952857732772827,2.3221183496985893,2.3238001726302517,-0.6307751920380388
6.9644410610198975,2.321727552265116,2.3236590330846423,-0.807774305815575
6.9749367237091064,2.3215321535483793,2.3235158240989766,-0.6737808851398266
6.9828362464904785,2.321336754831642,2.323371195306228,-0.7330596073555169
6.991844892501831,2.321141356114906,2.3232259615440305,-0.8345122870730025
7.002371311187744,2.3209459573981692,2.3230804660716795,-0.6442164648361871
7.010835886001587,2.3207505586814325,2.3229348396329756,-0.38840323361704865
7.019071817398071,2.320359761247959,2.3227896237988537,-0.1554370718338324
7.028630018234253,2.320164362531223,2.322645332226445,-0.24826435196447116
7.036865949630737,2.319968963814486,2.3225024305542896,-0.14934240526429193
7.044869661331177,2.3195781663810124,2.322361667487168,-0.00568026853445508
7.053889513015747,2.3193827676642758,2.322223671623775,0.125160566628678
7.062833070755005,2.3193827676642758,2.322088644501792,0.2255112572067925
7.0718536376953125,2.318991970230803,2.3219566007266303,0.2942713549322081
7.079831838607788,2.3187965715140657,2.3218277163032357,0.3362636069320388
7.088830471038818,2.318601172797329,2.321702394100436,0.35762292144507923
7.099310874938965,2.3182103753638557,2.321582472169584,0.36398868527255596
7.107945442199707,2.318014976647119,2.321470440223108,0.3599491664287875
7.115811586380005,2.317819577930382,2.3213664938783483,0.3490072651480479
7.124866724014282,2.3176241792136456,2.3212700158725754,0.33373367078417127
7.132846117019653,2.3172333817801722,2.3211811874125083,0.039924090448570065
7.140833139419556,2.3170379830634356,2.32110002712087,-0.012190986512869234
7.150389909744263,2.316842584346699,2.3210263270942946,0.023567723073001604
7.159345865249634,2.3166471856299626,2.3209598079276486,0.08054482442891556
7.169847726821899,2.316256388196489,2.3209000561558946,0.13256206078401478
7.179039239883423,2.316060989479752,2.320845130332276,0.17150820097197328
7.188724994659424,2.3156701920462788,2.320792515413896,0.19678758314673547
7.198313236236572,2.3154747933295425,2.3207419440634793,0.21050173563028735
7.208359956741333,2.315279394612806,2.3206935289588544,0.2153601743538267
7.215803623199463,2.3148885971793325,2.320646458754017,0.213859647796924
7.225114583969116,2.314693198462596,2.320600070839126,0.20803031869196625
7.23356032371521,2.314497799745859,2.3205535211596704,0.19941832387217387
7.245619058609009,2.313911603595649,2.3205053699096383,0.1891535698215021
7.253829479217529,2.3137162048789124,2.3204544233596356,0.17803708773025262
7.262846946716309,2.313325407445439,2.3204003159257733,0.1666220357545139
7.2707743644714355,2.3131300087287023,2.3203422118760666,0.1552802397223083
7.280156373977661,2.312739211295229,2.3202785651984863,0.1442536104733687
7.288049936294556,2.312739211295229,2.320207834547916,0.1336924811602544
7.295799016952515,2.312348413861755,2.3201289958923113,0.12368354762204915
7.30380916595459,2.312153015145019,2.320041540788791,0.11426991592416356
7.314805269241333,2.3119576164282822,2.319944505384487,0.10546532245036186
7.323796033859253,2.3117622177115456,2.3198365176787314,0.09726412817533837
7.3322436809539795,2.311371420278072,2.3197169230053216,0.08964828581646897
7.3407933712005615,2.311176021561336,2.3195857458773346,0.08259215739298799
7.3498451709747314,2.3109806228445993,2.319442486847958,0.07606581536845106
7.358795881271362,2.310785224127862,2.3192861982739896,0.07003727976461123
7.36837100982666,2.3105898254111255,2.3191161641838995,0.34051237191446926
7.3757688999176025,2.3103944266943888,2.3189325223932578,0.36850685655089044
7.3837761878967285,2.310003629260916,2.3187361255284706,0.30868155120845886
7.391779899597168,2.310003629260916,2.318527837451445,0.2282409028933974
7.401826858520508,2.3096128318274425,2.3183085465873794,0.15370694648628697
7.413772821426392,2.309417433110706,2.3180779468535198,0.09339191323305558
7.422307729721069,2.309026635677232,2.31783472522991,0.047994526594686136
7.430211544036865,2.309026635677232,2.3175791502292493,0.015450191308459135
7.43980073928833,2.3084404395270224,2.3173128397445226,-0.006957440033697759
7.448415994644165,2.3082450408102857,2.3170367311699183,-0.29779847314912916
7.455858945846558,2.3080496420935486,2.3167517518584217,-0.34020332398715103
7.464792013168335,2.307854243376812,2.3164593939427243,-0.2904723625847813
7.474822282791138,2.3076588446600756,2.316160411007717,-0.2170368839564371
7.483771562576294,2.3072680472266023,2.3158549184657655,-0.14731684911323562
7.49178409576416,2.3070726485098656,2.31554308434434,-0.09027219159969743
7.4998509883880615,2.3068772497931285,2.3152256965508164,-0.04706422421469214
7.510828733444214,2.306681851076392,2.3149040353643047,-0.015956414163647112
7.518769979476929,2.306291053642919,2.3145785832569374,0.005536138286128233
7.526774883270264,2.306095654926182,2.3142497687689145,0.01978255916340609
7.534749984741211,2.3059002562094455,2.3139185568823963,0.0287515149976905
7.545034646987915,2.3057048574927084,2.3135844326269526,0.033972007299652
7.553767919540405,2.305509458775972,2.3132469580967814,0.03658593671922969
7.563803672790527,2.3053140600592354,2.312907712800462,0.3134632347390128
7.573023557662964,2.3051186613424988,2.312566623056365,0.34624673232875247
7.58076548576355,2.3047278639090254,2.3122229393060882,0.290048200850027
7.5908942222595215,2.3045324651922887,2.311878074269322,-0.06364376109666509
7.602724075317383,2.304141667758816,2.3115318287481026,-0.16912505007233578
7.6153564453125,2.303946269042079,2.3111812917641172,-0.1726115568450946
7.623501777648926,2.303750870325342,2.3108240765588124,-0.14052196877954304
7.630758047103882,2.3033600728918686,2.3104603422560874,-0.10138763628316183
7.640760898590088,2.3031646741751324,2.3100917371058727,-0.06620376761896236
7.649768590927124,2.3029692754583957,2.309719109593526,-0.03818243814350116
7.657752990722656,2.302773876741659,2.309343277216988,0.25870505004924904
7.666728734970093,2.302383079308185,2.308965714836083,0.3066159983130803
7.678408622741699,2.302187680591449,2.3085865060589765,0.26157402856990986
7.686943531036377,2.3019922818747123,2.3082051761637397,0.19202030513684856
7.694785833358765,2.301601484441239,2.3078232908047105,0.12548476080628157
7.704738140106201,2.301601484441239,2.3074428575631893,0.07105700643985291
7.7127461433410645,2.301406085724502,2.3070643523311696,0.03001654969421922
7.720963954925537,2.301015288291029,2.3066881556568886,-0.2753140687108589
7.730750560760498,2.300819889574292,2.3063151539932454,-0.3283911731701053
7.738757848739624,2.3006244908575555,2.3059453876720073,-0.28621730221349373
7.747735977172852,2.3002336934240817,2.305578075200429,-0.2179510450281685
7.755714654922485,2.300038294707345,2.3052121749159933,-0.15163821580207662
7.763768672943115,2.2998428959906088,2.304846245603204,-0.09673416934218444
7.7749927043914795,2.2994520985571354,2.304478350787933,-0.05477470972828701
7.783536195755005,2.2992566998403987,2.304105935575153,-0.024298407888696007
7.7917258739471436,2.299061301123662,2.303727050872943,-0.0030185993072939614
7.803188323974609,2.298670503690189,2.3033388427704247,0.011292998006195059
7.811750888824463,2.298475104973452,2.3029366574371064,0.020506111825780503
7.820721864700317,2.2980843075399786,2.3025170408128686,0.02608094899269258
7.828746557235718,2.297888908823242,2.3020756284267123,0.029112070627824466
7.839167594909668,2.297498111389769,2.3016057642019208,0.030398857903509824
7.847168684005737,2.297498111389769,2.3011004159664834,0.03051469363823497
7.855754852294922,2.2973027126730323,2.300555034824288,0.029865297863511685
7.864731311798096,2.2969119152395585,2.299967415320526,0.028734499165577715
7.873201370239258,2.296716516522822,2.299332222135957,0.027318726488997934
7.880747556686401,2.2965211178060856,2.29864460849112,0.02575236428196992
7.889451503753662,2.296325719089349,2.297902886721677,0.024126092694094263
7.897709369659424,2.296130320372612,2.297101905449838,0.022500008774947698
7.908386707305908,2.2957395229391384,2.2962335629331445,0.02091294112447329
7.916195392608643,2.2953487255056655,2.2952942796431763,0.019389024272608614
7.926112413406372,2.295153326788929,2.294284610684649,0.017942317888480927
7.934809446334839,2.2949579280721917,2.2932012804902375,0.016580039673282455
7.942989826202393,2.2945671306387183,2.2920378566868025,0.015304819713290833
7.952742576599121,2.2943717319219816,2.290788980647694,-0.26192209321137233
7.9621741771698,2.2939809344885087,2.289450132959325,-0.2961509130177489
7.970231056213379,2.293785535771772,2.288022155137018,-0.24207706012061955
7.978699207305908,2.2935901370550353,2.286510741716916,0.1090995057367246
7.987986326217651,2.2933947383382987,2.2849168806038795,0.21187204390683212
7.997695446014404,2.2930039409048253,2.2832375551817043,0.2125892383824489
8.005722761154175,2.2928085421880886,2.281475543679548,0.17775727437748184
8.014803409576416,2.2924177447546152,2.279638608402857,0.13596346721017907
8.023196697235107,2.2922223460378786,2.277729376362651,0.09823720829987104
8.031710624694824,2.2918315486044056,2.2757460793689237,-0.20822851705700524
8.041443586349487,2.291049953737459,2.2736879299089328,-0.5405011205871851
8.050692558288574,2.290072960153775,2.271559815135706,-1.0875040904500708
8.05869197845459,2.289486764003565,2.2693714101529463,-1.5866696249127354
8.066692113876343,2.288509770419882,2.267131608971071,-1.956550018129676
8.075459003448486,2.287337378119462,2.2648485290837534,-2.7431214402940736
8.08434247970581,2.286164985819042,2.2625246886943184,-3.20546298660611
8.091831684112549,2.2849925935186217,2.260162675073053,-3.7131304229338014
8.099673986434937,2.2838202012182016,2.2577747475330936,-4.094378417869076
8.11026120185852,2.2816708153340985,2.2553665698014695,-4.589388052302542
8.121098041534424,2.2791306320165217,2.2529283183795243,-5.0
8.130740404129028,2.277176644849155,2.250451703484569,-5.0
8.13967514038086,2.2750272589650518,2.2479398065234246,-5.0
8.14855146408081,2.272487075647475,2.2454008976635835,-5.0
8.156832456588745,2.270337689763372,2.2428374752608655,-4.772666890648378
8.164830684661865,2.2681883038792683,2.2402515202097097,-4.2803722357021945
8.173108100891113,2.265843519278428,2.2376496362595955,-4.0209698403646215
8.180683374404907,2.263303335960851,2.2350375570519248,-3.5615552099720684
8.188649415969849,2.2607631526432748,2.2324202138706863,-3.3583251168254007
8.197229862213135,2.258027570608961,2.229796678617212,-2.959861901289207
8.205702304840088,2.2550965898579114,2.2271661779430256,-2.814761648158698
8.213655471801758,2.252361007823598,2.224533174752629,-2.468997817560995
8.224147081375122,2.248257634772128,2.2218911280125613,-2.3707258287004
8.232683897018433,2.2453266540210777,2.2192294030235815,-2.066330821139543
8.24517035484314,2.240441686102661,2.2165442657790773,-2.2806800024974723
8.253654718399048,2.237119907918138,2.2138327461039253,-2.3179319485205747
8.262682914733887,2.2337981297336142,2.2110925813947526,-1.711188812281875
8.270668268203735,2.2304763515490906,2.2083221452072572,-0.9918261896928475
8.279340744018555,2.2263729784976207,2.2055255813241175,-0.6370154361933064
8.289780139923096,2.2218788080126775,2.202706638955729,-0.18332188279248968
8.298235177993774,2.218361631111417,2.199868705923298,0.21821001962389738
8.30769681930542,2.2146490554934206,2.1970200139867653,0.8000746484073665
8.315635681152344,2.2113272773088974,2.1941570907189134,1.5958895995099804
8.325692892074585,2.2070285055406904,2.191266499894891,2.0142026788170284
8.334046125411987,2.2033159299226934,2.188347409859872,2.759386957549184
8.341702461242676,2.200775746605117,2.185409633248858,3.159087746367807
8.349875926971436,2.19706317098712,2.182461761878827,3.6097290082809934
8.357669115066528,2.1939367915193335,2.1795170650709133,3.9478345146677754
8.369007587432861,2.18885642488418,2.176581241398861,3.8620510877068552
8.37841248512268,2.1849484505494465,2.1736421976928657,3.8857680219567436
8.38565444946289,2.1820174697983967,2.1706949410216483,3.8936086387455804
8.39415717124939,2.1783048941803997,2.1677461562645464,4.124162420135848
8.403928518295288,2.1743969198456665,2.164795839460109,4.057096313343284
8.412643194198608,2.17068434422767,2.1618438179301114,3.582215647407597
8.420711040496826,2.1671671673264097,2.1588952723553554,3.299297791865401
8.432763576507568,2.1618914019745197,2.1559487237178145,3.3683931399992533
8.440677165985107,2.15837422507326,2.1529969985682897,3.2212495462126816
8.450682878494263,2.1544662507385257,2.150027899007843,2.993779301392564
8.460052967071533,2.150949073837266,2.147030854741403,2.747737869838863
8.470019817352295,2.147431896936006,2.1440083222041753,2.785529893392726
8.47764801979065,2.1446963149016924,2.1409621312919267,3.1501478059739663
8.487982749938965,2.140788340566959,2.137887717104052,3.512924477759856
8.495633840560913,2.1380527585326456,2.134787070272152,3.7640256086372856
8.506629228591919,2.134340182914649,2.1316677301818956,4.438366412529041
8.514644622802734,2.1317999995970722,2.1285358606203424,4.515528522084368
8.525420427322388,2.1282828226958124,2.1253900198002738,5.0
8.533633708953857,2.125938038094972,2.1222222935378925,5.0
8.543114185333252,2.1230070573439224,2.119032012090932,4.956832813273221
8.554187536239624,2.1196852791593987,2.1158112894993835,5.0
8.561630725860596,2.1173404945585586,2.1125464156482576,4.474893249015565
8.570639610290527,2.114995709957719,2.1092389421697875,4.079290027049842
8.579465389251709,2.1124555266401424,2.1058901137890267,3.7516000732769754
8.588820934295654,2.1097199446058283,2.102493772692844,3.4630200821997232
8.596622467041016,2.107765957438462,2.099051482576956,2.924269096750017
8.604702711105347,2.1054211728376218,2.0955789877785334,2.3722345091869195
8.613657474517822,2.1034671856702554,2.0920895172958587,1.8923423592700264
8.62240982055664,2.1013177997861514,2.0885793927251126,1.5041514744481728
8.631641864776611,2.0991684139020483,2.085037749982107,1.2011948474096532
8.640025615692139,2.097019028017945,2.081455017212292,0.9688310723458381
8.647629737854004,2.0948696421338417,2.0778306418307917,0.23964462065446385
8.655624866485596,2.0927202562497382,2.074171869981689,-0.23781068285880644
8.66392183303833,2.0901800729321613,2.0704770709012505,-0.8166766804755692
8.672894716262817,2.087639889614585,2.0667370981212865,-1.584450621559438
8.680616617202759,2.085099706297008,2.0629522842359584,-2.5242008238537683
8.689613342285156,2.082364124262695,2.05913106534156,-3.3104844339356463
8.697970151901245,2.0794331435116447,2.055272815946462,-3.8582321022024026
8.705659866333008,2.077088358910805,2.05137731925974,-4.178800355007552
8.714390277862549,2.0735711820095446,2.0474527039986397,-4.867239983098338
8.724658489227295,2.0698586063915476,2.043498069104973,-5.0
8.733611822128296,2.0663414294902878,2.039504918546394,-5.0
8.74203610420227,2.0630196513057646,2.035474558318568,-5.0
8.751999616622925,2.059307075687768,2.031408582581418,-5.0
8.75963044166565,2.056180696219981,2.0272927545193977,-5.0
8.76958703994751,2.0520773231685108,2.023123796635858,-5.0
8.779260396957397,2.047778551400304,2.0189158745710825,-4.901006331919758
8.788644552230835,2.043870577065571,2.014673661194383,-4.7994735552536625
8.796649694442749,2.0409395963145207,2.010401683584241,-4.10674401116906
8.805642127990723,2.037031621979787,2.0061123708361346,-3.3059867932178015
8.814557790756226,2.0333190463617905,2.00181668976708,-2.582916694173537
8.823900938034058,2.0292156733103206,1.9975164461282167,-1.991250165905653
8.834041595458984,2.0249169015421136,1.9931979650320086,-1.2543788661291564
8.841550827026367,2.0215951233575904,1.9888579601099763,-0.3196662708121488
8.852118968963623,2.017100952872647,1.9845020617526903,0.5049918238083584
8.860954284667969,2.0133883772546506,1.9801277273024809,0.8554290696623329
8.870631217956543,2.0092850042031802,1.9757408417279387,1.2523573363439813
8.879547357559204,2.00576782730192,1.9713467021214215,1.5738110530265177
8.888879776000977,2.00166445425045,1.966942329200866,1.7910000258033345
8.896964311599731,1.9981472773491897,1.9625253754958458,1.911857845905251
8.907541990280151,1.9936531068642462,1.9581016151970865,1.6797533951969699
8.915680646896362,1.9901359299629864,1.9536836350432425,1.6339762578586519
8.92400336265564,1.9870095504951997,1.949274388814656,1.6372864564254503
8.932744264602661,1.9834923735939396,1.94486862511223,1.636126401948882
8.941795349121094,1.979584399259206,1.9404618854113633,1.6141138195195917
8.949571371078491,1.9762626210746828,1.9360580859667091,1.2941613882381173
8.960273265838623,1.9721592480232129,1.9316681612674746,1.1995717105895554
8.967828512191772,1.9688374698386895,1.927293670343923,1.1811260178369278
8.975820302963257,1.9651248942206925,1.9229283264110648,1.1765298576297765
8.983896970748901,1.9616077173194326,1.918574472379412,1.163148159050087
8.991577386856079,1.958285939134909,1.9142491723523272,1.1355222619359395
9.000070333480835,1.9545733635169122,1.909966671152637,1.0949323862021658
9.010053634643555,1.950665389182179,1.9057238236755045,1.0447409971078458
9.017617464065552,1.9475390097143923,1.9015104876112827,0.9884573926740754
9.026899337768555,1.9434356366629222,1.897318252852952,0.929044491031326
9.037435531616211,1.9391368648947156,1.8931403178171036,0.8687638731069756
9.045565605163574,1.9358150867101922,1.8889784152267277,0.8092320014683517
9.054548263549805,1.9317117136587219,1.8848484309072635,0.7515414977274307
9.06393814086914,1.9279991380407253,1.8807568273424284,0.6963866121876026
9.073533535003662,1.9238957649892552,1.8766880363897915,0.6441709846149419
9.081592798233032,1.9207693855214683,1.872635995684161,0.5950927155310592
9.090303897857666,1.9172522086202084,1.868609646268055,0.5492084344200745
9.099942445755005,1.9129534368520016,1.8646097557581636,0.5064801296344793
9.10956883430481,1.9088500638005315,1.860630204367374,0.4668086655793187
9.117541313171387,1.905528285616008,1.8566659136491361,0.4300573784228636
9.125588178634644,1.9024019061482214,1.8527192765435245,0.3960684442464002
9.134289264678955,1.8986893305302248,1.8487988978514593,0.3646740638921422
9.141698360443115,1.8953675523457014,1.8449118217351828,0.3357039733691608
9.150537729263306,1.8918503754444413,1.8410636485409575,0.3089903736908338
9.15982985496521,1.8883331985431815,1.8372520921674516,0.28437106351905767
9.168941736221313,1.8846206229251845,1.8334682316229702,0.5377296904174527
9.17654800415039,1.8812988447406611,1.8297107169192701,0.5499679579781154
9.18657660484314,1.8770000729724543,1.8259782072244923,0.47564058349974486
9.194790840148926,1.8734828960711942,1.8222630054446185,0.10581522675509597
9.204529047012329,1.869379523019724,1.8185650573895136,0.2619132741383572
9.212541341781616,1.8658623461184642,1.8148906862777252,0.27851870967969583
9.220810413360596,1.8627359666506773,1.8112450334911643,0.2437102669389546
9.23089337348938,1.858241796165734,1.8076257837528273,-0.08000272336984268
9.238757610321045,1.8551154166979473,1.8040307892356036,-0.158239117477728
9.249648809432983,1.8504258474962672,1.8004581877469508,-0.1406682633187754
9.260736227035522,1.8455408795778505,1.796893657462628,0.18214044133041316
9.268887996673584,1.8422191013933271,1.7933253015348587,0.2636780349794638
9.276694059371948,1.8390927219255402,1.78975599800288,0.24887005167351006
9.285162925720215,1.8355755450242803,1.7861946167858085,0.20286586879602408
9.29453444480896,1.8318629694062836,1.7826424553602862,0.15312291397761815
9.302899599075317,1.8283457925050235,1.7790943587496675,0.10978976104210494
9.310545682907104,1.8250240143205,1.7755521682134554,0.07543638623804551
9.319059610366821,1.82150683741924,1.772023520203798,-0.2264419551083376
9.327997207641602,1.8177942618012435,1.7685082959515444,-0.27835078768570287
9.336217880249023,1.8144724836167199,1.7650060342646967,0.039471808881229836
9.345029354095459,1.8105645092819864,1.7615221451083727,0.13944961089961477
9.354481935501099,1.806656534947253,1.7580541520007105,0.1486122113591521
9.36253309249878,1.8031393580459931,1.7545993328161709,0.1250080762930486
9.370521783828735,1.7998175798614697,1.7511610836133964,0.09383774113474186
9.379493236541748,1.796105004243473,1.7477415388587945,0.0650274003332437
9.388844013214111,1.7921970299087393,1.7443347359444719,0.041670613662953576
9.39861273765564,1.7880936568572692,1.740927858473268,0.02400761352627218
9.406810283660889,1.7847718786727458,1.7375161653515288,0.011245891317040324
9.415530443191528,1.7810593030547492,1.7340945730846782,0.002352157124436768
9.424594163894653,1.7771513287200158,1.7306582624763347,-0.003634501315741017
9.43351674079895,1.7736341518187557,1.7272097688445807,-0.007504002244211691
9.441961765289307,1.7699215762007592,1.723743109672358,-0.009866525250572722
9.450555801391602,1.7665997980162358,1.720245096571417,-0.011176523691762343
9.459569215774536,1.7626918236815023,1.716703977683146,-0.011764591234902873
9.467610359191895,1.759370045496979,1.7131174436384125,-0.011867289100776127
9.475554704666138,1.7558528685957189,1.7094913918601082,-0.011651777866910695
9.483674049377441,1.7527264891279322,1.7058227861382682,-0.011234929102914275
9.491506576538086,1.7494047109434088,1.7021092395483939,-0.010697631770186664
9.50097918510437,1.7454967366086753,1.6983570306467157,-0.010095264910276961
9.508517742156982,1.7423703571408884,1.6945717716582829,-0.009465252187117447
9.518534183502197,1.7378761866559451,1.6907585085041088,-0.008832456887036488
9.5280020236969,1.7335774148877383,1.6869135368973294,-0.008213007221677665
9.537074089050293,1.7300602379864782,1.683025892463616,-0.007616994200390805
9.545612096786499,1.7261522636517448,1.6790869448276475,-0.007050366322114944
9.553465604782104,1.723025884183958,1.6750984087635576,-0.006516255361005566
9.56148648262024,1.719508707282698,1.6710707541152372,-0.006015900865419247
9.570491313934326,1.7157961316647015,1.6670055010774658,-0.005549292495487744
9.57987928390503,1.711888157329968,1.6628967386669995,-0.005115614458381532
9.587859153747559,1.708761777862181,1.658740597906817,-0.0047135514420313055
9.595846891403198,1.7054399996776577,1.654535068600566,-0.0043414978181433635
9.606517553329468,1.700750430475978,1.6502798033221648,-0.00399769943333927
9.615622282028198,1.6970378548579812,1.6459834893991767,-0.0036803485354029043
9.624396562576294,1.6933252792399842,1.6416622889262562,-0.0033876462164343472
9.632496356964111,1.690003501055461,1.63733064841781,-0.0031178424259701806
9.642545700073242,1.685704729287254,1.6330013749253334,-0.002869260572704357
9.654476165771484,1.680428963935364,1.6286712107626635,-0.002640311608441137
9.663129091262817,1.6767163883173675,1.6243235623074594,-0.002429500998375451
9.672780513763428,1.6726130152658973,1.619952899951146,0.2738029287363598
9.681456804275513,1.668509642214427,1.6155699496240399,0.3071061633561894
9.689477682113647,1.6653832627466405,1.6111915931654976,-0.02386505106773218
9.697487592697144,1.662061484562117,1.6068325169637985,-0.13292336705176727
9.706564664840698,1.658544307660857,1.6025054007320312,-0.1482095692965411
9.715907096862793,1.6546363333261238,1.5982144885787979,0.14742010201959907
9.724472761154175,1.6509237577081268,1.593963390437369,0.20918764616921537
9.732742547988892,1.64721118209013,1.5897618670471263,-0.09463285944991306
9.742598056793213,1.6433032077553966,1.5856116898322918,-0.1812728670347876
9.750901937484741,1.64017682828761,1.5815078750779687,0.09669448127154105
9.759129285812378,1.6366596513863498,1.5774462331659755,0.1620529085427464
9.766457557678223,1.6335332719185633,1.5734293426805765,0.14458852715659665
9.775460958480835,1.62962529758383,1.5694653325435597,0.10203837152015797
9.783421754837036,1.6261081206825696,1.5655605791514684,0.05827066568791765
9.792457342147827,1.622395545064573,1.5617197884998764,0.0217275248124699
9.800479173660278,1.6186829694465763,1.557940038689148,-0.005806839678265242
9.80987286567688,1.6147749951118429,1.5542118639121667,-0.02513916684380737
9.81863808631897,1.6112578182105828,1.5505325372147505,-0.3138939855057484
9.828419208526611,1.6071544451591129,1.5469049795550012,-0.35473434337900905
9.83787751197815,1.6034418695411163,1.5433243109684784,-0.027691405083137194
9.847450256347656,1.599338496489646,1.5397788750544121,0.07996573348534083
9.855929613113403,1.5960167183051226,1.536257428552394,-0.18047216026698992
9.865005493164062,1.5923041426871256,1.5327491004513343,-0.23174942901176127
9.874167442321777,1.5883961683523924,1.5292433888785864,-0.20315330229445078
9.881436824798584,1.5852697888846057,1.525730135927991,-0.1518333666871389
9.889614343643188,1.5819480107000823,1.5222067975095228,-0.10112515198236684
9.89945101737976,1.577453840215139,1.5186847993586872,-0.0590349703783075
9.907471418380737,1.5745228594640888,1.5151729994204386,-0.303046869971599
9.917308807373047,1.5702240876958822,1.511663224995455,-0.31314645666931995
9.926988124847412,1.5657299172109387,1.5081399551122225,-0.2422495996621915
9.934443712234497,1.5626035377431517,1.5045968581667326,-0.1558352954174031
9.943441152572632,1.5586955634084183,1.5010356497176633,-0.0789730674236225
9.95250916481018,1.5551783865071585,1.497449102683881,-0.01884275449247111
9.961504459381104,1.5514658108891617,1.493822435210452,0.02470123538561106
9.969731092453003,1.5479486339879014,1.4901425518516274,0.05433465633907204
9.977436065673828,1.544822254520115,1.4863980320542571,0.07320650824159863
9.987542629241943,1.5407188814686448,1.4825877876455236,0.0841490049492951
9.996927261352539,1.5366155084171749,1.478710987735466,0.08944938685045567
10.006752014160156,1.5325121353657045,1.474749826038265,0.09085254258050905
10.015410423278809,1.5286041610309713,1.4706986311935926,0.08964396138380293
10.02606201171875,1.5245007879795012,1.4665620528697911,0.08674830378740887
10.033404111862183,1.5215698072284511,1.4623449519232452,0.08281860288813125
10.043631553649902,1.5170756367435079,1.458061175208522,0.07830875998161024
10.051997184753418,1.5131676624087744,1.4537054085377665,0.07352927638119329
10.06172490119934,1.5088688906405676,1.449265222132467,0.06868871904482671
10.069390773773193,1.505742511172781,1.444749004416074,0.06392393723090267
10.07881760597229,1.5024207329882575,1.4401737830971812,0.05932177643299334
10.086674928665161,1.4990989548037343,1.43555480687208,0.054934528836747445
10.094413995742798,1.495777176619211,1.4309144565723995,0.0507908459885764
10.104883670806885,1.4916738035677406,1.4262632533598147,0.04690340057868492
10.112436771392822,1.4883520253832172,1.421592737469614,0.04327423744479468
10.120939016342163,1.4852256459154307,1.41690497858337,0.0398984913499084
10.12839937210083,1.4819038677309073,1.4122109071481388,0.03676695540337098
10.137824773788452,1.477800494679437,1.4075200115299984,0.033867843489603505
10.145473718643188,1.4744787164949138,1.4028318309989811,0.031187989256128534
10.154755592346191,1.4703753434434434,1.3981375572271448,0.02871365242905442
10.162505626678467,1.46705356525892,1.3934387162848245,0.026431052374760202
10.172475337982178,1.46295019220745,1.38873703118249,0.024326712943156505
10.180790185928345,1.45943301530619,1.384025756283709,0.022387677368739325
10.188692331314087,1.4561112371216667,1.37930811421704,0.020601634267080584
10.196692705154419,1.4527894589371433,1.374595669538957,0.018956983319733618
10.206448554992676,1.4486860858856732,1.369898315888195,0.01744286052625746
10.215369462966919,1.4449735102676766,1.3652160843494137,0.2920874964813596
10.223461866378784,1.4414563333664165,1.3605489666890678,0.32392936228568503
10.231353998184204,1.4383299538986296,1.3559052714842044,0.26765162925114705
10.240446329116821,1.4346173782806328,1.3512836031106035,0.1904803351161168
10.248828649520874,1.4312956000961095,1.3466743780962185,0.11895809617090033
10.257364511489868,1.427583024478113,1.3420695128650766,0.061416581242410964
10.265362739562988,1.4242612462935895,1.3374786713875513,0.018572748308785067
10.27503252029419,1.4199624745253827,1.3329181525440037,-0.011620975744827872
10.28339409828186,1.416249898907386,1.3283850130716528,-0.031865105459932305
10.292458057403564,1.4129281207228626,1.3238764950381146,-0.044676699886644654
10.30040168762207,1.4096063425383392,1.3193982392968027,-0.05212469461078301
10.309382915496826,1.405698368203606,1.31495472667451,-0.055804994897720187
10.318806409835815,1.4017903938688723,1.3105332380297219,-0.05690318058264456
10.327495813369751,1.3982732169676122,1.306114801491441,-0.0562784319186234
10.337631225585938,1.394169843916142,1.301691771250902,-0.05454225945730902
10.347375631332397,1.3900664708646722,1.297250113174022,-0.052123574187464924
10.35534381866455,1.386549293963412,1.292786457968188,-0.049319187104341654
10.364644050598145,1.3826413196286786,1.2883145204548165,-0.04633160733780389
10.374680042266846,1.3785379465772085,1.2838384418905218,0.23274165928384796
10.38356637954712,1.374629972242475,1.2793543094027833,0.2688593368246668
10.391576051712036,1.3713081940579517,1.27485942533448,0.21665664390679568
10.401050806045532,1.367009422289745,1.270359767559188,0.14333342362869045
10.410821437835693,1.3631014479550119,1.2658685258327769,0.0754208043099655
10.418472051620483,1.3595842710537516,1.2613970499834346,0.021248746518902697
10.427464723587036,1.3554808980022812,1.256954964104407,-0.01846114443808146
10.4355309009552,1.3523545185344947,1.2525503043939403,-0.04574780465945814
10.445732593536377,1.3484465441997613,1.2481822857992977,-0.06330074548598083
10.45365309715271,1.3453201647319744,1.2438353615939712,-0.07362476096446952
10.461359739303589,1.3421937852641879,1.239503784278403,-0.078776002408468
10.470442533493042,1.337895013495981,1.235197480445198,-0.08033756271007601
10.478702783584595,1.3345732353114577,1.2309174314997424,-0.07948249847393449
10.48659896850586,1.3312514571269343,1.2266570949551272,-0.077057953359914
10.494354963302612,1.3283204763758845,1.2224252987174888,-0.07366400353454139
10.503417253494263,1.3242171033244143,1.2182436511541148,-0.06971878781649973
10.511372089385986,1.3206999264231545,1.2141154794099354,-0.0655090300136519
10.520193338394165,1.317182749521894,1.210028635893823,-0.0612278352818737
10.530404090881348,1.3126885790369507,1.2059724620778625,-0.05700233083462533
10.541528224945068,1.307803611118534,1.2019376982728343,-0.052913576533970566
10.551347494125366,1.303700238067064,1.1979163818737797,-0.04901075617918574
10.561527967453003,1.2995968650155938,1.193894696774659,-0.045321213348313155
10.569369554519653,1.296470485547807,1.1898611267610082,-0.041857504457743125
10.5773344039917,1.2931487073632837,1.1858344444944453,-0.03862232873167587
10.585326433181763,1.2898269291787603,1.1818446428067226,-0.035611956127861125
10.594325065612793,1.2861143535607635,1.1778955871868202,-0.032818597450498886
10.603305339813232,1.2824017779427668,1.1739761100167707,-0.03023203223672386
10.612329721450806,1.2784938036080336,1.1700766105181155,-0.02784071752208044
10.622498989105225,1.27399963312309,1.1661889720218857,-0.0256325346536447
10.63184666633606,1.26989626007162,1.162306472396509,-0.02359528456886688
10.640885353088379,1.2659882857368865,1.1584237025904607,-0.021717008941698285
10.64835500717163,1.262666507552363,1.1545432296529643,-0.019986191351701564
10.659472942352295,1.2583677357841563,1.15066760272039,-0.018391876295579784
10.667315006256104,1.2550459575996329,1.1467924954712168,-0.01692373240050856
10.675551176071167,1.2515287806983728,1.1429213239616882,-0.015572078170529732
10.683327674865723,1.2482070025138494,1.1390574340489734,-0.014327882978363606
10.692317247390747,1.2444944268958527,1.1352038198670351,-0.013182752087154364
10.701625108718872,1.240781851277856,1.1313698087136799,-0.012128901745113826
10.7109956741333,1.2368738769431225,1.1275569481997303,-0.011159128483911979
10.718317985534668,1.2339428961920726,1.1237664877169047,-0.010266775420661508
10.727183818817139,1.230034921857339,1.1200059058665741,-0.009445697438047764
10.736485481262207,1.225931548805869,1.1162751568845928,-0.008690226478895714
10.74494194984436,1.222414371904609,1.1125678403758317,-0.007995137745743838
10.75394058227539,1.2185063975698756,1.1088786429941435,-0.007355617295677307
10.762394905090332,1.2149892206686155,1.1052093482910892,-0.006767231310798715
10.770310163497925,1.2118628412008288,1.101567667211007,-0.006225897185137961
10.778661727905273,1.2083456642995687,1.0979539944670984,-0.005727856475682668
10.787550210952759,1.2046330886815722,1.094362626537276,-0.005269649703400456
10.79529881477356,1.2015067092137852,1.0907948377123575,-0.00484809294921077
10.805058717727661,1.1970125387288422,1.087257759506021,-0.004460256168729077
10.814337253570557,1.1932999631108452,1.0837516151792088,-0.004103443134068112
10.823798418045044,1.1893919887761117,1.080270905939063,-0.0037751729044782343
10.83273983001709,1.1856794131581152,1.0768113664922534,-0.00347316272690957
10.841296672821045,1.182162236256855,1.0733753375982504,-0.003195312267100206
10.850399255752563,1.1782542619221215,1.0699706485091809,-0.2789780487553376
10.8586106300354,1.1749324837375983,1.0665986819374562,-0.3118674780442639
10.866389274597168,1.172001502986548,1.0632554782139687,-0.25655386111362144
10.875694751739502,1.1680935286518146,1.0599432760418717,-0.18026980418368652
10.885309219360352,1.163794756883608,1.0566694499201577,-0.10956399874042941
10.893389225006104,1.1600821812656115,1.0534353392509537,-0.3288120850039628
10.901360273361206,1.1567604030810879,1.0502420355269522,-0.3197840833081941
10.909942150115967,1.1532432261798278,1.0470954690125702,0.04090926706648221
10.919228553771973,1.1493352518450946,1.0439958417492878,0.16977785226120712
10.929953813552856,1.144841081360151,1.0409340025037843,0.1974764976538122
10.937346458435059,1.1419101006091008,1.0379069006602246,0.18496596183376063
10.946316957473755,1.137806727557631,1.0349256309005928,0.15966547992700156
10.954813241958618,1.1344849493731075,1.0319948310103153,0.13313774118351962
10.96443247795105,1.1303815763216374,1.0291090427312806,0.10965744320557899
10.973177671432495,1.1268643994203773,1.0262633401662338,0.0903037884516043
10.982591390609741,1.1229564250856439,1.023453181505484,0.07487246175747599
10.99130129814148,1.1194392481843838,1.0206787165558941,0.06273760722944285
10.99998927116394,1.115726672566387,1.0179483994916558,0.05321698781253534
11.008895874023438,1.1120140969483903,1.0152687491469339,0.045708465936778984
11.01760458946228,1.1081061226136568,1.01263569349843,-0.23631240264416084
11.026240825653076,1.104588945712397,1.010040557420139,-0.27426817332339815
11.034269571304321,1.1012671675278736,1.0074797401230116,-0.22313216796938462
11.043243408203125,1.0975545919098768,1.0049539677439092,-0.150346865734331
11.051233768463135,1.0940374150086165,1.0024585011043539,-0.08261553493937734
11.059912919998169,1.0907156368240933,0.9999838901323547,-0.028389149379911265
11.067504644393921,1.0875892573563064,0.9975212302429707,0.01152630034993838
11.077393531799316,1.0834858843048365,0.9950670545190664,0.31514973736841717
11.08720350265503,1.079577909970103,0.9926225877462215,0.3661785367333794
11.095250368118286,1.0758653343521063,0.9901882891466312,0.321782248453626
11.103346347808838,1.072543556167583,0.9877639356430084,0.2512329897440538
11.112261295318604,1.0688309805495864,0.9853434619265768,0.18265203783395328
11.122027397155762,1.0645322087813796,0.9829157883065072,0.12554343712220434
11.131527662277222,1.0608196331633828,0.9804706764734147,0.08147304638614042
11.141931772232056,1.056520861395176,0.9779987027250543,0.04899665694540559
11.150527238845825,1.0526128870604428,0.9754912606766422,0.02583609003213814
11.159326076507568,1.0490957101591825,0.9729405566326422,0.009765692605913635
11.168227910995483,1.045187735824449,0.970345563616519,-0.0010854830458479538
11.178357362747192,1.041084362772979,0.9677111351703875,-0.008181320115721046
11.187317609786987,1.0375671858717188,0.9650352132876624,-0.012621553277651423
11.196444034576416,1.034050008970459,0.9623098487419535,-0.015211579041182281
11.205263376235962,1.0301420346357255,0.9595344981946795,-0.016531194178760172
11.21432089805603,1.0264294590177288,0.9567150346151289,-0.0169926358885496
11.224255800247192,1.022130687249522,0.9538501329120928,-0.01688616019907522
11.233270406723022,1.0184181116315254,0.9509323707421494,-0.01641441156556916
11.242595911026001,1.014510137296792,0.9479555888786272,-0.015717704345724205
11.253637552261353,1.0098205680951118,0.9449082004640537,-0.014892322380689969
11.264420509338379,1.005521796326905,0.9417742302381945,-0.014003621852503007
11.273633003234863,1.001418423275435,0.9385475754615382,-0.013095342385133001
11.281228065490723,0.9984874425243848,0.9352374242959715,0.2638421721892383
11.290569067001343,0.9941886707561782,0.9318592430699131,0.2978385069539195
11.298782348632812,0.9910622912883915,0.9284202101783372,0.24357441613117736
11.306262969970703,0.9877405131038681,0.9249271507071842,-0.10776060714674793
11.314213752746582,0.9844187349193447,0.9213999853263188,-0.21066732928788895
11.326218128204346,0.979533767000928,0.9178492685949168,-0.21149985330473736
11.336628198623657,0.9752349952327212,0.9142640203743801,-0.17676830772270885
11.344303131103516,0.9721086157649345,0.9106421207249593,-0.13506290569777818
11.355713844299316,0.9674190465632543,0.9069889162851748,-0.09741519341456653
11.36455488204956,0.9637064709452576,0.9032957218434724,0.20898021943763267
11.37394905090332,0.9597984966105241,0.8995555463708222,0.26515114111927984
11.38257908821106,0.9560859209925274,0.8957696269833019,0.22689548783097174
11.393265008926392,0.951591750507584,0.8919462351352053,0.16278030567319482
11.405282974243164,0.9469021813059041,0.8880925183769902,0.10056687616125166
11.414434432983398,0.9431896056879073,0.8842007546730345,0.04957956009472771
11.422746181488037,0.9390862326364372,0.8802645147393677,0.011299687889021668
11.431665420532227,0.9355690557351771,0.8762854307942004,-0.2917891676077316
11.439267873764038,0.9322472775506537,0.8722721841535745,-0.34301980348981975
11.447248220443726,0.9289254993661303,0.8682393651297184,-0.29930203419646784
11.457240581512451,0.9248221263146603,0.8641921745502985,0.04631272948665299
11.468419313430786,0.9201325571129801,0.8601277997105883,0.14687740783090353
11.476321697235107,0.9168107789284567,0.8560510781628021,-0.12837221876201366
11.485208988189697,0.91309820331046,0.8519733402902263,-0.1947577961882074
11.49432373046875,0.9091902289757265,0.8479041016008648,-0.17893879651742756
11.505088806152344,0.9045006597740466,0.8438439940738632,-0.13750826740069125
11.514241933822632,0.9007880841560499,0.8397861513850414,-0.09405252712577851
11.523272037506104,0.8970755085380532,0.8357320346624754,-0.057072629184590454
11.532190322875977,0.8933629329200563,0.8316829368252872,-0.02851926153351899
11.541763305664062,0.8892595598685864,0.8276327674365692,0.26827621432760324
11.54991602897644,0.8859377816840628,0.8235765670413009,0.31579683436805434
11.559582710266113,0.8816390099158562,0.8195104655616384,-0.005805888664562803
11.568248748779297,0.878121833014596,0.8154316241222023,-0.10905378044777615
11.577733039855957,0.8738230612463893,0.8113381684425306,0.1549726879141255
11.585160732269287,0.8703058843451292,0.807236082234342,0.20919843932037355
11.594228029251099,0.8665933087271326,0.8031378934117086,0.18305508582791283
11.607203245162964,0.8613175433752424,0.7990407157782479,0.1338034566916239
11.617191314697266,0.857409569040509,0.7949355879155823,0.084863130853621
11.627182245254517,0.8533061959890389,0.7908292447634324,0.044303349016679955
11.636158227920532,0.8492028229375689,0.786727983106482,0.013616820708942764
11.646718502044678,0.8449040511693621,0.78262434515682,-0.008223481432491369
11.65567946434021,0.841386874268102,0.7785127260458707,-0.022966959564376794
11.664161920547485,0.8378696973668419,0.7744022420703767,-0.03234839600527351
11.674001455307007,0.8337663243153719,0.7703013806706885,-0.037832601345821525
11.683109283447266,0.8298583499806385,0.7662115341706404,-0.040565908041259924
11.69117546081543,0.8265365717961152,0.7621406614823539,-0.04140730620426132
11.699811935424805,0.8230193948948551,0.7581020895731382,-0.040982756494459906
11.707194566726685,0.819502217993595,0.754107212710876,-0.03973944293657135
11.716309547424316,0.8157896423755981,0.7501656615174257,-0.037991843680288795
11.724894046783447,0.8122724654743383,0.7462798093535484,-0.03595800616374017
11.733336448669434,0.8085598898563414,0.7424459785515046,-0.033786932981488646
11.741185188293457,0.8054335103885547,0.7386613534696388,-0.03157873062373402
11.749653577804565,0.8021117322040313,0.7349291460634605,-0.029399186352049245
11.760965585708618,0.7976175617190879,0.7312574764101581,-0.02729019315939453
11.7694571018219,0.7937095873843545,0.7276477530111507,-0.025277143802835862
11.778603076934814,0.7899970117663577,0.7240957325900131,-0.023374142013698813
11.786242008209229,0.786870632298571,0.7206027814137329,-0.02158765617703987
11.795158386230469,0.7831580566805743,0.7171748826696445,-0.019919068911852973
11.803139209747314,0.7796408797793143,0.7138166243116393,-0.29440480741890973
11.813172340393066,0.7757329054445808,0.7105312609782111,-0.3260887311404982
11.82171082496643,0.7722157285433208,0.7073159855295721,-0.2696574602203947
11.830708026885986,0.7683077542085874,0.7041629068667832,-0.192339148577818
11.839775800704956,0.7642043811571174,0.701064873777225,-0.12067761925180734
11.848183155059814,0.7606872042558572,0.698020106688599,-0.33904349265125117
11.858949422836304,0.7558022363374406,0.6950265365435176,-0.32920179219188883
11.870393514633179,0.7515034645692338,0.6920676036110527,0.032241605147546065
11.879173517227173,0.7477908889512369,0.6891289159461387,0.16180124444756472
11.88816499710083,0.7440783133332403,0.6862122866440991,0.190136367258487
11.89615249633789,0.7409519338654537,0.6833237039519588,0.1782118860187164
11.904785871505737,0.7372393582474569,0.6804678924126066,0.15345092107791802
11.912200212478638,0.7339175800629335,0.6776484523176918,0.12741978067123863
11.920500040054321,0.7304004031616733,0.6748679665255873,0.10439652307377642
11.92961311340332,0.7264924288269399,0.6721233921628181,0.08546346440757793
11.93711256980896,0.72356144807589,0.6694116800160493,0.07041916937080989
11.945157289505005,0.7202396698913666,0.6667392519487687,0.05864044224733793
11.954227685928345,0.7165270942733698,0.6641109619229076,0.04944750083841232
11.96551513671875,0.7114467276382163,0.6615159076756661,0.04224047128721885
11.974262714385986,0.7077341520202196,0.6589345843488926,-0.23950300436516792
11.982578992843628,0.7044123738356962,0.6563596126122809,-0.27720355955712683
11.99010705947876,0.7012859943679095,0.6537989410187723,-0.22583274615967044
12.000609636306763,0.6969872225997028,0.6512537814715705,-0.15283141366806618
12.009799480438232,0.6930792482649695,0.6487096014839384,-0.08490133023747437
12.018136501312256,0.6899528687971827,0.6461586944437692,-0.03049208889353463
12.027098178863525,0.6862402931791859,0.643604240911249,0.009591590509890374
12.03548550605774,0.6829185149946625,0.6410433021702018,0.31336980047425333
12.044102191925049,0.6792059393766657,0.6384677130741222,0.364540992101805
12.053204536437988,0.6752979650419323,0.635870099373928,0.04423734583170408
12.064093589782715,0.6704129971235157,0.6332438538708538,-0.059315993921362595
12.07211685180664,0.6670912189389921,0.6305887485546915,0.20334955118278786
12.081509113311768,0.6633786433209955,0.6279100277984344,0.25555256934834714
12.089316129684448,0.6598614664197354,0.6252120501954167,0.22700144955600365
12.098106384277344,0.6561488908017388,0.6225041842146225,0.1751481927071253
12.111458778381348,0.6508731254498485,0.6197823210369178,0.1235419882148408
12.119093656539917,0.6475513472653252,0.6170252579153921,0.08033800957632214
12.129347324371338,0.6432525754971185,0.6142207260468489,0.04708424748912548
12.137477397918701,0.639930797312595,0.6113642195428562,0.02278765895816562
12.149352312088013,0.6352412281109149,0.6084520700858139,0.005718180225728394
12.158549785614014,0.6313332537761815,0.6054751111956219,-0.005849586355206795
12.166118621826172,0.6280114755916582,0.6024322068630553,-0.013377730936644898
12.174977779388428,0.6244942986903982,0.5993351973060439,-0.01801423699257529
12.184406518936157,0.6201955269221914,0.5961880160581734,-0.02062252844871785
12.192101001739502,0.616873748737668,0.5929942676518696,-0.021834689085760303
12.200366973876953,0.6133565718364078,0.5897635366394016,0.25393339086979766
12.210328340530396,0.6094485975016745,0.5864973722474419,0.28740761273544313
12.218268632888794,0.6061268193171511,0.5831971546239102,0.23305421878884522
12.22733759880066,0.6024142436991544,0.5798705824940988,0.15795082677508926
12.236100673675537,0.5988970667978942,0.5765171340783305,0.0885401699450808
12.248274326324463,0.5938167001627408,0.5731362626684366,0.03308811660249319
12.258088111877441,0.5897133271112708,0.5697341715295646,-0.007730433681166632
12.268109560012817,0.585414555343064,0.5663087386432137,-0.0359887062219189
12.277606964111328,0.5815065810083306,0.5628433908038548,-0.054401633071965674
12.287102699279785,0.5775986066735972,0.5593163764023126,-0.06549308291121618
12.295122861862183,0.5742768284890738,0.5557314388914762,-0.0713337246886148
12.303131103515625,0.5707596515878138,0.5521216667882267,-0.07351787963614458
12.311122417449951,0.5674378734032904,0.5485075925028995,-0.0732274418287456
12.320113897323608,0.5635298990685569,0.5448913987900322,-0.07131663903580368
12.328168153762817,0.5600127221672969,0.5412745294374566,0.20764702809900687
12.337725162506104,0.5557139503990901,0.5376499902293915,0.24428849678039719
12.348229885101318,0.5516105773476201,0.5340036883329182,-0.08302948312977255
12.35760235786438,0.5478980017296233,0.5303232729337799,-0.18831727582717522
12.367152452468872,0.5441854261116267,0.5266060799886735,0.07619149935901212
12.376598119735718,0.5402774517768932,0.5228577902558869,0.1325654444473186
12.386045932769775,0.5359786800086865,0.51908323232616,0.10961813934397804
12.39407229423523,0.532656901824163,0.515294682457263,0.06417396197642741
12.407212734222412,0.527381136472273,0.511494024960722,0.019350097895955362
12.418022394180298,0.5226915672705928,0.5076578294053102,-0.01698969230552589
12.429440259933472,0.5180019980689128,0.5037662027937785,-0.0434891742720544
12.43998122215271,0.5135078275839694,0.49981928435051154,-0.0612633053220397
12.45007586479187,0.5090136570990259,0.4958345166834073,-0.07211562881353298
12.461235523223877,0.504324087897346,0.49183544939790247,-0.07781180126200579
12.470625162124634,0.5000253161291391,0.4878335609917173,-0.07983167869436203
12.483250379562378,0.49553114564419576,0.4838299641227264,-0.07932603227491544
12.493187427520752,0.4914277725927257,0.4798340569190373,-0.07715132760770083
12.501541376113892,0.4879105956914656,0.4758535106219194,-0.07392656414013334
12.51311206817627,0.48302562777304886,0.4718859798673209,-0.07008926802800175
12.521125316619873,0.4793130521550521,0.4679379427482422,-0.06594275144934278
12.533072233200073,0.47442808423663535,0.464014536688544,-0.06169319101296846
12.541372299194336,0.4709109073353753,0.46010243197678297,-0.05747754864512869
12.552059412002563,0.4662213381336952,0.4561901578815732,-0.05338406936156496
12.563334465026855,0.4617271676487517,0.45227661964174315,-0.04946707882269315
12.572631359100342,0.4578191933140183,0.44835227645449033,-0.045757540916062156
12.582446098327637,0.453911218979285,0.44440061585673524,-0.042270524468333126
12.59062385559082,0.45000324464455155,0.4404167179296355,-0.039010446761815726
12.60004448890686,0.44609527030981816,0.4364141440830872,-0.0359747327330217
12.611289501190186,0.4417964985416114,0.43240473276553104,-0.033156352681119196
12.6193528175354,0.4386701190738247,0.4283901053601462,-0.030545570147487135
12.628125667572021,0.434957543455828,0.4243718804628199,-0.028131135854391705
12.636268615722656,0.4318311639880412,0.42035167998335615,-0.02590109458016118
12.645039319992065,0.42792318965330783,0.4163395407746641,-0.02384332256514702
12.655187129974365,0.4236244178851011,0.4123524753023554,-0.02194587806369145
12.666118383407593,0.41893484868342096,0.40839629974382724,0.25584113673852915
12.675023317337036,0.4150268743486876,0.4044673213948556,0.2905766070457353
12.68642282485962,0.41053270386374413,0.40056239839292235,-0.03907553829606433
12.694048881530762,0.4074063243959575,0.39667892782324715,-0.14691932212369263
12.704194068908691,0.4031075526277507,0.3928148535805667,0.11495089692754909
12.7131507396698,0.39939497700975396,0.38896863485506766,0.16869591284438054
12.721162557601929,0.3958778001084939,0.38514715140137995,-0.13284965030510165
12.733473539352417,0.39099283219007713,0.38135648976673636,-0.21387256743321761
12.7420973777771,0.38747565528881706,0.3775939343934051,-0.20592636747885634
12.753480195999146,0.3829814848038737,0.3738574971258627,-0.16837077340559975
12.76158094406128,0.37926890918587697,0.370138481818375,-0.12639606801911038
12.770491123199463,0.3759471310013535,0.36643008125985105,-0.08945684999689713
12.781037330627441,0.37164835923314676,0.362741971234349,-0.06008402813033177
12.79016900062561,0.36793578361515006,0.35908287091952185,-0.03800741364291519
12.799041271209717,0.36402780928041667,0.35544639487084245,-0.022018645720472046
12.809103965759277,0.35972903751220986,0.3518210484937743,-0.010763806548538875
12.81749677658081,0.3562118606109498,0.3481984234237231,-0.0030425461983747517
12.825325727462769,0.35347627857663644,0.344572883645117,0.27814873253763556
12.83398962020874,0.3501545003921131,0.3409473263356356,0.5906332294436214
12.844512462615967,0.3464419247741163,0.3373256820983767,1.1227728491135816
12.852035999298096,0.3435109440230663,0.33370621823946345,1.3350232567082763
12.860806703567505,0.34057996327201623,0.3300944237568757,1.6639598411698344
12.872083187103271,0.3360857927870728,0.32649624171159947,1.9480039054408382
12.882063865661621,0.3321778184523394,0.3229119588925623,2.1402481591336624
12.891013622283936,0.32885604026781606,0.3193480891156077,1.6886467683517496
12.899806261062622,0.32572966080002924,0.31581611031253687,1.3713059427560368
12.910658836364746,0.3218216864652959,0.31232100898819454,0.8649977450215336
12.917994499206543,0.31928150314771914,0.30886715217687577,0.38366063808773476
12.928016424179077,0.31537352881298575,0.305463462203481,-0.002785654947762395
12.937984704971313,0.31127015576151573,0.3021127441721395,-0.5612572420506556
12.947035312652588,0.3075575801435189,0.2988126064926118,-0.7862379257104396
12.956012964248657,0.3044312006757322,0.29556117471068316,-1.1276917131362842
12.96500825881958,0.3009140237744722,0.2923570570091894,-1.152202960127648
12.974007844924927,0.29759224558994873,0.2891992584960346,-1.0561751366491547
12.98483395576477,0.2930980751050054,0.2860829064046126,-1.2029432769791113
12.994013547897339,0.29016709435395527,0.28299993258489325,-1.109532091990361
13.002687215805054,0.28723611360290524,0.2799480255883418,-0.6671785446143691
13.011356115341187,0.28410973413511853,0.27692967093568066,-0.18850658801561823
13.019773960113525,0.28176494953427844,0.2739471132634828,0.48921266333393254
13.030029535293579,0.2782477726330184,0.27100232741320496,1.096387933876849
13.040274620056152,0.2751213931652317,0.2680933143079624,1.828366445668932
13.04940390586853,0.2723858111309183,0.2652148147536606,2.439515286554924
13.057994365692139,0.2700410265300783,0.2623663393452411,3.1424028698806517
13.068462610244751,0.2671100457790282,0.2595513764103617,3.9796112126802097
13.078300476074219,0.2645698624614515,0.2567729685940865,4.101169200988937
13.086386919021606,0.2626158752940848,0.25403368239529506,3.9199777269611635
13.095175743103027,0.2606618881267181,0.25133564764240873,3.9047259330814503
13.105650424957275,0.2581217048091414,0.24868066240610567,3.898947845849469
13.114033222198486,0.2561677176417747,0.2460734119399673,3.5744923949032907
13.127143859863281,0.2528459394572513,0.2435177463607667,3.442213819460891
13.13655948638916,0.2506965535731479,0.24101038211723133,3.0796042017523826
13.147087097167969,0.24815637025557122,0.2385484279326391,2.398730205699195
13.157333612442017,0.24542078822125782,0.2361355026108719,1.4399180169220036
13.16598129272461,0.24307600362041779,0.23378034891008456,0.2804666700736257
13.176846981048584,0.24073121901957772,0.2314898799296789,-0.7266603298133696
13.187376737594604,0.238191035702001,0.22926354349906533,-1.7607031957211987
13.196947574615479,0.23565085238442432,0.22709757290335172,-2.585816387616597
13.20724368095398,0.23291527035011095,0.2249858118568465,-3.4318912810471005
13.216759443283081,0.2305704857492709,0.22292281265534725,-3.80674055756893
13.227677583694458,0.22763950499822086,0.22090659914385588,-3.912952936216173
13.236523628234863,0.22549011911411745,0.21893535783508905,-3.5894900868915594
13.245601415634155,0.22334073323001408,0.21700988335921514,-3.146055874488953
13.254437446594238,0.22138674606264738,0.21513074449273978,-2.7104907130378533
13.262614011764526,0.21962815761201734,0.21329573076428623,-2.0516525184337597
13.270365238189697,0.21806496787812396,0.21150285776503452,-1.1454414742292705
13.280830383300781,0.2159155819940206,0.20975034367712922,-0.3180111731615175
13.289876222610474,0.21435239226012726,0.20803660576634853,0.6066944651698947
13.297906637191772,0.21278920252623387,0.20636238821967604,1.3797483572352476
13.308669328689575,0.2108352153588672,0.20472825362939928,1.940533167223617
13.31900405883789,0.20907662690823717,0.2031283549756752,2.3031318208787726
13.32694387435913,0.20770883589108044,0.201557738721797,2.5053832061496077
13.336813926696777,0.2061456461571871,0.20001838089301446,2.587510409325424
13.346120834350586,0.2047778551400304,0.19851197837911533,2.3082649726727005
13.354923009872437,0.2036054628396104,0.19703795648244257,1.9380149992871178
13.36513376235962,0.20223767182245372,0.19559408397148698,1.5855528800253227
13.372904062271118,0.20126067823877036,0.19417845214632068,1.2867596178908547
13.381987810134888,0.20008828593835032,0.1927928740411217,1.3226156918209169
13.39060378074646,0.19911129235466699,0.1914388583010487,1.167506449936512
13.401997089385986,0.19793890005424694,0.1901143381245748,1.2424054145973336
13.409935474395752,0.19715730518730026,0.18881752086628983,1.086188993826319
13.417901992797852,0.19637571032035359,0.18754999954738968,0.8722002709668102
13.426936626434326,0.19539871673667025,0.18631307047898063,0.6698003209265471
13.436564683914185,0.19442172315298686,0.18510618062950857,0.5015503423905872
13.446931600570679,0.19344472956930353,0.18392876052374474,0.09420718681346563
13.455889463424683,0.19207693855214686,0.18278023555766573,-0.3138592584530035
13.463914394378662,0.19129534368520015,0.1816600382875114,-0.9168980269760459
13.472987413406372,0.19012295138478016,0.18056757462055115,-1.4571377412446422
13.481956243515015,0.18895055908436015,0.1795022257315135,-2.1330633211159946
13.491926193237305,0.18758276806720342,0.17846337307137003,-2.698657129682501
13.501906394958496,0.18601957833331006,0.17745038857834594,-3.364915758383693
13.510938882827759,0.18465178731615337,0.17646263086644193,-3.6205819709357416
13.520076990127563,0.18328399629899667,0.1754994520679632,-3.928052221130331
13.531092405319214,0.18172080656510334,0.17455907449312452,-4.146647397255281
13.54189133644104,0.18035301554794664,0.17363879316762687,-3.969293587620335
13.550923585891724,0.1791806232475266,0.17273742753108207,-3.6505099053498675
13.561420440673828,0.17781283223036992,0.1718540316744966,-2.7508718655006277
13.571487665176392,0.1766404399299499,0.1709867159243103,-2.0781578473750306
13.579536199569702,0.17585884506300323,0.17013492354695484,-1.305352773841138
13.588966131210327,0.1748818514793199,0.16929922869271655,-0.35544875147242705
13.59697151184082,0.1741002566123732,0.16848105846210631,0.1992263935100277
13.605894327163696,0.1733186617454265,0.16768249440639751,0.7948972053839942
13.61390995979309,0.1725370668784798,0.16690511494060856,1.0050140415976863
13.623355150222778,0.17156007329479647,0.16614915436224015,1.315038489947675
13.6329026222229,0.17097387714458645,0.1654137147186563,1.5825480823396876
13.643802165985107,0.1701922822776398,0.1646979216329162,1.7665504915706602
13.65302062034607,0.1694106874106931,0.1640000787256434,1.591466164492388
13.662184953689575,0.16882449126048307,0.1633186638490154,1.590962696172157
13.671836137771606,0.16843369382700976,0.16265321006920672,1.627678370998807
13.681899070739746,0.16765209896006306,0.16200326010166569,1.6498704912497102
13.691902875900269,0.16726130152658972,0.16136837537841284,1.6433710781845492
13.701844215393066,0.1668705040931164,0.1607481170756632,1.6091474269357708
13.71187973022461,0.16647970665964307,0.1601420524653795,1.553189295605898
13.720889329910278,0.16628430794290636,0.1595497873289862,1.4822264350953591
13.732960224151611,0.16589351050943302,0.15897023544509692,1.4021282780644775
13.742968797683716,0.16569811179269636,0.1584017459896264,1.0414433063744446
13.751927137374878,0.1655027130759597,0.15784366384365642,0.9224805649874958
13.76089882850647,0.165307314359223,0.15729615268234617,0.6168471761630945
13.769684791564941,0.165307314359223,0.15675933713278706,0.577812376305204
13.778751611709595,0.16511191564248637,0.15623330337432498,0.34906682587318744
13.79094409942627,0.16491651692574968,0.15571749714895128,0.09850726642790394
13.799117088317871,0.16472111820901303,0.15521085378051286,-0.11265217482217045
13.80898928642273,0.16452571949227635,0.15471311614310146,-0.5456910177566974
13.816864490509033,0.16433032077553966,0.15422470977173028,-0.9613493556629814
13.825200319290161,0.16374412462532967,0.15374599679389847,-1.280899894480008
13.833158493041992,0.163548725908593,0.15327725593104,-1.7694566805599967
13.843633890151978,0.162962529758383,0.15281870894213959,-2.198374208736735
13.852128744125366,0.16257173232490962,0.15237053440959686,-2.5002130750102025
13.860751152038574,0.16198553617469966,0.15193284689913886,-2.949819030337425
13.870904445648193,0.16120394130775295,0.1515057208963309,-3.3261830284637197
13.882049560546875,0.16042234644080625,0.1510887590436009,-3.8435781200644428
13.891878843307495,0.1594453528571229,0.15068115858503506,-3.985918859240336
13.900917053222656,0.1586637579901762,0.1502827127942592,-3.932616330181141
13.909291982650757,0.15788216312322959,0.1498937092982827,-3.779252753309315
13.917123317718506,0.15710056825628288,0.14951477008070546,-3.5774575656077614
13.926825284957886,0.1563189733893362,0.14914678626504144,-3.0794406344163514
13.935438871383667,0.15573277723912618,0.14879004853491812,-2.5437102311345736
13.942844152450562,0.15514658108891616,0.14844472998673686,-2.0671003436896287
13.952390670776367,0.15456038493870616,0.14811094600132366,-1.3992395771557238
13.95989990234375,0.15416958750523282,0.14778834889926953,-0.5038603385920721
13.971849203109741,0.1535833913550228,0.1474766143625822,0.3007041167011708
13.981671571731567,0.1531925939215495,0.14717511845396306,1.4716272352325817
13.992902040481567,0.15280179648807612,0.14688328029426656,2.2443445643042317
14.00169062614441,0.15260639777133944,0.14660091952646023,2.7150912018745865
14.01044225692749,0.1524109990546028,0.14632786919974267,2.966580321220647
14.018285989761353,0.1524109990546028,0.14606395641463005,3.0640866231681017
14.025859832763672,0.1522156003378661,0.1458092635214745,3.05671522106516
14.0362868309021,0.15202020162112945,0.14556409021240682,2.9802931820047704
14.04431939125061,0.1522156003378661,0.14532838200972006,2.8603935070815023
14.056131839752197,0.15202020162112945,0.14510155944972422,2.714950249560837
14.064971208572388,0.15202020162112945,0.14488309312162329,2.280298414699309
14.07549786567688,0.15182480290439276,0.1446721754112409,1.8077416855813282
14.084555387496948,0.15182480290439276,0.14445211687425466,1.3910724588182122
14.095200300216675,0.15182480290439276,0.14419513345173213,1.0548732913925354
14.104299783706665,0.15182480290439276,0.14389491864130952,0.5197664857089972
14.11382794380188,0.15182480290439276,0.14356100659551643,0.29208287543648065
14.123312711715698,0.15182480290439276,0.14319927936925214,-0.07289393414583181
14.130866289138794,0.15182480290439276,0.14281286213067707,-0.41185883287550573
14.138791799545288,0.15182480290439276,0.1424059066084824,-0.3970638998788134
14.148686647415161,0.15182480290439276,0.141982575343193,-0.5424429312157308
14.158906936645508,0.1516294041876561,0.14154507475186168,-0.7052666479394704
14.167532444000244,0.15143400547091945,0.14109620548297178,-0.8343078474049817
14.175664186477661,0.15123860675418274,0.1406399388007024,-1.1939799139247163
14.183800220489502,0.1510432080374461,0.14018073356647354,-1.5452496680300662
14.192809581756592,0.15084780932070943,0.13972331803715737,-1.8085296282416072
14.201771974563599,0.15065241060397278,0.13927198842711466,-1.9717513268402471
14.21078634262085,0.15006621445376275,0.13883069512843385,-2.3241194862223935
14.220485925674438,0.14967541702028941,0.1384033478847565,-2.3665150621808686
14.22981071472168,0.1490892208700794,0.13799374960410016,-2.548684485777321
14.238287925720215,0.1485030247198694,0.1376055732850488,-2.710664684000547
14.246922731399536,0.14811222728639603,0.13724231407381865,-2.8028397377831795
14.256884574890137,0.14733063241944935,0.13690722544827436,-2.8213901979838365
14.267561912536621,0.14674443626923936,0.1366038131297122,-2.7788522692371713
14.276173114776611,0.14596284140229268,0.13633584334227541,-2.415341498801812
14.28591775894165,0.14498584781860932,0.13610629823886033,-2.2645987814184614
14.294878721237183,0.14420425295166264,0.13591661651355194,-1.907794948364995
