t_s,q_rad,q_des_rad,K,B,Kff,jerk,tau_Nm,reward
0.005627632141113281,-0.040252135647754074,[0.00168314],9.825212432529046,0.9790254919034855,1.9737818648793566,0.0,9.998999999999999,1.2034816689731094
0.015124797821044922,-0.040252135647754074,[0.00813649],9.650424865058092,0.9580509838069711,1.9475637297587132,0.0,10.098989999999999,1.1260707434806438
0.025706768035888672,-0.040252135647754074,[0.02023288],9.475637297587138,0.9370764757104565,1.92134559463807,0.0,10.099989899999999,0.9810964353270567
0.03551673889160156,-0.040252135647754074,[0.03696129],9.300849730116184,0.9161019676139419,1.8951274595174268,0.0,10.099999898999998,0.8034972612878954
0.0471038818359375,-0.040252135647754074,[0.05740903],9.12606216264523,0.8951274595174274,1.8689093243967834,0.0,10.099999998989999,0.6484450288001181
0.056363821029663086,-0.040252135647754074,[0.08075362],8.951274595174274,0.8741529514209129,1.84269118927614,0.0,10.0999999999899,0.5534783273190327
0.06641411781311035,-0.040252135647754074,[0.10625958],8.77648702770332,0.8531784433243983,1.8164730541554968,0.0,-9.8980000000001,0.5136620035523081
0.0757594108581543,-0.040252135647754074,[0.13327916],8.601699460232366,0.8322039352278838,1.7902549190348536,0.0,-10.09798,0.5024233068592138
0.08574700355529785,-0.040252135647754074,[0.16124721],8.426911892761412,0.8112294271313693,1.7640367839142101,0.0,-10.099979799999998,0.500297410417929
0.09567141532897949,-0.040252135647754074,[0.18967343],8.252124325290458,0.7902549190348547,1.7378186487935667,0.0,-10.099999797999999,0.500025593981584
0.10687255859375,-0.040252135647754074,[0.21813943],8.077336757819502,0.7692804109383402,1.7116005136729235,0.0,-5.100499997979999,0.5000015876746184
0.1152956485748291,-0.040252135647754074,[0.2462908],7.902549190348549,0.7483059028418256,1.6853823785522803,0.0,-5.0505049999797995,0.5000000738396071
0.12492728233337402,-0.040252135647754074,[0.27382732],7.727761622877595,0.727331394745311,1.659164243431637,0.0,-5.050005049999798,0.5000000027022514
0.1334521770477295,-0.040252135647754074,[0.30050303],7.55297405540664,0.7063568866487966,1.6329461083109935,0.0,-5.050000050499998,0.5000000000821219
0.1439809799194336,-0.040252135647754074,[0.32612562],7.378186487935686,0.685382378552282,1.6067279731903503,0.0,-5.050000000504999,0.5000000000021912
0.15178155899047852,-0.040252135647754074,[0.3505461],7.203398920464732,0.6644078704557674,1.5805098380697071,0.0,-5.050000000005049,0.5000000000000543
0.1605515480041504,-0.040252135647754074,[0.37364954],7.028611352993777,0.643433362359253,1.5542917029490637,0.0,-5.05000000000005,0.5000000000000013
0.1707470417022705,-0.040252135647754074,[0.39535592],6.853823785522822,0.6224588542627384,1.5280735678284203,0.0,-5.05,0.5
0.18036270141601562,-0.040252135647754074,[0.41561799],6.679036218051868,0.6014843461662238,1.501855432707777,0.0,-5.05,0.5
0.18973422050476074,-0.040252135647754074,[0.43441464],6.504248650580913,0.6,1.475637297587134,0.0,-5.05,0.5
0.2007896900177002,-0.040252135647754074,[0.45174716],6.329461083109958,0.6,1.4494191624664907,0.0,-5.05,0.5
0.2107861042022705,-0.040252135647754074,[0.46763575],6.154673515639004,0.6,1.4232010273458477,0.0,-5.05,0.5
0.21990299224853516,-0.040252135647754074,[0.48211637],5.97988594816805,0.6,1.3969828922252046,0.0,-5.05,0.5
0.2293529510498047,-0.040252135647754074,[0.49523784],5.805098380697095,0.6,1.3707647571045614,0.0,-5.05,0.5
0.23858308792114258,-0.040252135647754074,[0.50705923],5.63031081322614,0.6,1.3445466219839184,0.0,-5.12372948289908,0.5
0.24825382232666016,-0.040252135647754074,[0.51764749],5.455523245755186,0.6,1.3183284868632752,0.0,-2.6684886752209263,0.5
0.25838637351989746,-0.040252135647754074,[0.52707535],5.280735678284231,0.6,1.292110351742632,0.0,-0.8895789971907269,0.5
0.26880884170532227,-0.040252135647754074,[0.53541947],5.105948110813277,0.6,1.2658922166219888,0.0,0.36400382889368216,0.5
0.2778341770172119,-0.040252135647754074,[0.54275631],5.0,0.6,1.2396740815013456,0.0,0.5689643187312141,0.5
0.2871229648590088,-0.040252135647754074,[0.54916369],5.0,0.6,1.2134559463807026,0.0,1.6886991120334562,0.5
0.29556727409362793,-0.03966593949754405,[0.55472198],5.0,0.6,1.1872378112600595,0.0,1.7084537522545284,0.5
0.3047935962677002,-0.038493547197124035,[0.55950769],5.0,0.6,1.1610196761394163,0.552076719357362,1.898844860969258,0.49977316659524446
0.312774658203125,-0.036148762596283995,[0.56359307],5.0,0.6,1.1348015410187733,2.274556083752331,1.4779762525722455,0.4961635593997287
0.3242154121398926,-0.032045389544813924,[0.5670508],5.0,0.6,1.10858340589813,5.0,2.7031962644216203,0.4817320621239355
0.33173274993896484,-0.0289190100770272,[0.56995299],5.0,0.6,1.082365270777487,5.0,2.110763634509036,0.4817320621239355
0.341707706451416,-0.025206434459030463,[0.57236531],5.0,0.6,1.0561471356568437,5.0,2.5190905823681486,0.4817320621239355
0.34996604919433594,-0.02188465627450707,[0.57434964],5.0,0.6,1.0299290005362005,5.0,2.77259645417242,0.4817320621239355
0.3578219413757324,-0.018758276806720344,[0.57596384],5.0,0.6,1.0037108654155575,5.0,2.8970238800727373,0.4817320621239355
0.36571550369262695,-0.01563189733893362,[0.57725913],5.0,0.6,0.9774927302949143,5.0,2.44558253952008,0.4817320621239355
0.3758218288421631,-0.011137726853990204,[0.57828541],5.0,0.6,0.9512745951742712,5.0,2.8014151276887405,0.4817320621239355
0.38575315475463867,-0.0072297525192568,[0.57909085],5.0,0.6,0.9250564600536281,5.0,2.9847918936159137,0.4817320621239355
0.3957200050354004,-0.0033217781845233945,[0.57971896],5.0,0.6,0.898838324932985,5.0,3.0588664117450066,0.4817320621239355
0.4042081832885742,0.0,[0.58020879],5.0,0.6,0.8726201898123418,4.713074138846083,3.552756140054184,0.4837350112417006
0.4128296375274658,0.0031263794677867237,[0.58059262],5.0,0.6,0.8464020546916986,2.6321221439815123,3.2268175641358434,0.49486924933408816
0.4239635467529297,0.0076205499527301395,[0.58089902],5.0,0.6,0.8201839195710555,0.061250787679897334,3.4992811689307,0.49999720727084696
0.43183398246765137,0.010942328137253534,[0.58115552],5.0,0.6,0.7939657844504124,-2.1796440547592626,3.0891688534775508,0.49647594370077835
0.4408543109893799,0.0144595050385136,[0.58138354],5.0,0.6,0.7677476493297692,-3.8623607110141602,2.868603069499627,0.4890175687918873
0.45014476776123047,0.018172080656510332,[0.58160137],5.0,0.6,0.741529514209126,-5.0,2.741060731996644,0.4817320621239355
0.45774221420288086,0.02129846012429706,[0.58182452],5.0,0.6,0.715311379088483,-5.0,2.6581273760498134,0.4817320621239355
0.4658031463623047,0.02462023830882045,[0.58206346],5.0,0.6,0.6890932439678399,-5.0,2.2553510401858725,0.4817320621239355
0.4737539291381836,0.027942016493343845,[0.58232673],5.0,0.6,0.6628751088471967,-5.0,2.090785504761152,0.4817320621239355
0.4818108081817627,0.03106839596113057,[0.58262113],5.0,0.6,0.6366569737265535,-5.0,2.077315994003323,0.4817320621239355
0.4900166988372803,0.034194775428917294,[0.58295405],5.0,0.6,0.6104388386059104,-5.0,2.1154321977613746,0.4817320621239355
0.5009760856628418,0.03829814848038737,[0.58333331],5.0,0.6,0.5842207034852673,-5.0,2.466703148361376,0.4817320621239355
0.5108139514923096,0.042401521531857445,[0.58376457],5.0,0.6,0.5580025683646241,-5.0,2.6156623777207635,0.4817320621239355
0.5203592777252197,0.046309495866590854,[0.58425161],5.0,0.6,0.531784433243981,-5.0,2.9205513407914903,0.4817320621239355
0.5310816764831543,0.0511944637850076,[0.58479865],5.0,0.6,0.5055662981233379,-5.0,3.2340787092859102,0.4817320621239355
0.5407257080078125,0.05451624196953099,[0.58540813],5.0,0.6,0.4793481630026947,-4.9779415079739024,3.022268969093089,0.48188994322767426
0.5490517616271973,0.0578380201540544,[0.58607685],5.0,0.6,0.4531300278820516,-4.78436508953463,2.8588287015366887,0.4832476328760179
0.557854175567627,0.061355197055314455,[0.58680102],5.0,0.6,0.42691189276140845,-4.514927037219293,2.7256779314494772,0.4850536651503637
0.5674331188201904,0.06487237395657452,[0.58757653],5.0,0.6,0.4006937576407653,-4.218075644289202,2.4339194971702756,0.486929383001357
0.5757346153259277,0.06858494957457126,[0.58839705],5.0,0.6,0.3744756225201221,-3.9181820126063904,2.1441591759594223,0.4887014643632088
0.5866167545318604,0.07327451877625135,[0.58925837],5.0,0.6,0.3482574873994789,-3.903308745592351,2.2051911963843227,0.4887861118038862
0.5952627658843994,0.0767916956775114,[0.59015811],5.0,0.6,0.3220393522788358,-3.660159892108479,2.2641040564206434,0.4901262310519733
0.6037328243255615,0.08011347386203481,[0.5910935],5.0,0.6,0.2958212171581926,-3.3457826632379706,2.3135439533992486,0.491736040649136
0.6128077507019043,0.08363065076329486,[0.59206154],5.0,0.6,0.2696030820375494,-3.0280521790195847,2.4680554271662167,0.493220893026603
0.624748945236206,0.08812482124823828,[0.59305905],5.0,0.6,0.24338494691690624,-2.733274112432387,2.526410248533114,0.49446955514356605
0.6337971687316895,0.09183739686623502,[0.59408279],5.0,0.6,0.21716681179626307,-2.4690952676247795,2.542235598857543,0.49548234615788406
0.6430394649505615,0.09535457376749508,[0.59512951],5.0,0.6,0.19094867667561988,-2.2353342095321986,2.5388372906219367,0.49629424057819027
0.6522560119628906,0.09887175066875514,[0.596196],5.0,0.6,0.16473054155497668,-2.0289582692850368,2.5283041061398435,0.49694491913741307
0.6610491275787354,0.1023889275700152,[0.5972774],5.0,0.6,0.13851240643433352,-2.122302626078353,2.4473954930706783,0.4966583115032952
0.6696619987487793,0.10590610447127527,[0.59836759],5.0,0.6,0.11229427131369034,-1.9929154995363332,2.4351836467463333,0.4970521792833214
0.6778078079223633,0.10922788265579866,[0.59946115],5.0,0.6,0.08607613619304716,-1.7924774034088533,2.3945585303444936,0.4976139708301705
0.6867470741271973,0.11313585699053208,[0.60055334],5.0,0.6,0.05985800107240398,-1.5857344044981898,2.411697695818172,0.49813166435719514
0.695786714553833,0.11665303389179212,[0.60164164],5.0,0.6,0.0336398659517608,-1.1211752241516602,2.440887647051876,0.4990651383646468
0.7047781944274902,0.12017021079305219,[0.60272544],5.0,0.6,0.0074217308311176206,-0.9244497346375209,2.471128934682422,0.4993642344024932
0.7128019332885742,0.12329659026083893,[0.60380253],5.0,0.6,0.0,-0.8402511397634752,2.4526864970682465,0.49947471298330043
0.721102237701416,0.1266183684453623,[0.60486938],5.0,0.6,0.0,-0.798200924312459,2.4468348516660567,0.4995259488888129
0.7318739891052246,0.13111253893030572,[0.6059246],5.0,0.6,0.0,-0.768133616879569,2.43328408866144,0.4995609747654237
0.7399840354919434,0.13443431711482912,[0.60696857],5.0,0.6,0.0,-1.0144583505168867,2.4241292649871533,0.49923450482870274
0.7492761611938477,0.13814689273282588,[0.60800168],5.0,0.6,0.0,-1.0147677621028877,2.4121173817630615,0.499234038160644
0.7597417831420898,0.1424456645010326,[0.60902426],5.0,0.6,0.0,-0.9236242386416974,2.3965595482716093,0.49936536860060526
0.7689175605773926,0.14596284140229268,[0.61003673],5.0,0.6,0.0,-0.8092666486893437,2.384499715468153,0.49951272037535915
0.7781498432159424,0.14987081573702607,[0.61103951],5.0,0.6,0.0,-0.6994508716334171,2.3703585406818,0.499635948392388
0.7867686748504639,0.15280179648807612,[0.61203161],5.0,0.6,0.0,-0.6035691455111681,2.344794072104735,0.4997288916031507
0.7953231334686279,0.15612357467259955,[0.6130108],5.0,0.6,0.0,-0.7991872416854132,2.3380482361972756,0.49952477717551
0.8028678894042969,0.15924995414038626,[0.61397688],5.0,0.6,0.0,-0.7658722357870948,2.331035300194958,0.49956355480917203
0.8118538856506348,0.162962529758383,[0.61492988],5.0,0.6,0.0,-0.6559801553126163,2.3037836084851637,0.4996797796182666
0.8205780982971191,0.16647970665964307,[0.61586854],5.0,0.6,0.0,-0.5344379902510573,2.2976973455700995,0.4997874265682102
0.8293614387512207,0.16980148484416643,[0.61679356],5.0,0.6,0.0,-0.425824253431065,2.29075248098794,0.4998650388273142
0.8373222351074219,0.17292786431195314,[0.61770727],5.0,0.6,0.0,-0.3369001894595663,2.283607238511157,0.4999155163842898
0.8457396030426025,0.17644504121321322,[0.61861037],5.0,0.6,0.0,-0.26716897002632584,2.2568636611794686,0.4999468680651049
0.8557724952697754,0.18035301554794664,[0.61950212],5.0,0.6,0.0,-0.21366075058634104,2.248980715701786,0.4999660185883378
0.86372971534729,0.18387019244920672,[0.62038211],5.0,0.6,0.0,-0.1729789698307689,2.224222280283044,0.4999777267488194
0.8737528324127197,0.18797356550067676,[0.62125021],5.0,0.6,0.0,-0.14208109303722039,2.217113598569503,0.49998497298471667
0.8827002048492432,0.1916861411186735,[0.62210816],5.0,0.6,0.0,-0.11849925679377106,2.2096846024275676,0.49998954718199834
0.8940587043762207,0.19598491288688025,[0.62296094],5.0,0.6,0.0,-0.10033174341218379,2.215078606939389,0.49999250657890465
0.9047048091888428,0.20028368465508697,[0.62381463],5.0,0.6,0.0,-0.0861554886136349,2.1970390949422027,0.49999447451791434
0.9139406681060791,0.20399626027308376,[0.62467292],5.0,0.6,0.0,-0.07492404162716834,2.1825116350850773,0.4999958212416881
0.9222369194030762,0.20731803845760713,[0.62553743],5.0,0.6,0.0,-0.06587570918409824,2.1704063897999912,0.49999676960313905
0.9326989650726318,0.2110306140756039,[0.62640786],5.0,0.6,0.0,-0.05845901427797932,2.1385417800109714,0.49999745605014445
0.9455418586730957,0.2161109807107573,[0.62728402],5.0,0.6,0.0,-0.05227537051963542,2.1416945083259673,0.49999796577011213
0.9561123847961426,0.22080054991243736,[0.62816927],5.0,0.6,0.0,-0.04703635709874479,2.122132373986116,0.49999835307691615
0.964658260345459,0.22412232809696078,[0.62906643],5.0,0.6,0.0,-0.04253249091117185,2.10966682146764,0.4999986533717394
0.9728379249572754,0.22744410628148415,[0.62997438],5.0,0.6,0.0,-0.03861068681750526,2.0789211798714198,0.49999889025998995
0.9807984828948975,0.23076588446600757,[0.6308903],5.0,0.6,0.0,-0.0351581212540831,2.072477908791641,0.4999990798522064
0.9907891750335693,0.23486925751747764,[0.63181355],5.0,0.6,0.0,-0.03209074049939753,2.060907024164661,0.49999923340530766
0.9996705055236816,0.2383864344187377,[0.63274534],5.0,0.6,0.0,-0.029345102710499296,2.051078029816402,0.4999993589710495
1.0086803436279297,0.24190361131999777,[0.63368663],5.0,0.6,0.0,-0.026872596104019215,2.0405848383155405,0.4999994624415986
1.0180649757385254,0.24542078822125782,[0.6346382],5.0,0.6,0.0,-0.024635342840144174,2.0295226877239805,0.4999995482235032
1.0289857387542725,0.24991495870620126,[0.63560059],5.0,0.6,0.0,-0.022603295158675804,2.0131819504243995,0.49999961967936857
1.0377917289733887,0.253627534324198,[0.63657415],5.0,0.6,0.0,-0.020752173192360578,2.000440635208162,0.49999967942219214
1.0471384525299072,0.257144711225458,[0.63755905],5.0,0.6,0.0,-0.019061996401582904,1.9884620337165348,0.49999972951518307
1.0563511848449707,0.2604664894099814,[0.6385535],5.0,0.6,0.0,-0.0175160335908237,1.9582258943048172,0.49999977160984144
1.065572738647461,0.2637882675945048,[0.63955401],5.0,0.6,0.0,-0.016100048212488227,1.9523752224945787,0.4999998070433634
1.0761220455169678,0.26808703936271155,[0.64055933],5.0,0.6,0.0,-0.014801752210816994,1.9400494179277612,0.49999983690881333
1.0856866836547852,0.2723858111309183,[0.64157012],5.0,0.6,0.0,-0.013610407402139445,1.9262174564511527,0.49999986210634
1.095273733139038,0.276098386748915,[0.64258675],5.0,0.6,0.0,-0.012516531502485549,1.9143172056105016,0.49999988338173146
1.102689504623413,0.27942016493343846,[0.64360941],5.0,0.6,0.0,-0.011511678634375066,1.903692137952534,0.4999999013560023
1.1116902828216553,0.28293734183469854,[0.64463456],5.0,0.6,0.0,-0.010588273083809992,1.8912503411658284,0.4999999165484587
1.1238152980804443,0.2876269110363786,[0.64565734],5.0,0.6,0.0,-0.00973948134709953,1.8914678465371815,0.4999999293953776
1.1362359523773193,0.292707277671532,[0.64668061],5.0,0.6,0.0,-0.008959111912240065,1.8835945090019823,0.49999994026327066
1.14524245262146,0.29622445457279206,[0.64771022],5.0,0.6,0.0,-0.008241535308259693,1.8618658231596832,0.49999994945674553
1.1553575992584229,0.30032782762426213,[0.6487474],5.0,0.6,0.0,-0.007581619126822924,1.8396264663567887,0.49999995723970664
1.1650686264038086,0.3042358019589956,[0.64979129],5.0,0.6,0.0,-0.0069746742464962255,1.8202268874390062,0.4999999638303242
1.1746275424957275,0.3079483775769923,[0.650841],5.0,0.6,0.0,-0.006416409561341159,1.8031244378675,0.49999996941410946
1.1841578483581543,0.31166095319498904,[0.65189562],5.0,0.6,0.0,-0.00590289327454467,1.786997504774707,0.4999999741501525
1.192742109298706,0.31498273137951244,[0.65295255],5.0,0.6,0.0,-0.005430519347209778,1.7557402548788674,0.49999997816708375
1.2014732360839844,0.3184999082807725,[0.6540095],5.0,0.6,0.0,-0.0049959780736353095,1.7643940897014947,0.49999998158686254
1.210789442062378,0.32221248389876916,[0.65506611],5.0,0.6,0.0,-0.004596230019653905,1.7307944817609393,0.49999998451239863
1.2195515632629395,0.325338863366556,[0.65612032],5.0,0.6,0.0,-0.0042284827523754375,1.7228488522693632,0.4999999870035525
1.2282793521881104,0.32885604026781606,[0.65717028],5.0,0.6,0.0,-0.0038901699262330032,1.7120656313019755,0.4999999891686417
1.2358627319335938,0.3319824197356028,[0.65821595],5.0,0.6,0.0,-0.0035789323878820585,1.7021484337607178,0.49999999103499615
1.2449026107788086,0.3356949953535995,[0.65925717],5.0,0.6,0.0,-0.003292601035975285,1.688720325949974,0.49999999273614415
1.2528786659240723,0.3390167735381229,[0.66029218],5.0,0.6,0.0,-0.003029181220410882,1.660315734606376,0.4999999942523765
1.2607548236846924,0.34214315300590964,[0.66131628],5.0,0.6,0.0,-0.002786838509967612,1.6373943489596703,0.4999999956362422
1.2708303928375244,0.3458557286239063,[0.66232555],5.0,0.6,0.0,-0.0025638856801780026,1.631502231181067,0.49999999710565424
1.2838947772979736,0.3507406965423231,[0.66332129],5.0,0.6,0.0,-0.002358770801460094,1.6326964146605056,0.49999999911899806
1.2916710376739502,0.3540624747268465,[0.66430613],5.0,0.6,0.0,-0.0021700663203128327,1.603510431447058,0.5000000008569571
1.3014767169952393,0.3579704490615799,[0.6652807],5.0,0.6,0.0,0.27404190063593886,1.606603969914466,0.49994410568411823
1.3118176460266113,0.36207382211305,[0.66624547],5.0,0.6,0.0,0.3073262219011687,1.5727083059520226,0.4999297059542035
1.3205995559692383,0.36539560029757334,[0.66719941],5.0,0.6,0.0,0.2523759055506218,1.5625247255634243,0.49995260095765176
1.3307862281799316,0.3696943720657801,[0.66814156],5.0,0.6,0.0,0.17642608512779795,1.5465989880057425,0.49997684854482294
1.3439834117889404,0.3747747387009336,[0.66907387],5.0,0.6,0.0,0.10602777725256715,1.540277327736441,0.4999916615916335
1.3526864051818848,0.3782919156021936,[0.66999794],5.0,0.6,0.0,0.04952040158691763,1.5083786688461,0.49999821517343257
1.3616786003112793,0.3818090925034536,[0.67091233],5.0,0.6,0.0,0.007628062650103816,1.4955604258113098,0.5000000116741381
1.3706977367401123,0.3857170668381871,[0.67181572],5.0,0.6,0.0,-0.2977285864924679,1.48013786512657,0.49993409666414107
1.3800840377807617,0.3894296424561838,[0.67270818],5.0,0.6,0.0,-0.35029187746757917,1.4646102827859684,0.4999087742392355
1.389124870300293,0.39314221807418054,[0.67358949],5.0,0.6,0.0,-0.031226819619239538,1.4481776490424492,0.4999994215222557
1.399120569229126,0.39685479369217724,[0.6744592],5.0,0.6,0.0,0.07121656771579452,1.4309888028261093,0.499996427000231
1.4073374271392822,0.40017657187670064,[0.67531656],5.0,0.6,0.0,0.08358893473936141,1.4149303839119203,0.4999950646503363
1.4152719974517822,0.4033029513444874,[0.67615959],5.0,0.6,0.0,0.06360461627125595,1.3891822301219618,0.4999973299226143
1.4236302375793457,0.40623393209553743,[0.67698534],5.0,0.6,0.0,0.03623521018849688,1.3775821038005371,0.49999945184356154
1.431762456893921,0.4097511089967975,[0.67779115],5.0,0.6,0.0,0.011253170527271678,1.352848260017448,0.5000004806205186
1.4408502578735352,0.41307288718132085,[0.67857464],5.0,0.6,0.0,-0.008348587656860845,1.3397733403676972,0.5000007018430792
1.4527833461761475,0.4175670576662643,[0.6793343],5.0,0.6,0.0,-0.02239337809854193,1.3189199035510253,0.5000007442088118
1.462989330291748,0.4216704307177344,[0.68006983],5.0,0.6,0.0,-0.03171159420603846,1.303975004054392,0.5000008378014614
1.4716732501983643,0.4251876076189945,[0.68078053],5.0,0.6,0.0,-0.037356853187067385,1.2781952721487233,0.5000010780839902
1.4804530143737793,0.4289001832369912,[0.68146439],5.0,0.6,0.0,-0.04029853852863019,1.258393598293645,0.5000016710702966
1.4907703399658203,0.43300355628846127,[0.68211938],5.0,0.6,0.0,-0.04132717048114434,1.236073823147053,0.5000027991393162
1.5037450790405273,0.437888524206878,[0.68274416],5.0,0.6,0.0,-0.04104843312557342,1.2115294939067114,0.5000049463573181
1.514906883239746,0.44238269469182145,[0.68333751],5.0,0.6,0.0,-0.039909101752880705,1.1855164370234008,0.5000078725289742
1.5230977535247803,0.44550907415960816,[0.68389794],5.0,0.6,0.0,-0.03823022284651176,1.1667094070347146,0.5000104964286717
1.5317399501800537,0.44922164977760487,[0.6844239],5.0,0.6,0.0,-0.03623783395228439,1.1453239257372854,0.50001468844441
1.5408661365509033,0.45273882667886495,[0.6849141],5.0,0.6,0.0,-0.03408819472439581,1.1260749540912396,0.5000199243211495
1.5526649951934814,0.4572329971638084,[0.68536769],5.0,0.6,0.0,-0.03188729400574431,1.1020978336068772,0.5000294002788939
1.561676263809204,0.4605547753483318,[0.68578415],5.0,0.6,0.0,-0.029705410695538684,1.0840551850013744,0.5000385894128567
1.5727219581604004,0.4648535471165385,[0.68616323],5.0,0.6,0.0,-0.027587743891401954,1.0613726024705197,0.5000551298677864
1.5806598663330078,0.4679799265843252,[0.68650508],5.0,0.6,0.0,-0.025562058568415112,1.0460937461920778,0.5000706686887169
1.588693618774414,0.47130170476884864,[0.68681026],5.0,0.6,0.0,-0.02364412679075852,1.0282268888400232,0.5000920389662621
1.5990345478057861,0.47560047653705534,[0.68707916],5.0,0.6,0.0,-0.021841569171037203,1.0032214780992517,0.5001300784523517
1.6096370220184326,0.47989924830526204,[0.68731198],5.0,0.6,0.0,-0.02015654914790227,0.9804839497657399,0.5001830668253849
1.6176478862762451,0.4828302290563122,[0.68750951],5.0,0.6,0.0,-0.01858765144547897,0.9673273806485274,0.500229446302716
1.6282191276550293,0.48712900082451893,[0.68767265],5.0,0.6,0.0,-0.29316954355511926,0.9398410510937125,0.5002571904290624
1.6371333599090576,0.49045077900904227,[0.68780168],5.0,0.6,0.0,-0.3249450362820179,0.9208307958548456,0.5003354754373758
1.645958662033081,0.49396795591030235,[0.68789678],5.0,0.6,0.0,-0.2686001843541854,0.9002687806035333,0.5004875210123494
1.6552214622497559,0.4974851328115624,[0.68795888],5.0,0.6,0.0,-0.19136290110161738,0.8848486487034213,0.5006786317485948
1.6660101413726807,0.5017839045797692,[0.68798864],5.0,0.6,0.0,-0.11977698396721975,0.8515184076025619,0.5009629882410418
1.6759507656097412,0.5058872776312392,[0.68798533],5.0,0.6,0.0,-0.06217480717079521,0.8265473247895921,0.5013147266565202
1.6846809387207031,0.5090136570990259,[0.68794893],5.0,0.6,0.0,-0.01927371066848919,0.8142823768754386,0.5016553652623955
1.6926994323730469,0.5123354352835494,[0.68788057],5.0,0.6,0.0,0.010973714171767705,0.7903337522184823,0.5021053761798273
1.7030549049377441,0.5162434096182827,[0.68778025],5.0,0.6,0.0,0.031267961447021535,0.7632351164787001,0.5027801817958593
1.7117862701416016,0.5197605865195428,[0.68764796],5.0,0.6,0.0,0.04412616302677181,0.749010502690875,0.5035612586208288
1.7216641902923584,0.5232777634208029,[0.68748445],5.0,0.6,0.0,0.05161738563604616,0.7210356952970488,0.5045473848737664
1.7317583560943604,0.5275765351890096,[0.687289],5.0,0.6,0.0,0.05533770009346593,0.6893457335547308,0.5060846323122166
1.7416961193084717,0.531484509523743,[0.68706095],5.0,0.6,0.0,0.05647286997794718,0.6739337404167869,0.507898312124682
1.7506918907165527,0.5350016864250031,[0.68680063],5.0,0.6,0.0,0.05588226659209543,0.6431299503032956,0.5099635986089155
1.7600462436676025,0.5387142620429999,[0.68650666],5.0,0.6,0.0,-0.22186076802114674,0.6121593592215502,0.5126333568621971
1.7676904201507568,0.5418406415107866,[0.68617609],5.0,0.6,0.0,-0.2573750200182024,0.5844730020123973,0.5154564454253658
1.776740312576294,0.5455532171287834,[0.68580764],5.0,0.6,0.0,-0.2050553958932236,0.5729057524841,0.5195288592132701
1.7856757640838623,0.5488749953133067,[0.68540161],5.0,0.6,0.0,-0.13193332748997028,0.540407859787244,0.5240302316596228
1.7968275547027588,0.5529783683647768,[0.68495417],5.0,0.6,0.0,-0.06442286509589432,0.4846794079531287,0.5306959898477643
1.8089358806610107,0.5576679375664568,[0.68445561],5.0,0.6,0.0,-0.2868116129892039,0.43146338466440615,0.5400931867158417
1.8168299198150635,0.5609897157509803,[0.68389926],5.0,0.6,0.0,-0.28081394546068883,0.4338820144373132,0.5486766331812908
1.8282239437103271,0.5654838862359236,[0.68328329],5.0,0.6,0.0,-0.19904564165123298,0.3774908950676845,0.562298795307305
1.8364784717559814,0.5688056644204471,[0.68260615],5.0,0.6,0.0,-0.10602662298336546,0.37980083684711763,0.5750034013489145
1.8472707271575928,0.5727136387551806,[0.68186662],5.0,0.6,0.0,-0.025786168202120763,0.3238395400439528,0.5922844023320534
1.8553006649017334,0.5756446195062305,[0.68106382],5.0,0.6,0.0,0.035403336617600326,0.32878335345020676,0.6083216631629613
1.8627114295959473,0.5785756002572806,[0.68020259],5.0,0.6,0.0,0.07840758959455249,0.327148791348715,0.6267365001250694
1.8706836700439453,0.581897378441804,[0.67928998],5.0,0.6,0.0,0.10644449233736773,0.2915231008756596,0.6500000127548795
1.8807239532470703,0.586000751493274,[0.67832702],5.0,0.6,0.0,0.123057562875664,0.25487223234,0.6817923538602164
1.8886923789978027,0.5891271309610607,[0.677315],5.0,0.6,0.0,0.13135898528725098,0.25209761647728324,0.7110878542627991
1.8977282047271729,0.5928397065790576,[0.67626082],5.0,0.6,0.0,0.13383047892043914,0.24117178842045098,0.7486099588297608
1.9056305885314941,0.5959660860468443,[0.67517064],5.0,0.6,0.0,0.13234918594962847,0.20067536991568802,0.7851562591393708
1.9144632816314697,0.5992878642313676,[0.67404426],5.0,0.6,0.0,0.128288351125322,0.16403058483006494,0.8270176235174445
1.9227092266082764,0.6022188449824176,[0.67288176],5.0,0.6,0.0,0.12262900222736094,0.16075030066191578,0.8683654369630676
1.9326181411743164,0.6059314206004144,[0.67168625],5.0,0.6,0.0,-0.15997969961717257,0.11994373624278326,0.9211422158563645
1.9448518753051758,0.6102301923686212,[0.67045453],5.0,0.6,0.0,-0.7521890430431944,0.05320862414134452,0.9837127558113898
1.9527075290679932,0.6129657744029345,[0.66918107],5.0,0.6,0.0,-1.32254374929102,0.0594900574239663,1.0302103642619982
1.9642305374145508,0.6162875525874579,[0.66786434],5.0,0.6,0.0,-1.7616233431890136,0.0003250622393295927,1.0851047710218846
1.9726979732513428,0.6188277359050346,[0.66650323],5.0,0.6,0.0,-2.3299061076300314,0.009300722405632646,1.1306830965331869
1.9837493896484375,0.622149514089558,[0.66509708],5.0,0.6,0.0,-3.0798980541293153,-0.04854034473845319,1.1844838862792284
1.993138074874878,0.6241035012569247,[0.66364236],5.0,0.6,0.0,-3.9849814704455215,-0.06304742342541819,1.2198129609586665
2.0016374588012695,0.6262528871410281,[0.66213973],5.0,0.6,0.0,-4.72021871329749,-0.05115173180263714,1.256611605363416
2.0106499195098877,0.6278160768749216,[0.66059658],5.0,0.6,0.0,-5.0,-0.07322335290046675,1.2883442121676667
2.019700288772583,0.6293792666088148,[0.6590163],5.0,0.6,0.0,-5.0,-0.09315047232576468,1.3206261889532072
2.0299878120422363,0.6307470576259715,[0.65739881],5.0,0.6,0.0,-5.0,-0.11051807110307157,1.3492984767599119
2.039018392562866,0.6315286524929183,[0.65574437],5.0,0.6,0.0,-5.0,-0.1239724783542572,1.3710679938650177
2.0478322505950928,0.6321148486431284,[0.65405355],5.0,0.6,0.0,-5.0,-0.13544040243316757,1.3899587229794539
2.0567123889923096,0.632310247359865,[0.65233053],5.0,0.6,0.0,-5.0,-0.11503160312666795,1.4046985848237568
2.0656919479370117,0.6325056460766015,[0.65058253],5.0,0.6,0.0,-5.0,-0.1322090504486791,1.418467134890252
2.0756359100341797,0.632310247359865,[0.64881256],5.0,0.6,0.0,-5.0,-0.14471396974374265,1.4287234387849999
2.084019899368286,0.6321148486431284,[0.64701998],5.0,0.6,0.0,-5.0,-0.15535770951277178,1.4382721364069098
2.093597412109375,0.6315286524929183,[0.64520443],5.0,0.6,0.0,-5.0,-0.16260376839384605,1.4450176112709143
2.104624032974243,0.6305516589092349,[0.6433658],5.0,0.6,0.0,-5.0,-0.1666235668683516,1.4494250288895736
2.1140635013580322,0.6297700640422882,[0.64150069],5.0,0.6,0.0,-5.0,-0.198978793202831,1.4545857923182397
2.123908281326294,0.6284022730251315,[0.639603],5.0,0.6,0.0,-5.0,-0.19363782716875405,1.4569529557405154
2.132643699645996,0.6274252794414481,[0.6376747],5.0,0.6,0.0,-4.657621182269032,-0.16323818891505418,1.46331842254
2.140866279602051,0.6260574884242914,[0.63572459],5.0,0.6,0.0,-4.040342313084682,-0.1699901440390394,1.4694776172106385
2.150651216506958,0.6244942986903982,[0.63375669],5.0,0.6,0.0,-3.1273061450417328,-0.17505440830680846,1.4757604716363641
2.1607236862182617,0.6225403115230315,[0.63177083],5.0,0.6,0.0,-2.8070620443113157,-0.17738140384354606,1.4772725825148822
2.170647621154785,0.6205863243556646,[0.62976669],5.0,0.6,0.0,-1.876743544826554,-0.17977168960333792,1.4806703998641773
2.1804323196411133,0.6184369384715612,[0.62774376],5.0,0.6,0.0,-1.7323357603430902,-0.18095890390194758,1.4805968635924334
2.1916208267211914,0.6157013564372479,[0.62570124],5.0,0.6,0.0,-1.0195255969817547,-0.17975141811390252,1.4794259622218895
2.2025833129882812,0.6129657744029345,[0.62363413],5.0,0.6,0.0,-0.7989662108539922,-0.20778481255960657,1.4770194120345472
2.2107253074645996,0.6106209898020944,[0.62153776],5.0,0.6,0.0,-0.21715354447208807,-0.17092654823489323,1.4764115319348308
2.2199931144714355,0.6080808064845178,[0.61941575],5.0,0.6,0.0,0.37304411407274274,-0.17463878849999043,1.4745275794319124
2.229633092880249,0.6051498257334678,[0.61727055],5.0,0.6,0.0,0.5732892959229697,-0.1763048825563788,1.4708004845963756
2.2376279830932617,0.6026096424158911,[0.61510398],5.0,0.6,0.0,0.8790820838535862,-0.14487420267241707,1.4686857366724302
2.247537136077881,0.5992878642313676,[0.61291673],5.0,0.6,0.0,1.150211586229054,-0.1884818435087466,1.4625484995029834
2.2558419704437256,0.5963568834803176,[0.61070435],5.0,0.6,0.0,1.344862366169652,-0.15358612031238564,1.4583214663147301
2.2686855792999268,0.5920581117121109,[0.60846215],5.0,0.6,0.0,1.1857266412247878,-0.18896389839679625,1.4465586135384958
2.2777366638183594,0.5885409348108508,[0.60618024],5.0,0.6,0.0,1.4807554491090196,-0.18413857041632223,1.4380381082912623
2.2872824668884277,0.584828359192854,[0.60384955],5.0,0.6,0.0,1.848200697676884,-0.17931103077307498,1.4276586139913567
2.298632860183716,0.5799433912744373,[0.60146652],5.0,0.6,0.0,1.8709326748661776,-0.16940994613224536,1.4089144245957317
2.3073337078094482,0.5762308156564405,[0.59902767],5.0,0.6,0.0,2.0319350705859223,-0.1658781645981145,1.3982160065539113
2.315608024597168,0.5732998349053905,[0.59653521],5.0,0.6,0.0,2.182486865038669,-0.134111447510373,1.3941154470033816
2.324252128601074,0.5697826580041304,[0.59399641],5.0,0.6,0.0,2.550917242235612,-0.1429974108143113,1.3845323437075394
2.3317136764526367,0.5668516772530804,[0.5914174],5.0,0.6,0.0,2.8888917445020064,-0.11493442052402253,1.380130152077969
2.3447389602661133,0.5615759119011904,[0.58879738],5.0,0.6,0.0,2.8421392389974143,-0.1525665792444421,1.3562800959799362
2.356013059616089,0.5564955452660368,[0.58612361],5.0,0.6,0.0,3.198358661525782,-0.1434747997190978,1.331426182779149
2.3643054962158203,0.5533691657982501,[0.5833851],5.0,0.6,0.0,3.578273050662152,-0.143717819111334,1.3256694252683268
2.3717126846313477,0.5504381850472001,[0.58058459],5.0,0.6,0.0,4.126732568181019,-0.11776851708976709,1.321282719757975
2.3815927505493164,0.5465302107124667,[0.57773069],5.0,0.6,0.0,4.575735517892402,-0.12479788065530362,1.3077410931480848
2.3896613121032715,0.5432084325279433,[0.57482447],5.0,0.6,0.0,5.0,-0.13100208580183964,1.300532620039103
2.399811267852783,0.5387142620429999,[0.57186057],5.0,0.6,0.0,5.0,-0.12882030770327035,1.2844631342528938
2.4096555709838867,0.5350016864250031,[0.56883453],5.0,0.6,0.0,5.0,-0.12904103696032024,1.2771145136289952
2.418823719024658,0.5308983133735331,[0.56574939],5.0,0.6,0.0,5.0,-0.10200576756543461,1.2660667049556675
2.4286553859710693,0.5265995416053263,[0.56261469],5.0,0.6,0.0,5.0,-0.10809757539483601,1.2532324154116856
2.4367520809173584,0.5232777634208029,[0.55942554],5.0,0.6,0.0,5.0,-0.1259387736984751,1.251757059100304
2.4488470554351807,0.5181973967856495,[0.55616501],5.0,0.6,0.0,5.0,-0.11690208436363497,1.231262782561085
2.4579083919525146,0.5146802198843894,[0.55282634],5.0,0.6,0.0,4.90200575946991,-0.11565360121377886,1.2299252518829016
2.4656827449798584,0.5117492391333394,[0.54941823],5.0,0.6,0.0,4.7011030948846795,-0.10223711432215982,1.2367405154599822
2.474778175354004,0.5080366635153426,[0.54595582],5.0,0.6,0.0,4.448822186886173,-0.10635335723114553,1.235563934233518
2.4849278926849365,0.5037378917471359,[0.54244643],5.0,0.6,0.0,4.17454499078571,-0.10529317280022177,1.2282569330124502
2.4926705360412598,0.5008069109960859,[0.53889084],5.0,0.6,0.0,3.895203117286072,-0.10954875488245315,1.237038022470037
2.5036962032318115,0.49631274051114244,[0.53529118],5.0,0.6,0.0,3.6205629362214493,-0.10532434472513032,1.228298055831806
2.5131397247314453,0.49220936745967236,[0.53165087],5.0,0.6,0.0,3.356171579288433,-0.10237152609048013,1.2243063654716277
2.5217037200927734,0.4886921905584123,[0.52798039],5.0,0.6,0.0,3.105040642591679,-0.0785306902759943,1.227266171784111
2.5306334495544434,0.4849796149404155,[0.52429607],5.0,0.6,0.0,2.5925955917935983,-0.08392737904353348,1.229087089999251
2.539665937423706,0.48146243803915545,[0.5206071],5.0,0.6,0.0,2.3382991684836476,-0.08692942473984798,1.2319937203447293
2.5502467155456543,0.4771636662709487,[0.51691675],5.0,0.6,0.0,2.1873833336320034,-0.08347931196790165,1.2254655507798498
2.5606207847595215,0.4724740970692687,[0.51322951],5.0,0.6,0.0,2.0721814568821024,-0.07618715730492814,1.214157099334374
2.5700786113739014,0.46837072401779856,[0.50955088],5.0,0.6,0.0,1.6894632940622016,-0.06999199443716275,1.2102475089045648
2.580369472503662,0.4642673509663285,[0.50588721],5.0,0.6,0.0,1.8251244978921983,-0.06251508106480874,1.2047259147007638
2.592940092086792,0.45938238304791174,[0.50224116],5.0,0.6,0.0,1.8039883754023758,-0.07149453416153595,1.1901332001956808
2.6006786823272705,0.45645140229686165,[0.49861657],5.0,0.6,0.0,1.9907698762843966,-0.03763993115380317,1.197825187390308
2.6115825176239014,0.45215263052865495,[0.49502703],5.0,0.6,0.0,1.9090847685305574,-0.027133255595239377,1.1896586852977313
2.6206250190734863,0.4484400549106582,[0.49148552],5.0,0.6,0.0,1.7335645660467978,-0.018065488196505764,1.1881000437382734
2.630493402481079,0.4443366818591881,[0.48799988],5.0,0.6,0.0,1.8164138864180666,-0.005704451717273388,1.1805264304231002
2.639735460281372,0.4408195049579281,[0.48457783],5.0,0.6,0.0,1.9449198556411256,0.004893498739509483,1.1790335002734533
2.649625301361084,0.43691153062319465,[0.48122688],5.0,0.6,0.0,1.7643337336956613,0.018916109395651286,1.172872083330828
2.659104585647583,0.4331989550051979,[0.47795429],5.0,0.6,0.0,1.7733976764377977,0.03288714158870925,1.1675770343579683
2.6675961017608643,0.43046337297088455,[0.47476956],5.0,0.6,0.0,1.8205260187712398,0.06717838830799669,1.172832586175805
2.6776442527770996,0.42714159478636116,[0.47168129],5.0,0.6,0.0,2.1251487601830763,0.04920146851270627,1.1691468270501228
2.6866044998168945,0.42401521531857445,[0.46869178],5.0,0.6,0.0,2.7053429517864194,0.06335521840321617,1.1654384922820316
2.697328567504883,0.42049803841731437,[0.46580529],5.0,0.6,0.0,3.2315701385253925,0.10039204622043293,1.1555720003204115
2.705357551574707,0.4179578550997376,[0.46303023],5.0,0.6,0.0,3.601657942555285,0.10494133785567737,1.1565441555704161
2.713622570037842,0.4158084692156343,[0.46037313],5.0,0.6,0.0,4.0839706469551675,0.12795563460542855,1.159935518064378
2.7215845584869385,0.41365908333153095,[0.45784056],5.0,0.6,0.0,4.461772707674765,0.1450607077198413,1.1621840495810032
2.7306222915649414,0.41150969744742755,[0.45543726],5.0,0.6,0.0,4.9566370367792505,0.14045069497904092,1.1618625803236815
2.7399227619171143,0.4095557102800608,[0.4531629],5.0,0.6,0.0,5.0,0.13954052090577573,1.165376486199762
2.7488274574279785,0.4077971218294308,[0.45101503],5.0,0.6,0.0,5.0,0.1411915563233235,1.1700134645131093
2.757575035095215,0.4058431346620641,[0.44899241],5.0,0.6,0.0,5.0,0.15808257082773847,1.1708299013810777
2.7684733867645264,0.404084546211434,[0.44709366],5.0,0.6,0.0,5.0,0.1482567696201819,1.1724962663924625
2.778078317642212,0.4025213564775407,[0.44531498],5.0,0.6,0.0,5.0,0.15513641465429484,1.175055364304693
2.787356376647949,0.401153565460384,[0.44365281],5.0,0.6,0.0,5.0,0.16198368080520192,1.1785457557302363
2.7968080043792725,0.40017657187670064,[0.44210547],5.0,0.6,0.0,5.0,0.17341523687961458,1.1852890132046474
2.810570478439331,0.39880878085954397,[0.44067156],5.0,0.6,0.0,5.0,0.1774561531391197,1.1860689448557618
2.8215882778167725,0.3978317872758606,[0.43934871],5.0,0.6,0.0,5.0,0.18131276152223869,1.1901429538189061
2.8302359580993652,0.3974409898423873,[0.4381338],5.0,0.6,0.0,5.0,0.18316338423475328,1.1998073263427016
2.8396337032318115,0.39685479369217724,[0.43702389],5.0,0.6,0.0,4.821219854504042,0.18813564657782345,1.2071759316745838
2.8492374420166016,0.39646399625870393,[0.43601612],5.0,0.6,0.0,4.2458511582348635,0.18988297773900972,1.2181009760634838
2.857990264892578,0.39626859754196725,[0.43510731],5.0,0.6,0.0,3.8771891466876562,0.19155458510530596,1.2285019965995783
2.867616653442383,0.39626859754196725,[0.43429399],5.0,0.6,0.0,3.5986062000546726,0.19120282167126246,1.2393251961549718
2.8775784969329834,0.39626859754196725,[0.43357262],5.0,0.6,0.0,3.3587761977836395,0.19255542448924837,1.2487282774408939
2.8893539905548096,0.39646399625870393,[0.43294021],5.0,0.6,0.0,2.8606486699766274,0.19804284771175878,1.2603056253451719
2.8987972736358643,0.39665939497544056,[0.43239447],5.0,0.6,0.0,2.0636274255118874,0.20009699360577732,1.2714472044053489
2.908489465713501,0.397050192408914,[0.43193304],5.0,0.6,0.0,1.5730712713042907,0.20161525898567012,1.2821485600100964
2.9166083335876465,0.3974409898423873,[0.43155266],5.0,0.6,0.0,0.9794873305245351,0.19607877085286812,1.2916608303270272
2.9265875816345215,0.3978317872758606,[0.43124956],5.0,0.6,0.0,0.17771718357173705,0.19986228799802164,1.2998117161473535
2.9395577907562256,0.3986133821428072,[0.43102085],5.0,0.6,0.0,-0.5408852000505772,0.2017982951761808,1.3103269645353164
2.949603319168091,0.3991995782930173,[0.43086446],5.0,0.6,0.0,-1.0896824885916585,0.20472519501074304,1.3174114298492683
2.957625389099121,0.3997857744432273,[0.43077744],5.0,0.6,0.0,-1.4664548618306847,0.19664838994604583,1.3236288417230127
2.966982841491699,0.4003719705934373,[0.43075604],5.0,0.6,0.0,-1.6986510030850692,0.2020486800974224,1.3292616449804378
2.9775872230529785,0.4013489641771207,[0.43079779],5.0,0.6,0.0,-2.0958308784436928,0.20511237540084928,1.3375028523798047
2.985672950744629,0.4019351603273307,[0.43090143],5.0,0.6,0.0,-2.445521369324454,0.20984508657891277,1.341083139957881
2.9949393272399902,0.40291215391101404,[0.43106578],5.0,0.6,0.0,-2.684132828704083,0.2123729549670007,1.348066958432812
3.0054659843444824,0.4038891474946974,[0.4312897],5.0,0.6,0.0,-2.53339270903509,0.21458453246483009,1.3558170853603475
3.0163400173187256,0.4052569385118541,[0.43157212],5.0,0.6,0.0,-2.5315596508198217,0.2147878311577481,1.365917186759275
3.0254290103912354,0.40603853337880075,[0.43191196],5.0,0.6,0.0,-2.27160587196503,0.21758819109906125,1.3708624809062195
3.0365471839904785,0.4074063243959575,[0.43230815],5.0,0.6,0.0,-2.2267075282618167,0.2176756547230842,1.3796847040153373
3.0488808155059814,0.40916491284658746,[0.43276129],5.0,0.6,0.0,-1.956828869963206,0.233277498314609,1.3917762615148548
3.0584299564361572,0.4101419064302709,[0.43327343],5.0,0.6,0.0,-1.9183399086807356,0.2304673567484168,1.3957816309503146
3.068118095397949,0.41150969744742755,[0.4338426],5.0,0.6,0.0,-2.2146896132556395,0.20823226024703947,1.4014242101645729
3.0765562057495117,0.41268208974784754,[0.4344615],5.0,0.6,0.0,-1.9838979296509525,0.19225079926718996,1.4065712146345601
3.0865938663482666,0.4140498807650042,[0.43512353],5.0,0.6,0.0,-2.1554870831388824,0.19931555968606934,1.4115638806618953
3.096980094909668,0.4156130704988976,[0.43582834],5.0,0.6,0.0,-2.12213672233159,0.22304886910947766,1.4181782740204238
3.10965895652771,0.4175670576662643,[0.43657917],5.0,0.6,0.0,-2.0036667658066323,0.2180977108756981,1.4272795169049652
3.1236844062805176,0.4199118422671044,[0.43737875],5.0,0.6,0.0,-1.8562535900106587,0.232258585931971,1.4382473995281326
3.1326589584350586,0.4214750320009977,[0.4382272],5.0,0.6,0.0,-1.705254157930519,0.20346539638198047,1.443259063273595
3.1429965496063232,0.4236244178851011,[0.43912226],5.0,0.6,0.0,-1.8373651532056083,0.22082587296598968,1.450592154365978
3.1519322395324707,0.4251876076189945,[0.44006156],5.0,0.6,0.0,-1.7374498754696834,0.19330015206985515,1.454475624275319
3.161742925643921,0.4269461960696245,[0.44104067],5.0,0.6,0.0,-1.8369950017670647,0.1936679081857722,1.4585423796796932
3.170646905899048,0.4287047845202545,[0.44205345],5.0,0.6,0.0,-1.6837705044667823,0.17126343365981497,1.4628841630393525
3.180392026901245,0.43046337297088455,[0.44309443],5.0,0.6,0.0,-1.7340999564802266,0.17692869231795863,1.4663615131000056
3.1896183490753174,0.4320265627047779,[0.44415874],5.0,0.6,0.0,-1.8196019848123348,0.15894555866536234,1.4685325187695146
3.198988914489746,0.43378515115540794,[0.44524214],5.0,0.6,0.0,-1.8783489735182008,0.16763876524369312,1.4714695851739124
3.2104618549346924,0.43573913832277467,[0.44634318],5.0,0.6,0.0,-1.8947787239281086,0.1724694346610123,1.4750964544339142
3.219665288925171,0.4374977267734046,[0.44746283],5.0,0.6,0.0,-2.1477616860203605,0.17632048222091712,1.47691319058636
3.2275824546813965,0.439060916507298,[0.44859962],5.0,0.6,0.0,-2.4030748792445737,0.15608696272967496,1.4776868926311948
3.2359695434570312,0.4406241062411914,[0.44974995],5.0,0.6,0.0,-2.3057536419510263,0.1649242939024805,1.4795397746489058
3.2456746101379395,0.44238269469182145,[0.45091072],5.0,0.6,0.0,-2.361744469091837,0.1462184362603091,1.481424871699193
3.255620241165161,0.44453208057592475,[0.45207931],5.0,0.6,0.0,-2.4281225901946373,0.15460629301037843,1.484302879998775
3.2658181190490723,0.44589987159308153,[0.45325589],5.0,0.6,0.0,-2.4560961058613273,0.16345034211731924,1.4847657147968996
3.2747833728790283,0.44765846004371157,[0.45444059],5.0,0.6,0.0,-2.4369152173305872,0.14338707874504134,1.486441535564404
3.2845327854156494,0.4494170484943415,[0.45562876],5.0,0.6,0.0,-2.652990356539858,0.1283732043516139,1.4871006163064493
3.297065258026123,0.4515664343784449,[0.4568165],5.0,0.6,0.0,-2.595889416274469,0.14001964947653686,1.4895113689960344
3.309089183807373,0.4535204215458116,[0.45800535],5.0,0.6,0.0,-2.7065626437520267,0.14820803048563516,1.4905616970360818
3.319040298461914,0.4552790099964417,[0.45919914],5.0,0.6,0.0,-2.817752488297091,0.1541147453791795,1.4910556926733092
3.3283638954162598,0.45645140229686165,[0.46040111],5.0,0.6,0.0,-2.874169583214752,0.16047620930988055,1.4907731081366398
3.338592052459717,0.45820999074749164,[0.4616115],5.0,0.6,0.0,-2.8677405697194507,0.13768769322846205,1.491604046530264
3.351597785949707,0.45996857919812173,[0.46283041],5.0,0.6,0.0,-2.807883735042659,0.16951677604312115,1.4925286244747555
3.359748363494873,0.4613363702152784,[0.46406266],5.0,0.6,0.0,-2.4324629760348198,0.16889854742846794,1.4941293876086112
3.3691964149475098,0.4627041612324352,[0.46531208],5.0,0.6,0.0,-2.2736093815701093,0.1679898352714136,1.494807414494821
3.3775758743286133,0.4638765535328551,[0.46657673],5.0,0.6,0.0,-2.1873892844577743,0.14419985229686585,1.4949938152189577
3.390746831893921,0.4656351419834852,[0.46785222],5.0,0.6,0.0,-2.1146903205307463,0.14812740299978203,1.4956995530977162
3.4032363891601562,0.4673937304341152,[0.46913924],5.0,0.6,0.0,-2.034781680789141,0.1724078405272266,1.4963182328367293
3.414055824279785,0.4689569201680086,[0.47044265],5.0,0.6,0.0,-1.9433167868167,0.16644090314712537,1.4967552958750823
3.4215211868286133,0.47012931246842854,[0.4717614],5.0,0.6,0.0,-1.842189307394877,0.14079607229440796,1.4969475271396795
3.4302990436553955,0.47149710348558527,[0.47308957],5.0,0.6,0.0,-1.7350584248597716,0.14371340083735898,1.4972569860856764
3.4401283264160156,0.472864894502742,[0.47442401],5.0,0.6,0.0,-1.3494902534268638,0.14507881319067395,1.4981601375956997
3.448859453201294,0.474037286803162,[0.47576393],5.0,0.6,0.0,-1.2073677041786661,0.14627377951511178,1.498319957305102
3.458496570587158,0.47520967910358203,[0.47710823],5.0,0.6,0.0,-0.8801111575022702,0.14638934135011947,1.4987030832461705
3.466580867767334,0.476382071404002,[0.47845356],5.0,0.6,0.0,-0.8208972333111613,0.1253046889120287,1.4986407740190972
3.4750983715057373,0.47755446370442206,[0.47979473],5.0,0.6,0.0,-0.5733545526782254,0.13093234642710638,1.4987520933425067
3.4839975833892822,0.4787268560048421,[0.48112921],5.0,0.6,0.0,-0.581361226837829,0.13460177759746672,1.4985948791417698
3.4915521144866943,0.47970384958852547,[0.48245475],5.0,0.6,0.0,-0.6631571904282271,0.11757965567051051,1.4981603870423503
3.5019030570983887,0.48068084317220877,[0.48376929],5.0,0.6,0.0,-0.4691758261693696,0.14518287625320486,1.4979302819221538
3.5106468200683594,0.48165783675589213,[0.48507292],5.0,0.6,0.0,-0.769697230995559,0.12572588575754975,1.4972293420314113
3.5193581581115723,0.4826348303395755,[0.48636377],5.0,0.6,0.0,-0.8870747340994927,0.13124659893077992,1.496637437347508
3.5290145874023438,0.48361182392325885,[0.48764015],5.0,0.6,0.0,-0.9125332784499737,0.13498990594129648,1.4961402943297821
3.537698268890381,0.4845888175069422,[0.48890065],5.0,0.6,0.0,-0.8926063953138376,0.11876959891386778,1.4956957740218937
3.5499496459960938,0.48537041237388884,[0.4901423],5.0,0.6,0.0,-1.1271785952577602,0.12723005372194932,1.4945112897119828
3.5603582859039307,0.48654280467430894,[0.4913644],5.0,0.6,0.0,-1.10956627914235,0.13134844488042074,1.4944456126105519
3.5717203617095947,0.48751979825799224,[0.49256823],5.0,0.6,0.0,-1.00078209356809,0.13466018179527944,1.4941706259016383
3.581416606903076,0.4884967918416756,[0.49375484],5.0,0.6,0.0,-0.8713001761643471,0.13669689706030033,1.4939210320026288
3.589956283569336,0.4890829879918856,[0.49492514],5.0,0.6,0.0,-0.7492995513042515,0.13981958245262788,1.4927793371070215
3.6015586853027344,0.49025538029230564,[0.49607988],5.0,0.6,0.0,-0.6438964267509721,0.1397930277478005,1.4929294703114242
3.6115663051605225,0.4910369751592523,[0.49721986],5.0,0.6,0.0,-0.5561375338406238,0.14192332691144774,1.4921533533780238
3.6209731101989746,0.49181857002619894,[0.49834604],5.0,0.6,0.0,-0.4840606227661476,0.14480092631166214,1.4913402451284907
3.631101608276367,0.4926001648931457,[0.49945972],5.0,0.6,0.0,-0.14888083579511519,0.1487064956842683,1.4906169517941634
3.642141342163086,0.4935771584768291,[0.50056276],5.0,0.6,0.0,-0.06691787195902979,0.15339508383539702,1.490284411225201
3.651566743850708,0.49435875334377566,[0.5016557],5.0,0.6,0.0,0.19477768584094246,0.139257898596131,1.4893791871072644
3.6605234146118164,0.4951403482107224,[0.50273804],5.0,0.6,0.0,0.46228765068521205,0.15325940282866962,1.4883623451105077
3.6698131561279297,0.49611734179440575,[0.50381272],5.0,0.6,0.0,0.6752955094691,0.16698803343380422,1.4878867375413032
3.679628610610962,0.49689893666135243,[0.50488596],5.0,0.6,0.0,0.8221786508189786,0.18273129195013782,1.4868195814920986
3.6882073879241943,0.4974851328115624,[0.50596502],5.0,0.6,0.0,0.9099956924887955,0.200268973500422,1.4851051624167655
3.6956329345703125,0.4980713289617725,[0.50705488],5.0,0.6,0.0,0.9511882638345094,0.18719431307695014,1.4833156600863142
3.7055344581604004,0.49904832254545584,[0.50815844],5.0,0.6,0.0,0.9581269080141478,0.21200362527459482,1.4828552479081751
3.7151451110839844,0.5000253161291391,[0.5092832],5.0,0.6,0.0,0.941219922356022,0.23576516126793057,1.482345388349648
3.723905563354492,0.5010023097128224,[0.51044093],5.0,0.6,0.0,0.9085523320969172,0.25856267641124386,1.4817261681462164
3.731790065765381,0.5017839045797692,[0.51163957],5.0,0.6,0.0,1.1421524009990431,0.2422667441376611,1.4797905065138555
3.742732048034668,0.5031516955969259,[0.51288835],5.0,0.6,0.0,1.403400814247684,0.30966196723423484,1.4797541670985617
3.7515792846679688,0.504324087897346,[0.51420133],5.0,0.6,0.0,1.8831123457663694,0.2868764170218175,1.478044376007873
3.761326789855957,0.5056918789145026,[0.51558705],5.0,0.6,0.0,2.3194264622302523,0.31232831586607723,1.4766189408709014
3.7708895206451416,0.5068642712149226,[0.517055],5.0,0.6,0.0,2.631033811371603,0.3344785300879109,1.4743174902167782
3.7794017791748047,0.508427460948816,[0.51862034],5.0,0.6,0.0,2.811707779361759,0.35076716381920564,1.4735849450126444
3.7896201610565186,0.510186049399446,[0.52029778],5.0,0.6,0.0,3.1581910110294755,0.36241613043429316,1.4723883127998922
3.799187421798706,0.5121400365668127,[0.52210145],5.0,0.6,0.0,3.4543347194521186,0.36994274633213925,1.4715456177007828
3.807889461517334,0.5137032263007061,[0.52404461],5.0,0.6,0.0,4.188626499513498,0.37632803126302816,1.4659471748684187
3.8166327476501465,0.5158526121848095,[0.52613175],5.0,0.6,0.0,4.322146283079375,0.36178866443562535,1.4653750598742075
3.826385498046875,0.5180019980689128,[0.52836761],5.0,0.6,0.0,4.737059688856565,0.3722680747068245,1.4623118434422429
3.835872173309326,0.5203467826697529,[0.53076413],5.0,0.6,0.0,4.830865217943209,0.37472841787429795,1.4614556981257594
3.8456127643585205,0.5232777634208029,[0.53332312],5.0,0.6,0.0,5.0,0.3729316588299679,1.4617525299177891
3.855821371078491,0.5262087441718529,[0.53604656],5.0,0.6,0.0,5.0,0.3655268748146229,1.4625616553602576
3.868877649307251,0.5301167185065864,[0.53895395],5.0,0.6,0.0,5.0,0.28545370062057845,1.466234079417044
3.8775713443756104,0.5332430979743731,[0.54207135],5.0,0.6,0.0,5.0,0.2826331342386103,1.4662653048916559
3.8868215084075928,0.5363694774421598,[0.54541159],5.0,0.6,0.0,5.0,0.2765326752910739,1.4655130655518582
3.8969807624816895,0.5400820530601566,[0.54897574],5.0,0.6,0.0,4.851856883980102,0.26482453234262326,1.467084877244529
3.9075000286102295,0.5437946286781532,[0.55276396],5.0,0.6,0.0,4.57291554045819,0.25652752082914554,1.4687122197226339
3.9185945987701416,0.5475072042961501,[0.55676488],5.0,0.6,0.0,4.24998103646428,0.3316909094359998,1.4697387359076468
3.930182933807373,0.5514151786308834,[0.56095722],5.0,0.6,0.0,3.371161798762268,0.30236267383370047,1.473565929489279
3.942847490310669,0.5561047478325636,[0.56533276],5.0,0.6,0.0,2.7159077500631623,0.26593008431601733,1.4776521837125447
3.9514122009277344,0.5594265260170869,[0.56988327],5.0,0.6,0.0,1.9485107087964193,0.3374806965718603,1.4755504107947681
3.9609034061431885,0.5633345003518203,[0.57458991],5.0,0.6,0.0,0.9913885735793077,0.3009138229324624,1.4742503480533204
3.9732279777526855,0.5699780567208671,[0.57944749],5.0,0.6,0.0,0.9712465799545253,0.258883521105059,1.4815241234822136
3.994447946548462,0.5762308156564405,[0.58447467],5.0,0.6,0.0,0.69290749239442,0.30370567938192095,1.4861424560508265
4.0036540031433105,0.5799433912744373,[0.58968696],5.0,0.6,0.0,0.09996011763610918,0.2696279668558029,1.4811842566730045
4.011547565460205,0.5834605681756972,[0.59506053],5.0,0.6,0.0,-0.7588690054862854,0.31070083708280977,1.4730185894183727
4.021858215332031,0.5877593399439041,[0.60056234],5.0,0.6,0.0,-1.2549897304440953,0.2769980427046647,1.4665771529890859
4.030980348587036,0.5912765168451641,[0.60618851],5.0,0.6,0.0,-2.0770722560430084,0.30337215382071425,1.4532997450381568
4.039108514785767,0.5947936937464242,[0.61194803],5.0,0.6,0.0,-2.8229939345120343,0.3276303127021017,1.4369469000085515
4.048377752304077,0.5983108706476843,[0.61784852],5.0,0.6,0.0,-3.0927524144032903,0.35003252750555514,1.4194276362589073
4.057982444763184,0.6022188449824176,[0.62389626],5.0,0.6,0.0,-3.120819204200332,0.3692780094984424,1.4031012792027266
4.066641330718994,0.6057360218836778,[0.63008266],5.0,0.6,0.0,-3.3043171089538697,0.34526834193075207,1.3801437641099152
4.076614618301392,0.6096439962184113,[0.6363864],5.0,0.6,0.0,-3.7393857851914234,0.37567474048949445,1.3564256624549949
4.085610389709473,0.6133565718364078,[0.64280226],5.0,0.6,0.0,-3.8518862122607826,0.4034111435243956,1.329869420620738
4.094480276107788,0.6166783500209313,[0.6493388],5.0,0.6,0.0,-3.516883587728957,0.4301415346631245,1.2987577640157844
4.103145599365234,0.620390925638928,[0.65600257],5.0,0.6,0.0,-3.3352712358685026,0.4529846020025467,1.267760255250605
4.1115007400512695,0.6235173051067148,[0.66278428],5.0,0.6,0.0,-3.197533643831357,0.43141508288837177,1.227083518654267
4.120014190673828,0.6268390832912382,[0.66966115],5.0,0.6,0.0,-3.061723463218352,0.46699013692052593,1.1860561163571015
4.127893447875977,0.6299654627590249,[0.67662696],5.0,0.6,0.0,-2.915597161841815,0.49950537130962175,1.1406795971799832
4.135796308517456,0.6332872409435483,[0.68367557],5.0,0.6,0.0,-2.758925900898787,0.4814361623431762,1.0961858951615147
4.144564390182495,0.6368044178448083,[0.69078704],5.0,0.6,0.0,-2.5955195917437988,0.5197140310841641,1.0533292899274649
4.152481317520142,0.639930797312595,[0.69794384],5.0,0.6,0.0,-2.4298455607031415,0.5082328229087079,1.005747597467265
4.160756826400757,0.6432525754971185,[0.70513073],5.0,0.6,0.0,-2.2657612423844644,0.5516026117731052,0.9611636184442762
4.169558525085449,0.6469651511151151,[0.71234871],5.0,0.6,0.0,-2.1061756971342867,0.5866246167666012,0.9219911168210646
4.177855730056763,0.6502869292996385,[0.71961247],5.0,0.6,0.0,-1.9530859020440001,0.6186061848066413,0.8795997972482017
4.186996936798096,0.6539995049176353,[0.72693397],5.0,0.6,0.0,-1.807737768747929,0.6453343092404961,0.8426849074307059
4.1949310302734375,0.6571258843854221,[0.73430846],5.0,0.6,0.0,-1.6708057426507876,0.625914923360639,0.8017127532091054
4.203306436538696,0.6602522638532087,[0.74171712],5.0,0.6,0.0,-1.5425511191184014,0.6651006260543191,0.7634229282727791
4.213756561279297,0.6645510356214154,[0.7491577],5.0,0.6,0.0,-1.4229483842535389,0.6936779265968696,0.7374075956414806
4.221503734588623,0.6674820163724656,[0.75662782],5.0,0.6,0.0,-1.3117806965529608,0.6785929108643132,0.7027697470869597
4.230530738830566,0.6711945919904623,[0.76411084],5.0,0.6,0.0,-1.208709586343709,0.7170308501201939,0.6767865734729679
4.240545988082886,0.6751025663251957,[0.77160642],5.0,0.6,0.0,-1.1133245699903724,0.7488805525208616,0.654346779332904
4.250532150268555,0.6792059393766657,[0.77912795],5.0,0.6,0.0,-1.0251777341257897,0.7754714472182088,0.6349762032019111
4.2596399784088135,0.6829185149946625,[0.78668611],5.0,0.6,0.0,-0.9438073583834365,0.801004932255233,0.6154095398127699
4.270613431930542,0.6872172867628693,[0.79428913],5.0,0.6,0.0,-0.8687536858908407,0.8217791476088251,0.6004141399499294
4.279999494552612,0.6907344636641293,[0.8019431],5.0,0.6,0.0,-0.7995691453875892,0.8452002471773199,0.5838159840677267
4.289501905441284,0.694447039282126,[0.80965234],5.0,0.6,0.0,-0.7358246983358538,0.8670319563372684,0.5699344616917328
4.299481391906738,0.6985504123335962,[0.81741967],5.0,0.6,0.0,-0.6771135099353193,0.8867050864521845,0.5589093834050005
4.309718132019043,0.702849184101803,[0.82524672],5.0,0.6,0.0,-0.6230527944973261,0.9053176366378355,0.5496861522458587
4.319302558898926,0.7067571584365363,[0.83313423],5.0,0.6,0.0,-0.29724607407382214,0.9260736225445122,0.5409321885216325
4.329614162445068,0.7108605314880063,[0.84108228],5.0,0.6,0.0,-0.21831182371531027,0.9462057451906724,0.5336213113888054
4.340360879898071,0.7149639045394763,[0.84909047],5.0,0.6,0.0,-0.23124827440127252,0.9666965989308127,0.5273389706427754
4.3505213260650635,0.7190672775909466,[0.85715813],5.0,0.6,0.0,-0.2685341859003207,0.9876108070455374,0.5220101299401593
4.361837387084961,0.7237568467926265,[0.86528441],5.0,0.6,0.0,-0.303353890365656,1.006125986520182,0.5181373882761634
4.370235204696655,0.7270786249771499,[0.87346847],5.0,0.6,0.0,-0.32712348563327764,1.031884501989146,0.5136802395591364
4.377501010894775,0.7298142070114633,[0.88169517],5.0,0.6,0.0,-0.338893240810788,1.0135072920449064,0.5098309134129156
4.38794732093811,0.7341129787796701,[0.88995193],5.0,0.6,0.0,-0.34049607510582947,1.0965194964315772,0.507686264174057
4.395516872406006,0.7370439595307202,[0.89824269],5.0,0.6,0.0,-0.33443466945941147,1.0733670759703227,0.5054498536248577
4.403508901596069,0.7403657377152436,[0.90655649],5.0,0.6,0.0,-0.32304382959109323,1.111111469725194,0.5039126860372108
4.411568641662598,0.7432967184662935,[0.91486987],5.0,0.6,0.0,-0.30822464552325407,1.0994122844656473,0.5027032727939021
4.420539855957031,0.7468138953675537,[0.92316358],5.0,0.6,0.0,-0.2914184838497291,1.1450306255122948,0.5019263453972991
4.430335760116577,0.7507218697022872,[0.93143707],5.0,0.6,0.0,-0.27366866429899683,1.1834001661763736,0.5014009291874232
4.439620018005371,0.7546298440370205,[0.93969074],5.0,0.6,0.0,-0.2557034286549081,1.167673249657154,0.501011308585226
4.449705123901367,0.7587332170884905,[0.94791091],5.0,0.6,0.0,0.03802457702139661,1.2117709665775347,0.5007778141134873
4.457603693008423,0.7618595965562772,[0.95608705],5.0,0.6,0.0,0.08824521896675701,1.2042948063008068,0.5005230239795521
4.466629266738892,0.7657675708910107,[0.96421139],5.0,0.6,0.0,-0.2265827344851358,1.2530633962035578,0.5003415368576997
4.476516246795654,0.7694801465090074,[0.97229412],5.0,0.6,0.0,-0.3203816720066999,1.2955554359909707,0.5001910142211426
4.486536979675293,0.7735835195604776,[0.98036054],5.0,0.6,0.0,-0.04530452852681391,1.330594339640794,0.5001917566971932
4.4995551109313965,0.7786638861956309,[0.988449],5.0,0.6,0.0,0.020791350438088954,1.4092413999800868,0.5001501162697809
4.510671854019165,0.783353455397311,[0.99660853],5.0,0.6,0.0,0.00678754902048203,1.4206655943507225,0.5001121300144388
4.521208047866821,0.7878476258822544,[1.00486503],5.0,0.6,0.0,-0.030429077799186726,1.4355116110290356,0.5000804526498457
4.5317909717559814,0.7921463976504612,[1.01322433],5.0,0.6,0.0,-0.06768392636895876,1.453683999445676,0.5000534400308404
4.541054010391235,0.7956635745517212,[1.02169083],5.0,0.6,0.0,-0.09706045399757314,1.4775548017766518,0.5000295067425538
4.549500465393066,0.7987899540195079,[1.03025135],5.0,0.6,0.0,-0.11715389658569397,1.4509792928365102,0.5000119952313219
4.559468030929565,0.8025025296375047,[1.03886156],5.0,0.6,0.0,-0.12903458494002779,1.4375055643670798,0.500001652711457
4.567978620529175,0.8060197065387646,[1.04748372],5.0,0.6,0.0,-0.13446502062453847,1.4905665592250834,0.49999516468318245
4.577377557754517,0.8099276808734982,[1.05610231],5.0,0.6,0.0,-0.13517311192176792,1.4801053472766117,0.49999184597377216
4.593569040298462,0.8165712372425449,[1.06470454],5.0,0.6,0.0,-0.1326039936367646,1.5202714094899004,0.4999913991091216
4.604637861251831,0.8208700090107517,[1.07329665],5.0,0.6,0.0,-0.12787649841679866,1.5635865113627065,0.4999907476626702
4.618570327758789,0.8263411730793784,[1.08190091],5.0,0.6,0.0,-0.12181771193449661,1.5952663429313296,0.49999107766276374
4.633726358413696,0.8325939320149518,[1.09055319],5.0,0.6,0.0,-0.11501960655427236,1.6737738506224347,0.4999918122048957
4.6455137729644775,0.837283501216632,[1.09928362],5.0,0.6,0.0,-0.10789484523243853,1.6313061049076396,0.4999924248545139
4.660610675811768,0.8433408614354688,[1.10808375],5.0,0.6,0.0,-0.10072386720576892,1.6554532476004669,0.4999932647841174
4.670608282089233,0.8476396332036755,[1.11694585],5.0,0.6,0.0,-0.09369180681875354,1.686229610849544,0.49999396732776624
4.6810736656188965,0.8515476075384089,[1.12587958],5.0,0.6,0.0,-0.08691626770337472,1.717280705943616,0.4999946670204807
4.688490629196167,0.8546739870061957,[1.1348757],5.0,0.6,0.0,-0.08046768565693435,1.6954915614489303,0.49999533150590453
4.697744846343994,0.8583865626241924,[1.14392593],5.0,0.6,0.0,-0.07438400214772589,1.7972854767228892,0.4999959640879947
4.705497980117798,0.861512942091979,[1.15303966],5.0,0.6,0.0,-0.0686811078084297,1.7696438829173138,0.4999965301049292
4.715139627456665,0.8650301189932391,[1.16220729],5.0,0.6,0.0,-0.06336020421253377,1.8125066834981478,0.4999970329378026
4.723967790603638,0.8689380933279726,[1.17142032],5.0,0.6,0.0,-0.05841295086879582,1.8499643417090843,0.4999974713504288
4.732528924942017,0.8722598715124958,[1.18067105],5.0,0.6,0.0,-0.05382503563108741,1.831292896687401,0.49999784884892823
4.743325233459473,0.8771448394309127,[1.18995263],5.0,0.6,0.0,-0.049578630731168694,1.9311518003905186,0.49999817340593666
4.75150728225708,0.8802712188986994,[1.1992759],5.0,0.6,0.0,-0.04565406552211884,1.9055228736860859,0.49999844990148057
4.759722709655762,0.8835929970832228,[1.2086326],5.0,0.6,0.0,-0.042030951297102756,1.9512677727654462,0.499998685608825
4.768509864807129,0.8869147752677462,[1.21801538],5.0,0.6,0.0,-0.038688924576016755,1.9928908273175303,0.4999988860585599
4.776554107666016,0.890041154735533,[1.22741768],5.0,0.6,0.0,-0.035608126013373695,1.976171930638396,0.4999990562765504
4.786996364593506,0.8943399265037396,[1.23683378],5.0,0.6,0.0,-0.032769497132431,2.0800133291951766,0.49999920069836884
4.797702074050903,0.8984432995552097,[1.24629278],5.0,0.6,0.0,-0.030154952410902304,2.106424757775216,0.4999993231322187
4.807558059692383,0.9021558751732064,[1.25581876],5.0,0.6,0.0,-0.30378582653538116,2.134870742639235,0.49993130711298006
4.817176818847656,0.9062592482246766,[1.26541428],5.0,0.6,0.0,-0.33469406984758565,2.161879269681181,0.49991661912208196
4.8254570960998535,0.9095810264092,[1.27506361],5.0,0.6,0.0,-0.2775567309707413,2.1369584402096975,0.49994265635714863
4.834972858428955,0.9136843994606699,[1.28475287],5.0,0.6,0.0,-0.19959412824399808,2.2375786254110626,0.49997034558903475
4.8425352573394775,0.9166153802117202,[1.29448698],5.0,0.6,0.0,-0.12734355553675392,2.210859508521804,0.4999879286633559
4.851802825927734,0.9203279558297169,[1.30426969],5.0,0.6,0.0,-0.06913174264373055,2.3107841705306917,0.49999644237539426
4.860529661178589,0.9238451327309769,[1.31410376],5.0,0.6,0.0,-0.025671073948809235,2.279186439202189,0.4999995094373429
4.868845462799072,0.9271669109155003,[1.32397384],5.0,0.6,0.0,0.005090252149670467,2.323298859611553,0.4999999807121071
4.87650728225708,0.930293290383287,[1.33384951],5.0,0.6,0.0,0.30189501462624535,2.308887977631843,0.4999321594916579
4.885526418685913,0.9340058660012838,[1.34370509],5.0,0.6,0.0,0.3483117588917962,2.3623685177264773,0.4999096966780437
4.896503925323486,0.9385000364862272,[1.3535366],5.0,0.6,0.0,0.025066279097647942,2.4059830735267806,0.49999953227970695
4.910530090332031,0.9443619979883273,[1.36339311],5.0,0.6,0.0,-0.08005623135334723,2.5521513145339054,0.4999952291596135
4.920484304428101,0.9482699723230607,[1.37335068],5.0,0.6,0.0,-0.09400919391397444,2.5579959830479178,0.49999342123344587
4.931835412979126,0.9525687440912673,[1.38345552],5.0,0.6,0.0,-0.07482638884032314,2.626595462669016,0.499995832127373
4.941483974456787,0.9562813197092642,[1.39372796],5.0,0.6,0.0,-0.32375904256515364,2.630382594058646,0.49992197808550254
4.949504137039185,0.9596030978937875,[1.40416582],5.0,0.6,0.0,-0.3318042016257993,2.6451797350240875,0.49991805266282835
4.9615819454193115,0.9646834645289409,[1.41476532],5.0,0.6,0.0,-0.2567733567635917,2.716047406116378,0.4999509221784159
4.971450090408325,0.9683960401469377,[1.42552126],5.0,0.6,0.0,-0.16616661888090858,2.666724497594165,0.499979446522354
4.980554103851318,0.9721086157649345,[1.43639235],5.0,0.6,0.0,-0.08576572421674766,2.6999759466443827,0.49999452439872777
4.989479064941406,0.9756257926661944,[1.44734225],5.0,0.6,0.0,-0.02289809236449411,2.735906582121711,0.49999960969410423
4.998187065124512,0.9793383682841913,[1.45835667],5.0,0.6,0.0,0.022653755918704666,2.7715306487077345,0.4999996179792584
5.0070507526397705,0.9828555451854514,[1.46942263],5.0,0.6,0.0,0.05370322564782865,2.8085497339347096,0.4999978531263426
5.01547646522522,0.986568120803448,[1.48051108],5.0,0.6,0.0,0.34957745120500294,2.7875493439643595,0.49990903925855484
5.025511741638184,0.9908668925716548,[1.49159713],5.0,0.6,0.0,0.3942758561897565,2.89522792464786,0.49988429375840543
5.034732103347778,0.9943840694729149,[1.50267711],5.0,0.6,0.0,0.06883328005007389,2.870671475717822,0.49999647302749745
5.043098449707031,0.9977058476574382,[1.51373039],5.0,0.6,0.0,-0.03874824222700188,2.921974880332659,0.49999888233872947
5.0514609813690186,1.0010276258419617,[1.52472237],5.0,0.6,0.0,-0.05527303702095655,2.912211407959175,0.49999772578068624
5.060441493988037,1.0047402014599582,[1.53562453],5.0,0.6,0.0,0.23736378156845978,2.971295766598945,0.49995806106811147
5.0695672035217285,1.0082573783612183,[1.54643126],5.0,0.6,0.0,0.2950629190778511,3.024499771808126,0.49993519510688894
5.0786638259887695,1.0115791565457417,[1.55715644],5.0,0.6,0.0,-0.013429827555023865,3.073274875821882,0.4999998657397383
5.088552474975586,1.0156825295972118,[1.56781287],5.0,0.6,0.0,-0.10502322141204232,3.1143389747388,0.4999917894210713
5.09807562828064,1.019785902648682,[1.57841226],5.0,0.6,0.0,-0.10811200018547693,3.152641414812304,0.499991299369981
5.107379198074341,1.0236938769834154,[1.58896536],5.0,0.6,0.0,0.19522027874586045,3.1900190498417373,0.49997163098795794
5.117284059524536,1.0277972500348853,[1.59948197],5.0,0.6,0.0,0.26120600223758694,3.2251306290926665,0.4999492131914365
5.127691745758057,1.0319006230863554,[1.60997101],5.0,0.6,0.0,-0.040943984291313434,3.259400595812703,0.4999987520811719
5.13827657699585,1.0365901922880356,[1.62045807],5.0,0.6,0.0,0.14834287516263728,3.3479514335873644,0.499983619281557
5.148009538650513,1.0403027679060324,[1.63098254],5.0,0.6,0.0,0.1820894215460941,3.3666502522394284,0.49997531885015306
5.1585798263549805,1.0444061409575025,[1.64155996],5.0,0.6,0.0,0.15715507024944525,3.387928929329585,0.4999816153449742
5.1685521602630615,1.0485095140089724,[1.65218555],5.0,0.6,0.0,0.11617713580314903,3.413026256935992,0.4999899528325025
5.178970575332642,1.053003684493916,[1.66285492],5.0,0.6,0.0,0.0764248494979114,3.438905876298931,0.49999565215581854
5.187110185623169,1.0561300639617026,[1.67356415],5.0,0.6,0.0,0.043703058098044936,3.4735961580603845,0.4999985782287991
5.195420742034912,1.0592564434294893,[1.68429199],5.0,0.6,0.0,0.018937789726562702,3.451086970731888,0.4999997330283537
5.205701112747192,1.0633598164809595,[1.69502059],5.0,0.6,0.0,0.0012126692839764443,3.5586479371664788,0.4999999989053093
5.213808298110962,1.0662907972320095,[1.70575281],5.0,0.6,0.0,-0.010892302672675037,3.5338852430898475,0.49999991168264807
5.222022294998169,1.0700033728500062,[1.71647359],5.0,0.6,0.0,-0.018756934513162876,3.5821903504106083,0.49999973810314335
5.231502294540405,1.073715948468003,[1.72715285],5.0,0.6,0.0,-0.023536813572318776,3.5680423472652296,0.4999995876159769
5.241525173187256,1.0780147202362098,[1.73776568],5.0,0.6,0.0,-0.02613278345172839,3.623521125449336,0.4999994916324816
5.250562906265259,1.0817272958542066,[1.74830999],5.0,0.6,0.0,-0.027218706896837738,3.67597754890626,0.49999944850521033
5.2591612339019775,1.08504907403873,[1.75880318],5.0,0.6,0.0,-0.027285445452796195,3.7242723501785813,0.4999994457974352
5.26787257194519,1.0889570483734634,[1.76926082],5.0,0.6,0.0,-0.026683900803272508,3.766064581351789,0.4999994699643511
5.27579402923584,1.0918880291245132,[1.77967864],5.0,0.6,0.0,-0.02566125563542706,3.7505533847685717,0.499999509812459
5.2852349281311035,1.0957960034592467,[1.79003583],5.0,0.6,0.0,-0.024389383614967508,3.8048675202753293,0.49999955719946965
5.296483755111694,1.1004855726609268,[1.80035196],5.0,0.6,0.0,-0.022986243628380643,3.908989059901331,0.49999960668318344
5.305678129196167,1.1041981482789236,[1.81068049],5.0,0.6,0.0,-0.021531597030721654,3.9365109788933204,0.4999996548888332
5.31413459777832,1.107519926463447,[1.82104881],5.0,0.6,0.0,-0.02007836899343736,3.967487826280414,0.4999996999017882
5.3231728076934814,1.1108417046479702,[1.83146177],5.0,0.6,0.0,-0.018660770631723163,4.000087226014879,0.49999974078166765
5.331652402877808,1.1145542802659671,[1.84190457],5.0,0.6,0.0,-0.01730005946672421,3.970900746140787,0.4999997772068825
5.3396055698394775,1.1174852610170172,[1.85234613],5.0,0.6,0.0,-0.01600860038676338,4.025285602902891,0.4999998092285767
5.34902286529541,1.1213932353517506,[1.86277864],5.0,0.6,0.0,-0.014792714498806172,4.069348180148017,0.4999998371070249
5.358020782470703,1.1249104122530105,[1.87321366],5.0,0.6,0.0,0.2623836907552628,4.111877256042811,0.49994875422186863
5.366748571395874,1.1284275891542705,[1.88366054],5.0,0.6,0.0,0.29656890227920707,4.151823474824762,0.4999345319416601
5.374839544296265,1.1317493673387942,[1.89410875],5.0,0.6,0.0,0.24245693240522787,4.131242614945586,0.49995624205852873
5.384053468704224,1.1354619429567907,[1.90453075],5.0,0.6,0.0,0.16728506120825726,4.183658209174384,0.4999791689122899
5.393965721130371,1.1397607147249975,[1.91492072],5.0,0.6,0.0,0.09760713657821221,4.226662582494831,0.4999929080324438
5.402182579040527,1.143082492909521,[1.92529065],5.0,0.6,0.0,0.04176578278357039,4.268914045181534,0.49999870148382936
5.411481857299805,1.146599669810781,[1.9356317],5.0,0.6,0.0,0.0004884726253577033,4.249046649232046,0.4999999998223819
5.420529842376709,1.1501168467120408,[1.9459173],5.0,0.6,0.0,-0.3043007479018753,4.2998392867438735,0.49993107404709203
5.429528474807739,1.1536340236133011,[1.95614029],5.0,0.6,0.0,-0.35634088301435624,4.342279752415813,0.49990548582912847
5.439974546432495,1.1581281940982444,[1.96630911],5.0,0.6,0.0,-0.036793736677106836,4.373805719582098,0.4999989922471629
5.4504311084747314,1.1622315671497148,[1.97642779],5.0,0.6,0.0,0.06609372164441375,4.402913060351069,0.49999674818614415
5.459538459777832,1.1657487440509746,[1.98649652],5.0,0.6,0.0,0.0788750186839612,4.431551601482123,0.49999536890580665
5.470433473587036,1.1702429145359179,[1.99651213],5.0,0.6,0.0,0.059267185129015035,4.452953299301172,0.49999738522609616
5.480729341506958,1.174541686304125,[2.00646852],5.0,0.6,0.0,0.032244333676583505,4.47344474240438,0.49999922604955777
5.4905736446380615,1.1784496606388581,[2.01635683],5.0,0.6,0.0,0.007581256233011313,4.493242129822161,0.49999995721524915
5.501396656036377,1.1831392298405383,[2.0261784],5.0,0.6,0.0,-0.011726964340302137,4.550571238079816,0.4999998976287892
5.511461496353149,1.1872426028920084,[2.03593115],5.0,0.6,0.0,-0.02550163552029254,4.515100446587984,0.4999995158916943
5.520460844039917,1.190955178510005,[2.04558512],5.0,0.6,0.0,-0.034571296645241216,4.536886269958113,0.49999911031221833
5.531467437744141,1.1954493489949485,[2.05511188],5.0,0.6,0.0,0.23605050631971644,4.553661170497179,0.49995852384063705
5.539802074432373,1.1985757284627352,[2.06449748],5.0,0.6,0.0,0.2664438524037889,4.5757215907786595,0.49994715606701295
5.550467252731323,1.2026791015142053,[2.07372805],5.0,0.6,0.0,-0.06552678629141911,4.591846238228694,0.4999968037331913
5.562429904937744,1.2075640694326222,[2.08279005],5.0,0.6,0.0,-0.17427952561912266,4.603055611738505,0.4999773905710058
5.572496175765991,1.2114720437673556,[2.09167053],5.0,0.6,0.0,0.08763663310776997,4.617907390494996,0.49999428290300096
5.586419343948364,1.2167478091192456,[2.10036549],5.0,0.6,0.0,0.1420541075742231,4.652447366318769,0.499984978692251
5.598276853561401,1.2216327770376625,[2.10888624],5.0,0.6,0.0,-0.15842532340936505,4.677978544104572,0.49998131695043274
5.608535528182983,1.226126947522606,[2.11723947],5.0,0.6,0.0,0.03788735717721059,4.671214086959514,0.4999989314500317
5.617348670959473,1.2298395231406025,[2.12541188],5.0,0.6,0.0,0.08037468041319645,4.718592941701357,0.49999519112924407
5.627771615982056,1.2339428961920726,[2.13338286],5.0,0.6,0.0,0.06429315100249354,4.775146767362621,0.4999969229485281
5.635932445526123,1.2368738769431225,[2.14113472],5.0,0.6,0.0,0.03163642381549036,4.818263933511217,0.4999992549573724
5.644639253616333,1.2405864525611194,[2.14865263],5.0,0.6,0.0,-0.0005323759757033843,4.845587301022021,0.4999999997890189
5.654768466949463,1.2448852243293262,[2.1559244],5.0,0.6,0.0,-0.026425602673397913,4.862024100267013,0.49999948017609047
5.664465665817261,1.2487931986640595,[2.16294037],5.0,0.6,0.0,-0.04506127453035963,4.874753238463333,0.49999848848325934
5.674636602401733,1.2528965717155296,[2.16969323],5.0,0.6,0.0,-0.057278500781351736,4.882282188031613,0.4999975577568567
5.683855772018433,1.2566091473335264,[2.17617789],5.0,0.6,0.0,-0.06442037255018686,4.888530817867255,0.499996910758945
5.693511724472046,1.260321722951523,[2.18239136],5.0,0.6,0.0,-0.06779798006915641,4.8921033371979155,0.4999965783254526
5.702670335769653,1.2640342985695197,[2.1883326],5.0,0.6,0.0,-0.06850817331019522,4.893539762271176,0.49999650626521847
5.710636854171753,1.26696527932057,[2.19399821],5.0,0.6,0.0,-0.06740242435821069,4.869662042583597,0.49999661813519525
5.719727039337158,1.2706778549385667,[2.19938285],5.0,0.6,0.0,-0.06511320522864779,4.874194838893464,0.4999968439530652
5.728645086288452,1.2743904305565632,[2.20448811],5.0,0.6,0.0,-0.06209650187376784,4.876011209962098,0.4999971296179887
5.736438751220703,1.2779076074578233,[2.20931802],5.0,0.6,0.0,-0.058673564213331066,4.846755051577393,0.4999974373428676
5.745511054992676,1.28162018307582,[2.21387486],5.0,0.6,0.0,-0.05506609449138804,4.854529525564531,0.499997742778146
5.754666805267334,1.2851373599770801,[2.21816684],5.0,0.6,0.0,-0.0514238315589092,4.857730527630977,0.4999980315033252
5.763801336288452,1.2888499355950767,[2.22220679],5.0,0.6,0.0,-0.3238836688697883,4.8562305191383395,0.49992191801184493
5.772740125656128,1.2925625112130739,[2.22600737],5.0,0.6,0.0,-0.3535560496648511,4.851047403907058,0.4999069571917654
5.782090902328491,1.2962750868310704,[2.22958104],5.0,0.6,0.0,-0.29517044451475755,4.844087805575479,0.4999351478695599
5.789515256881714,1.2992060675821204,[2.23293732],5.0,0.6,0.0,-0.21598138753472762,4.813192983333497,0.4999652764396772
5.799422740936279,1.3031140419168539,[2.23608337],5.0,0.6,0.0,-0.1425477632411473,4.81077315956782,0.49998487411060816
5.8085315227508545,1.3068266175348506,[2.23903],5.0,0.6,0.0,-0.08320920372959338,4.805776026807777,0.4999948459673066
5.817044973373413,1.310148395719374,[2.24179087],5.0,0.6,0.0,-0.038685070940232213,4.800116528516147,0.49999888598000275
5.824397325515747,1.3132747751871607,[2.2443767],5.0,0.6,0.0,-0.006926547934152864,4.769658390608797,0.4999999642858476
5.835724115371704,1.3173781482386306,[2.24679801],5.0,0.6,0.0,0.014770447925871035,4.787256669396694,0.49999983759704153
5.844425439834595,1.3210907238566276,[2.24906989],5.0,0.6,0.0,0.02892795745626687,4.773172393222934,0.49999937706612985
5.8538291454315186,1.3249986981913608,[2.25120631],5.0,0.6,0.0,0.03762069008827866,4.757596462888372,0.49999894643888515
5.862426042556763,1.3283204763758845,[2.25321775],5.0,0.6,0.0,0.042450697077865925,4.744667967340672,0.49999865854612285
5.873719215393066,1.3330100455775644,[2.25511409],5.0,0.6,0.0,0.04460979671763648,4.724847529631295,0.49999851861985184
5.883641242980957,1.337504216062508,[2.25690454],5.0,0.6,0.0,0.04496331769854807,4.705519837197183,0.49999849504775334
5.8936240673065186,1.3416075891139778,[2.25859586],5.0,0.6,0.0,-0.2319096461260086,4.669266246924387,0.4999599661908274
5.903174161911011,1.345124766015238,[2.26019275],5.0,0.6,0.0,-0.26662239949908173,4.660779050655957,0.4999470852243757
5.911418437957764,1.3484465441997613,[2.26170011],5.0,0.6,0.0,-0.2135646731719909,4.632875325483877,0.49996604914145787
5.9217588901519775,1.3521591198177578,[2.26312464],5.0,0.6,0.0,-0.13976304430547726,4.64378536747029,0.4999854593083794
5.929506063461304,1.3552854992855448,[2.2644745],5.0,0.6,0.0,-0.07162703177424479,4.613911142128324,0.49999618091850834
5.937373876571655,1.3586072774700682,[2.26575387],5.0,0.6,0.0,-0.017401665702662633,4.58815951561912,0.49999977458219313
5.949459791183472,1.3636876441052217,[2.26696676],5.0,0.6,0.0,0.022250472643733414,4.591311743676519,0.4999996314596901
5.958380460739136,1.3672048210064816,[2.26812193],5.0,0.6,0.0,0.049409119705109625,4.576901279148896,0.4999981827272313
5.967503070831299,1.3705265991910052,[2.26922706],5.0,0.6,0.0,0.0667918101946531,4.563088035277021,0.49999667913163626
5.975414276123047,1.3736529786587917,[2.27028735],5.0,0.6,0.0,-0.1991159299260689,4.549894202729368,0.49997048750879125
5.984119415283203,1.376974756843315,[2.27130735],5.0,0.6,0.0,-0.22729296724254333,4.535415263724343,0.4999615441893975
5.992453575134277,1.380687332461312,[2.27229112],5.0,0.6,0.0,0.10519879411978347,4.518601473933463,0.499991761946259
6.002246856689453,1.384790705512782,[2.27324218],5.0,0.6,0.0,0.21335172878960196,4.4997469687682035,0.49996611680991004
6.011428356170654,1.3885032811307787,[2.27416238],5.0,0.6,0.0,0.22615828293177187,4.469287685198007,0.49996192717204024
6.023061752319336,1.3933882490491956,[2.27505333],5.0,0.6,0.0,0.20311615786176887,4.463738071692256,0.49996928982555244
6.031415700912476,1.3967100272337187,[2.275919],5.0,0.6,0.0,0.17047136795447873,4.447602262142859,0.4999783678257383
6.041414022445679,1.4008134002851889,[2.27676277],5.0,0.6,0.0,0.13889137363639364,4.427576140045745,0.49998564011423413
6.049504518508911,1.4041351784697123,[2.27758614],5.0,0.6,0.0,0.11198774593498526,4.410729476842761,0.4999906643700717
6.058789968490601,1.4076523553709723,[2.27839021],5.0,0.6,0.0,0.0903577445960846,4.393895867098732,0.49999392236240414
6.068434000015259,1.4117557284224425,[2.27917592],5.0,0.6,0.0,0.07345125826522948,4.374560990101466,0.49999598391023764
6.079000949859619,1.416054500190649,[2.27994415],5.0,0.6,0.0,0.060396561070548145,4.354282399943611,0.49999728462435733
6.087680339813232,1.4193762783751724,[2.28069562],5.0,0.6,0.0,0.050337773711944284,4.339017395549446,0.4999981137734031
6.0975892543792725,1.423284252709906,[2.28143098],5.0,0.6,0.0,0.042550785634088775,4.321051818027627,0.49999865221302153
6.105705261230469,1.4266060308944293,[2.2821508],5.0,0.6,0.0,0.03646423523181107,4.306087377014003,0.49999901021591936
6.114370107650757,1.4301232077956894,[2.28285562],5.0,0.6,0.0,0.03164409951482704,4.29021171063649,0.499999254595801
6.126700401306152,1.435203574430843,[2.28354677],5.0,0.6,0.0,0.02776784591844668,4.276000497421086,0.4999994260278666
6.134947299957275,1.4385253526153663,[2.28422621],5.0,0.6,0.0,0.024598796397208293,4.257977745579182,0.4999995495628567
6.14751672744751,1.4436057192505198,[2.28489551],5.0,0.6,0.0,0.02196440044051766,4.241112166617978,0.4999996408753422
6.155465602874756,1.4469274974350432,[2.28555505],5.0,0.6,0.0,0.01973912535797985,4.213077669286807,0.49999970995701926
6.165955066680908,1.4514216679199867,[2.2862043],5.0,0.6,0.0,0.017831519958358962,4.200889904734653,0.49999976330815193
6.1751179695129395,1.4551342435379833,[2.28684284],5.0,0.6,0.0,0.2922130306617115,4.17245004267967,0.49993644082849187
6.1841888427734375,1.4586514204392433,[2.28746952],5.0,0.6,0.0,0.32388223366999075,4.157163594526895,0.4999219187037863
6.19579553604126,1.46295019220745,[2.2880841],5.0,0.6,0.0,-0.008544021453776335,4.145929266624951,0.4999999456585388
6.20339035987854,1.4662719703919733,[2.28868721],5.0,0.6,0.0,-0.11890713768650811,4.121010238713603,0.4999894751005775
6.2127909660339355,1.4701799447267068,[2.28927861],5.0,0.6,0.0,-0.13537004545981274,4.111833829949434,0.49998635900968463
6.220370292663574,1.473110925477757,[2.28985813],5.0,0.6,0.0,-0.11684469308672621,4.089466938787029,0.4999898370393059
6.229368448257446,1.4768235010957538,[2.29042501],5.0,0.6,0.0,0.18686755809821576,4.07375081248898,0.49997400659298236
6.238972187042236,1.4805360767137503,[2.29097866],5.0,0.6,0.0,-0.02961446707894877,4.0574869389306345,0.4999993471487569
6.2484214305877686,1.484248652331747,[2.29151932],5.0,0.6,0.0,-0.09607373117754303,4.041411862601188,0.4999931291098304
6.256392478942871,1.4875704305162705,[2.29204728],5.0,0.6,0.0,-0.10044552125584769,4.026773834275626,0.4999924895740707
6.265409231185913,1.4910876074175305,[2.29256224],5.0,0.6,0.0,0.1932492013488722,4.004036727706286,0.49997220094597034
6.274309396743774,1.4946047843187906,[2.29306337],5.0,0.6,0.0,0.24876199364782622,3.9901622018533764,0.49995393673403105
6.282964706420898,1.498121961220051,[2.2935507],5.0,0.6,0.0,0.2140476299276885,3.9759051307333637,0.49996589541962444
6.292019367218018,1.5018345368380475,[2.29402502],5.0,0.6,0.0,0.15430727951719042,3.9599328144860713,0.4999822755892143
6.301074743270874,1.505547112456044,[2.29448706],5.0,0.6,0.0,0.09600754061611141,3.943724946236582,0.4999931385739844
6.309504270553589,1.5088688906405676,[2.29493693],5.0,0.6,0.0,0.04809653852496357,3.922507299425953,0.4999982779983203
6.3183677196502686,1.5123860675418277,[2.29537418],5.0,0.6,0.0,0.012056641621518885,3.9086256215236785,0.49999989179200943
6.326676607131958,1.515707845726351,[2.29579913],5.0,0.6,0.0,-0.013457858699195878,3.8952340788155557,0.4999998651786893
6.334447145462036,1.5190296239108745,[2.2962122],5.0,0.6,0.0,-0.030573931954938825,3.8748930136339617,0.49999930416068544
6.3425798416137695,1.5223514020953979,[2.29661324],5.0,0.6,0.0,-0.041366770593803684,3.862193324037326,0.4999987261762031
6.351396560668945,1.525868578996658,[2.29700223],5.0,0.6,0.0,-0.047576487097450444,3.8419079706000816,0.4999983150357634
6.363474607467651,1.5307535469150746,[2.29737981],5.0,0.6,0.0,-0.050559674292691495,3.8277040993513944,0.4999980971069321
6.374572515487671,1.5350523186832816,[2.29774768],5.0,0.6,0.0,-0.05133039739208768,3.8078678353453403,0.49999803865010484
6.38437557220459,1.5391556917347513,[2.29810732],5.0,0.6,0.0,-0.050626304894941604,3.7885822518409165,0.4999980920881412
6.393394470214844,1.5428682673527483,[2.29845945],5.0,0.6,0.0,-0.048973583691470646,3.7714340939192454,0.49999821462409144
6.401723861694336,1.5457992481037983,[2.29880476],5.0,0.6,0.0,-0.04674173806894156,3.7578398319647994,0.49999837364374694
6.410451412200928,1.5493164250050584,[2.29914332],5.0,0.6,0.0,-0.04418656419489898,3.73602192322553,0.4999985465954642
6.419413328170776,1.5528336019063185,[2.29947472],5.0,0.6,0.0,-0.0414825228895551,3.721101851287802,0.49999871903742327
6.433515310287476,1.5586955634084183,[2.2998001],5.0,0.6,0.0,-0.03874652384473948,3.704603600559099,0.49999888243785784
6.442516088485718,1.5622127403096786,[2.3001219],5.0,0.6,0.0,-0.03605511594018871,3.685832629509639,0.49999903230154435
6.450515270233154,1.5657299172109387,[2.30044075],5.0,0.6,0.0,-0.033456772493382296,3.6624184604318324,0.4999991667517701
6.460922479629517,1.5700286889791455,[2.30075618],5.0,0.6,0.0,-0.0309805997869555,3.6472899902284275,0.499999285526693
6.468397855758667,1.5727642710134586,[2.30106825],5.0,0.6,0.0,-0.028642471675698597,3.6284744054128524,0.4999993893007386
6.479408264160156,1.577258441498402,[2.30137659],5.0,0.6,0.0,-0.026449328605063507,3.6078576373342273,0.49999947924223576
6.490175008773804,1.5817526119833456,[2.30168136],5.0,0.6,0.0,-0.024402175957695213,3.5919749349413452,0.49999955673484625
6.502460956573486,1.586832978618499,[2.30198404],5.0,0.6,0.0,-0.02249816511820971,3.5711891452825246,0.4999996232088346
6.5103700160980225,1.5899593580862856,[2.30228539],5.0,0.6,0.0,-0.02073203001885629,3.549699873937771,0.4999996800440474
6.519351482391357,1.5934765349875457,[2.30258471],5.0,0.6,0.0,-0.01909707221646293,3.5329045810529505,0.49999972851856367
6.528396844863892,1.596993711888806,[2.30288141],5.0,0.6,0.0,-0.017585830619614527,3.516321804953939,0.49999976978567334
6.536376476287842,1.6003154900733294,[2.30317498],5.0,0.6,0.0,-0.01619053157688077,3.496135509269275,0.4999998048678604
6.54603385925293,1.6038326669745895,[2.303465],5.0,0.6,0.0,-0.014903386475825394,3.4855131369486214,0.4999998346605338
6.554373264312744,1.6071544451591129,[2.30375156],5.0,0.6,0.0,-0.013716783875401144,3.465101537702274,0.4999998599409403
6.562886714935303,1.6108670207771094,[2.30403432],5.0,0.6,0.0,-0.012623409047739252,3.4485569705345807,0.49999988137944973
6.571425676345825,1.6141887989616328,[2.30431261],5.0,0.6,0.0,-0.011616313871673,3.429377347845785,0.4999998995515342
6.580794334411621,1.6180967732963663,[2.30458629],5.0,0.6,0.0,-0.010688953060399724,3.4170339380145873,0.49999991494947904
6.588390588760376,1.6212231527641532,[2.30485567],5.0,0.6,0.0,-0.009835197831963629,3.398083172495475,0.4999999279933106
6.597544193267822,1.624740329665413,[2.30512066],5.0,0.6,0.0,-0.009049334720667022,3.3829357341974267,0.4999999390407025
6.606112241744995,1.6282575065666731,[2.30538121],5.0,0.6,0.0,0.2677123048331654,3.3669260140895636,0.49994665175074493
6.61672568321228,1.6323608796181432,[2.30563805],5.0,0.6,0.0,0.30150252554956836,3.352098870422868,0.4999323357618649
6.62617826461792,1.63607345523614,[2.30589217],5.0,0.6,0.0,-0.0290205825211087,3.3338481889677922,0.4999993730705744
6.635469913482666,1.6397860308541365,[2.30614371],5.0,0.6,0.0,-0.1376665852589271,3.3116461917832343,0.49998589225410706
6.64435338973999,1.6434986064721333,[2.30639199],5.0,0.6,0.0,-0.1525734205361658,3.2948114368478163,0.4999826716618153
6.65372371673584,1.6470157833733936,[2.30663685],5.0,0.6,0.0,-0.13263306414202178,3.278864608303635,0.4999869050273956
6.662722110748291,1.6509237577081268,[2.30687855],5.0,0.6,0.0,-0.10366898297489896,3.2605669706613507,0.49999199979939857
6.6703925132751465,1.6538547384591769,[2.30711695],5.0,0.6,0.0,-0.07605841005685159,3.2432435508614628,0.4999956937494937
6.682565689086914,1.6589351050943304,[2.30735192],5.0,0.6,0.0,-0.053216974728829886,3.22393202953711,0.49999789182759563
6.6922080516815186,1.6628430794290636,[2.3075841],5.0,0.6,0.0,-0.03561247072036462,3.205161092309475,0.4999990559163516
6.701669692993164,1.6663602563303237,[2.30781403],5.0,0.6,0.0,0.2534265949689791,3.187990754153334,0.49995219313235834
6.710373878479004,1.669877433231584,[2.30804179],5.0,0.6,0.0,0.019832328541529914,3.1712520808268208,0.49999970721153364
6.718709707260132,1.6735900088495805,[2.30826746],5.0,0.6,0.0,-0.061866588470159856,3.153582860720567,0.4999971508338602
6.7283852100372314,1.6776933819010509,[2.30849113],5.0,0.6,0.0,-0.07839000967602885,3.133870860097049,0.4999954256844014
6.7389585971832275,1.6821875523859942,[2.30871284],5.0,0.6,0.0,-0.0698467910871861,3.112212737883801,0.49999636839993566
6.747704744338989,1.6851185331370444,[2.30893264],5.0,0.6,0.0,-0.05401716452333334,3.0983465329609343,0.49999782795259834
6.756841421127319,1.688831108755041,[2.30915057],5.0,0.6,0.0,-0.03820073766439605,3.080628775937925,0.49999891370019345
6.765780210494995,1.6925436843730375,[2.30936666],5.0,0.6,0.0,-0.024935273361596916,3.0629045365085004,0.4999995371558897
6.77392053604126,1.695865462557561,[2.30958063],5.0,0.6,0.0,-0.014712433939106916,3.0436554001849236,0.4999998388702783
6.782283782958984,1.6989918420253478,[2.30979192],5.0,0.6,0.0,-0.007235110011086942,3.0298186468635966,0.49999996103300315
6.790313243865967,1.7019228227763976,[2.31000009],5.0,0.6,0.0,-0.27801407197716016,3.0135551856093556,0.49994246723513813
6.80231237411499,1.7068077906948147,[2.3102051],5.0,0.6,0.0,-0.3075690266851651,2.9950320751708803,0.4999295856313614
6.8126749992370605,1.7113019611797582,[2.31040785],5.0,0.6,0.0,-0.2501435813412859,2.976678111344025,0.4999534236798234
6.8212456703186035,1.714819138081018,[2.31060939],5.0,0.6,0.0,0.10341880085864497,2.958815551271402,0.4999920383659215
6.832664966583252,1.7193133085659613,[2.3108103],5.0,0.6,0.0,0.20788103881929068,2.939707828081644,0.49996783211841056
6.841664791107178,1.723025884183958,[2.31101106],5.0,0.6,0.0,0.20979063265659903,2.920458745303155,0.49996723843556434
6.853816747665405,1.7277154533856383,[2.31121205],5.0,0.6,0.0,0.17579796466514502,2.8999517211642587,0.499976994887074
6.864511251449585,1.7324050225873184,[2.31141382],5.0,0.6,0.0,0.13459379970724406,2.8787493576553462,0.4999865150007545
6.873701095581055,1.7361175982053152,[2.31161652],5.0,0.6,0.0,-0.1787571612069817,2.855804185932535,0.49997621389984365
6.882831811904907,1.7400255725400484,[2.31181937],5.0,0.6,0.0,-0.24201926223228096,2.836696849208858,0.49995639988800944
6.891979217529297,1.7439335468747819,[2.3120217],5.0,0.6,0.0,-0.2098287200317549,2.8174723792833607,0.49996722653918607
6.90380597114563,1.748232318642989,[2.3122235],5.0,0.6,0.0,-0.15050068509027537,2.7997734464486093,0.4999831392726158
6.913860321044922,1.7519448942609854,[2.31242503],5.0,0.6,0.0,-0.09190069590393668,2.7809911126130276,0.4999937130277273
6.924785375595093,1.7564390647459287,[2.31262648],5.0,0.6,0.0,-0.3196046867240669,2.761509025188824,0.4999239673843527
6.9336631298065186,1.759760842930452,[2.31282769],5.0,0.6,0.0,-0.31636118493112986,2.7414529365167035,0.49992550267020824
6.942698240280151,1.7636688172651855,[2.31302796],5.0,0.6,0.0,-0.2355725216381466,2.722597343704829,0.49995869163590223
6.953131437301636,1.767772190316656,[2.31322674],5.0,0.6,0.0,-0.14233729210818064,2.7029629198351595,0.49998491874357565
6.965966701507568,1.7730479556685457,[2.31342407],5.0,0.6,0.0,-0.06110091435533173,2.6803473175985375,0.4999972209210343
6.975318908691406,1.776565132569806,[2.31362027],5.0,0.6,0.0,0.0015701323245047166,2.662428810509168,0.4999999981648178
6.9843151569366455,1.7802777081878027,[2.31381531],5.0,0.6,0.0,0.046336801941728345,2.644035695993872,0.4999984017007554
6.994385480880737,1.7843810812392726,[2.31400887],5.0,0.6,0.0,0.0762765532942408,2.623885174486675,0.4999956690126508
7.002314329147339,1.787702859423796,[2.31420075],5.0,0.6,0.0,0.09483816556904448,2.607778220455817,0.499993304699753
7.015359878540039,1.7929786247756863,[2.314391],5.0,0.6,0.0,0.10507125274175824,2.5849101313583054,0.4999917819093619
7.026540517807007,1.797668193977366,[2.31458018],5.0,0.6,0.0,0.10941741323594548,2.5637055427030386,0.49999108798945946
7.034809827804565,1.800794573445153,[2.31476871],5.0,0.6,0.0,0.10972920388686033,2.547311056614064,0.4999910371270685
7.0443243980407715,1.8045071490631495,[2.31495644],5.0,0.6,0.0,0.10736593677796867,2.528499947583043,0.49999141903789435
7.054460287094116,1.8088059208313563,[2.31514302],5.0,0.6,0.0,0.10330193057972312,2.507168063468395,0.4999920563499872
7.063518524169922,1.81212769901588,[2.31532816],5.0,0.6,0.0,0.0982228244053922,2.4905702999707917,0.49999281828126096
7.07134485244751,1.8152540784836664,[2.31551133],5.0,0.6,0.0,0.09260321231905003,2.4726664216347642,0.499993616541968
7.080674886703491,1.8191620528184,[2.31569211],5.0,0.6,0.0,0.08676604507763992,2.4571346866862096,0.4999943959262012
7.088350534439087,1.82209303356945,[2.31587041],5.0,0.6,0.0,0.08092669431123417,2.4402147148129387,0.4999951248480154
7.098109006881714,1.82619640662092,[2.31604596],5.0,0.6,0.0,0.07522499676368546,2.420965366836558,0.4999957876039061
7.107404470443726,1.8301043809556534,[2.31621852],5.0,0.6,0.0,0.06974824612543211,2.402578957157544,0.49999637864012364
7.1153295040130615,1.833426159140177,[2.31638819],5.0,0.6,0.0,0.06454753205968483,2.3867614462459055,0.4999968985512274
7.1274495124816895,1.8381157283418568,[2.31655526],5.0,0.6,0.0,0.059649267058133545,2.3669082950044844,0.49999735140381996
7.135430574417114,1.8414375065263802,[2.31672002],5.0,0.6,0.0,0.05506326980087718,2.347812899157899,0.49999774300971406
7.147002696990967,1.8461270757280606,[2.31688253],5.0,0.6,0.0,0.0507884029984887,2.3278482680822483,0.4999980798508896
7.158534526824951,1.8508166449297407,[2.31704304],5.0,0.6,0.0,0.04681648405905291,2.304659230155556,0.4999983684380951
7.168361663818359,1.8547246192644742,[2.31720179],5.0,0.6,0.0,0.04313498112128871,2.285222677551203,0.4999986149504886
7.1785337924957275,1.8586325935992072,[2.31735875],5.0,0.6,0.0,0.03972885792080913,2.2660596078957234,0.4999988250528657
7.188338041305542,1.8621497705004673,[2.31751391],5.0,0.6,0.0,0.03658182410871667,2.249047210856603,0.4999990038219751
7.1979334354400635,1.8658623461184642,[2.31766729],5.0,0.6,0.0,0.03367717161471115,2.2309978647469344,0.499999155737443
7.206259489059448,1.8695749217364608,[2.31781893],5.0,0.6,0.0,0.030998323819624127,2.2130248826665437,0.49999928470895794
7.215646028518677,1.8734828960711942,[2.31796886],5.0,0.6,0.0,0.30456754601148295,2.193921974382798,0.4999309531396988
7.223371744155884,1.876609275538981,[2.3181169],5.0,0.6,0.0,0.3354173242919076,2.176322850720006,0.4999162583941875
7.231421947479248,1.8799310537235043,[2.31826248],5.0,0.6,0.0,0.002186616189267243,2.1586872553701646,0.4999999964408049
7.240289926528931,1.883643629341501,[2.31840511],5.0,0.6,0.0,-0.10895205370473655,2.142123760543895,0.4999911636343319
7.251330614089966,1.887942401109708,[2.3185449],5.0,0.6,0.0,0.1498850443075412,2.121941849040599,0.499983276929764
7.26033616065979,1.8916549767277049,[2.31868213],5.0,0.6,0.0,0.200838310752802,2.1044013153764576,0.49996997474151006
7.268338918685913,1.8947813561954912,[2.3188171],5.0,0.6,0.0,0.17276180307987352,2.089819812903302,0.49997778263845605
7.277508020401001,1.8986893305302248,[2.31895006],5.0,0.6,0.0,-0.15353925671692048,2.0712252066869623,0.4999824515839761
7.286973476409912,1.9025973048649583,[2.31908122],5.0,0.6,0.0,-0.23599059017684548,2.0523860757155723,0.49995854489268415
7.29668402671814,1.9063098804829548,[2.31921075],5.0,0.6,0.0,0.05461368836191227,2.0344070405030807,0.4999977797149922
7.306254625320435,1.9102178548176882,[2.31933884],5.0,0.6,0.0,0.13343333710276262,2.015428515890701,0.4999867465295355
7.316279411315918,1.913930430435685,[2.31946564],5.0,0.6,0.0,0.12748140174276865,1.9975426517265389,0.49998790251529746
7.326056003570557,1.9180338034871551,[2.31959131],5.0,0.6,0.0,0.09383410719969183,1.977437548481816,0.49999344571562365
7.334306001663208,1.9213555816716783,[2.31971575],5.0,0.6,0.0,0.056535883676543955,1.959223254288357,0.4999976206736815
7.3434059619903564,1.9246773598562017,[2.3198387],5.0,0.6,0.0,0.02447029288702611,1.9437532145667527,0.49999955425673476
7.353151798248291,1.9285853341909356,[2.31996015],5.0,0.6,0.0,-0.00011157142681884544,1.9252299589349282,0.49999999999078315
7.363908290863037,1.932884105959142,[2.32008029],5.0,0.6,0.0,-0.017611782738857995,1.904521167603,0.4999997691057941
7.371699333190918,1.9362058841436656,[2.32019927],5.0,0.6,0.0,-0.02929532024209538,1.8885984503537814,0.49999936114427396
7.379307746887207,1.939527662328189,[2.32031707],5.0,0.6,0.0,-0.036534472810391634,1.8706607546241252,0.49999900639945183
7.389368534088135,1.9436310353796589,[2.32043346],5.0,0.6,0.0,-0.0405286807679192,1.851324799390497,0.49999877726902575
7.400932788848877,1.9477344084311288,[2.32054865],5.0,0.6,0.0,-0.04223277287963397,1.8337853302778124,0.4999986722845295
7.408332109451294,1.9508607878989157,[2.32066299],5.0,0.6,0.0,-0.04236887691322895,1.816422431823252,0.49999866371353613
7.41727352142334,1.9545733635169122,[2.32077641],5.0,0.6,0.0,-0.04146580249630756,1.7987435503014668,0.4999987200720991
7.425806999206543,1.9578951417014356,[2.32088888],5.0,0.6,0.0,-0.0399021071275826,1.7828385108230291,0.499998814786729
7.435023784637451,1.9616077173194326,[2.32100051],5.0,0.6,0.0,-0.03794396864691365,1.764897228850656,0.49999892826042447
7.4442925453186035,1.9651248942206925,[2.3211114],5.0,0.6,0.0,-0.03577553817175287,1.747894919322944,0.4999990472605892
7.453995704650879,1.9690328685554261,[2.32122164],5.0,0.6,0.0,-0.03352208900659856,1.729020932321233,0.49999916351199086
7.46253776550293,1.972745444173423,[2.32133134],5.0,0.6,0.0,-0.03126715409658312,1.7109366984966752,0.49999927227646945
7.470410585403442,1.9756764249244727,[2.32144036],5.0,0.6,0.0,-0.02906497256041972,1.6948393475519299,0.49999937119248383
7.478667259216309,1.9791936018257328,[2.32154847],5.0,0.6,0.0,-0.026949412431839282,1.6783619616310144,0.4999994594298988
7.489423036575317,1.9834923735939396,[2.3216556],5.0,0.6,0.0,-0.02494030787173214,1.6577374716991977,0.49999953708573475
7.4978721141815186,1.9868141517784632,[2.32176189],5.0,0.6,0.0,-0.023047928176612976,1.6418508280881654,0.49999960474939953
7.5062174797058105,1.9905267273964597,[2.32186747],5.0,0.6,0.0,-0.021276110891949907,1.6240111975370668,0.4999996633212745
7.514488697052002,1.99404390429772,[2.32197227],5.0,0.6,0.0,-0.019624446656869597,1.6051753134749644,0.4999997137738764
7.523336887359619,1.9971702837655065,[2.32207609],5.0,0.6,0.0,-0.018089794548541087,1.5905918138251656,0.49999975707933425
7.535061359405518,2.0018598529671867,[2.32217908],5.0,0.6,0.0,-0.016667326710976628,1.569958937537655,0.499999794430058
7.54530668258667,2.00576782730192,[2.3222817],5.0,0.6,0.0,-0.015351243177247013,1.5507413144732554,0.49999982656196545
7.55435585975647,2.0092850042031802,[2.32238422],5.0,0.6,0.0,-0.014135256342630544,1.5333711086076012,0.49999985432052413
7.5633320808410645,2.01280218110444,[2.32248664],5.0,0.6,0.0,-0.013012915067610736,1.5160079989781574,0.49999987862190887
7.573773145675659,2.0167101554391738,[2.32258896],5.0,0.6,0.0,-0.011977817524246787,1.4968894725763984,0.49999990067228467
7.582469463348389,2.020031933623697,[2.3226912],5.0,0.6,0.0,-0.011023747185394249,1.4808227846272861,0.4999999205916377
7.59033203125,2.0237445092416935,[2.32279322],5.0,0.6,0.0,-0.010144756004531652,1.4608341852608482,0.49999994045781887
7.602341890335083,2.028434078443374,[2.32289487],5.0,0.6,0.0,0.2667031481137452,1.439930735756553,0.49994708259462345
7.611367225646973,2.0321466540613704,[2.32299636],5.0,0.6,0.0,0.3005731429594353,1.4214911474926695,0.4999327971467151
7.619338750839233,2.0352730335291573,[2.32309784],5.0,0.6,0.0,0.24616207428312825,1.4062206885150017,0.49995495824265535
7.630862474441528,2.0397672040141006,[2.32319947],5.0,0.6,0.0,-0.10532969836877765,1.3860496130790718,0.49999184669821845
7.638293743133545,2.0426981847651504,[2.32330134],5.0,0.6,0.0,-0.2083957048378757,1.3694663121833193,0.4999678174871311
7.6470489501953125,2.0462153616664107,[2.32340321],5.0,0.6,0.0,0.0666530347696533,1.3522456516337782,0.49999690492947235
7.655424118041992,2.049732538567671,[2.32350469],5.0,0.6,0.0,0.13435726599257003,1.3333957371426601,0.4999868712584996
7.663393497467041,2.053054316752194,[2.32360545],5.0,0.6,0.0,-0.1552178852872099,1.317892155300831,0.49998250442506237
7.671380519866943,2.056180696219981,[2.32370524],5.0,0.6,0.0,-0.22691674468769696,1.3015525611489116,0.4999622789083084
7.680319309234619,2.059697873121241,[2.32380386],5.0,0.6,0.0,-0.21211365388061681,1.2851591828141673,0.49996738271966706
7.6893227100372314,2.0630196513057646,[2.32390114],5.0,0.6,0.0,0.10631420116511864,1.2677334414743444,0.4999928122343237
7.70076322555542,2.067513821790708,[2.32399708],5.0,0.6,0.0,0.1846938077443868,1.248029193522531,0.4999765402307491
7.709759950637817,2.0712263974087044,[2.32409199],5.0,0.6,0.0,-0.1073689323042442,1.230208575054904,0.4999942120961661
7.718566179275513,2.0749389730267014,[2.32418616],5.0,0.6,0.0,-0.18589540049140155,1.212146891339262,0.49997829391279225
7.727112770080566,2.0784561499279612,[2.32427967],5.0,0.6,0.0,-0.17851241537783755,1.1951188006877689,0.49998191777734746
7.737390995025635,2.0825595229794316,[2.32437261],5.0,0.6,0.0,-0.14272720448839113,1.1749643909829777,0.49999317378527786
7.749044179916382,2.087053693464375,[2.32446515],5.0,0.6,0.0,-0.10288294051425136,1.1544265320474418,0.5000048342414825
7.759908676147461,2.0913524652325814,[2.32455756],5.0,0.6,0.0,-0.06806747631581912,1.1328069553139704,0.5000154402043844
7.769324541091919,2.095260439567315,[2.32464995],5.0,0.6,0.0,-0.04066941412703708,1.1133048631781393,0.5000256546334693
7.7789154052734375,2.0989730151853117,[2.32474224],5.0,0.6,0.0,-0.02037735423169654,1.0949268962199703,0.5000370718797899
7.786540508270264,2.1020993946530986,[2.32483422],5.0,0.6,0.0,-0.005984390204151838,1.0778380943898422,0.5000490483517384
7.7956321239471436,2.1056165715543584,[2.32492569],5.0,0.6,0.0,-0.2721921452076041,1.0625206601348738,0.5000112857230669
7.8042356967926025,2.108938349738882,[2.32501646],5.0,0.6,0.0,-0.2988691928671372,1.0464595148786315,0.5000215321782847
7.815718173980713,2.113627918940562,[2.32510626],5.0,0.6,0.0,0.03627607628646182,1.0245498521324987,0.5001294577333432
7.827389478683472,2.117926690708769,[2.32519513],5.0,0.6,0.0,0.14777685772061477,1.0027854931478901,0.5001693209157408
7.835665941238403,2.121248468893292,[2.32528313],5.0,0.6,0.0,0.16430564334394643,0.9845483262899566,0.5002220361398694
7.8444578647613525,2.1247656457945525,[2.32537002],5.0,0.6,0.0,-0.13089705035108987,0.9676343054729626,0.5003068512426884
7.852319717407227,2.127892025262339,[2.32545563],5.0,0.6,0.0,-0.19277964430164096,0.951127620969914,0.5003795077099262
7.86272120475769,2.1321907970305456,[2.32553982],5.0,0.6,0.0,-0.16546211755225337,0.9305284411491664,0.5005457038451825
7.8737242221832275,2.136684967515489,[2.32562263],5.0,0.6,0.0,-0.11262693660919881,0.9087950749833066,0.5007837158365585
7.882782459259033,2.140397543133486,[2.3257042],5.0,0.6,0.0,-0.060262232155753326,0.8908336334766332,0.5010381534576367
7.890275955200195,2.1433285238845357,[2.32578457],5.0,0.6,0.0,-0.29331352787084763,0.8754953817918814,0.5012196191957501
7.8993189334869385,2.146845700785796,[2.32586378],5.0,0.6,0.0,-0.29443090744129363,0.8603103445704607,0.5015813284418257
7.909318447113037,2.150753675120529,[2.32594202],5.0,0.6,0.0,-0.2171200930054193,0.839784996404206,0.5021237348847769
7.917806625366211,2.1536846558715794,[2.3260193],5.0,0.6,0.0,-0.12663901372625086,0.8258653242092218,0.5026204969225195
7.926815509796143,2.1572018327728397,[2.32609567],5.0,0.6,0.0,-0.04758884606592887,0.8089096954009705,0.5033275053122138
7.935373306274414,2.1609144083908363,[2.32617117],5.0,0.6,0.0,-0.26270625732806546,0.7897636223640085,0.504193856060457
7.947088241577148,2.165603977592516,[2.32624586],5.0,0.6,0.0,-0.25248248609699064,0.7688011866599924,0.5056875743254428
7.956592321395874,2.169316553210513,[2.32632006],5.0,0.6,0.0,-0.16861158080376898,0.7506032988048649,0.5072051951684154
7.964319705963135,2.1720521352448263,[2.32639391],5.0,0.6,0.0,-0.07493843137861325,0.7358746126771252,0.5085248744366441
7.973818302154541,2.175764710862823,[2.3264673],5.0,0.6,0.0,0.004992403442856161,0.7181606899071312,0.5106493557248046
7.983319997787476,2.179281887764083,[2.32654026],5.0,0.6,0.0,0.06525144550440498,0.701228619014083,0.5130724501345348
7.992710590362549,2.183189862098817,[2.32661296],5.0,0.6,0.0,0.10694393495965873,0.682279318736597,0.5163331563038618
8.002331018447876,2.1872932351502867,[2.32668554],5.0,0.6,0.0,0.13345309425959814,0.6624246585265099,0.5205131540248595
8.012856483459473,2.1915920069184933,[2.32675827],5.0,0.6,0.0,0.14843504385134937,0.6427835963925519,0.5258713897606125
8.021276950836182,2.1949137851030165,[2.32683151],5.0,0.6,0.0,0.15507744096855497,0.6261711101740016,0.530775433486263
8.029961585998535,2.19823556328754,[2.3269054],5.0,0.6,0.0,0.15591151744499174,0.6097438701762949,0.5364548185347374
8.037580251693726,2.2011665440385904,[2.32697996],5.0,0.6,0.0,0.1528459019351883,0.595234879281003,0.5421628628423133
8.04526162147522,2.2044883222231135,[2.32705505],5.0,0.6,0.0,0.14727290172951568,0.5775227945356596,0.5495463757441926
8.054312467575073,2.207810100407637,[2.32713041],5.0,0.6,0.0,0.14018411887008697,0.5615808397158385,0.5579763907816347
8.062267541885376,2.210741081158687,[2.32720583],5.0,0.6,0.0,-0.1437664463656307,0.5463356347879694,0.5663348860403914
8.071359395980835,2.2144536567766835,[2.32728113],5.0,0.6,0.0,-0.18515234109674297,0.5288224499114439,0.5783685072180728
8.080308437347412,2.217970833677944,[2.32735629],5.0,0.6,0.0,-0.13834726383324003,0.5121959842445994,0.5913377138735122
8.08830189704895,2.2210972131457307,[2.32743118],5.0,0.6,0.0,-0.0703774911015876,0.49694618819888137,0.6042026482138161
8.09827733039856,2.225005187480464,[2.3275054],5.0,0.6,0.0,-0.007662413354946121,0.4780720298701882,0.622302324057786
8.10837435722351,2.228717763098461,[2.32757891],5.0,0.6,0.0,0.04153673679491602,0.460114554835736,0.641604925480236
8.118000507354736,2.232625737433194,[2.32765192],5.0,0.6,0.0,0.07653747888856242,0.44107109756733737,0.6643065015463245
8.126768589019775,2.2361429143344544,[2.32772464],5.0,0.6,0.0,0.09939774284370853,0.4238709420154439,0.6868439172639287
8.135122299194336,2.2394646925189776,[2.32779721],5.0,0.6,0.0,0.11281254977266855,0.40771140931229494,0.7100159386325852
8.144798517227173,2.2429818694202375,[2.32786979],5.0,0.6,0.0,0.11928335562538225,0.39053213275279836,0.7366349506665959
8.152791500091553,2.2463036476047615,[2.32794249],5.0,0.6,0.0,0.12085733975201779,0.3742324648302523,0.7636793610741239
8.161624908447266,2.249820824506021,[2.3280154],5.0,0.6,0.0,0.11910520222172453,0.35706538213431754,0.7943710314316184
8.17027997970581,2.253533400124018,[2.32808845],5.0,0.6,0.0,0.11518569722212842,0.3373109641234578,0.8289921934429418
8.181144714355469,2.257636773175488,[2.32816159],5.0,0.6,0.0,0.10993077748060126,0.31919598425054385,0.8698068923806043
8.190359354019165,2.260958551360011,[2.32823491],5.0,0.6,0.0,0.10392511961321871,0.30126227007722245,0.9044442243586182
8.202012062072754,2.2654527218449547,[2.32830845],5.0,0.6,0.0,0.09757169762882134,0.28085310120059787,0.9537612224239496
8.210386514663696,2.268774500029478,[2.32838225],5.0,0.6,0.0,0.09114258540431813,0.2629134583582833,0.991334897478445
8.21924352645874,2.272291676930738,[2.32845617],5.0,0.6,0.0,0.08481692122020804,0.24582183778395636,1.0321126027912535
8.228280782699585,2.2754180563985247,[2.32853011],5.0,0.6,0.0,0.07870864044545953,0.2308122218610153,1.0688228961487738
8.23627257347107,2.2785444358663116,[2.32860398],5.0,0.6,0.0,-0.20315193288830752,0.21439907857601,1.1057776249543347
8.247367143630981,2.282452410201045,[2.3286777],5.0,0.6,0.0,-0.5178134122979365,0.19722072666975377,1.1520321416709571
8.258218050003052,2.285969587102305,[2.3287514],5.0,0.6,0.0,-1.0530757011074448,0.18030084479072236,1.1926386276163767
8.269055128097534,2.289486764003565,[2.32882521],5.0,0.6,0.0,-1.5450347072564248,0.1635595775453625,1.232037981212128
8.279306650161743,2.2928085421880886,[2.32889919],5.0,0.6,0.0,-2.1870757884120744,0.14910634440987905,1.267112689884158
8.287370443344116,2.295153326788929,[2.32897339],5.0,0.6,0.0,-2.4531722231606437,0.1367765807061017,1.2910601328956648
8.297092914581299,2.297888908823242,[2.3290476],5.0,0.6,0.0,-3.0702948118434903,0.12454257015826332,1.3165473855028307
8.306387186050415,2.3006244908575555,[2.32912164],5.0,0.6,0.0,-3.3703126328224844,0.1122743327527349,1.3417016346944313
8.315247774124146,2.3029692754583957,[2.32919549],5.0,0.6,0.0,-3.7468139406996466,0.10203782762994533,1.3611376942798388
8.324689388275146,2.3053140600592354,[2.32926908],5.0,0.6,0.0,-3.7554075558943056,0.09177099513995698,1.3811835333255338
8.332320928573608,2.3070726485098656,[2.32934228],5.0,0.6,0.0,-3.874875576166147,0.0833504008512496,1.3945201798173312
8.340282440185547,2.3088312369604957,[2.32941483],5.0,0.6,0.0,-3.960847724107252,0.07633344888087364,1.407210951378543
8.349265575408936,2.3103944266943888,[2.32948652],5.0,0.6,0.0,-4.248207680038412,0.06954479732924644,1.4164367703319585
8.358349800109863,2.312153015145019,[2.32955719],5.0,0.6,0.0,-4.49483762635495,0.06311720593215804,1.426401869951809
8.367965459823608,2.3137162048789124,[2.32962681],5.0,0.6,0.0,-4.627554768259199,0.05770821698816062,1.4349414738522028
8.377968311309814,2.315279394612806,[2.32969544],5.0,0.6,0.0,-4.6428450729618085,0.05160044332043695,1.4434959261316471
8.386820077896118,2.316256388196489,[2.32976307],5.0,0.6,0.0,-4.83774299699512,0.04904978257281103,1.4470497680764964
8.394275188446045,2.3172333817801722,[2.32982963],5.0,0.6,0.0,-4.719352693243966,0.045471688434052436,1.4524574916029982
8.403252363204956,2.318014976647119,[2.32989502],5.0,0.6,0.0,-4.465945505540001,0.043922038372644016,1.4575390137418107
8.412534475326538,2.3187965715140657,[2.32995926],5.0,0.6,0.0,-4.439657260479194,0.04257180027259347,1.4609274769730978
8.421860694885254,2.3193827676642758,[2.33002248],5.0,0.6,0.0,-4.438220194385252,0.04211488947461222,1.4631635566655539
8.4302659034729,2.319773565097749,[2.33008469],5.0,0.6,0.0,-3.8397228887865267,0.04127115998928229,1.4681051310127131
8.438870191574097,2.319968963814486,[2.33014585],5.0,0.6,0.0,-3.392648359144286,0.04259555702505729,1.4710041657864033
8.448355197906494,2.319968963814486,[2.33020598],5.0,0.6,0.0,-3.5906410630396715,0.045230282990153345,1.469753023200532
8.458236455917358,2.320164362531223,[2.33026523],5.0,0.6,0.0,-3.639600749958873,0.046885612480098135,1.4700370231147495
8.466357707977295,2.320164362531223,[2.33032367],5.0,0.6,0.0,-3.035517536540245,0.04800703255849447,1.4727569239900946
8.47429084777832,2.319968963814486,[2.33038117],5.0,0.6,0.0,-2.5755424690025404,0.05034535745009035,1.4736369480560585
8.485708475112915,2.319968963814486,[2.33043771],5.0,0.6,0.0,-2.2184589776426487,0.05385966481674358,1.474669342279042
8.49335241317749,2.319773565097749,[2.33049345],5.0,0.6,0.0,-1.6596925697600144,0.05579015211959732,1.4752326211987754
8.506098985671997,2.3195781663810124,[2.33054862],5.0,0.6,0.0,-1.1222335694176502,0.06054991185613682,1.4752805899258177
8.515848159790039,2.3195781663810124,[2.33060358],5.0,0.6,0.0,-0.1282092421778892,0.061765160854372614,1.4759689707339594
8.524304628372192,2.3193827676642758,[2.33065849],5.0,0.6,0.0,1.1015413687320512,0.06247063781969042,1.4739897758161502
8.534271478652954,2.319187368947539,[2.33071322],5.0,0.6,0.0,2.1603247304861686,0.06452769431788284,1.4703187107685074
8.543309450149536,2.318991970230803,[2.3307678],5.0,0.6,0.0,2.93696390251296,0.06640312745582307,1.4662670450691768
8.554036378860474,2.3187965715140657,[2.33082234],5.0,0.6,0.0,3.4399476359323184,0.06812462864154158,1.4627589514060544
8.565547227859497,2.318601172797329,[2.33087701],5.0,0.6,0.0,3.9940063968179014,0.07071557642427434,1.4585755930728583
8.575735807418823,2.318601172797329,[2.33093208],5.0,0.6,0.0,4.411312075217514,0.07098453750089036,1.4557695427617505
8.583259344100952,2.3184057740805923,[2.33098758],5.0,0.6,0.0,4.652359437258109,0.07103384152909904,1.452980257836969
8.592462301254272,2.3182103753638557,[2.33104335],5.0,0.6,0.0,4.7350243093963,0.0723401452042899,1.451185164586134
8.602747678756714,2.318014976647119,[2.33109938],5.0,0.6,0.0,4.694163402366909,0.07482606349519823,1.4502023995821107
8.610703706741333,2.318014976647119,[2.33115588],5.0,0.6,0.0,4.564960805952742,0.07487512703449191,1.450778611636387
8.618355751037598,2.317819577930382,[2.33121279],5.0,0.6,0.0,4.377081149203924,0.07439829499294176,1.450699923633277
8.626270532608032,2.3176241792136456,[2.33126969],5.0,0.6,0.0,4.15347964001918,0.07485816263099268,1.4507664674058114
8.634346008300781,2.3176241792136456,[2.33132626],5.0,0.6,0.0,3.9110182254149355,0.07554508901865423,1.4518890942323006
8.644349813461304,2.317428780496909,[2.33138246],5.0,0.6,0.0,3.6616193713354503,0.07717227841417312,1.4519258297751074
8.653477907180786,2.3172333817801722,[2.33143836],5.0,0.6,0.0,3.1373946518853306,0.07879760864491485,1.453173320826956
8.661328792572021,2.3172333817801722,[2.33149398],5.0,0.6,0.0,2.862668324337446,0.07917467946621301,1.4540799200191832
8.670220375061035,2.3170379830634356,[2.33154917],5.0,0.6,0.0,2.6861264613241196,0.08046160808086511,1.4534173084177637
8.681841850280762,2.316842584346699,[2.3316037],5.0,0.6,0.0,2.5425094323275728,0.08272700230559495,1.452568763747997
8.69085693359375,2.3166471856299626,[2.33165765],5.0,0.6,0.0,2.406271322205836,0.08353501712941744,1.451645759580261
8.704380750656128,2.316451786913226,[2.33171121],5.0,0.6,0.0,2.2694192090184515,0.08533404911027462,1.4506785708665253
8.71334719657898,2.316256388196489,[2.3317645],5.0,0.6,0.0,2.131138257841312,0.08603855350520952,1.4496687251697629
8.722240924835205,2.316060989479752,[2.33181747],5.0,0.6,0.0,1.99309694246103,0.08599280121986952,1.448610858851487
8.73033618927002,2.3158655907630155,[2.33187056],5.0,0.6,0.0,1.8574434764200616,0.09420717158642317,1.4474967321908623
8.739850759506226,2.3158655907630155,[2.3319372],5.0,0.6,0.0,1.7260437346970896,0.22433742440640064,1.447439521857646
8.749605417251587,2.3156701920462788,[2.33203347],5.0,0.6,0.0,1.6002671183155144,0.11296009423160996,1.4459545980223463
8.757245302200317,2.3156701920462788,[2.33215253],5.0,0.6,0.0,1.480995499986581,0.11243578536260607,1.4454861132364358
8.768256187438965,2.3154747933295425,[2.33228398],5.0,0.6,0.0,1.3687081525132578,0.12109713699765555,1.4436646576149674
8.778023958206177,2.3154747933295425,[2.33242717],5.0,0.6,0.0,1.5396181981238937,0.11293707812810402,1.4423825025395751
8.78928017616272,2.315279394612806,[2.33257956],5.0,0.6,0.0,1.4747311175853763,0.10003931591847802,1.4402808620830554
8.798267364501953,2.315279394612806,[2.33273562],5.0,0.6,0.0,1.3285491343181253,0.085131091307526,1.4395637890688555
8.810335159301758,2.315083995896069,[2.3328874],5.0,0.6,0.0,1.4440605392598633,0.05910217843841003,1.4370253763759915
8.82232141494751,2.315083995896069,[2.33302492],5.0,0.6,0.0,1.3285229621161663,0.04261500722250951,1.436340833861512
8.831235885620117,2.3148885971793325,[2.33313836],5.0,0.6,0.0,1.1445974768528677,0.02677930110795116,1.4345849553180465
8.840281248092651,2.3148885971793325,[2.33321841],5.0,0.6,0.0,0.9598617576528496,0.009662579138183847,1.4343261633650082
8.848330974578857,2.314693198462596,[2.33325563],5.0,0.6,0.0,1.0744849483600576,-0.006623614793400769,1.4325494052031869
8.857263088226318,2.314497799745859,[2.33324289],5.0,0.6,0.0,0.9747911227640216,0.0006556869952571426,1.4314299655641822
8.86625337600708,2.314497799745859,[2.33317539],5.0,0.6,0.0,0.5372931916297395,-0.02053054102266711,1.432393018460201
8.876343488693237,2.3143024010291224,[2.33304361],5.0,0.6,0.0,0.34373778680677824,-0.06533788094664311,1.4320760127600662
8.885534524917603,2.3141070023123858,[2.33283669],5.0,0.6,0.0,-0.014655810747936732,-0.04815301474020147,1.4322442980502963
8.894012928009033,2.3135208061621757,[2.33255004],5.0,0.6,0.0,-0.35785665309790526,-0.06448907042720801,1.430042674030386
8.90328860282898,2.3131300087287023,[2.33217919],5.0,0.6,0.0,-0.6266629883882752,-0.08011287449139268,1.429704412223785
8.91325855255127,2.312348413861755,[2.33171736],5.0,0.6,0.0,-1.088959492518307,-0.09213579472788955,1.426832572619062
8.922662734985352,2.3117622177115456,[2.33115868],5.0,0.6,0.0,-1.5126559813197853,-0.10348300240592986,1.4258162535533212
8.931690692901611,2.310785224127862,[2.33049836],5.0,0.6,0.0,-2.1013074202160293,-0.11141002476699595,1.4219459308019848
8.942336320877075,2.3096128318274425,[2.32973276],5.0,0.6,0.0,-2.882053250288593,-0.11688949935329003,1.416083377286975
8.950889348983765,2.3084404395270224,[2.32886312],5.0,0.6,0.0,-3.2656887679240003,-0.08923660846868615,1.4120911147610662
8.958279371261597,2.307463445943339,[2.32789872],5.0,0.6,0.0,-3.685414111067508,-0.06913029049547267,1.4098635092692056
8.97039270401001,2.305509458775972,[2.3268448],5.0,0.6,0.0,-4.268825953173227,-0.11634524226653853,1.3995990422420648
8.978216886520386,2.3043370664755525,[2.32569964],5.0,0.6,0.0,-4.7428706865066115,-0.08757353545333717,1.3963015954774884
8.990777254104614,2.3017968831579756,[2.32446331],5.0,0.6,0.0,-5.0,-0.12016097382708144,1.3840815625796463
8.999333381652832,2.300038294707345,[2.32313413],5.0,0.6,0.0,-5.0,-0.11305686047847854,1.3805421063294303
9.00923204421997,2.297888908823242,[2.32171292],5.0,0.6,0.0,-5.0,-0.1021954849131949,1.3744213193162895
9.01922869682312,2.2957395229391384,[2.32020651],5.0,0.6,0.0,-4.9391494330109005,-0.08974135124635822,1.369328862151109
9.028099536895752,2.2935901370550353,[2.31862742],5.0,0.6,0.0,-4.500820143626886,-0.0396872590820328,1.3673132296110677
9.036836862564087,2.291245352454195,[2.31702223],5.0,0.6,0.0,-3.9702154288911515,0.2771102739737197,1.3639647642699286
9.045522451400757,2.2892913652868283,[2.31545735],5.0,0.6,0.0,-3.4630703378452514,0.18996358888054327,1.3631814722714857
9.05324101448059,2.2871419794027252,[2.31395177],5.0,0.6,0.0,-3.018279968872055,0.08539381280245292,1.3593659155105693
9.062321662902832,2.2851879922353584,[2.31249376],5.0,0.6,0.0,-2.365820271206045,0.11875347476798029,1.357315686691805
9.073650121688843,2.2826478089177815,[2.31108833],5.0,0.6,0.0,-1.466030189324331,0.14492833848478845,1.349037246950946
9.082318544387817,2.280693821750415,[2.30974707],5.0,0.6,0.0,-0.639967477010806,0.14867631498232262,1.3443576128143704
9.092304944992065,2.2787398345830487,[2.30847625],5.0,0.6,0.0,0.5651594360436938,0.15253030674440668,1.3376670360508733
9.103922605514526,2.276590448698945,[2.30727907],5.0,0.6,0.0,1.9326273547026038,0.15776781671123097,1.3255452561289802
9.11126184463501,2.2752226576817884,[2.30615741],5.0,0.6,0.0,3.345397004043174,0.1592088997691406,1.3175469653783796
9.119819641113281,2.2738548666646317,[2.30511224],5.0,0.6,0.0,4.740221172918697,0.16366130390379055,1.3060519996698505
9.129220247268677,2.272291676930738,[2.30414372],5.0,0.6,0.0,5.0,0.16536386505514405,1.2980833432001497
9.140185117721558,2.2709238859135814,[2.3032508],5.0,0.6,0.0,5.0,0.16665765542596855,1.293122503284401
9.150238037109375,2.269556094896425,[2.30243148],5.0,0.6,0.0,5.0,0.16870010535875035,1.287339950347619
9.158247947692871,2.268383702596005,[2.3016834],5.0,0.6,0.0,5.0,0.1721823870640991,1.2828284469314495
9.168670177459717,2.2674067090123216,[2.30100374],5.0,0.6,0.0,5.0,0.16990337294516694,1.2796479956028448
9.177558422088623,2.2664297154286377,[2.30038902],5.0,0.6,0.0,5.0,0.17327675877286342,1.2757519192846467
9.186513900756836,2.2656481205616914,[2.29983572],5.0,0.6,0.0,5.0,0.17309136519971713,1.2732850947437626
9.196272611618042,2.265061924411482,[2.29934016],5.0,0.6,0.0,5.0,0.17257190347974125,1.2723033672420985
9.205549478530884,2.2644757282612713,[2.29889818],5.0,0.6,0.0,5.0,0.1706563885134644,1.2707382861602063
9.215238094329834,2.2640849308277984,[2.29850569],5.0,0.6,0.0,5.0,0.1720117964935206,1.2707567442550889
9.225596189498901,2.2634987346775883,[2.29815879],5.0,0.6,0.0,5.0,0.17064902498462514,1.268152394136612
9.23322868347168,2.2634987346775883,[2.29785367],5.0,0.6,0.0,4.986975769716693,0.1702937047995521,1.271564663086797
9.243168830871582,2.2631079372441145,[2.29758679],5.0,0.6,0.0,4.852018028094237,0.17004951268528823,1.2711721300340757
9.251291990280151,2.2629125385273783,[2.29735471],5.0,0.6,0.0,4.093138731034361,0.16934559985696246,1.2764747405817745
9.260237216949463,2.2627171398106416,[2.29715414],5.0,0.6,0.0,3.780502814149946,0.16984380530494497,1.278321398032422
9.270251512527466,2.262521741093905,[2.29698207],5.0,0.6,0.0,3.0735153367629144,0.1691781899782585,1.28161188522323
9.278226137161255,2.262326342377168,[2.2968356],5.0,0.6,0.0,2.6130304532351034,0.16983806432711862,1.283005569951935
9.287221193313599,2.262521741093905,[2.29671202],5.0,0.6,0.0,2.0120168076827394,0.16724466069957222,1.2885196340420495
9.299201965332031,2.262326342377168,[2.29660853],5.0,0.6,0.0,1.455801291721241,0.16589166395086105,1.2889532812061346
9.309897899627686,2.262326342377168,[2.29652236],5.0,0.6,0.0,1.0022221060200058,0.16525447278219293,1.2907147093187765
9.319207906723022,2.262326342377168,[2.2964511],5.0,0.6,0.0,0.3798068389949252,0.1646966350701549,1.292125520370201
9.327226877212524,2.262521741093905,[2.2963927],5.0,0.6,0.0,-0.183272427549651,0.1641655270584957,1.2949470607927336
9.337039470672607,2.262326342377168,[2.29634534],5.0,0.6,0.0,-0.34202281248673577,0.16447911511993257,1.2932885891622772
9.350272417068481,2.262521741093905,[2.29630726],5.0,0.6,0.0,-0.6123508103370114,0.162043389186774,1.2956126015279326
9.359264135360718,2.262326342377168,[2.2962751],5.0,0.6,0.0,-1.1359346299084097,0.14573932929587352,1.29317390318392
9.367262363433838,2.262326342377168,[2.29623906],5.0,0.6,0.0,-1.627954682796543,0.09144793847012785,1.2925531858410562
9.376626253128052,2.262326342377168,[2.29618918],5.0,0.6,0.0,-1.9967919365703621,0.13495980595683862,1.292100258929295
9.387384176254272,2.262326342377168,[2.29612468],5.0,0.6,0.0,-2.231923747573502,0.12497294144489389,1.292059251067009
9.39624547958374,2.262326342377168,[2.29604532],5.0,0.6,0.0,-2.3525442769430063,0.12002631174755454,1.2925040538251669
9.405186414718628,2.262326342377168,[2.29594787],5.0,0.6,0.0,-2.3851437417229633,0.11751101015857912,1.2934361750644565
9.41347050666809,2.262326342377168,[2.29583102],5.0,0.6,0.0,-2.3545848004962133,0.12325903012513605,1.2947954677151405
9.424466848373413,2.262326342377168,[2.29569367],5.0,0.6,0.0,-2.2812400337624306,0.10830923257147938,1.2965154461029735
