t_s,q_rad,q_des_rad,K,B,Kff,jerk,tau_Nm,reward
0.006481170654296875,-0.038493547197124035,[0.00681759],9.825212432529046,0.9790254919034855,1.9737818648793566,0.0,9.998999999999999,1.1632390674595283
0.017633676528930664,-0.038493547197124035,[0.03294559],9.650424865058092,0.9580509838069711,1.9475637297587132,0.0,10.098989999999999,0.8603389709957061
0.028168201446533203,-0.038493547197124035,[0.08187701],9.475637297587138,0.9370764757104565,1.92134559463807,0.0,10.099989899999999,0.5551436212519455
0.04151463508605957,-0.038493547197124035,[0.14945026],9.300849730116184,0.9161019676139419,1.8951274595174268,0.0,10.099999898999998,0.5008548584200392
0.05499672889709473,-0.038493547197124035,[0.23190428],9.12606216264523,0.8951274595174274,1.8689093243967834,0.0,10.099999998989999,0.5000004459777766
0.06659126281738281,-0.038493547197124035,[0.3258662],8.951274595174274,0.8741529514209129,1.84269118927614,0.0,10.0999999999899,0.500000000002943
0.07844209671020508,-0.038493547197124035,[0.42833555],8.77648702770332,0.8531784433243983,1.8164730541554968,0.0,-9.8980000000001,0.5
0.09396982192993164,-0.038493547197124035,[0.53666403],8.601699460232366,0.8322039352278838,1.7902549190348536,0.0,-10.09798,0.5
0.10468602180480957,-0.038493547197124035,[0.64853548],8.426911892761412,0.8112294271313693,1.7640367839142101,0.0,-10.099979799999998,0.5
0.11522555351257324,-0.038493547197124035,[0.76194721],8.252124325290458,0.7902549190348547,1.7378186487935667,0.0,-10.099999797999999,0.5
0.12639951705932617,-0.038493547197124035,[0.87518674],8.077336757819502,0.7692804109383402,1.7116005136729235,0.0,-5.100499997979999,0.5
0.1423051357269287,-0.038493547197124035,[0.98680629],7.902549190348549,0.7483059028418256,1.6853823785522803,0.0,-5.0505049999797995,0.5
0.15982627868652344,-0.03868894591386071,[1.09559924],7.727761622877595,0.727331394745311,1.659164243431637,0.0,-5.050005049999798,0.5
0.1674036979675293,-0.038493547197124035,[1.2005829],7.55297405540664,0.7063568866487966,1.6329461083109935,0.0,-5.050000050499998,0.5
0.17763948440551758,-0.038493547197124035,[1.30098049],7.378186487935686,0.685382378552282,1.6067279731903503,0.0,-5.050000000504999,0.5
0.19337797164916992,-0.038493547197124035,[1.39619359],7.203398920464732,0.6644078704557674,1.5805098380697071,0.0,-5.050000000005049,0.5
0.20888471603393555,-0.038493547197124035,[1.48577951],7.028611352993777,0.643433362359253,1.5542917029490637,0.0,-5.05000000000005,0.5
0.22141098976135254,-0.038493547197124035,[1.56943671],6.853823785522822,0.6224588542627384,1.5280735678284203,0.0,-5.05,0.5
0.2333974838256836,-0.038493547197124035,[1.64698794],6.679036218051868,0.6014843461662238,1.501855432707777,0.0,-5.05,0.5
0.24641060829162598,-0.038493547197124035,[1.71836236],6.504248650580913,0.6,1.475637297587134,0.0,-5.05,0.5
0.2604997158050537,-0.038493547197124035,[1.78357974],6.329461083109958,0.6,1.4494191624664907,0.0,-5.05,0.5
0.2734041213989258,-0.038493547197124035,[1.84273655],6.154673515639004,0.6,1.4232010273458477,0.0,-5.05,0.5
0.2884221076965332,-0.03868894591386071,[1.89599302],5.97988594816805,0.6,1.3969828922252046,0.0,-5.05,0.5
0.3027656078338623,-0.038493547197124035,[1.94356049],5.805098380697095,0.6,1.3707647571045614,0.0,-5.05,0.5
0.3153975009918213,-0.038493547197124035,[1.98569131],5.63031081322614,0.6,1.3445466219839184,0.0,-5.05,0.5
0.3316025733947754,-0.038493547197124035,[2.02266938],5.455523245755186,0.6,1.3183284868632752,0.0,-5.05,0.5
0.3404514789581299,-0.038493547197124035,[2.05480154],5.280735678284231,0.6,1.292110351742632,0.0,-5.05,0.5
0.3554060459136963,-0.038493547197124035,[2.08241187],5.105948110813277,0.6,1.2658922166219888,0.0,-5.05,0.5
0.3667581081390381,-0.038493547197124035,[2.10583304],5.0,0.6,1.2396740815013456,0.0,-2.545934754472931,0.5
0.38041162490844727,-0.038493547197124035,[2.12539961],5.0,0.6,1.2134559463807026,0.0,1.3069253575983155,0.5
0.3933908939361572,-0.038493547197124035,[2.14144449],5.0,0.6,1.1872378112600595,0.0,4.427329326919913,0.5
0.40854907035827637,-0.03693035746323068,[2.15429486],5.0,0.6,1.1610196761394163,0.552076719357362,6.2629713120319925,0.49977316659524446
0.4204223155975342,-0.03360857927870728,[2.16426882],5.0,0.6,1.1348015410187733,2.550594443431012,7.633309610839764,0.4951806549217627
0.4344358444213867,-0.028137415210080514,[2.17167298],5.0,0.6,1.10858340589813,5.0,8.636511447829761,0.4817320621239355
0.4484102725982666,-0.022080054991243738,[2.17679993],5.0,0.6,1.082365270777487,5.0,9.320422836054709,0.4817320621239355
0.4656031131744385,-0.015045701188723608,[2.17992567],5.0,0.6,1.0561471356568437,5.0,9.608862495346527,0.4817320621239355
0.4758913516998291,-0.011137726853990204,[2.18130947],5.0,0.6,1.0299290005362005,5.0,10.058337879422783,0.4817320621239355
0.49289870262145996,-0.004494170484943416,[2.18119412],5.0,0.6,1.0037108654155575,5.0,10.099583378794227,0.4817320621239355
0.5041766166687012,0.0,[2.17980434],5.0,0.6,0.9774927302949143,5.0,10.099995833787942,0.4817320621239355
0.5153930187225342,0.004689569201680086,[2.1773471],5.0,0.6,0.9512745951742712,5.0,10.099999958337879,0.4817320621239355
0.5273997783660889,0.009574537120096843,[2.17401142],5.0,0.6,0.9250564600536281,3.599610350569369,10.099999999583378,0.49044709466570324
0.539156436920166,0.014264106321776927,[2.16996838],5.0,0.6,0.898838324932985,0.6808273399522602,10.099999999995832,0.4996550701290918
0.5494732856750488,0.018562878089983675,[2.16537247],5.0,0.6,0.8726201898123418,-2.1804794890290364,5.100499999999958,0.4964732512685232
0.5647211074829102,0.024815637025557124,[2.16036058],5.0,0.6,0.8464020546916986,-4.177426576470175,5.050504999999999,0.48717684599245287
0.5730602741241455,0.028332813926817187,[2.15505388],5.0,0.6,0.8201839195710555,-5.0,5.050005049999999,0.4817320621239355
0.5924334526062012,0.036148762596283995,[2.14955842],5.0,0.6,0.7939657844504124,-5.0,5.0500000505,0.4817320621239355
0.6074724197387695,0.04220612281512077,[2.1439633],5.0,0.6,0.7677476493297692,-5.0,5.050000000504999,0.4817320621239355
0.6214733123779297,0.04787268560048421,[2.13834535],5.0,0.6,0.741529514209126,-5.0,5.050000000005049,0.4817320621239355
0.635305643081665,0.05314845095237431,[2.13277162],5.0,0.6,0.715311379088483,-5.0,5.05000000000005,0.4817320621239355
0.6489658355712891,0.058619615021001076,[2.12729809],5.0,0.6,0.6890932439678399,-5.0,5.05,0.4817320621239355
0.6633310317993164,0.06467697523983784,[2.12197071],5.0,0.6,0.6628751088471967,-5.0,5.05,0.4817320621239355
0.6753363609313965,0.06995274059172794,[2.11682636],5.0,0.6,0.6366569737265535,-5.0,5.05,0.4817320621239355
0.6881160736083984,0.07503310722688138,[2.11189377],5.0,0.6,0.6104388386059104,-5.0,5.05,0.4817320621239355
0.7043559551239014,0.0814812648791915,[2.10719443],5.0,0.6,0.5842207034852673,-5.0,5.05,0.4817320621239355
0.7193863391876221,0.08734322638129159,[2.10274344],5.0,0.6,0.5580025683646241,-5.0,5.05,0.4817320621239355
0.7344589233398438,0.09379138403360171,[2.09855005],5.0,0.6,0.531784433243981,-4.838692239103573,5.05,0.4828716505795326
0.7480373382568359,0.09906714938549181,[2.09461811],5.0,0.6,0.5055662981233379,-4.607047896218276,5.05,0.4844472058287997
0.7648088932037354,0.10551530703780194,[2.09094668],5.0,0.6,0.4793481630026947,-4.341483024326154,5.05,0.48616422044601126
0.7796299457550049,0.11157266725663871,[2.0875312],5.0,0.6,0.4531300278820516,-4.0633552714614325,5.05,0.48785914081705745
0.7964048385620117,0.11841162234242215,[2.08436455],5.0,0.6,0.42691189276140845,-3.7852662807103448,5.05,0.48944700776515115
0.8049004077911377,0.1221241979604189,[2.08144006],5.0,0.6,0.4006937576407653,-3.5146034842339815,5.05,0.49088887388642366
0.8215677738189697,0.12896315304620237,[2.07875038],5.0,0.6,0.3744756225201221,-3.255582611833758,5.05,0.49217215640300993
0.8309564590454102,0.13287112738093576,[2.07628421],5.0,0.6,0.3482574873994789,-3.0104574134000863,5.05,0.4932989165810844
0.8403799533843994,0.13638830428219584,[2.07403097],5.0,0.6,0.3220393522788358,-2.780254920725281,5.05,0.49427890258438134
0.8632748126983643,0.14596284140229268,[2.07197845],5.0,0.6,0.2958212171581926,-2.5652329538643452,5.05,0.49512544858877455
0.8713762760162354,0.1490892208700794,[2.0701117],5.0,0.6,0.2696030820375494,-2.365170494572678,5.05,0.4958530925160076
0.8866574764251709,0.1549511823721795,[2.06841825],5.0,0.6,0.24338494691690624,-2.1795548180487794,5.05,0.49647623123215384
0.8962531089782715,0.15905455542364957,[2.06688508],5.0,0.6,0.21716681179626307,-2.0077033262991737,5.05,0.49700840177330985
0.9073793888092041,0.16335332719185633,[2.06549926],5.0,0.6,0.19094867667561988,-1.8488432455636556,5.05,0.497461937850286
0.9213967323303223,0.16882449126048307,[2.06424871],5.0,0.6,0.16473054155497668,-1.4261253358890253,5.05,0.4984883031224243
0.9353804588317871,0.17449105404584653,[2.06312044],5.0,0.6,0.13851240643433352,-1.5337248234608025,5.05,0.49825200045966356
0.9583792686462402,0.18426098988268005,[2.06209956],5.0,0.6,0.11229427131369034,-1.2211611930684776,5.05,0.49889115548186136
0.9743666648864746,0.19031835010151682,[2.06117017],5.0,0.6,0.08607613619304716,-1.0940765538280834,5.05,0.49910974345129444
0.990354061126709,0.19676650775382695,[2.0603195],5.0,0.6,0.05985800107240398,-1.0377333125483477,5.05,0.49919900447144067
1.0003151893615723,0.20086988080529702,[2.05953797],5.0,0.6,0.0336398659517608,-1.0024212175045442,5.05,0.4992525496314826
1.013359546661377,0.2061456461571871,[2.0588174],5.0,0.6,0.0074217308311176206,-0.9685613949969092,5.05,0.49930215697924824
1.0273735523223877,0.21161681022581388,[2.05815021],5.0,0.6,0.0,-0.9299798337824012,5.05,0.4993566102065275
1.0381381511688232,0.21630637942749392,[2.05752946],5.0,0.6,0.0,-0.6100102516510079,5.05,0.49972307596665544
1.0533647537231445,0.22236373964633074,[2.05694876],5.0,0.6,0.0,-0.5289461840482504,5.05,0.49979177196341806
1.0683598518371582,0.2286164985819042,[2.05640147],5.0,0.6,0.0,-0.533864510759555,5.05,0.49978788243119715
1.0851366519927979,0.23584625110116098,[2.05588131],5.0,0.6,0.0,-0.5591283122358384,5.05,0.4997673363274628
1.0983514785766602,0.2409266177363144,[2.05538315],5.0,0.6,0.0,-0.5794336945590537,5.05,0.4997501348827555
1.1140077114105225,0.24698397795515117,[2.05490278],5.0,0.6,0.0,-0.5873312389388792,5.05,0.49974327902094345
1.1293504238128662,0.253041338173988,[2.05443551],5.0,0.6,0.0,-0.582684951201446,5.05,0.49974732369345415
1.1391851902008057,0.2567539137919847,[2.05397755],5.0,0.6,0.0,-0.5678901247780439,5.05,0.49975998905196223
1.1503593921661377,0.26124808427692814,[2.05352774],5.0,0.6,0.0,-0.5458238044207824,5.05,0.49977827467110036
1.164313793182373,0.2673054444957649,[2.05308526],5.0,0.6,0.0,-0.519058778231726,5.05,0.499799482326361
1.184950828552246,0.2757075893154417,[2.05264745],5.0,0.6,0.0,-0.48963741840192476,5.05,0.49982156568838854
1.1994915008544922,0.28137415210080513,[2.05221051],5.0,0.6,0.0,-0.4590751284866461,5.05,0.4998431422168621
1.2080914974212646,0.2848913290020652,[2.05177311],5.0,0.6,0.0,-0.4284433926259001,5.05,0.4998633737237569
1.2253522872924805,0.29192568280458536,[2.05133629],5.0,0.6,0.0,-0.3984680042728379,5.05,0.49988182047097335
1.240715742111206,0.2981784417401588,[2.05089941],5.0,0.6,0.0,-0.369617667552921,5.05,0.49989831241027466
1.2518229484558105,0.3026726122251022,[2.05046172],5.0,0.6,0.0,-0.3421757494250863,5.05,0.49991285002275165
1.2619335651397705,0.306385187843099,[2.05002487],5.0,0.6,0.0,-0.3162951975350792,5.05,0.4999255337423265
1.273897647857666,0.311074757044779,[2.049591],5.0,0.6,0.0,-0.29203916806237673,5.05,0.49993651643479825
1.2853631973266602,0.31595972496319574,[2.04916137],5.0,0.6,0.0,-0.5454487700697674,5.05,0.49977857919295493
1.2983427047729492,0.32143088903182254,[2.04873679],5.0,0.6,0.0,-0.2814967764341141,5.05,0.49994101685713865
1.3141226768493652,0.32768364796739596,[2.04831774],5.0,0.6,0.0,-0.449803985832368,5.05,0.49984941286627493
1.3263616561889648,0.33237321716907614,[2.04790456],5.0,0.6,0.0,-0.4438842813132369,5.05,0.4998533498503083
1.339339256286621,0.3378443812377029,[2.04749791],5.0,0.6,0.0,-0.37766164299548066,5.05,0.4998938386769483
1.3553831577301025,0.34429253889001293,[2.04709841],5.0,0.6,0.0,-0.3000718215590551,5.05,0.4999329763623661
1.365576982498169,0.3482005132247464,[2.04670659],5.0,0.6,0.0,-0.22996297137262015,5.05,0.49996063543993957
1.3792848587036133,0.3538670760101098,[2.04632322],5.0,0.6,0.0,-0.17282411980767,5.05,0.4999777666079194
1.3922984600067139,0.35894744264526324,[2.04594902],5.0,0.6,0.0,-0.12864410015845654,5.05,0.4999876808406714
1.4059128761291504,0.36441860671389,[2.04558462],5.0,0.6,0.0,-0.09548729891749269,5.05,0.4999932127328336
1.4213273525238037,0.3706713656494634,[2.04523059],5.0,0.6,0.0,-0.0710339186528817,5.05,0.4999962439047987
1.441796064376831,0.37926890918587697,[2.04488712],5.0,0.6,0.0,-0.05317677516899791,5.05,0.4999978950113698
1.4525959491729736,0.3837630796708204,[2.04455418],5.0,0.6,0.0,-0.040198355888451526,5.05,0.4999987971188075
1.4711689949035645,0.39118823090681387,[2.04423204],5.0,0.6,0.0,-0.030774405194025523,5.05,0.4999992950055395
1.4857487678527832,0.39685479369217724,[2.04392093],5.0,0.6,0.0,-0.023916251153929584,5.05,0.49999957421270214
1.5013625621795654,0.4033029513444874,[2.04362122],5.0,0.6,0.0,-0.29493869756891883,5.05,0.4999352496575991
1.5168890953063965,0.4095557102800608,[2.04333342],5.0,0.6,0.0,-0.3243668084622339,5.05,0.499921684905432
1.5292699337005615,0.4144406781984775,[2.0430579],5.0,0.6,0.0,-0.26651780054621005,5.05,0.49994712673215486
1.5412819385528564,0.41893484868342096,[2.04279502],5.0,0.6,0.0,-0.18835865827104578,5.05,0.499973590122802
1.5552597045898438,0.4247968101855211,[2.04254499],5.0,0.6,0.0,0.1597887738133063,5.05,0.4999809939901867
1.5692622661590576,0.43085417040435786,[2.04230787],5.0,0.6,0.0,0.25076859815583374,5.05,0.4999531906457594
1.5832643508911133,0.43671613190645797,[2.04208362],5.0,0.6,0.0,0.2386450630025002,5.05,0.49995760709555004
1.6055316925048828,0.4457044728763448,[2.04187187],5.0,0.6,0.0,0.19276197701466602,5.05,0.4999723409406212
1.6194827556610107,0.4513710356617082,[2.04167204],5.0,0.6,0.0,0.14241295827159517,5.05,0.4999849027052363
1.6343331336975098,0.45742839588054507,[2.04148376],5.0,0.6,0.0,0.09848326724325243,5.05,0.4999927801456552
1.6493499279022217,0.4634857560993818,[2.04130688],5.0,0.6,0.0,0.06378544182752159,5.05,0.4999969713541253
1.673025131225586,0.472864894502742,[2.04114096],5.0,0.6,0.0,0.037887438666157014,5.05,0.4999989314454352
1.6832449436187744,0.4771636662709487,[2.04098548],5.0,0.6,0.0,0.01928894960733376,5.05,0.49999972303575174
1.6932477951049805,0.4812670393224188,[2.04084023],5.0,0.6,0.0,0.006343149615367286,5.05,0.4999999700486382
1.705190658569336,0.4859566085240989,[2.04070516],5.0,0.6,0.0,-0.0023989002938954963,5.05,0.4999999957161814
1.7192742824554443,0.4920139687429357,[2.04057998],5.0,0.6,0.0,-0.00809756639026766,5.05,0.49999995118922663
1.7339234352111816,0.4982667276785091,[2.04046411],5.0,0.6,0.0,-0.011636345543961731,5.05,0.4999998992048002
1.745260238647461,0.5025654994467159,[2.04035696],5.0,0.6,0.0,-0.013667636916270803,5.05,0.4999998609427997
1.7572853565216064,0.507255068648396,[2.04025803],5.0,0.6,0.0,-0.290701919897973,5.05,0.4999370964500765
1.7712538242340088,0.513117030150496,[2.0401668],5.0,0.6,0.0,-0.04808551001527776,5.05,0.4999982787879365
1.787407636642456,0.5197605865195428,[2.04008269],5.0,0.6,0.0,0.040299971533568214,5.05,0.4999987910297081
1.801513910293579,0.5250363518714329,[2.04000513],5.0,0.6,0.0,0.0617462530062112,5.05,0.4999971619067616
1.8184492588043213,0.5318753069572164,[2.03993354],5.0,0.6,0.0,0.05682236353847008,5.05,0.4999975964994813
1.834501028060913,0.5381280658927898,[2.03986731],5.0,0.6,0.0,0.04366094966439109,5.05,0.4999985809672634
1.8489882946014404,0.5441854261116267,[2.03980595],5.0,0.6,0.0,0.029823790171507,5.05,0.49999933788708667
1.8633325099945068,0.5500473876137267,[2.03974908],5.0,0.6,0.0,0.018040215410900947,5.05,0.4999997577353727
1.879263162612915,0.5564955452660368,[2.03969643],5.0,0.6,0.0,0.008940291553749362,5.05,0.4999999405009525
1.8932504653930664,0.5621621080514002,[2.03964773],5.0,0.6,0.0,0.002326205321763876,5.05,0.4999999959718766
1.9062435626983643,0.5674378734032904,[2.03960276],5.0,0.6,0.0,-0.0022586792747919665,5.05,0.49999999620234237
1.9225730895996094,0.5740814297723372,[2.03956133],5.0,0.6,0.0,-0.005291928720083032,5.05,0.4999999791534286
1.9400157928466797,0.5811157835748574,[2.03952324],5.0,0.6,0.0,-0.007185731107383889,5.05,0.4999999615630798
1.9482300281524658,0.5844375617593808,[2.03948833],5.0,0.6,0.0,0.2677717793636069,5.05,0.49994662804585654
1.9623019695281982,0.5901041245447443,[2.03945653],5.0,0.6,0.0,0.30038186455433635,5.05,0.49993283779855036
1.976313829421997,0.5953798898966343,[2.0394277],5.0,0.6,0.0,-0.030882779434722007,5.05,0.49999929003142457
1.99678635597229,0.6039774334330478,[2.03940176],5.0,0.6,0.0,0.13607250884877853,5.05,0.4999862170724325
2.004478931427002,0.6071038129008345,[2.03937858],5.0,0.6,0.0,0.1540618807653562,5.05,0.49998233191854513
2.0229177474975586,0.6147243628535647,[2.03935805],5.0,0.6,0.0,0.11881750437850383,5.05,0.4999894909619647
2.0378000736236572,0.6207817230724014,[2.03934008],5.0,0.6,0.0,0.07170248249886368,7.026909748861087,0.49999617286838755
2.052314519882202,0.6264482858577648,[2.03932452],5.0,0.6,0.0,0.028856537137614543,7.018640351311402,0.49999938013825734
2.0673251152038574,0.6328964435100749,[2.03931124],5.0,0.6,0.0,-0.004820314411596879,6.986626651595962,0.4999999827035331
2.0866923332214355,0.6403215947460684,[2.03930009],5.0,0.6,0.0,-0.029088272186119396,6.9495377538694285,0.49999937014257617
2.0962188243865967,0.6440341703640652,[2.0392909],5.0,0.6,0.0,-0.045366594921776096,6.930719823620848,0.4999984679308158
2.1112494468688965,0.6502869292996385,[2.03928351],5.0,0.6,0.0,-0.055434974716155064,6.899525958022144,0.499997712435283
2.127981662750244,0.6569304856686854,[2.03927774],5.0,0.6,0.0,-0.06092554102583364,6.866275511738392,0.4999972368512557
2.1372950077056885,0.6608384600034187,[2.03927342],5.0,0.6,0.0,-0.06316773730226304,6.846552639506164,0.49999702972933235
2.1603002548217773,0.6704129971235157,[2.0392704],5.0,0.6,0.0,-0.06317992828791406,6.799046888769957,0.4999970285827371
2.175252676010132,0.6760795599088789,[2.03926855],5.0,0.6,0.0,-0.06171358214318248,6.77067484783106,0.4999971649093134
2.189002275466919,0.6815507239775059,[2.0392678],5.0,0.6,0.0,-0.05930918982423516,6.743616805268711,0.4999973815184318
2.2123045921325684,0.6913206598143393,[2.03926826],5.0,0.6,0.0,-0.05634787089987625,6.696620520081675,0.49999763647244044
2.2202107906341553,0.6946424379988627,[2.03927011],5.0,0.6,0.0,-0.05309369775350109,6.679716872150695,0.4999979015834135
2.242326259613037,0.7034353802520129,[2.03927362],5.0,0.6,0.0,-0.04972639407226605,6.639350605624666,0.4999981593135698
2.255305528640747,0.7085157468871662,[2.03927952],5.0,0.6,0.0,-0.046365733329476855,6.615303069140432,0.49999839970426985
2.270301103591919,0.7145731071060031,[2.03928866],5.0,0.6,0.0,-0.043089348354053425,6.587113109825336,0.49999861787943956
2.285295009613037,0.7212166634750498,[2.03930193],5.0,0.6,0.0,-0.03994554114073033,6.556499098467713,0.49999881220148684
2.3002994060516357,0.7270786249771499,[2.03932043],5.0,0.6,0.0,-0.3130007605223692,6.530408378937148,0.4999270767881061
2.322298765182495,0.7358715672303001,[2.03934629],5.0,0.6,0.0,-0.3433172059801296,6.499511855381371,0.4999122676606552
2.335801124572754,0.7411473325821902,[2.03938266],5.0,0.6,0.0,-0.28559183512567843,6.475526146334297,0.4999392883716183
2.3492395877838135,0.7466184966508169,[2.03943205],5.0,0.6,0.0,-0.20705771785948274,6.45250193724033,0.4999680864100122
2.362245559692383,0.751894262002707,[2.03949631],5.0,0.6,0.0,-0.13425997391498204,6.4299963486856315,0.49998658180914607
2.377211093902588,0.7579516222215439,[2.03957742],5.0,0.6,0.0,-0.07552979384253573,6.405437347060811,0.499995753399274
2.39127516746521,0.763813583723644,[2.03967753],5.0,0.6,0.0,-0.03158174602455871,6.381459230460209,0.4999992575304857
2.413609027862549,0.7728019246935308,[2.03980037],5.0,0.6,0.0,-0.0003646929256650895,6.3596639474759025,0.49999999990099403
2.4212841987609863,0.7761237028780542,[2.03994937],5.0,0.6,0.0,0.29686447577868835,6.326019552852099,0.49993440138855266
2.434279680252075,0.7813994682299443,[2.04012446],5.0,0.6,0.0,0.06763691058745891,6.307050817700307,0.49999659456401324
2.449368953704834,0.787456828448781,[2.04032619],5.0,0.6,0.0,-0.012329768780144343,6.288233077354085,0.4999998868338631
2.46020245552063,0.7917556002169878,[2.04055674],5.0,0.6,0.0,-0.0288928166073004,6.267455001159331,0.49999937857865384
2.4762701988220215,0.7980083591525613,[2.0408172],5.0,0.6,0.0,-0.2975845618706782,6.242869292807339,0.4999340827864731
2.4882309436798096,0.802893327070978,[2.04110848],5.0,0.6,0.0,-0.3168009416873863,6.224375137905658,0.4999252954322415
2.500218152999878,0.8077782949893948,[2.04143166],5.0,0.6,0.0,-0.2482335303648271,6.205378655644013,0.4999541322283063
2.5085513591766357,0.8112954718906548,[2.04178543],5.0,0.6,0.0,-0.16144874408236543,6.170372813049666,0.49998059705777265
2.522226095199585,0.8165712372425449,[2.04216762],5.0,0.6,0.0,-0.0833496875274877,6.167953741307212,0.49999482854938815
2.5365090370178223,0.8226285974613817,[2.04258002],5.0,0.6,0.0,-0.02188606044000576,6.149593681413257,0.4999996434325387
2.551208257675171,0.8286859576802185,[2.04302548],5.0,0.6,0.0,0.022805501937683378,6.123182811572805,0.4999996128441929
2.565028190612793,0.8345479191823186,[2.04350419],5.0,0.6,0.0,0.05333139660380274,6.0940774315035835,0.49999788275230134
2.5802690982818604,0.8404098806844187,[2.04401492],5.0,0.6,0.0,0.07285604952094163,6.067321071196841,0.4999960487346423
2.5943007469177246,0.8462718421865187,[2.04455606],5.0,0.6,0.0,0.08425434594646106,6.0391909555455365,0.4999947156812842
2.6092641353607178,0.8521338036886189,[2.04512567],5.0,0.6,0.0,0.08985922710943947,6.010990921564736,0.49999398923951605
2.624279499053955,0.8581911639074556,[2.04572138],5.0,0.6,0.0,0.09145539041160058,5.9817372966676885,0.4999937738068775
2.6372039318084717,0.8632715305426091,[2.0463406],5.0,0.6,0.0,0.0903600108502253,5.9572262530780185,0.49999392205753684
2.65922212600708,0.8724552702292327,[2.0469826],5.0,0.6,0.0,0.08752175647321335,5.934599216876449,0.49999429788136435
2.6743173599243164,0.8789034278815427,[2.04764799],5.0,0.6,0.0,0.08361130365957994,5.893649789820531,0.49999479603454194
2.6892685890197754,0.8847653893836429,[2.04833444],5.0,0.6,0.0,0.07909525333997658,5.863114535211594,0.4999953430079592
2.710671901702881,0.8935583316367929,[2.04903934],5.0,0.6,0.0,0.07429310714417911,5.833396503775714,0.49999589132362154
2.7202305793762207,0.8972709072547898,[2.0497608],5.0,0.6,0.0,0.0694197285675986,5.800258583641479,0.499996412673218
2.73972225189209,0.9046960584907832,[2.05049524],5.0,0.6,0.0,0.06461631835123159,5.77224940900918,0.49999689193749136
2.754131317138672,0.9103626212761465,[2.05123942],5.0,0.6,0.0,0.05997269006775502,5.740480206740161,0.4999973226042383
2.769209384918213,0.9170061776451935,[2.05199012],5.0,0.6,0.0,0.05554312865972993,5.705808061644861,0.49999770350049316
2.785266160964966,0.9234543352975034,[2.05274349],5.0,0.6,0.0,0.05135759590913498,5.673508944468815,0.49999803657103126
2.800265312194824,0.929707094233077,[2.05349616],5.0,0.6,0.0,0.047429600457942596,5.643236560027516,0.49999832542393097
2.823194980621338,0.9386954352029638,[2.05424697],5.0,0.6,0.0,0.04376169594748233,5.618491480864997,0.4999985744109694
2.837341547012329,0.9449481941385374,[2.05499662],5.0,0.6,0.0,0.04034930222544894,5.584089931642742,0.4999987880681293
2.852243423461914,0.9508101556406374,[2.055744],5.0,0.6,0.0,0.037183346157846534,5.553555642115774,0.49999897079196576
2.865248441696167,0.9558905222757909,[2.05648651],5.0,0.6,0.0,0.03425207451388456,5.528352130122196,0.49999912666662694
2.882079601287842,0.9627294773615743,[2.0572225],5.0,0.6,0.0,0.031542287972490986,5.50091634850305,0.49999925938459966
2.9020230770111084,0.9705454260310411,[2.05795237],5.0,0.6,0.0,0.30507853130001245,5.474973695445612,0.4999307212759904
2.917253255844116,0.9767981849666146,[2.05867721],5.0,0.6,0.0,0.05985644828018902,5.441321184140778,0.49999733297305193
2.932267427444458,0.9830509439021881,[2.05939633],5.0,0.6,0.0,0.24554482192822102,5.409185139591224,0.49995512042414
2.955857038497925,0.9926254810222849,[2.06010973],5.0,0.6,0.0,0.255720674088338,5.380184103329219,0.49995132373847195
2.963245153427124,0.9951656643398614,[2.06081749],5.0,0.6,0.0,0.2043794343299739,5.370791863780794,0.4999689066470327
2.9842612743377686,1.003763207876275,[2.06151801],5.0,0.6,0.0,0.1405319733158685,5.341925126403893,0.4999852988746792
2.997178792953491,1.009038973228165,[2.0622117],5.0,0.6,0.0,0.08310214297037069,5.307979811057553,0.4999948592215335
3.0077052116394043,1.0131423462796352,[2.06289842],5.0,0.6,0.0,0.0376532317501546,5.277559174598382,0.49999894461545125
3.024472951889038,1.0201767000821553,[2.0635764],5.0,0.6,0.0,0.004245630839118449,5.246724373538077,0.4999999865818968
3.0381674766540527,1.0258432628675187,[2.06424512],5.0,0.6,0.0,-0.018988171549271016,5.216748369485286,0.4999997316059695
3.053248882293701,1.0320960218030921,[2.06490412],5.0,0.6,0.0,-0.03430373030110957,5.184891605839069,0.4999991240304829
3.076169729232788,1.041084362772979,[2.06555395],5.0,0.6,0.0,0.2322903460032536,5.15567493300927,0.49995983465026045
3.0867254734039307,1.0453831345411857,[2.06619561],5.0,0.6,0.0,-0.01585775321151392,5.120402807688999,0.49999981280687106
3.0961763858795166,1.0490957101591825,[2.06682694],5.0,0.6,0.0,-0.1063760413754776,5.095581048134719,0.4999915765371197
3.118255376815796,1.0574978549788594,[2.0674462],5.0,0.6,0.0,0.14837581654532273,5.069770656147425,0.49998361200578345
3.1276493072509766,1.0614058293135928,[2.06805394],5.0,0.6,0.0,0.18808293902324466,5.041192181802874,0.4999736673816915
3.1361687183380127,1.064923006214853,[2.06864857],5.0,0.6,0.0,-0.1272940515292441,5.016557366808121,0.4999879380463354
3.1522555351257324,1.071957360017373,[2.06922762],5.0,0.6,0.0,0.05651774970316831,4.987600508647202,0.49999762219976196
3.162184953689575,1.0756699356353696,[2.06979025],5.0,0.6,0.0,0.08942752698104273,4.966100324135195,0.4999940468540246
3.175154209136963,1.0807503022705232,[2.07033569],5.0,0.6,0.0,-0.20961749513975592,4.94255898662021,0.4999672924868799
3.1881682872772217,1.0858306689056765,[2.07086327],5.0,0.6,0.0,-0.28017963884353864,4.918428443289003,0.4999415675038023
3.2061808109283447,1.0934512188584067,[2.07137306],5.0,0.6,0.0,-0.26040133272724775,4.8851004921394,0.4999495256007206
3.216160774230957,1.0973591931931401,[2.07186511],5.0,0.6,0.0,-0.21216646393818148,4.861091550947146,0.4999664922243258
3.2393910884857178,1.1065429328797636,[2.07233944],5.0,0.6,0.0,-0.16138720947125587,4.823920085615041,0.49998061184515097
3.2531566619873047,1.1118186982316538,[2.07279674],5.0,0.6,0.0,-0.1175000746510071,4.795002242641685,0.499989722712708
3.269261598587036,1.1186576533174373,[2.07323709],5.0,0.6,0.0,-0.08276075707714337,4.759185574401901,0.4999949013714826
3.2917017936706543,1.1276459942873238,[2.0736603],5.0,0.6,0.0,-0.05657437791059078,4.71840643422493,0.49999761743249144
3.302055835723877,1.1315539686220573,[2.07406647],5.0,0.6,0.0,-0.31347692409661,4.693830057866698,0.49992685476150567
3.3190200328826904,1.1383929237078407,[2.07445517],5.0,0.6,0.0,-0.3329225377030879,4.661213354773617,0.49991749937548574
3.3341782093048096,1.1446456826434142,[2.07482607],5.0,0.6,0.0,-0.26821728198121564,4.628422767648417,0.4999464503135308
3.347033739089966,1.1497260492785677,[2.07517889],5.0,0.6,0.0,-0.1854908375389459,4.601951494653052,0.4999743881779094
3.361159086227417,1.1551972133471944,[2.07551328],5.0,0.6,0.0,-0.11045370472237853,4.573969247789266,0.4999909183804274
3.3772449493408203,1.1612545735660311,[2.07582903],5.0,0.6,0.0,-0.050824141027729974,4.543315607516321,0.49999807714766004
3.389169931411743,1.1661395414844482,[2.07612609],5.0,0.6,0.0,-0.006875541999913214,4.518600252695573,0.49999996480989695
3.4013779163360596,1.1710245094028648,[2.07640454],5.0,0.6,0.0,0.02375605909381759,4.494044876892493,0.49999957989747995
3.4162352085113525,1.1770818696217016,[2.07666456],5.0,0.6,0.0,0.0439945099358514,4.463743798018481,0.4999985592022608
3.432224750518799,1.183920824707485,[2.07690645],5.0,0.6,0.0,-0.21952523306105445,4.429710806015274,0.49996412763668135
3.4452264308929443,1.1888057926259017,[2.07713057],5.0,0.6,0.0,-0.24567370082933077,4.405227842198196,0.49995507330208405
3.459181308746338,1.1942769566945284,[2.07733736],5.0,0.6,0.0,-0.18747232468799402,4.3778804745525886,0.4999738380782346
3.481576919555664,1.2032652976644154,[2.07752741],5.0,0.6,0.0,-0.11091889237833324,4.33389728582359,0.499990841723608
3.4972288608551025,1.2095180565999888,[2.07770136],5.0,0.6,0.0,-0.04167022341283106,4.30189109293409,0.4999987074189881
3.5121524333953857,1.2151846193853522,[2.07785977],5.0,0.6,0.0,0.012569107333344137,4.273028952031033,0.49999988239778703
3.5284781455993652,1.2214373783209256,[2.07800312],5.0,0.6,0.0,-0.22451923063555396,4.241544981133357,0.4999624770072451
3.5381743907928467,1.225540751372396,[2.07813191],5.0,0.6,0.0,-0.23163570327027524,4.2206341364121895,0.4999600607109223
3.550330638885498,1.2306211180075495,[2.07824672],5.0,0.6,0.0,-0.16056947702755134,4.195122931109744,0.4999808078192144
3.566239356994629,1.2370692756598594,[2.07834812],5.0,0.6,0.0,-0.07590417100802355,4.162454409917632,0.49999571119702324
3.5825366973876953,1.2439082307456428,[2.07843666],5.0,0.6,0.0,-0.002035519392028888,4.127922212938016,0.4999999969156961
3.597785711288452,1.2499655909644793,[2.0785129],5.0,0.6,0.0,0.3303843516103965,4.096846601492652,0.49991875244026407
3.6092348098754883,1.254459761449423,[2.07857742],5.0,0.6,0.0,0.4028949678667971,4.074343186796677,0.4998791802633004
3.632260799407959,1.2636435011360463,[2.07863076],5.0,0.6,0.0,0.3731030473917502,4.027040439263031,0.4998963858031753
3.646021604537964,1.2689192664879365,[2.07867336],5.0,0.6,0.0,0.3115529384108117,4.000360459661015,0.49992774980910154
3.6590611934661865,1.2741950318398267,[2.07870572],5.0,0.6,0.0,-0.028305781502205057,3.974008279779947,0.49999940357379563
3.672805070877075,1.2796661959084534,[2.0787285],5.0,0.6,0.0,0.1592096713834416,3.946399632224956,0.49998113150015433
3.6814706325531006,1.2831833728097135,[2.07874243],5.0,0.6,0.0,0.2029627961267238,3.929647127149701,0.499969336181719
3.694810390472412,1.2884591381616035,[2.07874831],5.0,0.6,0.0,0.18967580395342706,3.90244936462933,0.49997321948579543
3.7114720344543457,1.2954934919641234,[2.07874668],5.0,0.6,0.0,0.15827031299845715,3.8661089532998396,0.49998135349252504
3.722545862197876,1.2999876624490672,[2.07873798],5.0,0.6,0.0,0.12509846496124796,3.8439894553204708,0.49998835054582597
3.73968243598938,1.306435820101377,[2.07872276],5.0,0.6,0.0,0.09615931949114248,3.8109610900791133,0.49999311686244935
3.7523691654205322,1.3115161867365306,[2.07870152],5.0,0.6,0.0,0.07292763005304403,3.785364755118562,0.4999960409666807
3.766801118850708,1.3169873508051573,[2.07867478],5.0,0.6,0.0,0.05507263088981411,3.7578654000520384,0.4999977422422466
3.7801644802093506,1.322458514873784,[2.07864307],5.0,0.6,0.0,0.04168050426545106,3.730311906680898,0.49999870678110064
3.7952256202697754,1.3283204763758845,[2.07860692],5.0,0.6,0.0,0.031769760606073345,3.7007908943615058,0.49999924866393897
3.8091881275177,1.3337916404445112,[2.0785668],5.0,0.6,0.0,0.02448182642941648,3.6731501377938764,0.4999995538364257
3.8231654167175293,1.3392628045131378,[2.07852316],5.0,0.6,0.0,-0.25690899719611227,3.6456581120010476,0.49995087031658614
3.843240737915039,1.3478603480495512,[2.07847632],5.0,0.6,0.0,-0.29397542709030405,3.6014199681486927,0.49993567188929827
3.8531289100646973,1.3513775249508115,[2.07842655],5.0,0.6,0.0,0.034239284280777715,3.584490790824355,0.4999991273187359
3.873626947402954,1.3593888723370147,[2.07837407],5.0,0.6,0.0,-0.13477386279009346,3.5417965223139967,0.49998647889594267
3.8870434761047363,1.3648600364056418,[2.07831889],5.0,0.6,0.0,0.12191212337510274,3.5144619164021598,0.49998893642048386
3.8979835510253906,1.3691588081738484,[2.07826117],5.0,0.6,0.0,0.18940158791175427,3.4932067686232897,0.4999732968614237
3.9151158332824707,1.3758023645428952,[2.0782011],5.0,0.6,0.0,-0.0951644045115968,3.4574812949064904,0.49999325855778476
3.9265668392181396,1.3804919337445751,[2.07813852],5.0,0.6,0.0,-0.16184438298287307,3.433890875845562,0.4999805018471865
3.942126750946045,1.3863538952466754,[2.07807323],5.0,0.6,0.0,-0.14375373645616102,3.4022566310365567,0.4999846170978334
3.953022003173828,1.3904572682981455,[2.07800504],5.0,0.6,0.0,-0.10007912668271468,3.381940870528617,0.49999254426521006
3.9701192378997803,1.3971008246671923,[2.07793361],5.0,0.6,0.0,-0.05526370708053886,3.34447857276056,0.4999977265483839
3.985201358795166,1.4031581848860288,[2.07785816],5.0,0.6,0.0,-0.017932711953075647,3.3119599593892852,0.49999976061412754
3.9991555213928223,1.4090201463881293,[2.07777777],5.0,0.6,0.0,0.010110601962842242,3.2800255907160527,0.4999999239042032
4.012193918228149,1.4139051143065458,[2.07769156],5.0,0.6,0.0,0.0297137256610308,3.2525214882497546,0.49999934276511276
4.024125099182129,1.4187900822249626,[2.07759848],5.0,0.6,0.0,0.31855630957723857,3.224499473460316,0.49992446533769064
4.040184497833252,1.425042841160536,[2.07749731],5.0,0.6,0.0,0.3593528733459259,3.1894164305146258,0.49990388145858866
4.055188417434692,1.4312956000961095,[2.0773867],5.0,0.6,0.0,0.3082150370309399,3.1539566240190005,0.49992928954847915
4.078197717666626,1.4400885423492595,[2.0772638],5.0,0.6,0.0,0.23349193234447047,3.0909598244666974,0.49995941805958044
4.093181848526001,1.4455597064178862,[2.07712438],5.0,0.6,0.0,-0.11346850173406414,3.061601475607508,0.4999904158598966
4.107126474380493,1.4512262692032498,[2.07696566],5.0,0.6,0.0,-0.204766891702337,3.0302984611007564,0.4999687886469802
4.127300262451172,1.4590422178727167,[2.07678501],5.0,0.6,0.0,-0.19393820667277561,2.974698964444562,0.499972002370205
4.136112451553345,1.4625593947739768,[2.07657996],5.0,0.6,0.0,-0.1499547951694017,2.968527808733441,0.49998326136182725
4.148122549057007,1.4674443626923934,[2.07635052],5.0,0.6,0.0,-0.10185295238507505,2.937877693553616,0.4999922776307092
4.1635050773620605,1.4736971216279668,[2.07609591],5.0,0.6,0.0,0.21569627025005028,2.8944899051715307,0.4999653680532186
4.1839516162872314,1.4811222728639604,[2.07581154],5.0,0.6,0.0,0.005008122295935655,2.831295214524956,0.4999999813294755
4.200185537338257,1.4877658292330072,[2.07549165],5.0,0.6,0.0,-0.0597634486653907,2.7966467720134935,0.4999973412541692
4.215189456939697,1.4936277907351074,[2.07513339],5.0,0.6,0.0,-0.06452612196840582,2.764074445557466,0.49999690060834967
4.2291951179504395,1.499294353520471,[2.07473598],5.0,0.6,0.0,-0.0482867088342277,2.7309242896713597,0.49999826435407746
4.243591070175171,1.5047655175890977,[2.07429813],5.0,0.6,0.0,-0.027790671856859718,2.6924980474891744,0.4999994250838374
4.264081954956055,1.5127768649753008,[2.07381498],5.0,0.6,0.0,-0.009484760965265623,2.6161790188193845,0.4999999330332185
4.276857614517212,1.518052630327191,[2.07328106],5.0,0.6,0.0,0.004751623388806291,2.605412405997789,0.499999983192981
4.293222188949585,1.5246961866962379,[2.0726948],5.0,0.6,0.0,0.01491568768985007,2.5497700088058757,0.49999983438747975
4.309181451797485,1.5307535469150746,[2.07205454],5.0,0.6,0.0,-0.2543800552143042,2.51586888271909,0.4999518327479726
4.3292341232299805,1.5385694955845415,[2.07135678],5.0,0.6,0.0,-0.28340474454547815,2.4520677172194487,0.49994021462704813
4.339174032211304,1.5420866724858016,[2.07060006],5.0,0.6,0.0,-0.22614660671869358,2.4518051157028324,0.49996193110307513
4.354619026184082,1.5479486339879014,[2.06978525],5.0,0.6,0.0,-0.42530904513227763,2.3953640377486063,0.4998653651670871
4.374186277389526,1.5559599813741052,[2.06890786],5.0,0.6,0.0,-0.3880559775763489,2.31944990607143,0.4998879151930105
4.390183448791504,1.5622127403096786,[2.06796029],5.0,0.6,0.0,-0.0010601685241809489,2.287298617436286,0.4999999991633256
4.403163194656372,1.5670977082280952,[2.0669409],5.0,0.6,0.0,0.1489979619133811,2.258817448424986,0.49998347428898304
4.425973176956177,1.576086049197982,[2.06584544],5.0,0.6,0.0,0.1924631395109928,2.158412976371793,0.4999724266310631
4.439054250717163,1.5815572132666087,[2.06466501],5.0,0.6,0.0,-0.08500091480228733,2.141333378839446,0.49999462161931
4.447159767150879,1.5848789914511323,[2.06340441],5.0,0.6,0.0,-0.13602764081506108,2.1696277328401137,0.49998622616026944
4.455508470535278,1.588005370918919,[2.06208245],5.0,0.6,0.0,-0.10281413748275384,2.171361257396169,0.4999921311923185
4.474157810211182,1.5950397247214392,[2.06070877],5.0,0.6,0.0,-0.04755207628473938,2.0723243984160185,0.49999831676437884
4.4961724281311035,1.6036372682578528,[2.05927071],5.0,0.6,0.0,-0.27115790584491267,1.962736944575624,0.49994526974802683
4.514660596847534,1.6108670207771094,[2.05774756],5.0,0.6,0.0,-0.2627818340639139,1.9115827273047334,0.4999485985902897
4.525071859359741,1.6147749951118429,[2.0561326],5.0,0.6,0.0,-0.1781456616807009,1.906019722418509,0.4999763763545109
4.539090871810913,1.6202461591804695,[2.05443194],5.0,0.6,0.0,-0.3589352213947867,1.8700787972276145,0.49990410473171826
4.561118841171265,1.6290391014336199,[2.05264227],5.0,0.6,0.0,-0.034457908484595956,1.7694431659934406,0.4999991161387017
4.577516555786133,1.6352918603691935,[2.05074979],5.0,0.6,0.0,0.11543978318095766,1.7357265765949548,0.4999900799611763
4.58767032623291,1.6393952334206634,[2.04875257],5.0,0.6,0.0,0.17925699799099137,1.7170145598857298,0.4999760806967338
4.602137804031372,1.6450617962060268,[2.0466577],5.0,0.6,0.0,0.20107994446379274,1.6718336743304076,0.4999699024519201
4.618161916732788,1.6511191564248633,[2.04446872],5.0,0.6,0.0,0.20282141736864404,1.6316559382955618,0.49996937888485193
4.633155345916748,1.6565903204934902,[2.04218888],5.0,0.6,0.0,0.19533191892422003,1.5924865121314922,0.4999715985330786
4.654454946517944,1.664992465313167,[2.03981456],5.0,0.6,0.0,0.18394906938270592,1.511191975657245,0.49997481216060563
4.66216254234314,1.6681188447809538,[2.03734301],5.0,0.6,0.0,-0.10477044631034575,1.519149040768051,0.49999182889788474
4.6854376792907715,1.677302584467577,[2.03477749],5.0,0.6,0.0,-0.15064005548825887,1.4224389499125807,0.4999831080390534
4.699158668518066,1.6825783498194673,[2.03211018],5.0,0.6,0.0,0.1682492713200387,1.3842715116546622,0.4999789281142026
4.7141547203063965,1.6884403113215678,[2.02933729],5.0,0.6,0.0,-0.010093707190764079,1.3433359310125699,0.49999992423885165
4.72915506362915,1.6943022728236676,[2.02646663],5.0,0.6,0.0,-0.038500837932338904,1.3010942764427316,0.49999889682646365
4.753444194793701,1.7030952150768177,[2.02349365],5.0,0.6,0.0,-0.0127692607962251,1.246163207143815,0.4999998798344684
4.7691545486450195,1.7091525752956547,[2.02040324],5.0,0.6,0.0,0.02565921175030078,1.1925760444352027,0.49999951373975987
4.7868030071258545,1.7161869290981746,[2.01718979],5.0,0.6,0.0,0.06056676429411596,1.147482510363744,0.4999972827988889
4.7993388175964355,1.7212672957333282,[2.01385959],5.0,0.6,0.0,0.08698134444219391,1.0971866467923237,0.49999440472295426
4.818769216537476,1.7288878456860584,[2.01041807],5.0,0.6,0.0,0.10459864111737666,1.0576483068843356,0.499991986177683
4.832493543624878,1.7339682123212117,[2.00686121],5.0,0.6,0.0,0.1147807424525906,1.0085728500072262,0.4999905329718503
4.8481409549713135,1.7400255725400484,[2.00319],5.0,0.6,0.0,0.11925674272523629,0.9547587945464008,0.4999903781535918
4.863129615783691,1.7460829327588854,[1.99941625],5.0,0.6,0.0,0.11961385749122937,0.9026119049731727,0.4999920139628694
4.884831190109253,1.7540942801450887,[1.99553936],5.0,0.6,0.0,0.11714147302867353,0.9005117178509122,0.499998425023946
4.896337032318115,1.7583930519132955,[1.99155176],5.0,0.6,0.0,0.11282204518599656,0.8079757413123662,0.5000094957966164
4.906144142150879,1.762301026248029,[1.98747034],5.0,0.6,0.0,0.10737469612283058,0.7600136450925296,0.5000308768159286
4.92008113861084,1.767381392883182,[1.98332381],5.0,0.6,0.0,0.10131065639524123,0.7141253908768826,0.5000814174262244
4.930055379867554,1.771093968501179,[1.97913155],5.0,0.6,0.0,0.09498448194516342,0.677166372579069,0.5001673759821194
4.9441094398498535,1.776565132569806,[1.97490771],5.0,0.6,0.0,-0.187402300202096,0.6270040331171678,0.5003566738662973
4.965971946716309,1.7851626761062194,[1.97064633],5.0,0.6,0.0,0.04929843753995945,0.6061062821800867,0.5010254747587186
4.981095552444458,1.790829238891583,[1.96632539],5.0,0.6,0.0,-0.1444960840924486,0.5370246134796497,0.5020971760564306
4.995171308517456,1.7959096055267365,[1.96194343],5.0,0.6,0.0,-0.16231680744555388,0.4698648950468127,0.5040125763832842
5.0091471672058105,1.8013807695953632,[1.95751333],5.0,0.6,0.0,-0.11814022862621382,0.4285010203686381,0.507621077031933
5.024126052856445,1.8070473323807266,[1.95303991],5.0,0.6,0.0,-0.06097638573953299,0.3739595507429336,0.5140805166632377
5.0370872020721436,1.8115415028656698,[1.94852739],5.0,0.6,0.0,-0.009760057342763268,0.3267776484450738,0.5234465966958056
5.048631429672241,1.8160356733506133,[1.94398312],5.0,0.6,0.0,0.02992718968100183,0.2792224917864807,0.53784987362261
5.064163446426392,1.8213114387025033,[1.93941332],5.0,0.6,0.0,-0.49407435006539413,0.23151872693757525,0.5612634259678871
5.087629318237305,1.8287365899384969,[1.9348073],5.0,0.6,0.0,-2.198247933113874,0.2739785456603245,0.601794009459891
5.100642919540405,1.8320583681230203,[1.93014614],5.0,0.6,0.0,-3.9322649581291316,0.15624090952887715,0.6346073905600846
5.110695838928223,1.8347939501573334,[1.92543993],5.0,0.6,0.0,-5.0,0.09409525517542709,0.6750655396102865
5.128944635391235,1.8385065257753306,[1.92070216],5.0,0.6,0.0,-5.0,0.10778606187225827,0.7406551107328723
5.142819881439209,1.840460512942697,[1.91592312],5.0,0.6,0.0,-5.0,0.05719488390310333,0.8018963518892741
5.157062530517578,1.8422191013933271,[1.91109976],5.0,0.6,0.0,-5.0,0.015524769563125625,0.868895256453273
5.170744180679321,1.8431960949770103,[1.90624026],5.0,0.6,0.0,-5.0,-0.017573179729068366,0.9333523958634792
5.183789253234863,1.8435868924104835,[1.90135166],5.0,0.6,0.0,-5.0,-0.04507011269822089,0.9947965486359464
5.197155714035034,1.843391493693747,[1.89643992],5.0,0.6,0.0,-5.0,-0.06794275671951004,1.0513285533757752
5.209604024887085,1.8428052975435372,[1.89151118],5.0,0.6,0.0,-5.0,-0.0922059114448452,1.1039576723303695
5.223291397094727,1.8418283039598535,[1.88657109],5.0,0.6,0.0,-5.0,-0.106454446659256,1.1517951926768182
5.231033802032471,1.8412421078096437,[1.88163772],5.0,0.6,0.0,-5.0,-0.12256500724926048,1.203276608474026
5.251527786254883,1.8388973232088037,[1.87672478],5.0,0.6,0.0,-5.0,-0.10859950489768552,1.2328569850434419
5.264747619628906,1.8367479373247004,[1.8718128],5.0,0.6,0.0,-5.0,-0.1288350486054881,1.2637255619825196
5.278069734573364,1.8344031527238602,[1.86688558],5.0,0.6,0.0,-5.0,-0.14488821425233073,1.2914886205340406
5.286922216415405,1.8324491655564934,[1.86195651],5.0,0.6,0.0,-5.0,-0.18133605827818164,1.3219141388959397
5.305120229721069,1.8279549950715501,[1.85703664],5.0,0.6,0.0,-5.0,-0.14400453847742742,1.3261156221588584
5.316553592681885,1.8246332168870267,[1.8521171],5.0,0.6,0.0,-4.821715940307445,-0.1789068735364645,1.3427746965778808
5.333676338195801,1.8197482489686099,[1.84719014],5.0,0.6,0.0,-4.5713085590758915,-0.1523734876170758,1.34486571505545
5.348139047622681,1.8150586797669297,[1.8422508],5.0,0.6,0.0,-5.0,-0.15679179548596603,1.3442647266140515
5.368135690689087,1.8076335285309364,[1.83728453],5.0,0.6,0.0,-4.936037095422716,-0.06531061328889774,1.320943344900861
5.376044034957886,1.8048979464966233,[1.83228399],5.0,0.6,0.0,-3.4063843369034106,-0.16926060771902912,1.3521453448842142
5.389101982116699,1.7998175798614697,[1.82726393],5.0,0.6,0.0,-2.2066135768479596,-0.16614683290770904,1.3565282827457814
5.402031421661377,1.7945418145095795,[1.82223689],5.0,0.6,0.0,-0.7624651824288562,-0.1616657568494952,1.3573510371678106
5.411556005477905,1.7904384414581092,[1.8172135],5.0,0.6,0.0,0.4951341975048458,-0.17560976177732934,1.3662416059999898
5.42804741859436,1.7839902838057995,[1.81220256],5.0,0.6,0.0,1.447779302216802,-0.13849001635350772,1.3512794156093082
5.439126253128052,1.7791053158873826,[1.80719586],5.0,0.6,0.0,2.655929928142842,-0.16310450268350257,1.3487836145446395
5.448385715484619,1.7751973415526492,[1.80220108],5.0,0.6,0.0,3.6849335538361507,-0.17015616775922868,1.3542891333259754
5.466992616653442,1.766990595449709,[1.7972243],5.0,0.6,0.0,4.968598673284089,-0.10102150793242701,1.3148785445055482
5.475035190582275,1.7640596146986587,[1.79225738],5.0,0.6,0.0,5.0,-0.1625516517439326,1.3347089964840437
5.497043132781982,1.7546804762952988,[1.78729739],5.0,0.6,0.0,5.0,-0.0638596557501248,1.2900719354738048
5.51424503326416,1.7476461224927786,[1.78231846],5.0,0.6,0.0,5.0,-0.033300634328960146,1.2680184838559505
5.530146360397339,1.7404163699735218,[1.77729111],5.0,0.6,0.0,5.0,-0.02506927329465227,1.2436249989840849
5.540036678314209,1.736703794355525,[1.77221635],5.0,0.6,0.0,5.0,-0.10770078722444827,1.2587993982906212
5.563051700592041,1.7269338585186915,[1.76709457],5.0,0.6,0.0,5.0,-0.030173257543122178,1.206012555600675
5.578030347824097,1.720681099583118,[1.7619048],5.0,0.6,0.0,5.0,-0.008483986910290432,1.1935887726237135
5.593928098678589,1.7136467457805982,[1.75663611],5.0,0.6,0.0,5.0,0.0026109641363433276,1.1727309094469212
5.60703182220459,1.707784784278498,[1.75129707],5.0,0.6,0.0,5.0,-0.02396689617612091,1.1665078360402865
5.627546072006226,1.7003596330425044,[1.74588305],5.0,0.6,0.0,5.0,-0.02089504115598362,1.1424182390517559
5.6376001834869385,1.696842456141244,[1.74038162],5.0,0.6,0.0,5.0,-0.00645741665133913,1.1661875241605106
5.655220985412598,1.6898081023387241,[1.73479787],5.0,0.6,0.0,5.0,0.000916597898560502,1.148831752802286
5.668804883956909,1.6847277357035708,[1.72913728],5.0,0.6,0.0,5.0,0.009498898073722924,1.1557884689242206
5.6851911544799805,1.679256571634944,[1.72340512],5.0,0.6,0.0,5.0,0.007318092763636915,1.1589116413148501
5.701536178588867,1.6735900088495805,[1.71761224],5.0,0.6,0.0,5.0,0.011171116031631435,1.1604216631608408
5.7132251262664795,1.6694866357981104,[1.71176827],5.0,0.6,0.0,5.0,-0.03535444260859218,1.181121688057155
5.726042747497559,1.6657740601801139,[1.70588901],5.0,0.6,0.0,5.0,-0.0660407541845158,1.206544844325887
5.751019716262817,1.65776271279391,[1.69996958],5.0,0.6,0.0,5.0,-0.04571112078751633,1.1820057900523155
5.766079425811768,1.6530731435922303,[1.69398084],5.0,0.6,0.0,5.0,-0.03370390490122751,1.197293428507515
5.782109498977661,1.6481881756738137,[1.68791696],5.0,0.6,0.0,5.0,-0.026803190490091274,1.2110282483780557
5.804086446762085,1.64134922058803,[1.68177555],5.0,0.6,0.0,4.289709963966686,-0.07574339456211471,1.2076742126316964
5.820083856582642,1.63607345523614,[1.67553686],5.0,0.6,0.0,2.9724633488101455,-0.05637417109312087,1.2258339848988398
5.83061957359314,1.6327516770516164,[1.66921157],5.0,0.6,0.0,1.9504223715486382,-0.028796386203921526,1.263718963277784
5.846026420593262,1.6274759116997264,[1.6628286],5.0,0.6,0.0,1.1942203269104092,-0.0537969820531529,1.2777694708253442
5.8620216846466064,1.6220047476310997,[1.65639847],5.0,0.6,0.0,0.3769278034566015,-0.0473001971387831,1.2892125617028676
5.880465030670166,1.615947387412263,[1.64992197],5.0,0.6,0.0,-0.30927340836113204,-0.0712461823009517,1.2937838267237334
5.89000678062439,1.6130164066612127,[1.64340864],5.0,0.6,0.0,-0.5431353470076534,-0.10117579757925146,1.3311028716546298
5.913087368011475,1.6053958567084827,[1.63686931],5.0,0.6,0.0,-0.8564310068648114,-0.09130498562897378,1.319729233048158
5.928088426589966,1.6001200913565925,[1.63029778],5.0,0.6,0.0,-0.8494626178178453,-0.07612046637832973,1.3329489487342183
5.941643476486206,1.595625920871649,[1.62370349],5.0,0.6,0.0,-1.006538007207557,-0.10699673487870694,1.353378056903465
5.9570887088775635,1.5905455542364957,[1.61711394],5.0,0.6,0.0,-1.1745127131833164,-0.10039164276805641,1.3673108124274114
5.981098651885986,1.5823388081335557,[1.6105308],5.0,0.6,0.0,-1.5760260120849243,-0.09785077204295727,1.351186912226354
5.997010707855225,1.576281447914719,[1.60394295],5.0,0.6,0.0,-1.9575388989722653,-0.07356070175915026,1.3552580508407948
6.011526107788086,1.5708102838460922,[1.59736242],5.0,0.6,0.0,-1.9605953782161292,-0.1177952745801896,1.3656332746229027
6.032406806945801,1.563189733893362,[1.59080474],5.0,0.6,0.0,-2.0937193782824988,-0.0762415565821776,1.3552911501451308
6.04805064201355,1.5575231711079984,[1.58427491],5.0,0.6,0.0,-2.2183069275017915,-0.12991346974744575,1.362990724519442
6.063036203384399,1.5516612096058984,[1.57779203],5.0,0.6,0.0,-2.0138160623879253,-0.16795380842913535,1.3693407477304143
6.077708721160889,1.545994646820535,[1.57138656],5.0,0.6,0.0,-1.9940877791603895,-0.1828637543329235,1.3760667441493022
6.091007709503174,1.5409142801853815,[1.56508596],5.0,0.6,0.0,-1.7376340080849166,-0.18792538056627997,1.3874724905732316
6.105026483535767,1.5354431161167548,[1.55891346],5.0,0.6,0.0,-1.7088675980083976,-0.18471271139349138,1.393511519547865
6.118984222412109,1.529971952048128,[1.55288916],5.0,0.6,0.0,-1.738375724912001,-0.1776355369755913,1.3980443061072592
6.132999897003174,1.5245007879795012,[1.54703059],5.0,0.6,0.0,-1.7601811999125143,-0.16815406403465846,1.4011635379379679
6.147312164306641,1.5182480290439277,[1.54135238],5.0,0.6,0.0,-2.0302795660299746,-0.15297283602709996,1.3956802789512088
6.15899133682251,1.5131676624087744,[1.53586647],5.0,0.6,0.0,-2.0286078390535787,-0.14228776875558716,1.3990304069998374
6.172993421554565,1.5075010996234108,[1.53058224],5.0,0.6,0.0,-1.91540047615799,-0.12764996807403745,1.3962084914857331
6.188047647476196,1.5012483406878376,[1.52550676],5.0,0.6,0.0,-1.2127265123752666,-0.10936356865115067,1.3878743161655094
6.211062669754028,1.4920646010012137,[1.52063852],5.0,0.6,0.0,-0.7152379977557574,-0.1192211906205859,1.3489609419543849
6.226055145263672,1.4856164433489039,[1.51596911],5.0,0.6,0.0,-0.09372079989273513,-0.08629672434753653,1.3317155469650457
6.239063501358032,1.4803406779970136,[1.51149738],5.0,0.6,0.0,0.4507700159794029,-0.05999888380783531,1.3233847623256663
6.250827789306641,1.475455710078597,[1.50722886],5.0,0.6,0.0,0.861595841642971,-0.028974574288409043,1.3166189208217745
6.265991687774658,1.469593748576497,[1.50316688],5.0,0.6,0.0,1.140985483483645,-0.01362531453429245,1.297203971693258
6.28729248046875,1.4611916037568202,[1.49930743],5.0,0.6,0.0,1.8633535357390958,-0.005335131582014485,1.2452643134209365
6.295989513397217,1.4578698255722966,[1.49564564],5.0,0.6,0.0,2.2927121041121215,0.04611511293803952,1.2478139335022989
6.317565441131592,1.4498584781860933,[1.49217966],5.0,0.6,0.0,3.0707076647921285,0.04024756729790311,1.191951617842191
6.330708026885986,1.4453643077011498,[1.48890261],5.0,0.6,0.0,3.7762966884882467,0.0676154904518876,1.1739621258544013
6.341772079467773,1.4420425295166264,[1.48581041],5.0,0.6,0.0,4.83127005186882,0.10697683621966143,1.1646506169671351
6.3576500415802,1.4379391564651562,[1.48290239],5.0,0.6,0.0,5.0,0.10012062424172548,1.1491501986589814
6.371996164321899,1.4342265808471597,[1.4801723],5.0,0.6,0.0,5.0,0.11785256171673335,1.1373337981031142
6.385987281799316,1.4309048026626363,[1.47761334],5.0,0.6,0.0,5.0,0.13207332578849484,1.128131631070747
6.39531946182251,1.4289508154952695,[1.47522173],5.0,0.6,0.0,5.0,0.1522825618414404,1.1334134176242665
6.409711122512817,1.4260198347442192,[1.47299418],5.0,0.6,0.0,5.0,0.15884549657302677,1.1249202634773283
6.42620325088501,1.4236750501433795,[1.47092386],5.0,0.6,0.0,5.0,0.14896055319130594,1.1216022504659833
6.4420576095581055,1.4217210629760126,[1.46900095],5.0,0.6,0.0,5.0,0.15560008153509056,1.1212263488184138
6.453266382217407,1.4205486706755925,[1.4672176],5.0,0.6,0.0,5.0,0.16238669871816477,1.1286099635946305
6.462637186050415,1.4199624745253827,[1.4655681],5.0,0.6,0.0,5.0,0.16601696562103196,1.1414290530081876
6.47096848487854,1.4193762783751724,[1.46404758],5.0,0.6,0.0,5.0,0.17419510441796765,1.1526523349240048
6.485999345779419,1.4187900822249626,[1.46265054],5.0,0.6,0.0,5.0,0.1646557963131943,1.1623542452404125
6.504863977432251,1.4185946835082262,[1.46136795],5.0,0.6,0.0,5.0,0.1427759612073014,1.175296931558553
6.51991081237793,1.4185946835082262,[1.46018899],5.0,0.6,0.0,5.0,0.14214978568829809,1.1892322878640758
6.534986734390259,1.4187900822249626,[1.45910547],5.0,0.6,0.0,5.0,0.14020942287284602,1.2042116162405825
6.5473949909210205,1.419180879658436,[1.45811137],5.0,0.6,0.0,4.686590707426294,0.139031229495242,1.2224272847375115
6.561087608337402,1.4197670758086463,[1.45720085],5.0,0.6,0.0,3.400650644553603,0.13248726635445562,1.247054325539341
6.5750346183776855,1.4203532719588559,[1.4563679],5.0,0.6,0.0,2.00507647785581,0.1286629767451667,1.2685223132286496
6.588156223297119,1.4211348668258026,[1.45560685],5.0,0.6,0.0,0.5392599439860115,0.12438075401203519,1.288251536247637
6.60296630859375,1.4219164616927495,[1.45491247],5.0,0.6,0.0,-0.4011022503270971,0.11902837277431234,1.304208958224349
6.618478775024414,1.4228934552764325,[1.45427967],5.0,0.6,0.0,-1.2648244630581986,0.11295055991513087,1.3199857061793914
6.630971431732178,1.423870448860116,[1.45370362],5.0,0.6,0.0,-2.200621847422989,0.10777890186416628,1.333347459657536
6.644001245498657,1.4248474424437991,[1.45317983],5.0,0.6,0.0,-2.6793801121767267,0.10200185635647473,1.3463639620739951
6.665313959121704,1.4264106321776928,[1.45270355],5.0,0.6,0.0,-3.163893508445084,0.08788506406220654,1.3634728591708696
6.680752754211426,1.427583024478113,[1.45226961],5.0,0.6,0.0,-3.5202357896688254,0.08116709233237362,1.3761096478696369
6.691191911697388,1.4285600180617963,[1.45187413],5.0,0.6,0.0,-4.001397468618307,0.08264630800902957,1.3852131111468449
6.709986686706543,1.4299278090789527,[1.45151412],5.0,0.6,0.0,-4.659351864690365,0.0697173792265651,1.3951147643973008
6.726029634475708,1.4312956000961095,[1.45118586],5.0,0.6,0.0,-5.0,0.06358211601981031,1.4056569408783999
6.748767614364624,1.432858789830003,[1.4508853],5.0,0.6,0.0,-5.0,0.04976575865220997,1.4188079377740326
6.763351202011108,1.4338357834136866,[1.45060859],5.0,0.6,0.0,-5.0,0.04687633100891857,1.4270202805668912
6.778029203414917,1.4348127769973695,[1.45035276],5.0,0.6,0.0,-5.0,0.042851464519542706,1.4345816285117936
6.791955947875977,1.4353989731475796,[1.45011558],5.0,0.6,0.0,-5.0,0.04071318331786539,1.4393410840258491
6.815483093261719,1.4365713654479997,[1.44989429],5.0,0.6,0.0,-5.0,0.028752691327035295,1.4468547190975165
6.824536085128784,1.4367667641647361,[1.44968619],5.0,0.6,0.0,-5.0,0.034108002197335306,1.4489008104203844
6.8442957401275635,1.4373529603149464,[1.44948937],5.0,0.6,0.0,-5.0,0.027149303687665875,1.452703247678965
6.857224941253662,1.4379391564651562,[1.44930191],5.0,0.6,0.0,-5.0,0.02549895994039957,1.456240169194626
6.8729753494262695,1.4381345551818931,[1.44912209],5.0,0.6,0.0,-5.0,0.025916097342296728,1.457876061769543
6.889024496078491,1.4383299538986296,[1.44894877],5.0,0.6,0.0,-5.0,0.026034693215780818,1.4594325976401792
6.908446311950684,1.4385253526153663,[1.44878072],5.0,0.6,0.0,-5.0,0.022866509751044976,1.4609172369604084
6.916966199874878,1.4385253526153663,[1.44861688],5.0,0.6,0.0,-5.0,0.0277897380509343,1.4615702894685276
6.931030035018921,1.4385253526153663,[1.44845699],5.0,0.6,0.0,-4.961141939732267,0.028447205971493427,1.462475578711131
6.945056676864624,1.4385253526153663,[1.44830087],5.0,0.6,0.0,-4.463797493803743,0.029016949527607597,1.466454635595541
6.964902400970459,1.4385253526153663,[1.44814777],5.0,0.6,0.0,-4.1357886661719,0.02552303253989494,1.4690802040567825
6.978137254714966,1.4385253526153663,[1.44799678],5.0,0.6,0.0,-3.322921401530212,0.027676321791199974,1.4740660554388956
6.986028432846069,1.4385253526153663,[1.44784803],5.0,0.6,0.0,-2.4684994436349132,0.027111815285437615,1.4782522644156697
7.008012533187866,1.4385253526153663,[1.44770212],5.0,0.6,0.0,-1.7334150531884407,0.025480616147825035,1.4810667160873117
7.032500982284546,1.4385253526153663,[1.44755879],5.0,0.6,0.0,-1.1556224130070571,0.02547480230601796,1.4828187211792834
7.047012567520142,1.4385253526153663,[1.44741772],5.0,0.6,0.0,-0.7243908490894115,0.028421937728345295,1.4839190801008897
7.063008785247803,1.4385253526153663,[1.44727933],5.0,0.6,0.0,-0.41359325868396923,0.030598920240013174,1.4846631187560437
7.078003168106079,1.4385253526153663,[1.44714428],5.0,0.6,0.0,-0.19566383082228236,0.03218912313060012,1.4852241444307837
7.0920090675354,1.4385253526153663,[1.44701321],5.0,0.6,0.0,-0.04669657662353793,0.033345726596644774,1.4856929574623843
7.107556343078613,1.4385253526153663,[1.44688664],5.0,0.6,0.0,0.052321438277460525,0.03400275877301182,1.4861130209717175
7.128979206085205,1.4385253526153663,[1.44676498],5.0,0.6,0.0,0.11581451803406483,0.033824257917601734,1.486503505809866
7.144031286239624,1.4385253526153663,[1.44664847],5.0,0.6,0.0,0.15441510930401092,0.03455356339448251,1.4868719515079212
7.16272759437561,1.4385253526153663,[1.44653739],5.0,0.6,0.0,0.17581322562831492,0.03460350583773283,1.4872205117498727
7.172996759414673,1.4385253526153663,[1.446432],5.0,0.6,0.0,0.18549674421096513,0.03529550081862333,1.4875492017782452
7.189722061157227,1.4385253526153663,[1.44633253],5.0,0.6,0.0,0.1873423328595671,0.035139133522643855,1.487857472934056
7.207277774810791,1.4385253526153663,[1.44623901],5.0,0.6,0.0,0.18406533823185706,0.03445158227375956,1.4881451904561382
7.216942071914673,1.4385253526153663,[1.44615137],5.0,0.6,0.0,0.17755271670965683,0.03472755394124732,1.488412694823656
7.225940942764282,1.4385253526153663,[1.44606956],5.0,0.6,0.0,0.16910498881613276,0.03487428929417608,1.4886602484372364
7.239947080612183,1.4385253526153663,[1.44599353],5.0,0.6,0.0,0.15960996510501835,0.03440504667218266,1.4888882866236457
7.256117820739746,1.4385253526153663,[1.44592306],5.0,0.6,0.0,0.14966644706449156,0.03379034107444998,1.4890977932375928
7.266932487487793,1.4385253526153663,[1.44585782],5.0,0.6,0.0,0.13967178491281995,0.03342956799058994,1.4892900649997176
7.2838664054870605,1.4385253526153663,[1.44579742],5.0,0.6,0.0,0.12988357874722387,0.03239047112556533,1.4894665925546393
7.293955326080322,1.4385253526153663,[1.44574142],5.0,0.6,0.0,0.12046300763564022,0.032521300033802616,1.4896289254381185
7.316950798034668,1.4385253526153663,[1.44568932],5.0,0.6,0.0,0.11150516743102212,0.03057727498163483,1.48977875780385
7.324964761734009,1.4385253526153663,[1.44564063],5.0,0.6,0.0,0.10306025420815189,0.0303168416884609,1.4899177347353842
7.343235492706299,1.4385253526153663,[1.44559496],5.0,0.6,0.0,0.09514831393525221,0.028831691230558995,1.490047188881329
7.358857870101929,1.4385253526153663,[1.44555179],5.0,0.6,0.0,0.08776947983687089,0.029238666929500372,1.4901687003644242
7.373007535934448,1.4385253526153663,[1.4455107],5.0,0.6,0.0,0.08091105064733446,0.029672618907308577,1.4902835818291416
7.386926651000977,1.4385253526153663,[1.44547151],5.0,0.6,0.0,0.07455236077669009,0.030236681735648925,1.4903924566431366
7.399936676025391,1.4385253526153663,[1.44543415],5.0,0.6,0.0,0.06866810971283087,0.031042910254784145,1.4904956056224181
7.413906097412109,1.4385253526153663,[1.44539872],5.0,0.6,0.0,0.063230618330336,0.032192634672281305,1.4905928789182092
7.438010931015015,1.4385253526153663,[1.44536569],5.0,0.6,0.0,0.05821133950795023,0.03587753420241284,1.4906830911472264
7.4512107372283936,1.4385253526153663,[1.44533601],5.0,0.6,0.0,0.05358185203207759,0.03857054449285673,1.4907637413721946
7.4669508934021,1.4385253526153663,[1.44531089],5.0,0.6,0.0,0.049314497765813085,0.04184573983985363,1.4908317639219815
7.481924295425415,1.4385253526153663,[1.44529167],5.0,0.6,0.0,0.04538277373044289,0.045751259179805506,1.4908836588810839
7.505985975265503,1.4385253526153663,[1.44528093],5.0,0.6,0.0,0.04176155691137566,0.060390082707910575,1.4909126763581917
7.518318176269531,1.4385253526153663,[1.44528219],5.0,0.6,0.0,0.03842721592864418,0.061427634784583234,1.4909094992526173
7.5339343547821045,1.4385253526153663,[1.44529847],5.0,0.6,0.0,0.03535764716078821,0.07110505370433176,1.4908660193492866
7.548989534378052,1.4385253526153663,[1.44533281],5.0,0.6,0.0,0.03253226134608523,0.07702678790491245,1.4907737429502312
7.573064804077148,1.438720751332103,[1.44539036],5.0,0.6,0.0,0.029931938610938052,0.10399548562347728,1.4911420590589899
7.588978052139282,1.438720751332103,[1.44547791],5.0,0.6,0.0,0.027538964243754578,0.10742185795198907,1.4909091679448838
7.596977949142456,1.438720751332103,[1.44559776],5.0,0.6,0.0,0.025336953609895234,0.10804937092830147,1.490585471922449
7.6167802810668945,1.4389161500488394,[1.44575054],5.0,0.6,0.0,0.2993491315539618,0.13957891354343088,1.4906350075368289
7.635304927825928,1.4395023461990497,[1.44594355],5.0,0.6,0.0,0.8826861345107812,0.15257889036974978,1.4911568564470121
7.647769927978516,1.439893143632523,[1.44618439],5.0,0.6,0.0,1.4441994669457816,0.14414077962190663,1.4905650967329738
7.6589035987854,1.4404793397827331,[1.4464742],5.0,0.6,0.0,1.5986292910280766,0.13070274647178118,1.4909393051898083
7.67068338394165,1.4408701372162065,[1.44681162],5.0,0.6,0.0,1.8494913670315078,0.13446635526918863,1.4904247750323707
7.6839210987091064,1.441651732083153,[1.44719712],5.0,0.6,0.0,2.6136236566658777,0.1392911366894956,1.4888093504211488
7.69891095161438,1.4426287256668366,[1.44763256],5.0,0.6,0.0,3.0904419765002076,0.14127759150299635,1.4879455187029484
7.721979141235352,1.444582712834203,[1.44812339],5.0,0.6,0.0,3.3470644135723995,0.17795896808755376,1.4892256261796355
7.736974716186523,1.4457551051346231,[1.44867797],5.0,0.6,0.0,3.4438607403885984,0.1682984499136702,1.489541599004769
7.751989364624023,1.4473182948685164,[1.44929924],5.0,0.6,0.0,3.9815521480799876,0.15875521653953442,1.4875528490912548
7.774553060531616,1.4500538769028297,[1.4499895],5.0,0.6,0.0,3.959195059217497,0.1859128057764769,1.4884656291670408
7.786567687988281,1.4516170666367234,[1.45075285],5.0,0.6,0.0,3.9892782203166086,0.1549145581766455,1.48814323514863
7.803481101989746,1.4539618512375632,[1.45158777],5.0,0.6,0.0,3.9826600026507246,0.15446881955814087,1.4872043330364115
7.817997455596924,1.4561112371216667,[1.45249067],5.0,0.6,0.0,3.6416511226685357,0.1394285273424603,1.4876065867582347
7.8319926261901855,1.4584560217225064,[1.45345759],5.0,0.6,0.0,3.2140603231450977,0.1256246123817451,1.4873846310521857
7.845473051071167,1.4604100088898735,[1.45448175],5.0,0.6,0.0,2.801263673561084,0.10472772115536992,1.4871884115569705
7.8609113693237305,1.4631455909241868,[1.45555653],5.0,0.6,0.0,2.4380469395958064,0.10556865915084793,1.4841420643154293
7.878321647644043,1.4664673691087102,[1.45667943],5.0,0.6,0.0,2.1305495546380007,0.10740740302307714,1.4776540201524262
7.890446662902832,1.4684213562760768,[1.45784814],5.0,0.6,0.0,1.5978133488682518,0.08257510326282386,1.4759926592634873
7.91092324256897,1.4721339318940736,[1.45905932],5.0,0.6,0.0,1.0745963617068992,0.09992330958357644,1.4655298960982992
7.923007249832153,1.474283317778177,[1.46031205],5.0,0.6,0.0,0.36492227447890513,0.08086046798989213,1.461613839656263
7.9315431118011475,1.4756511087953337,[1.4616],5.0,0.6,0.0,-0.5503703493696065,0.04742110886932504,1.4610572829249378
7.952253341674805,1.4793636844133302,[1.46291476],5.0,0.6,0.0,-1.0753237396076065,0.06731743971842173,1.4464646220939246
7.965170621871948,1.4815130702974335,[1.46425492],5.0,0.6,0.0,-1.6379812272812004,0.05860505207771497,1.440177547213156
7.9781293869018555,1.483857854898274,[1.46561782],5.0,0.6,0.0,-2.0862187369437075,0.03851233796724886,1.432396311802869
7.993202447891235,1.4863980382158504,[1.46699864],5.0,0.6,0.0,-2.3874132620074207,0.05025595352096787,1.4232705620612474
8.00167441368103,1.4877658292330072,[1.46839396],5.0,0.6,0.0,-2.555384027124133,0.026663829374581408,1.4228561312844241
8.018967390060425,1.4906968099840574,[1.4698016],5.0,0.6,0.0,-2.893916047518942,0.05525404390916444,1.4101865418016146
8.032960414886475,1.4930415945848974,[1.47122435],5.0,0.6,0.0,-3.188320715668031,0.054317086221079815,1.4016823707340857
8.043232202529907,1.4948001830355275,[1.47266361],5.0,0.6,0.0,-3.374319640857687,0.03958461313996065,1.3982395535551597
8.059892892837524,1.497340366353104,[1.47411911],5.0,0.6,0.0,-3.4495802853380817,0.06525985930096552,1.3889863807989704
8.073901176452637,1.4996851509539442,[1.47559566],5.0,0.6,0.0,-3.4334887175547273,0.06791058005952028,1.3817221220562996
8.092063665390015,1.5022253342715206,[1.47710006],5.0,0.6,0.0,-3.625875630369332,0.08453993292453359,1.371697867510443
8.103188514709473,1.5039839227221508,[1.47863751],5.0,0.6,0.0,-3.253251873579897,0.07711141962933932,1.3716072994023327
8.116885662078857,1.506133308606254,[1.48021032],5.0,0.6,0.0,-2.7304541724850075,0.08141504308226295,1.3687209998668757
8.140105724334717,1.5094550867907774,[1.48182906],5.0,0.6,0.0,-2.2258665744619544,0.14119090256539102,1.3547646382411003
8.153412580490112,1.5117998713916176,[1.48351186],5.0,0.6,0.0,-1.7963038743588893,0.1221188083934301,1.3497114879249525
8.167287826538086,1.5141446559924576,[1.48526707],5.0,0.6,0.0,-1.450960457913333,0.12925142765467443,1.3448185253702947
8.182914972305298,1.5170756367435079,[1.4870971],5.0,0.6,0.0,-0.9049010147564871,0.12195376208330605,1.3348760858502895
8.206247806549072,1.5215698072284511,[1.48901288],5.0,0.6,0.0,-0.11106513334266577,0.15161565125703547,1.3089630444997433
8.221884965896606,1.5245007879795012,[1.4910307],5.0,0.6,0.0,0.6130587253214176,0.1375894101863912,1.2989959651130976
8.236957311630249,1.5272363700138143,[1.49315426],5.0,0.6,0.0,1.445833434488685,0.12554521742036268,1.2911403090562212
8.250961065292358,1.529971952048128,[1.49537628],5.0,0.6,0.0,1.5859398022050035,0.11556887003826033,1.2852530721693005
8.273852586746216,1.5348569199665447,[1.49769789],5.0,0.6,0.0,2.0094321958389036,0.13176928316293943,1.2556957299227065
8.28288722038269,1.5368109071339113,[1.50012127],5.0,0.6,0.0,2.1435597889990667,0.09459237711792745,1.2605619304660185
8.292893886566162,1.5389602930180148,[1.50262871],5.0,0.6,0.0,1.8572665965596078,0.0710853295554055,1.2654148099892941
8.31587266921997,1.5438452609364317,[1.50520582],5.0,0.6,0.0,2.0197831379191835,0.10608157304077388,1.2388275273450717
8.32931637763977,1.5467762416874815,[1.50785552],5.0,0.6,0.0,1.7196241536913814,0.09058550971515841,1.2364288834267314
8.34388017654419,1.550098019872005,[1.51057262],5.0,0.6,0.0,1.5829167270620847,0.07381058365644702,1.2297894815056756
8.359965562820435,1.5540059942067386,[1.51334241],5.0,0.6,0.0,1.2297817526356507,0.05570523348244642,1.2172922021151238
8.377101182937622,1.5581093672582085,[1.5161536],5.0,0.6,0.0,0.5832570122492278,0.057499061417609215,1.2029866415327755
8.386847019195557,1.5600633544255753,[1.51899513],5.0,0.6,0.0,-0.041898616249805176,0.02616640014469931,1.2136792378081684
8.39985704421997,1.5629943351766253,[1.52185055],5.0,0.6,0.0,-0.5408910379113521,0.01835444387438747,1.212576655343115
8.418027639389038,1.5669023095113588,[1.52470746],5.0,0.6,0.0,-0.8979596544005909,0.02676101564179843,1.1998159220178628
8.431202411651611,1.569637891545672,[1.52755969],5.0,0.6,0.0,-1.4067486123172603,0.013087712243678577,1.200323308559726
8.440865278244019,1.571396479996302,[1.53039612],5.0,0.6,0.0,-2.1268789945002604,-0.010641850707561,1.2111199112988227
8.455860137939453,1.5747182581808254,[1.53320225],5.0,0.6,0.0,-2.47667563506959,-0.015522972532894353,1.203876300189819
8.47315263748169,1.5776492389318757,[1.53597016],5.0,0.6,0.0,-3.1631200608676586,-0.0015703139261836422,1.1991093339374295
8.490764856338501,1.5803848209661888,[1.53870122],5.0,0.6,0.0,-4.065621551556029,0.02299764749974771,1.194294596407838
8.505935668945312,1.5823388081335557,[1.54139843],5.0,0.6,0.0,-5.0,0.01356765164167085,1.1969107609826357
8.521928071975708,1.5840973965841858,[1.54405868],5.0,0.6,0.0,-5.0,0.007817987886783456,1.2074312188817995
8.536922693252563,1.5856605863180788,[1.54667584],5.0,0.6,0.0,-5.0,0.006501485522555903,1.2196209113965413
8.549934148788452,1.586832978618499,[1.54924528],5.0,0.6,0.0,-5.0,0.009402483645409885,1.2355782215440378
8.570932388305664,1.588591567069129,[1.55176957],5.0,0.6,0.0,-5.0,0.0590460225490169,1.2442175340260608
8.585530281066895,1.5897639593695492,[1.55425749],5.0,0.6,0.0,-4.76417829761944,0.052381205417670565,1.260520834613357
8.59284782409668,1.5905455542364957,[1.55670562],5.0,0.6,0.0,-3.9818044149634453,0.06138793872600424,1.283642032285858
8.615861654281616,1.5924995414038623,[1.55910625],5.0,0.6,0.0,-3.1243101149838073,0.10019715551097422,1.2928831968706214
8.639933586120605,1.5946489272879658,[1.56147206],5.0,0.6,0.0,-1.815982516884917,0.1253682377967655,1.2999568805531314
8.653875827789307,1.5960167183051226,[1.56382106],5.0,0.6,0.0,-0.5892770502277875,0.11028380478692852,1.3125075025070276
8.666851282119751,1.5971891106055427,[1.56615641],5.0,0.6,0.0,0.3851433760429541,0.09508901494655052,1.324696751453386
8.681864976882935,1.5989476990561724,[1.56847527],5.0,0.6,0.0,1.3646047774839922,0.09366936363487777,1.3291269750320989
8.695893049240112,1.6007062875068025,[1.57077729],5.0,0.6,0.0,2.4192548090049844,0.08827101051048515,1.3316434034414457
8.706306457519531,1.6018786798072226,[1.57305875],5.0,0.6,0.0,3.2687010157146483,0.05408772242591409,1.3390559936566282
8.725932836532593,1.604614261841536,[1.57531638],5.0,0.6,0.0,4.4035291187289936,0.09148444080713658,1.3280260796764418
8.749955654144287,1.6077406413093227,[1.57756304],5.0,0.6,0.0,5.0,0.13081373210129282,1.3152187907667492
8.765924215316772,1.610085425910163,[1.57981695],5.0,0.6,0.0,4.560593782149359,0.11515053454921734,1.3173260186463913
8.787156343460083,1.6130164066612127,[1.58208967],5.0,0.6,0.0,4.313247533216586,0.1423828996860463,1.3122319711008954
8.802883386611938,1.6153611912620527,[1.58439086],5.0,0.6,0.0,3.846943051495271,0.12404201378950676,1.3145493691922148
8.81339430809021,1.6173151784294195,[1.58671873],5.0,0.6,0.0,3.6286069134038246,0.09189780587162717,1.319548264729478
8.83090853691101,1.620050760463733,[1.58906434],5.0,0.6,0.0,3.48805716523777,0.1015450832015904,1.3163054714546114
8.838898181915283,1.6216139501976263,[1.59141803],5.0,0.6,0.0,3.357402400796353,0.10498012430016632,1.3249813545741145
8.852879762649536,1.6245449309486766,[1.59376783],5.0,0.6,0.0,3.214469397548592,0.11441584904793678,1.3197845243970743
8.865071773529053,1.6266943168327799,[1.59611125],5.0,0.6,0.0,3.0561664392516716,0.10101928657676039,1.3224853072484168
8.878926992416382,1.629429898867093,[1.59845099],5.0,0.6,0.0,2.8863179202343288,0.09695041075656122,1.3191943853512405
8.88962197303772,1.6313838860344596,[1.60078416],5.0,0.6,0.0,2.710387134235503,0.0636326422765783,1.323782235377756
8.901904344558716,1.6339240693520367,[1.60310254],5.0,0.6,0.0,2.5334000619975536,0.0479238223964761,1.3222097426743746
8.92385721206665,1.6382228411202433,[1.60540644],5.0,0.6,0.0,2.083261248893198,0.09408179908110983,1.3030120922903188
8.939911603927612,1.64134922058803,[1.60770779],5.0,0.6,0.0,1.6056948147329582,0.07806370793891612,1.2955239938334109
8.95391058921814,1.6440848026223436,[1.61001161],5.0,0.6,0.0,1.190765971306372,0.06705988323805122,1.2917359462186857
8.968909502029419,1.6470157833733936,[1.61231558],5.0,0.6,0.0,0.5845153610127212,0.05832144056279666,1.2857281610537643
8.986130714416504,1.650337561557917,[1.61462157],5.0,0.6,0.0,0.024832573411525893,0.07614406530565562,1.274818058930153
8.99849271774292,1.6526823461587568,[1.61693402],5.0,0.6,0.0,-0.4138136365194391,0.059899615080496176,1.2743330468334915
9.007833480834961,1.6544409346093867,[1.61925008],5.0,0.6,0.0,-0.7251775249154699,0.03976330377437042,1.2802189781306565
9.020898342132568,1.6569811179269638,[1.62156289],5.0,0.6,0.0,-0.9276952366829884,0.04323672734977291,1.2774676211359084
9.033904075622559,1.6595213012445402,[1.62387068],5.0,0.6,0.0,-1.0455537715001297,0.04641605165038165,1.2747287282718482
9.050304651260376,1.6628430794290636,[1.62617669],5.0,0.6,0.0,-0.8251739247872885,0.05850256626805546,1.2637246359850571
9.06285572052002,1.6651878640299036,[1.62848413],5.0,0.6,0.0,-1.0799281223571606,0.044453650602012944,1.262945170464909
9.08387279510498,1.669291237081374,[1.63080062],5.0,0.6,0.0,-1.1502746875008367,0.09295527993664662,1.2425762340002513
9.091946125030518,1.6708544268152674,[1.63313459],5.0,0.6,0.0,-1.4101112110545935,0.042896959278198435,1.2508693754360731
9.104820251464844,1.6733946101328439,[1.63547893],5.0,0.6,0.0,-1.6646732272086109,0.03168504854639173,1.248063152320186
9.127904653549194,1.6778887806177873,[1.63783216],5.0,0.6,0.0,-1.5731556305053847,0.08338870807881765,1.2236521288582998
9.142900466918945,1.6806243626521005,[1.64020913],5.0,0.6,0.0,-1.3687108742697371,0.07198601438806798,1.2199232840690917
9.165074825286865,1.684532336986834,[1.6426239],5.0,0.6,0.0,-1.426361905536858,0.09798264593422391,1.202286148303931
9.17980694770813,1.6872679190211477,[1.64508774],5.0,0.6,0.0,-1.2642993818939454,0.08273953421461355,1.1994007270595344
9.192807912826538,1.6896127036219875,[1.64760076],5.0,0.6,0.0,-1.3231477401581324,0.06762143309740917,1.201275119301712
9.205955743789673,1.692348285656301,[1.65015423],5.0,0.6,0.0,-1.1500320817656697,0.06110960092210881,1.1994416499961427
9.218719244003296,1.6948884689738777,[1.65274013],5.0,0.6,0.0,-0.6452772404444523,0.04512527298931953,1.2006557727294482
9.232421398162842,1.6974286522914546,[1.65535115],5.0,0.6,0.0,-0.12189467518581565,0.04933738741562983,1.2017914845315314
9.24001431465149,1.6987964433086111,[1.65797511],5.0,0.6,0.0,0.03346770620503084,-0.008008973857010566,1.2165714087265227
9.261826038360596,1.7027044176433446,[1.66060145],5.0,0.6,0.0,0.04040712345172624,0.05424156810199065,1.2015004831157259
9.276826858520508,1.7050492022441845,[1.66323454],5.0,0.6,0.0,-0.2782873881929529,0.04925923978143681,1.2048467371661804
9.291888236999512,1.7071985881282878,[1.66587792],5.0,0.6,0.0,-0.9139829787485397,0.0466537380964482,1.2100965569689337
9.305848836898804,1.709543372729128,[1.66852703],5.0,0.6,0.0,-1.243964599084227,0.044453695981311915,1.2131381372715166
9.31682276725769,1.7113019611797582,[1.67117788],5.0,0.6,0.0,-1.6739205976349867,0.04628327980893094,1.2226251917386797
9.333462476730347,1.7142329419308078,[1.6738284],5.0,0.6,0.0,-2.034289659074739,0.05343385492254392,1.2183693849186314
9.35387659072876,1.7175547201153312,[1.67648443],5.0,0.6,0.0,-2.0033317695035846,0.08482836153359789,1.210677675800717
9.36246395111084,1.7189225111324882,[1.67914842],5.0,0.6,0.0,-1.8282086194914275,0.02807679210455748,1.226289176042737
9.381823301315308,1.722048890600275,[1.68181448],5.0,0.6,0.0,-1.3419607910070155,0.07805689244760862,1.2220839761316105
9.393736124038696,1.7240028777676415,[1.6844834],5.0,0.6,0.0,-0.8318143739744389,0.0572390875212019,1.2312048527347226
9.40779185295105,1.7261522636517448,[1.68715568],5.0,0.6,0.0,-0.4009186581779129,0.06804435043354556,1.2376329561321096
9.422804594039917,1.728497048252585,[1.68982843],5.0,0.6,0.0,-0.07260083028255249,0.06193563041016863,1.2415165805008952
9.435883283615112,1.7308418328534252,[1.69249909],5.0,0.6,0.0,0.16117774037188953,0.0576056550140408,1.245232464551684
9.45034122467041,1.7331866174542652,[1.69516349],5.0,0.6,0.0,0.31816260888596115,0.054776008421471976,1.24882330416606
9.464875936508179,1.7353360033383685,[1.69781809],5.0,0.6,0.0,0.6928131886652134,0.05387752566489734,1.2542795548556107
9.48088550567627,1.7378761866559451,[1.70045997],5.0,0.6,0.0,0.7820163993711016,0.051945702169523836,1.2553327259254097
9.496685981750488,1.7404163699735218,[1.7030879],5.0,0.6,0.0,0.7529727504088136,0.05900772215573965,1.2563579918806007
9.508814334869385,1.742565755857625,[1.70570103],5.0,0.6,0.0,0.6823362329312863,0.04919826008965754,1.261658910141413
9.52277946472168,1.7449105404584655,[1.7082974],5.0,0.6,0.0,0.6035397153174358,0.056733445606608576,1.26455683717716
9.534843683242798,1.7470599263425688,[1.71087563],5.0,0.6,0.0,0.5298445394224855,0.05056583213531111,1.26940931333606
9.553860902786255,1.7499909070936184,[1.71343896],5.0,0.6,0.0,0.7414743041866942,0.08339894682597605,1.2651040202547454
9.566142559051514,1.7519448942609854,[1.71599483],5.0,0.6,0.0,0.7198329932090248,0.07564240881848117,1.2718377749150394
9.57869291305542,1.7537034827116156,[1.71854465],5.0,0.6,0.0,0.6185522490097097,0.06723002633614525,1.2806773262547066
9.594170808792114,1.756243666029192,[1.72108588],5.0,0.6,0.0,0.5034483217227896,0.07499337226456146,1.2807848734973555
9.602881908416748,1.7578068557630855,[1.72361398],5.0,0.6,0.0,0.3997216958054905,0.03472873441999927,1.2913770285680317
9.624344110488892,1.7613240326643456,[1.72612705],5.0,0.6,0.0,0.31456995950382516,0.09277023891661282,1.2804692876311856
9.638835191726685,1.7638642159819222,[1.7286349],5.0,0.6,0.0,0.5238416877203559,0.08558319472266082,1.2799833029721173
9.649714231491089,1.7656228044325524,[1.73114005],5.0,0.6,0.0,0.5058316832192751,0.05181977041421396,1.288160454491693
9.659828186035156,1.767381392883182,[1.73362958],5.0,0.6,0.0,0.6880272411183872,0.027538176025609293,1.2959017701459281
9.681881189346313,1.7708985697844424,[1.73610033],5.0,0.6,0.0,0.6157771475374172,0.09187632485733184,1.2846299480436125
9.69588828086853,1.7732433543852826,[1.73856508],5.0,0.6,0.0,0.46793374618980593,0.0843203297352479,1.2860586712759727
9.710845470428467,1.7759789364195957,[1.74103186],5.0,0.6,0.0,0.31822434104311137,0.08423050211237423,1.2832088714062635
9.724737405776978,1.778323721020436,[1.74350118],5.0,0.6,0.0,0.1925401775584567,0.07975199529993551,1.2846190388140688
9.737854480743408,1.7808639043380126,[1.74597113],5.0,0.6,0.0,0.0961616508203508,0.06304683538503439,1.2838716954526035
9.752305030822754,1.7835994863723261,[1.74843854],5.0,0.6,0.0,0.3024158790637186,0.07040439023304325,1.2808708146501484
9.763792991638184,1.7857488722564294,[1.75090178],5.0,0.6,0.0,0.5633005604961162,0.05681651045955627,1.2841420527890288
9.778786659240723,1.788289055574006,[1.75335935],5.0,0.6,0.0,0.7854485516572964,0.0663014211565886,1.2830153535808522
9.791863441467285,1.7906338401748463,[1.7558099],5.0,0.6,0.0,0.6674514679319241,0.05246815817171804,1.284299807246616
9.81318211555481,1.7943464157928428,[1.75825793],5.0,0.6,0.0,0.7303760580643947,0.09572944777996059,1.270287940862565
9.822489261627197,1.796105004243473,[1.76071011],5.0,0.6,0.0,0.5547988826784848,0.05681026269304042,1.2781358965545206
9.832773447036743,1.7982543901275763,[1.76315919],5.0,0.6,0.0,0.3291262155268528,0.03127855752556353,1.2815800365282848
9.855791330337524,1.8023577631790462,[1.76560043],5.0,0.6,0.0,0.40228945187777787,0.08318607492920799,1.2630908712982734
9.87177848815918,1.8052887439300964,[1.76804427],5.0,0.6,0.0,0.5529493608273738,0.07004812869958914,1.2575009278774807
9.883786678314209,1.8074381298141997,[1.77049535],5.0,0.6,0.0,0.4172640636446514,0.0635061079518692,1.2609983266627518
9.899792671203613,1.8105645092819864,[1.77295041],5.0,0.6,0.0,0.2101486477883331,0.054968640487141514,1.2535139938086426
9.919414520263672,1.8144724836167199,[1.77541208],5.0,0.6,0.0,0.0168628789583653,0.07954989891473842,1.2370177403808174
9.934080123901367,1.8172080656510334,[1.77789066],5.0,0.6,0.0,-0.1354478019989058,0.08441373921215878,1.234041129361578
9.94820761680603,1.8197482489686099,[1.78039285],5.0,0.6,0.0,-0.2440001016553256,0.07393003669572501,1.2335716767840106
9.955828428268433,1.8213114387025033,[1.78290885],5.0,0.6,0.0,-0.03887090469962759,0.07839286848169837,1.244566392096437
9.970069169998169,1.8240470207368165,[1.78542273],5.0,0.6,0.0,-0.04728272207868249,0.08726081874332048,1.2420272199305753
9.989359617233276,1.8279549950715501,[1.78793784],5.0,0.6,0.0,-0.12228910810655175,0.1016056409055034,1.2259386213040073
10.004931449890137,1.8314721719728102,[1.79046867],5.0,0.6,0.0,0.07301809708190965,0.08576354787350284,1.2144352398417009
10.018796682357788,1.8342077540071235,[1.79301983],5.0,0.6,0.0,0.3173816924912653,0.0765457308699873,1.2122016125316954
10.03180456161499,1.8371387347581736,[1.7955901],5.0,0.6,0.0,0.5273037821140426,0.06940929737524565,1.207830874299684
10.046786785125732,1.8400697155092236,[1.79817888],5.0,0.6,0.0,0.9559612241385336,0.06460434541108842,1.2033261620293378
10.063470602035522,1.8435868924104835,[1.80078818],5.0,0.6,0.0,1.0860966412833815,0.07078875784611323,1.192385561504048
10.076417684555054,1.8461270757280606,[1.80342259],5.0,0.6,0.0,0.8063107177853728,0.0702922063024009,1.193897124709656
10.088850736618042,1.8488626577623737,[1.80608219],5.0,0.6,0.0,0.7140520791302387,0.05313360548391413,1.1930999801760285
10.102868795394897,1.851793638513424,[1.80876245],5.0,0.6,0.0,0.41509938291079085,0.05583473631575381,1.1903736328191359
10.114795923233032,1.8541384231142637,[1.81146205],5.0,0.6,0.0,0.37744937952104685,0.06127636015017888,1.19460826630062
10.130855083465576,1.8572648025820506,[1.81418272],5.0,0.6,0.0,0.15052459163358,0.06277569996720785,1.1898799616971973
10.14403223991394,1.860000384616364,[1.81692784],5.0,0.6,0.0,-0.09603726226311426,0.07414951554972872,1.1900033326105586
10.158283233642578,1.8631267640841507,[1.8197025],5.0,0.6,0.0,-0.3009230520273014,0.07498762458442502,1.1857572567000048
10.17261791229248,1.866643940985411,[1.8225129],5.0,0.6,0.0,-0.4498497724612322,0.08378579717729316,1.1772383018977697
10.182766914367676,1.8687933268695143,[1.82536047],5.0,0.6,0.0,-0.5470633984189054,0.06179959699760542,1.1854995077645447
10.19482946395874,1.8715289089038274,[1.82823852],5.0,0.6,0.0,-0.32655169856354105,0.06804504526542786,1.187339396248067
10.213219404220581,1.8754368832385613,[1.83114701],5.0,0.6,0.0,-0.31774940606477714,0.08334650818126293,1.175413678086954
10.222766876220703,1.8775862691226646,[1.83409058],5.0,0.6,0.0,-0.37497698543684876,0.06925246253611231,1.1848689403880523
10.236842393875122,1.8805172498737142,[1.83706572],5.0,0.6,0.0,-0.4380932196454195,0.07350097616824333,1.1853569097663401
10.246492862701416,1.882666635757818,[1.84006432],5.0,0.6,0.0,-0.4858563975759236,0.0535524119901591,1.1954166678909206
10.259644985198975,1.8857930152256044,[1.84307969],5.0,0.6,0.0,-0.23773225112853635,0.07293760350362138,1.1942339869115277
10.271536350250244,1.888528597259918,[1.84611205],5.0,0.6,0.0,-0.2146615467216,0.07656892822388588,1.1977587456211627
10.28622817993164,1.8918503754444413,[1.84916773],5.0,0.6,0.0,0.010172813750298673,0.0932391226375076,1.1946398139466334
10.30074667930603,1.8951721536289647,[1.85225395],5.0,0.6,0.0,-0.018903890458117127,0.08948613017295813,1.1918439468319786
10.315669298171997,1.8986893305302248,[1.85537285],5.0,0.6,0.0,-0.12398853700863788,0.08501858560130902,1.1870967848257128
10.328383445739746,1.9014249125645382,[1.85852176],5.0,0.6,0.0,-0.23209379570453362,0.08468752206346136,1.1919829033065974
10.341830015182495,1.9043558933155882,[1.86169752],5.0,0.6,0.0,-0.04180820713190041,0.08341952647662797,1.1949264282781276
10.355767965316772,1.9072868740666384,[1.86489652],5.0,0.6,0.0,-0.06713168876068878,0.08221469769500044,1.198099753966015
10.3648202419281,1.9096316586674782,[1.86810993],5.0,0.6,0.0,0.1197741104589163,0.056411705341723864,1.2083437444565728
10.383326053619385,1.9137350317189483,[1.87132941],5.0,0.6,0.0,0.062029987255815745,0.08304137269571932,1.1979195286873208
10.395795106887817,1.9166660124699986,[1.87455671],5.0,0.6,0.0,-0.06426438740589337,0.07989231076208893,1.2014237910683345
10.408776998519897,1.919792391937785,[1.87779247],5.0,0.6,0.0,-0.18786483920264907,0.0757511193052377,1.2026923585866134
10.424772262573242,1.9237003662725185,[1.88103149],5.0,0.6,0.0,-0.28485938392512067,0.06791130328430219,1.1947427955258059
10.446799516677856,1.9283899354741985,[1.88427685],5.0,0.6,0.0,-0.35143955046527886,0.09151463183315806,1.1775116443043045
10.46183443069458,1.9319071123754588,[1.88753911],5.0,0.6,0.0,-0.3913587809825234,0.08183254091613522,1.1744396897246432
10.476795196533203,1.9354242892767186,[1.89081828],5.0,0.6,0.0,-0.41041223093028467,0.06899551734823846,1.1715774457695145
10.490842342376709,1.938746067461242,[1.89410441],5.0,0.6,0.0,-0.4142017972734695,0.05817764176140212,1.1711478384808442
10.50477123260498,1.9420678456457654,[1.89738774],5.0,0.6,0.0,-0.4073859539235054,0.04884093377226944,1.1706911126654156
10.519838571548462,1.9453896238302888,[1.90065951],5.0,0.6,0.0,-0.3935615474417402,0.04088241801603341,1.1700997859291284
10.53487491607666,1.9487114020148124,[1.90391226],5.0,0.6,0.0,-0.3753842822937762,0.036032861669274274,1.1692822583383167
10.546829462051392,1.9512515853323888,[1.90713943],5.0,0.6,0.0,-0.630792825324552,0.03149854119164057,1.1773185574714011
10.561824798583984,1.9543779648001756,[1.91033535],5.0,0.6,0.0,-0.9181988615091321,0.03160537174656638,1.1778188464572066
10.580307960510254,1.958285939134909,[1.91349977],5.0,0.6,0.0,-1.150282557276092,0.04925763317339469,1.1685587628271643
10.590278148651123,1.960239926302276,[1.91663213],5.0,0.6,0.0,-1.030614806866848,0.01569408739154077,1.1828471262274998
10.602646827697754,1.9627801096198525,[1.91972457],5.0,0.6,0.0,-1.3601293050415637,0.025555114029415304,1.1888372148515494
10.614832639694214,1.964929495503956,[1.92276998],5.0,0.6,0.0,-1.4793128212679911,0.01332758932951061,1.1992071667731976
10.631226778030396,1.9680558749717427,[1.9257654],5.0,0.6,0.0,-2.0424498587261475,0.025918902408472916,1.1961893630972544
10.64275860786438,1.9700098621391096,[1.92871019],5.0,0.6,0.0,-2.340996134920471,0.02276298176841047,1.2069017027100184
10.654801607131958,1.9723546467399493,[1.93160244],5.0,0.6,0.0,-2.4695284398918984,0.014648727739200713,1.2128615754317253
10.667788743972778,1.9746994313407895,[1.93443866],5.0,0.6,0.0,-2.2132224072275495,0.01710076098624584,1.2194827501561438
10.68007779121399,1.9766534185081563,[1.93721702],5.0,0.6,0.0,-2.131176266842717,0.014134007672948439,1.229310670383581
10.692012071609497,1.978607405675523,[1.93993728],5.0,0.6,0.0,-1.819218103564212,0.024616151379031604,1.239045731901457
10.70212459564209,1.9801705954094162,[1.94259882],5.0,0.6,0.0,-1.7467080623727629,0.00874973255919274,1.2517605779182865
10.710795879364014,1.981342987709836,[1.94519483],5.0,0.6,0.0,-1.7441167275712173,-0.021090536377120238,1.267761377371447
10.724409103393555,1.9836877723106763,[1.94771784],5.0,0.6,0.0,-2.0196405287873485,0.0008978506968571488,1.2689755160966207
10.735802173614502,1.9848601646110962,[1.9501687],5.0,0.6,0.0,-1.756055475867322,0.007659696941380073,1.2837875253420061
10.747259378433228,1.9862279556282532,[1.95255015],5.0,0.6,0.0,-1.8999625856172224,0.005836028484935482,1.2943692335225832
10.7607421875,1.9872049492119364,[1.95486482],5.0,0.6,0.0,-2.1249402698668907,0.03172279053444385,1.307901839118079
10.77210283279419,1.9879865440788829,[1.95711538],5.0,0.6,0.0,-2.58381599553839,0.008937484601210301,1.3215132668380716
10.78781270980835,1.9887681389458298,[1.95930432],5.0,0.6,0.0,-3.551891430080963,0.05419584337514297,1.3313098182461736
10.800748586654663,1.9893543350960396,[1.9614391],5.0,0.6,0.0,-4.1813337814773455,0.05843343284983616,1.3428389185488876
10.814112663269043,1.9901359299629864,[1.96352591],5.0,0.6,0.0,-4.531966227957583,0.05945589257412747,1.3528945290985868
10.829809427261353,1.9909175248299331,[1.9655667],5.0,0.6,0.0,-4.395779765809431,0.06432317758244753,1.36520566191262
10.844748973846436,1.991503720980143,[1.96756351],5.0,0.6,0.0,-3.7999253260226484,0.06728384031834389,1.3810649323036521
10.858289003372192,1.99228531584709,[1.9695187],5.0,0.6,0.0,-2.571594317726118,0.07537447279138623,1.3966297465382833
10.869818210601807,1.992676113280563,[1.97143397],5.0,0.6,0.0,-1.066091254454391,0.06943845022829831,1.4128613099574943
10.88278603553772,1.9934577081475098,[1.9733092],5.0,0.6,0.0,0.2554087235511826,0.07040470778075764,1.421967633662172
10.897804260253906,1.99404390429772,[1.97514416],5.0,0.6,0.0,1.2635098075973772,0.07194452530305159,1.4298650580526153
10.912968873977661,1.9950208978814032,[1.9769399],5.0,0.6,0.0,2.240033483807376,0.07714250618688373,1.432985958116404
10.923821687698364,1.995607094031613,[1.97869722],5.0,0.6,0.0,2.7179309747298603,0.0700689494553535,1.4389469209237498
10.937817335128784,1.9965840876152965,[1.98041541],5.0,0.6,0.0,3.187893498696418,0.06910560794358421,1.441549958610505
10.950751304626465,1.9973656824822434,[1.98209378],5.0,0.6,0.0,3.2517150020864873,0.06893872327414788,1.4466155990472769
10.964813470840454,1.9981472773491897,[1.98373234],5.0,0.6,0.0,3.4096507908604528,0.06841019995402009,1.450713876253397
10.977812767028809,1.999124270932873,[1.98533105],5.0,0.6,0.0,3.5269677701706446,0.0666517285281652,1.453489486259159
10.994470357894897,2.0002966632332932,[1.9868905],5.0,0.6,0.0,3.2905532938438355,0.07030706368656478,1.4566977366547658
11.006722927093506,2.0008828593835033,[1.98841116],5.0,0.6,0.0,2.9456693997779064,0.0620587555958674,1.4629526552884395
11.022111892700195,2.0020552516839234,[1.98989242],5.0,0.6,0.0,2.8720766199538232,0.061893938595708534,1.464743643103726
11.032809495925903,2.0026414478341334,[1.99133376],5.0,0.6,0.0,2.589318927964089,0.05892552610523692,1.469785397844331
11.052521467208862,2.0042046375680265,[1.99273699],5.0,0.6,0.0,2.261862268599483,0.07532325632662283,1.4702475973055602
11.062004089355469,2.004790833718237,[1.99410399],5.0,0.6,0.0,1.9550869597962541,0.051284138359652315,1.4745798756487152
11.0763418674469,2.0059632260186566,[1.99543328],5.0,0.6,0.0,1.6897973110288458,0.053969429651311705,1.4759470468826819
11.091390609741211,2.00694021960234,[1.99672437],5.0,0.6,0.0,1.467993510326432,0.05647139100139777,1.4777419811779713
11.102237224578857,2.00752641575255,[1.99797754],5.0,0.6,0.0,1.5607573123891585,0.04128646383298114,1.4801190120923913
11.122681856155396,2.008894206769707,[1.9991931],5.0,0.6,0.0,1.1663809530443232,0.061838053647673974,1.4803420584509286
11.138588905334473,2.0098712003533903,[2.00037414],5.0,0.6,0.0,0.9521187582439112,0.05321208339610254,1.4814485453658774
11.15453815460205,2.0108481939370733,[2.00152216],5.0,0.6,0.0,0.5490993566612841,0.0463924103022272,1.4825310427860903
11.169709205627441,2.0116297888040204,[2.00263626],5.0,0.6,0.0,0.4313229881942244,0.04189827589113476,1.4838149539719687
11.192791938781738,2.01280218110444,[2.00371792],5.0,0.6,0.0,0.14655815086209587,0.05843857405620034,1.4836147081495281
11.206034183502197,2.013583775971387,[2.00477062],5.0,0.6,0.0,-0.13963035216180902,0.04952788879666097,1.4845711735415485
11.220782279968262,2.0143653708383336,[2.00579539],5.0,0.6,0.0,-0.09418753605930466,0.04301918286632196,1.4854118244589867
11.234780073165894,2.0151469657052803,[2.00679128],5.0,0.6,0.0,-0.2255016795035416,0.03869228650235656,1.48609567883382
11.258730411529541,2.0161239592889637,[2.00775976],5.0,0.6,0.0,-0.11003749683470798,0.055348891656821386,1.486096440573225
11.270512342453003,2.0167101554391738,[2.00870369],5.0,0.6,0.0,-0.21176679758120437,0.04177351881151491,1.4872277533077054
11.286725044250488,2.01749175030612,[2.00962404],5.0,0.6,0.0,-0.08552427159594148,0.04686446441498647,1.4876907161667345
11.300758123397827,2.01807794645633,[2.01052155],5.0,0.6,0.0,-0.18487296575978474,0.044099391582200484,1.4886197050171333
11.309102773666382,2.0184687438898035,[2.01139585],5.0,0.6,0.0,-0.059728945652709614,0.029391326059971544,1.4900420539806052
11.322554588317871,2.0188595413232773,[2.01224502],5.0,0.6,0.0,-0.16139724770160924,0.03508371739167361,1.4912684026326242
11.340800285339355,2.019445737473487,[2.01307062],5.0,0.6,0.0,-0.038807013444324245,0.0524279078846284,1.4919034130226718
11.354716300964355,2.020031933623697,[2.01387702],5.0,0.6,0.0,-0.14287035052268587,0.05188236548326062,1.4924368506535655
11.37072491645813,2.020618129773907,[2.01466701],5.0,0.6,0.0,-0.2984296593199596,0.05227019575936286,1.49287555735702
11.386417865753174,2.0210089272073803,[2.01544267],5.0,0.6,0.0,-0.43743324642740156,0.0609642400687555,1.493680107180868
11.399783372879028,2.0215951233575904,[2.01620655],5.0,0.6,0.0,-0.26340765096450053,0.05782359343626651,1.4941578458072744
11.4097158908844,2.0217905220743266,[2.01695989],5.0,0.6,0.0,-0.018490630040328387,0.057052247900666826,1.4953436093165795
11.423717021942139,2.0221813195078004,[2.01770333],5.0,0.6,0.0,-0.07309727621141666,0.06078655482282394,1.4959935729212026
11.436715364456177,2.022572116941274,[2.01843835],5.0,0.6,0.0,0.06314024657855002,0.06429458944334172,1.4965852634034948
11.449780225753784,2.0229629143747467,[2.01916682],5.0,0.6,0.0,0.2341867794849415,0.06757414498911841,1.4970812620620908
11.463797569274902,2.0237445092416935,[2.01989053],5.0,0.6,0.0,0.38113273104278644,0.06870965407126725,1.4969256623485456
11.477710247039795,2.024135306675167,[2.02061118],5.0,0.6,0.0,0.487824971837896,0.07155876299463247,1.4973420762718705
11.493924617767334,2.0245261041086406,[2.02133062],5.0,0.6,0.0,0.5554300923542826,0.07733434433341768,1.497730262795657
11.50478482246399,2.0251123002588503,[2.02205049],5.0,0.6,0.0,0.5909390261345537,0.0748452535132638,1.4978669423328532
11.518784999847412,2.0255030976923236,[2.02277166],5.0,0.6,0.0,0.6022750220539314,0.07736844442354568,1.4982390116406552
11.534211874008179,2.0260892938425337,[2.02349493],5.0,0.6,0.0,0.8724845521714477,0.07957303674549189,1.4980884174230804
11.544877290725708,2.0268708887094804,[2.02422116],5.0,0.6,0.0,0.8882033752737004,0.07723089570028052,1.4980098541496663
11.558694124221802,2.0274570848596905,[2.02495082],5.0,0.6,0.0,1.0843695335030106,0.0792750717081546,1.4978699749870914
11.57365369796753,2.0280432810099005,[2.02568441],5.0,0.6,0.0,1.2883557291776195,0.07961554079310984,1.4976536908756977
11.588692665100098,2.0288248758768472,[2.02642232],5.0,0.6,0.0,1.1646039713026328,0.0788999476447392,1.4978375957634507
11.599674224853516,2.0292156733103206,[2.02716461],5.0,0.6,0.0,1.220896538403971,0.07979426875796833,1.4980506205863584
11.613763809204102,2.0299972681772673,[2.02791118],5.0,0.6,0.0,1.0337786722589035,0.07866859282217831,1.4983351152425792
11.62824273109436,2.0309742617609507,[2.02866213],5.0,0.6,0.0,0.7914296971089478,0.08116219904430418,1.4984653375979298
11.643919229507446,2.0315604579111604,[2.0294184],5.0,0.6,0.0,0.8438838134512907,0.08541874650958545,1.4985529031033653
11.654688835144043,2.0321466540613704,[2.03017957],5.0,0.6,0.0,0.6951332777090065,0.07056937642088108,1.4988668421028395
11.663859367370605,2.0327328502115805,[2.03094112],5.0,0.6,0.0,0.7775542061326794,0.051556571338896705,1.4989082927688526
11.682716608047485,2.0339052425120006,[2.03169941],5.0,0.6,0.0,0.6333833594650167,0.07268278773359076,1.4987287919852186
11.699091911315918,2.034882236095684,[2.0324566],5.0,0.6,0.0,0.7120801814499047,0.0779832595855606,1.4984466392417515
11.716931104660034,2.0356638309626307,[2.03321615],5.0,0.6,0.0,0.5630046747077,0.08260738819756223,1.4985665893338735
11.725187063217163,2.0362500271128408,[2.03397717],5.0,0.6,0.0,0.36215476829990645,0.055560827988836686,1.498869734731569
11.73866081237793,2.037031621979787,[2.03473504],5.0,0.6,0.0,0.17844913019766695,0.056716935140858335,1.4989219927977784
11.758688926696777,2.038204014280207,[2.03548782],5.0,0.6,0.0,0.3090649878455634,0.0653653485802558,1.498454443373177
11.771920442581177,2.038790210430417,[2.03623628],5.0,0.6,0.0,0.23632821463905496,0.05816408771300565,1.4986547664749035
11.784601926803589,2.039571805297364,[2.03697872],5.0,0.6,0.0,0.10909594263100744,0.04776644182794111,1.4986472307591798
11.792669534683228,2.0399626027308373,[2.03771067],5.0,0.6,0.0,-0.2888572592998489,0.03329457473355759,1.4989241629098238
11.81183671951294,2.0409395963145207,[2.03842846],5.0,0.6,0.0,-0.41886684550872555,0.04337185797715485,1.4986090478298597
11.825083494186401,2.0415257924647303,[2.03913153],5.0,0.6,0.0,-0.43287036392932,0.04086826024105835,1.498714695874889
11.839751958847046,2.042111988614941,[2.03981952],5.0,0.6,0.0,-0.6777031753337117,0.03835658389552136,1.4986076995575346
11.855723142623901,2.0426981847651504,[2.04049094],5.0,0.6,0.0,-0.9422123468080369,0.034696656153162836,1.49836567147283
11.864195823669434,2.043088982198624,[2.04114343],5.0,0.6,0.0,-1.1514940154830873,0.024178738003984932,1.4982571955289095
11.879987239837646,2.0434797796320976,[2.04177482],5.0,0.6,0.0,-1.2894109830226874,0.03254575586913065,1.4981826943873644
11.894692420959473,2.043870577065571,[2.04238495],5.0,0.6,0.0,-1.3626713611678896,0.032573235214180284,1.4981783295584323
11.907687902450562,2.044261374499044,[2.04297409],5.0,0.6,0.0,-1.3848407893464922,0.03150011902037355,1.498243069403364
11.921757459640503,2.0444567732157806,[2.04354191],5.0,0.6,0.0,-1.6457670104884374,0.032166311683683835,1.497820431765349
11.936660528182983,2.0446521719325172,[2.04408829],5.0,0.6,0.0,-1.63820937314307,0.03328975126409593,1.497942624802419
11.95067024230957,2.044847570649254,[2.04461346],5.0,0.6,0.0,-1.525977371982683,0.03483098159905794,1.498258623565543
11.964670419692993,2.044847570649254,[2.04511798],5.0,0.6,0.0,-1.6590909371092248,0.03788979396834194,1.4979405448929628
11.97579026222229,2.044847570649254,[2.0456027],5.0,0.6,0.0,-1.2739283866034439,0.041040415509206014,1.4986793372508138
11.991900205612183,2.044847570649254,[2.04606887],5.0,0.6,0.0,-1.3318513901782727,0.04563436980611453,1.4983830331980001
12.002674341201782,2.044847570649254,[2.04651795],5.0,0.6,0.0,-1.2294219951270193,0.04823827960492465,1.4983182389181438
12.01576280593872,2.045042969365991,[2.04695145],5.0,0.6,0.0,-1.0800676488363856,0.05131140997974961,1.4984041787685987
12.028438806533813,2.044847570649254,[2.04737101],5.0,0.6,0.0,-0.9310199822558511,0.055860823214992,1.4980824346537545
12.043675661087036,2.044847570649254,[2.04777849],5.0,0.6,0.0,-0.5231795237265191,0.0605554183006032,1.4980797028199766
12.064929962158203,2.044847570649254,[2.04817703],5.0,0.6,0.0,-0.103219319025534,0.0760998706454816,1.4977774589258517
12.072675704956055,2.045042969365991,[2.04856961],5.0,0.6,0.0,0.2420896368778465,0.06381465718762354,1.497472027983007
12.08828067779541,2.044847570649254,[2.04895702],5.0,0.6,0.0,0.4948471134042235,0.07178785057846382,1.4964459303370758
12.100265741348267,2.044847570649254,[2.04934042],5.0,0.6,0.0,0.6638409276703423,0.07538723017790482,1.4956430689689157
12.115636587142944,2.044847570649254,[2.04972199],5.0,0.6,0.0,0.7657879268460484,0.0806347906840786,1.49482293707361
12.127676725387573,2.044847570649254,[2.05010326],5.0,0.6,0.0,0.8175864665971069,0.07872470981706185,1.4939934245791888
12.148038148880005,2.044847570649254,[2.05048662],5.0,0.6,0.0,0.8335844422615636,0.09969413308940443,1.493143419597403
12.160717010498047,2.044847570649254,[2.05087547],5.0,0.6,0.0,0.8250120076067473,0.09345819651997948,1.492252802493456
12.176675081253052,2.044847570649254,[2.05127145],5.0,0.6,0.0,0.8002565193222595,0.09815953102685723,1.491304228286081
12.189832210540771,2.044847570649254,[2.05167498],5.0,0.6,0.0,0.7653905523112021,0.09746428214601963,1.4902847235457901
12.20414662361145,2.044847570649254,[2.05208624],5.0,0.6,0.0,0.7247088582545583,0.0972150747893758,1.4891842550115244
12.219730377197266,2.044847570649254,[2.05250472],5.0,0.6,0.0,0.6811875156609409,0.09725424528153427,1.4879967907245522
12.233741998672485,2.044847570649254,[2.05292977],5.0,0.6,0.0,0.6368466111432745,0.09743493361744988,1.486718759708551
12.245742797851562,2.045042969365991,[2.05336054],5.0,0.6,0.0,0.5930244202107021,0.09669270784293808,1.4859971746231082
12.255219459533691,2.044847570649254,[2.05379536],5.0,0.6,0.0,0.5505791782871903,0.09051014364116672,1.483889317901749
12.266343593597412,2.044847570649254,[2.05423164],5.0,0.6,0.0,0.510034959770617,0.09007091739747354,1.4823484206303708
12.2825026512146,2.044847570649254,[2.05466809],5.0,0.6,0.0,0.47168585279197867,0.10065030926088436,1.480730731312792
12.297302007675171,2.044847570649254,[2.0551052],5.0,0.6,0.0,0.4356696718209946,0.10178533739040606,1.4790348201379324
12.305436134338379,2.045042969365991,[2.05554194],5.0,0.6,0.0,0.4020197313471097,0.09024435475563708,1.4780752682633926
12.317227363586426,2.044847570649254,[2.05597537],5.0,0.6,0.0,0.37070097222716275,0.09268227482416504,1.4754362897233464
12.331648588180542,2.044847570649254,[2.05640357],5.0,0.6,0.0,0.3416350060692477,0.0952979277605656,1.4735584336558178
12.344675064086914,2.044847570649254,[2.05682558],5.0,0.6,0.0,0.3147173527422803,0.09437764365300744,1.4716394972149787
12.367689847946167,2.044847570649254,[2.05724104],5.0,0.6,0.0,0.28982920204609475,0.1038072954557727,1.469684923407787
12.380163431167603,2.045042969365991,[2.05765015],5.0,0.6,0.0,0.2668453494047423,0.09959882516366025,1.468658710979199
12.391832828521729,2.044847570649254,[2.05805191],5.0,0.6,0.0,0.24563946854604707,0.096096645202371,1.4656851626831116
12.404229402542114,2.044847570649254,[2.05844434],5.0,0.6,0.0,0.226087538341966,0.09630094683969065,1.4636627450641848
12.41873574256897,2.045042969365991,[2.05882613],5.0,0.6,0.0,0.2080699965273436,0.09565411466297592,1.4626854164768193
12.42673635482788,2.044847570649254,[2.05919589],5.0,0.6,0.0,0.19147302076057604,0.0984451667346217,1.4596340290696337
12.448737859725952,2.044847570649254,[2.05955201],5.0,0.6,0.0,0.17618921640777724,0.10010055702845336,1.457654490376864
12.460731029510498,2.044847570649254,[2.05989364],5.0,0.6,0.0,0.16211790548041455,0.09657020164460833,1.4557132909123476
12.475745677947998,2.044847570649254,[2.06021996],5.0,0.6,0.0,0.1491651516464766,0.0936573185361215,1.4538208436597526
12.487652778625488,2.044847570649254,[2.06052976],5.0,0.6,0.0,0.13724361460531137,0.09120495979989249,1.4519898056271496
12.498922109603882,2.044847570649254,[2.06082196],5.0,0.6,0.0,0.12627229803397721,0.0890754138894908,1.450232360412233
12.515680313110352,2.044847570649254,[2.06109558],5.0,0.6,0.0,0.11617623502607408,0.08714017262881077,1.4485600727739878
12.526944875717163,2.044847570649254,[2.06134976],5.0,0.6,0.0,0.10688614081678441,0.08554547196320078,1.446983653453254
12.541749477386475,2.045042969365991,[2.06158378],5.0,0.6,0.0,0.09833805277061192,0.08269549111626381,1.4467433285679756
12.55501675605774,2.044847570649254,[2.06179698],5.0,0.6,0.0,0.09047297080448857,0.08209815440004986,1.4441568714959212
12.569719552993774,2.044847570649254,[2.06198887],5.0,0.6,0.0,0.08323650672005076,0.08062339377550908,1.4429233524243057
12.584697246551514,2.044847570649254,[2.06215908],5.0,0.6,0.0,0.07657854768891817,0.07919716513555064,1.4418188656580233
12.598662614822388,2.044847570649254,[2.06230739],5.0,0.6,0.0,0.07045293692859814,0.07781823627452916,1.4408486305714798
12.610706806182861,2.044847570649254,[2.06243371],5.0,0.6,0.0,0.06481717311279721,0.07647251059864564,1.4400165597783119
12.623716115951538,2.045042969365991,[2.06253805],5.0,0.6,0.0,0.05963212906078022,0.07417219082159225,1.4406177796665984
12.636700630187988,2.044847570649254,[2.06262056],5.0,0.6,0.0,0.054861789593855424,0.07377988579048575,1.4387761677813307
12.650625705718994,2.044847570649254,[2.06268145],5.0,0.6,0.0,0.05047300802691983,0.07238334808423816,1.4383695080664025
12.666638135910034,2.044847570649254,[2.06272103],5.0,0.6,0.0,0.046435280505175376,0.07087210364227059,1.438104602531591
12.67870306968689,2.044847570649254,[2.06273964],5.0,0.6,0.0,0.04272053724905184,0.06919982394507478,1.4379799965197617
12.692636013031006,2.044847570649254,[2.06273763],5.0,0.6,0.0,0.03930294969813311,0.06730846353942636,1.437993709220648
12.706626415252686,2.044847570649254,[2.06271533],5.0,0.6,0.0,0.03615875252258732,0.06514235563740507,1.4381434852241597
12.721123456954956,2.044847570649254,[2.06267295],5.0,0.6,0.0,0.03326607948099429,0.061917391631422236,1.4384274909981687
12.73369550704956,2.044847570649254,[2.06261062],5.0,0.6,0.0,0.030604812134664705,0.06001270047953147,1.4388440118943921
12.746700763702393,2.044847570649254,[2.06252851],5.0,0.6,0.0,0.02815644047239662,0.05671368594692562,1.4393907516359798
12.7557213306427,2.044847570649254,[2.0624274],5.0,0.6,0.0,0.02590393455055854,0.061528120244055545,1.440060899278385
12.771392822265625,2.044847570649254,[2.06230777],5.0,0.6,0.0,0.023831626307681455,0.04701222357178282,1.4408494272258294
12.785662174224854,2.044847570649254,[2.06216825],5.0,0.6,0.0,0.021925100767884283,0.042493316314101644,1.4417630331939748
12.797694683074951,2.044847570649254,[2.06200783],5.0,0.6,0.0,0.020171095901825677,0.043229709552150865,1.442805552524494
12.808282375335693,2.044847570649254,[2.06182697],5.0,0.6,0.0,0.018557410466440143,0.04070595583100285,1.4439705842766586
12.82197117805481,2.044847570649254,[2.06162525],5.0,0.6,0.0,0.017072819194857286,0.028000148005003146,1.4452570807694234
12.832943201065063,2.0446521719325172,[2.06140155],5.0,0.6,0.0,0.015706994755281332,0.03203524437406316,1.4454365532834232
12.844409704208374,2.0446521719325172,[2.06115622],5.0,0.6,0.0,0.014450435942067689,0.030786124949766857,1.4469803759091409
12.856619358062744,2.0446521719325172,[2.06088997],5.0,0.6,0.0,-0.26274395807493245,0.024258798878215193,1.4485816690669728
12.879143953323364,2.044261374499044,[2.06059949],5.0,0.6,0.0,-0.2969321129887418,-0.009997614807303217,1.4479476355492586
12.891434669494629,2.0440659757823076,[2.06027834],5.0,0.6,0.0,-0.5188516838005159,-0.01028380496267453,1.4485892865195868
12.90667462348938,2.043675178348834,[2.0599226],5.0,0.6,0.0,-0.7528298318715912,-0.01607513327430791,1.448152023605597
12.919703006744385,2.043088982198624,[2.05953044],5.0,0.6,0.0,-1.2132393953828795,-0.019175238833823664,1.44627663742076
12.934640645980835,2.0423073873316775,[2.05909993],5.0,0.6,0.0,-1.6445231848541768,-0.02240934291484606,1.4431538325331927
12.949699640274048,2.041330393747994,[2.05862921],5.0,0.6,0.0,-2.5168269962241627,-0.025286628517771997,1.4372127923275066
12.962639331817627,2.0403534001643107,[2.05811631],5.0,0.6,0.0,-3.3351996065305376,-0.028782050276785456,1.4306334625999717
12.97769808769226,2.038985609147154,[2.05755912],5.0,0.6,0.0,-3.664654819179174,-0.03108638868622687,1.4234335123017114
12.990633726119995,2.037617818129997,[2.05695545],5.0,0.6,0.0,-3.7301062815486254,-0.03395398068380094,1.41768862578692
13.006923198699951,2.0356638309626307,[2.05630201],5.0,0.6,0.0,-4.481466562135445,-0.044365502713249794,1.4036117449555625
13.018992185592651,2.0341006412287372,[2.05559529],5.0,0.6,0.0,-4.429038351095091,-0.03694920588609742,1.3973454742371159
13.028560161590576,2.0327328502115805,[2.05483431],5.0,0.6,0.0,-3.7985647859566276,-0.03517158688852949,1.3962990991161974
13.043649911880493,2.030583464327477,[2.05401868],5.0,0.6,0.0,-4.160321255458136,-0.03841675478687517,1.3832560696583711
13.059863090515137,2.027652483576427,[2.05314536],5.0,0.6,0.0,-4.1708414924855655,-0.045148290477712044,1.3653320400128677
13.073766708374023,2.0251123002588503,[2.05221009],5.0,0.6,0.0,-3.740176360032612,-0.041304955874754606,1.353110880093364
13.089706182479858,2.0215951233575904,[2.05120825],5.0,0.6,0.0,-3.7564705168100243,-0.05173969763876339,1.3287370690741895
13.099663019180298,2.0198365349069602,[2.0501381],5.0,0.6,0.0,-3.3164353093728147,-0.017937704745313806,1.324117098548115
13.119813919067383,2.0155377631387537,[2.04899683],5.0,0.6,0.0,-3.325348231716453,-0.06820110165993697,1.2912294887079068
13.127662181854248,2.01397457340486,[2.04778104],5.0,0.6,0.0,-2.8851480984662787,-0.06586213015200898,1.2895080103778565
13.143702745437622,2.0104573965036003,[2.04649471],5.0,0.6,0.0,-2.625388169129514,-0.07301042201069302,1.2661492783340553
13.161146402359009,2.00635402345213,[2.04513399],5.0,0.6,0.0,-2.441579713997298,-0.07536581803091075,1.2358247515146963
13.175544500350952,2.0022506504006596,[2.04368842],5.0,0.6,0.0,-2.28785228346609,-0.04997476749684963,1.2054605344329563
13.188417911529541,1.9987334734993998,[2.04215718],5.0,0.6,0.0,-1.8695265675770758,-0.025743104470707847,1.183236285968647
13.202417135238647,1.9948254991646663,[2.04054355],5.0,0.6,0.0,-1.699086130689499,-0.017524343374516606,1.1561994239361335
13.21866488456726,1.9905267273964597,[2.03884889],5.0,0.6,0.0,-1.8964977627594588,-0.001525216420663331,1.124205873186331
13.234636783599854,1.9858371581947796,[2.03707466],5.0,0.6,0.0,-2.1520915777873215,0.014338165661158907,1.0880861893135063
13.251104831695557,1.980952190276363,[2.03521912],5.0,0.6,0.0,-1.5239170529028527,0.0018909655392672928,1.05316729998552
13.259670734405518,1.978412006958786,[2.03328113],5.0,0.6,0.0,-0.43619691798115556,0.039435875611692026,1.0475054905168721
13.273661613464355,1.974504032624053,[2.03126835],5.0,0.6,0.0,0.8741028004318984,0.04397511636603317,1.024389327958278
13.287671327590942,1.9707914570060558,[2.02918753],5.0,0.6,0.0,1.9966269646254757,0.04734925650449499,1.002635708997822
13.300588130950928,1.9674696788215327,[2.02704056],5.0,0.6,0.0,3.373525004945463,0.04858565194787396,0.983372609285031
13.314687252044678,1.9641479006370093,[2.02482927],5.0,0.6,0.0,5.0,0.04943274329640587,0.9605447780409881
13.330738544464111,1.9604353250190127,[2.02255235],5.0,0.6,0.0,5.0,0.03286514005908263,0.9439564014407096
13.343701601028442,1.9578951417014356,[2.02020688],5.0,0.6,0.0,5.0,0.04127667298823104,0.9417220498365217
13.354667901992798,1.9559411545340692,[2.01779706],5.0,0.6,0.0,5.0,0.0507508679115203,0.9469587232261657
13.368592262268066,1.953010173783019,[2.01533101],5.0,0.6,0.0,5.0,0.0467928673350198,0.9416177321948933
13.37961745262146,1.9508607878989157,[2.01281275],5.0,0.6,0.0,5.0,0.03984716783157265,0.9458534060214399
13.393666505813599,1.9487114020148124,[2.01024417],5.0,0.6,0.0,5.0,0.035552498789050604,0.9506833353347277
13.40660834312439,1.9463666174139724,[2.0076271],5.0,0.6,0.0,5.0,0.02748979435737541,0.953829768603783
13.417999744415283,1.9444126302466056,[2.00496256],5.0,0.6,0.0,5.0,0.020808365974794067,0.96207312704251
13.429938316345215,1.9424586430792388,[2.0022547],5.0,0.6,0.0,4.983575744705332,0.032063694686420105,0.9709862072673618
13.443221092224121,1.940504655911872,[1.99950984],5.0,0.6,0.0,4.865108489160046,0.015195397033315046,0.9811023272838594
13.451566219329834,1.939332263611452,[1.99673778],5.0,0.6,0.0,4.401872504539126,0.05677975343566371,1.0031099370548127
13.47076153755188,1.9364012828604023,[1.993943],5.0,0.6,0.0,3.8628133561793554,-0.018615486101817263,1.0047254372163335
13.480341672897339,1.9350334918432452,[1.99111821],5.0,0.6,0.0,3.3554066270098017,0.005672577476525952,1.0247606941673555
13.499029636383057,1.9326887072424053,[1.98825806],5.0,0.6,0.0,2.914334375837686,-0.03504766328085866,1.032959465324431
13.512939929962158,1.9309301187917753,[1.98535576],5.0,0.6,0.0,2.5434535417933786,-0.036770426645290864,1.0481893235572175
13.525748014450073,1.9293669290578819,[1.98240783],5.0,0.6,0.0,2.2351202600310485,-0.03883367160801023,1.065982319311582
13.539721012115479,1.927608340607252,[1.97941799],5.0,0.6,0.0,1.9786891705180527,-0.04836706557678081,1.0816819470864885
13.549660921096802,1.9262405495900952,[1.97639376],5.0,0.6,0.0,1.2118715045132302,-0.02476645744505993,1.1035800135816751
13.566338539123535,1.923504967555782,[1.97334146],5.0,0.6,0.0,0.1358238996860779,-0.0645831544081286,1.1085003216732927
13.579813957214355,1.9211601829549418,[1.9702556],5.0,0.6,0.0,-1.1130149469995767,-0.06415685161916222,1.11658128140666
13.593390226364136,1.9182292022038918,[1.96713237],5.0,0.6,0.0,-2.442895373008087,-0.06438810373971125,1.1154110419501748
13.607001066207886,1.9154936201695782,[1.96397467],5.0,0.6,0.0,-3.792917521819562,-0.06387399182692148,1.1143554928279547
13.61782455444336,1.9131488355687383,[1.96078985],5.0,0.6,0.0,-4.8474060868375215,-0.04403360722071442,1.117936110501162
13.632881164550781,1.9096316586674782,[1.95758621],5.0,0.6,0.0,-5.0,-0.062220165140688656,1.1130613351163208
13.64828872680664,1.9063098804829548,[1.95436253],5.0,0.6,0.0,-5.0,-0.0643579181410374,1.1118732526148793
13.661916971206665,1.903183501015168,[1.95111593],5.0,0.6,0.0,-5.0,-0.06128406604681159,1.1133291524274354
13.675542116165161,1.899666324113908,[1.94784889],5.0,0.6,0.0,-5.0,-0.056684370370846664,1.1102994613487107
13.685251235961914,1.8971261407963316,[1.94456944],5.0,0.6,0.0,-5.0,-0.034921950125002654,1.1192497403272177
13.695857048034668,1.8941951600452813,[1.94129316],5.0,0.6,0.0,-5.0,-0.013779100474984608,1.1234256260661044
13.713338375091553,1.888919394693391,[1.93802738],5.0,0.6,0.0,-4.669699276515901,-0.04858692749904816,1.1013783303008289
13.729586362838745,1.8842298254917114,[1.93476172],5.0,0.6,0.0,-4.483922012065024,-0.047614510966056775,1.0853338469950005
13.738709926605225,1.8816896421741343,[1.93149407],5.0,0.6,0.0,-4.05013355784504,-0.008389864078125727,1.0968401608571274
13.757620096206665,1.8760230793887709,[1.92823127],5.0,0.6,0.0,-3.5703037041270744,-0.03686824189850536,1.070361761500311
13.770657062530518,1.8721151050540379,[1.92496815],5.0,0.6,0.0,-2.84793418784891,-0.027917942771600836,1.0659571635225018
13.781489133834839,1.8685979281527776,[1.92170531],5.0,0.6,0.0,-2.150541898065067,0.005111844403663782,1.0654530669298037
13.798099517822266,1.862931365367414,[1.91845011],5.0,0.6,0.0,-1.5678903074945543,-0.012203261047684077,1.0380221752316854
13.812528848648071,1.8586325935992072,[1.9151993],5.0,0.6,0.0,-1.114074340589176,-0.0021987659339523956,1.0263912899785843
13.825650215148926,1.8551154166979473,[1.91195017],5.0,0.6,0.0,-0.2225228667715844,0.0029164615617050214,1.0240814280809967
13.838643312454224,1.851793638513424,[1.90870528],5.0,0.6,0.0,0.9192932943263596,0.005912517435690589,1.0225736422698726
13.852222204208374,1.8482764616121639,[1.9054686],5.0,0.6,0.0,2.465794813945403,0.019174797447546264,1.0153583482495168
13.8666410446167,1.844563885994167,[1.90224341],5.0,0.6,0.0,3.819180192513299,0.009141678125622141,1.0033344600049072
13.880602836608887,1.8414375065263802,[1.89902873],5.0,0.6,0.0,5.0,0.009248884188336049,0.9968549447482126
13.896990537643433,1.8377249309083836,[1.89582141],5.0,0.6,0.0,5.0,0.0007714819708859363,0.9908680542791168
13.908653736114502,1.8355755450242803,[1.89262047],5.0,0.6,0.0,5.0,0.010205600625793928,1.0033475416479343
13.931520700454712,1.8304951783891268,[1.88941947],5.0,0.6,0.0,5.0,-0.02015469427434101,0.9810987847704864
13.947631120681763,1.8273687989213399,[1.88620309],5.0,0.6,0.0,5.0,-0.01523327953705267,0.9821584406023766
13.962580680847168,1.8246332168870267,[1.8829661],5.0,0.6,0.0,5.0,-0.01183338625838898,0.9880729561143653
13.975584506988525,1.8222884322861865,[1.87971412],5.0,0.6,0.0,4.99628025146454,-0.011495788707771076,0.9988468594418474
13.988596439361572,1.82033444511882,[1.876452],5.0,0.6,0.0,5.0,-0.014718627817843692,1.0144112365865803
14.00058650970459,1.8185758566681898,[1.87318387],5.0,0.6,0.0,5.0,-0.020415417169631817,1.0325190853473192
14.0166494846344,1.8162310720673498,[1.8699132],5.0,0.6,0.0,4.7930434261536075,-0.024073655123038887,1.0451311767638394
14.029985189437866,1.8144724836167199,[1.86664244],5.0,0.6,0.0,4.609616542750638,-0.033309185478651124,1.06465419857795
14.04532504081726,1.8125184964493533,[1.86337237],5.0,0.6,0.0,4.137263569325272,-0.043372778485394954,1.083592740407881
14.05757737159729,1.8111507054321965,[1.86010419],5.0,0.6,0.0,3.6119762970315854,-0.04652376621717049,1.10960560600697
14.077795267105103,1.8086105221146198,[1.85683293],5.0,0.6,0.0,2.5740283273164146,-0.08087338039259234,1.1231769658006145
14.093537092208862,1.8062657375137796,[1.85354339],5.0,0.6,0.0,1.5373253873495925,-0.08664020197148548,1.1377652007575283
14.108120441436768,1.8039209529129396,[1.85022743],5.0,0.6,0.0,0.1274722815499011,-0.08553637542138784,1.1512403152280954
14.12255334854126,1.8013807695953632,[1.84688831],5.0,0.6,0.0,-1.4122311146033486,-0.08666661781217877,1.1593947192753147
14.137543201446533,1.7982543901275763,[1.84353014],5.0,0.6,0.0,-3.5123709646420904,-0.0841267285495661,1.1545647402421864
14.15161395072937,1.7951280106597896,[1.84015612],5.0,0.6,0.0,-5.0,-0.08272332951742492,1.1483714042789535
14.168306589126587,1.7916108337585295,[1.83676572],5.0,0.6,0.0,-5.0,-0.09073465760810616,1.146848750001764
14.185210943222046,1.7875074607070596,[1.83334889],5.0,0.6,0.0,-5.0,-0.09374624421741576,1.1385900964421691
14.196346759796143,1.7847718786727458,[1.82989788],5.0,0.6,0.0,-5.0,-0.08553565530335186,1.147195737554928
14.206560134887695,1.7818408979216962,[1.82642433],5.0,0.6,0.0,-5.0,-0.06257295833989779,1.153705435419504
14.221559286117554,1.7773467274367525,[1.82294542],5.0,0.6,0.0,-5.0,-0.06423968043448013,1.1415124684537212
14.238834619522095,1.7720709620848625,[1.8194582],5.0,0.6,0.0,-5.0,-0.08049503766659004,1.1199278660812042
14.250722169876099,1.7683583864668657,[1.81594905],5.0,0.6,0.0,-5.0,-0.07143670454843888,1.1174665876452898
14.266066551208496,1.7636688172651855,[1.81241237],5.0,0.6,0.0,-5.0,-0.07211731287906047,1.1035009377895344
14.276668071746826,1.7603470390806621,[1.80884881],5.0,0.6,0.0,-4.944018717711577,-0.06036121797580648,1.1068310845990519
14.288822174072266,1.756243666029192,[1.80526699],5.0,0.6,0.0,-4.407455520176719,-0.04998758066109986,1.104123439803043
14.302530288696289,1.7517494955442485,[1.80167713],5.0,0.6,0.0,-3.4891641275432717,-0.04577633474874433,1.0984276426999497
14.320857763290405,1.7453013378919386,[1.7980726],5.0,0.6,0.0,-3.132638370515365,-0.04960613503639494,1.0656954241887522
14.33008885383606,1.7419795597074152,[1.79443874],5.0,0.6,0.0,-2.4350726621841083,-0.04665874953957421,1.0723284505202546
14.34179139137268,1.7378761866559451,[1.79077844],5.0,0.6,0.0,-2.007047061848625,-0.034765534847207645,1.0683738225589585
14.355536222457886,1.7331866174542652,[1.78710271],5.0,0.6,0.0,-1.1709769562520362,-0.03304143700385001,1.0581015501677236
14.368603467941284,1.728301649535848,[1.78341272],5.0,0.6,0.0,-0.34831811654961276,-0.03061935887066283,1.0446500155483593
14.380530834197998,1.7238074790509048,[1.7797047],5.0,0.6,0.0,0.0418585737113476,-0.028659225235356012,1.035313732916668
14.393547296524048,1.7191179098492249,[1.77597465],5.0,0.6,0.0,0.49417849749664294,-0.025034895620811185,1.0236745589025813
14.406560182571411,1.7138421444973346,[1.772219],5.0,0.6,0.0,0.8746376149876826,-0.018103423576838786,1.0052524078202631
14.420514345169067,1.7085663791454446,[1.76843456],5.0,0.6,0.0,1.1491746691487887,-0.010945015139190687,0.9873108187186164
14.433592557907104,1.7038768099437644,[1.76461861],5.0,0.6,0.0,1.3236526825972648,-0.006617513196069255,0.9768080953180021
14.447513818740845,1.6991872407420845,[1.76076883],5.0,0.6,0.0,1.6929153898685572,-0.002445712898605505,0.966259102353263
14.4606032371521,1.6944976715404043,[1.75688336],5.0,0.6,0.0,2.0344238694908463,0.0015962576954576936,0.9560708940758909
14.478906869888306,1.6876587164546208,[1.752956],5.0,0.6,0.0,2.2776957902480177,0.022762225875822276,0.9223953663495927
14.488615274429321,1.6843369382700975,[1.7489818],5.0,0.6,0.0,2.6918198843025234,0.013114118122215034,0.9281662556477042
14.50261664390564,1.6796473690684175,[1.7449666],5.0,0.6,0.0,3.0499729616767457,0.01605003204575332,0.9191211542445137
14.516114234924316,1.6753485973002107,[1.74091468],5.0,0.6,0.0,3.8375313307960353,0.01740433231041345,0.9124110487755095
14.528564214706421,1.6714406229654772,[1.73682526],5.0,0.6,0.0,4.01559501839767,0.015726630490851892,0.9134098504481305
14.542644023895264,1.6673372499140071,[1.73270032],5.0,0.6,0.0,5.0,0.014883176119400392,0.9072423209153904
14.557240009307861,1.6628430794290636,[1.72854098],5.0,0.6,0.0,5.0,0.016592161163520185,0.9035241546743027
14.56952714920044,1.6595213012445402,[1.72434765],5.0,0.6,0.0,5.0,0.010529849159422892,0.9132306680611357
14.583585739135742,1.6560041243432801,[1.7201234],5.0,0.6,0.0,5.0,0.005943017055240164,0.9211710475151305
14.60644793510437,1.6507283589913901,[1.7158572],5.0,0.6,0.0,5.0,0.07271475819492096,0.9098514307618804
14.622581720352173,1.6474065808068667,[1.71152521],5.0,0.6,0.0,5.0,0.035755880693331694,0.9211783324326789
14.634674310684204,1.6450617962060268,[1.70712274],5.0,0.6,0.0,5.0,0.008622326663747551,0.9446005966293707
14.64756989479065,1.64252161288845,[1.70266128],5.0,0.6,0.0,5.0,-0.009955412041758054,0.9668535491461501
14.658174276351929,1.6403722270043464,[1.69815778],5.0,0.6,0.0,4.801198434652724,-0.029806556835682126,0.9959496698091357
