t_s,q_rad,q_des_rad,K,B,jerk,tau_Nm,ilc_ff_Nm
0.005102634429931641,0.0,[0.00393411],0.005,0.1,0.0,9.998999999999999,0
0.01920294761657715,0.0,[0.01901189],0.005,0.1,0.0,10.098989999999999,0
0.03216671943664551,0.0,[0.04725085],0.005,0.1,0.0,10.099989899999999,0
0.04158759117126465,0.0,[0.08625249],0.005,0.1,0.0,10.099999898999998,0
0.05979466438293457,0.0,[0.13384928],0.005,0.1,0.0,10.099999998989999,0
0.07055211067199707,0.0,[0.18809657],0.005,0.1,0.0,10.0999999999899,0
0.08601808547973633,0.0,[0.2472638],0.005,0.1,0.0,10.099999999999898,0
0.10552549362182617,0.0,[0.30982378],0.005,0.1,0.0,10.099999999999998,0
0.11503148078918457,0.0,[0.37444117],0.005,0.1,0.0,7.121907278213267,0
0.12614893913269043,0.0,[0.43996047],0.005,0.1,0.0,4.092789515233238,0
0.14190077781677246,0.004103373051470075,[0.50539288],0.005,0.1,1.9322685177507668,2.338292088106817,0
0.1549992561340332,0.008988340969886831,[0.56990334],0.005,0.1,5.0,1.3719208735763069,0
0.17737269401550293,0.017781283223036994,[0.63279758],0.005,0.1,5.0,0.8552821315322988,0
0.18494439125061035,0.021103061407560384,[0.69350948],0.005,0.1,5.0,0.9716058706582211,0
0.20350265502929688,0.02872361136029053,[0.75158882],0.005,0.1,5.0,0.717495621034027,0
0.21093058586120605,0.03165459211134058,[0.80668902],0.005,0.1,5.0,0.6435924770367845,0
0.2350318431854248,0.04161992666491077,[0.8585556],0.005,0.1,5.0,0.6449930027617027,0
0.24551081657409668,0.04591869843311751,[0.90701526],0.005,0.1,5.0,0.7102874037929072,0
0.2640225887298584,0.052953052235637635,[0.95196563],0.005,0.1,3.8405935303408834,0.7922729044744488,0
0.2740590572357178,0.056665627853634375,[0.99336569],0.005,0.1,0.9248819732331204,0.894533662109968,0
0.29875707626342773,0.06682636112394122,[1.03122673],0.005,0.1,-2.013473209861397,0.9795186654816492,0
0.31403398513793945,0.07288372134277801,[1.06560405],0.005,0.1,-4.3766704772174,1.074281548598106,0
0.32901835441589355,0.07913648027835145,[1.09658967],0.005,0.1,-5.0,1.1630418099622506,0
0.346433162689209,0.0859754353641349,[1.12430546],0.005,0.1,-5.0,1.2421803429367344,0
0.3581113815307617,0.09066500456581499,[1.14889688],0.005,0.1,-5.0,1.3208187873299853,0
0.3738710880279541,0.09691776350138845,[1.17052743],0.005,0.1,-5.0,1.3841770851842026,0
0.38504886627197266,0.10141193398633185,[1.18937377],0.005,0.1,-5.0,1.4449157496396012,0
0.39698195457458496,0.10629690190474862,[1.20562137],0.005,0.1,-5.0,1.4944136430307047,0
0.41329050064086914,0.11294045827379541,[1.21946073],0.005,0.1,-5.0,1.5265413989567622,0
0.4241342544555664,0.11723923004200215,[1.23108415],0.005,0.1,-5.0,1.5593933218830542,0
0.43610572814941406,0.12173340052694555,[1.24068301],0.005,0.1,-5.0,1.5827130866270047,0
0.44811177253723145,0.126813767162099,[1.24844536],0.005,0.1,-5.0,1.5951415344108826,0
0.4630551338195801,0.1332619248144091,[1.25455401],0.005,0.1,-5.0,1.5937843374718599,0
0.4802424907684326,0.14010087990019257,[1.25918502],0.005,0.1,-5.0,1.58378883121184,0
0.4967057704925537,0.146353638835766,[1.26250639],0.005,0.1,-4.952742474338015,1.5705061679148828,0
0.50826096534729,0.1510432080374461,[1.2646772],0.005,0.1,-4.682333083452199,1.5590772437632412,0
0.5250296592712402,0.15749136568975622,[1.26584694],0.005,0.1,-4.335258579231137,1.5354776874729725,0
0.5362763404846191,0.16198553617469966,[1.26615506],0.005,0.1,-3.9774189613674205,1.516764253302052,0
0.5449576377868652,0.16569811179269636,[1.26573072],0.005,0.1,-3.636373476768402,1.4985322164543842,0
0.5590448379516602,0.17156007329479647,[1.26469269],0.005,0.1,-3.0458595037545173,1.4685184242960123,0
0.5683245658874512,0.17507725019605655,[1.2631494],0.005,0.1,-2.7267023779773414,1.446841355689736,0
0.5860543251037598,0.1823070027153133,[1.26119935],0.005,0.1,-2.798879942050986,1.407383260603438,0
0.6100504398345947,0.19227233726888354,[1.25893193],0.005,0.1,-2.6737286200993555,1.3557176939250657,0
0.6260073184967041,0.19872049492119365,[1.25642763],0.005,0.1,-2.4767314045771744,1.319127076294296,0
0.6389012336730957,0.20380086155634705,[1.25375758],0.005,0.1,-2.264308505419544,1.2879676089810013,0
0.6540920734405518,0.20966282305844713,[1.25098425],0.005,0.1,-2.0601071849062547,1.253970916334795,0
0.6670083999633789,0.21513398712707393,[1.24816221],0.005,0.1,-2.148668537073739,1.2218259176530635,0
0.6792421340942383,0.22021435376222737,[1.24533849],0.005,0.1,-1.7368120711303265,1.1921602533528022,0
0.6940047740936279,0.2256855178308541,[1.24255341],0.005,0.1,-1.4972704111096071,1.1609544366185143,0
0.7020161151885986,0.22900729601537753,[1.23984053],0.005,0.1,-1.6167981487453849,1.139050059975508,0
0.7207231521606445,0.2368232446848443,[1.23722798],0.005,0.1,-1.5337960248120157,1.102029429604371,0
0.7290093898773193,0.24014502286936773,[1.23473958],0.005,0.1,-1.1069057770243713,1.0816322772526232,0
0.7494924068450928,0.24854716768904456,[1.23239483],0.005,0.1,-0.9131481907896236,1.0483444608142822,0
0.7620186805725098,0.2538229330409346,[1.2302113],0.005,0.1,-0.8203154846700378,1.0230058422348218,0
0.7836928367614746,0.2624204765773481,[1.228205],0.005,0.1,-0.7677750182942553,0.9975490480364482,0
0.7920141220092773,0.2653514573283982,[1.22638648],0.005,0.1,-0.7289780415078616,0.98209862506374,0
0.8149452209472656,0.274925994448495,[1.22476125],0.005,0.1,-0.6932301574605085,0.9625892148775487,0
0.835625171661377,0.2837189367016452,[1.22333794],0.005,0.1,-0.6569374173546443,0.941832054083578,0
0.8440241813659668,0.2870407148861686,[1.22212221],0.005,0.1,-0.6194816052097838,0.9099827864858102,0
0.8520784378051758,0.29036249307069195,[1.2211062],0.005,0.1,-0.5813341089133897,0.8967111325974375,0
0.8800203800201416,0.30130482120794555,[1.22028583],0.005,0.1,-0.5432359053095566,0.9320682382072256,0
0.8940126895904541,0.3071667827100456,[1.2196701],0.005,0.1,-0.5058734017737178,0.8961352454693347,0
0.9079873561859131,0.31283334549540903,[1.2192609],0.005,0.1,-0.4697761885103181,0.8688889583420243,0
0.9229736328125,0.3184999082807725,[1.21904992],0.005,0.1,-0.43530755497252605,0.847139291700009,0
0.9370112419128418,0.32436186978287257,[1.2190282],0.005,0.1,-0.40268867381897616,0.8284199524361852,0
0.947998046875,0.32885604026781606,[1.21918623],0.005,0.1,-0.3720307362664125,0.8158925358042443,0
0.9629707336425781,0.3351087992033895,[1.21951413],0.005,0.1,-0.34336486185318643,0.8003383447655239,0
0.9779641628265381,0.34136155813896296,[1.22000183],0.005,0.1,-0.31666656956708855,0.7861116174592119,0
0.993959903717041,0.34780971579127296,[1.22064074],0.005,0.1,-0.2918745154254931,0.7868063888102597,0
1.0080218315124512,0.35347627857663644,[1.22142412],0.005,0.1,-0.2689042660682309,0.7760917324437598,0
1.0189297199249268,0.3579704490615799,[1.22234163],0.005,0.1,-0.24765813403654874,0.7471524640087337,0
1.0411930084228516,0.36676339131473,[1.22338448],0.005,0.1,0.04800632441726574,0.7858018070046142,0
1.049001693725586,0.3698897707825168,[1.22454569],0.005,0.1,-0.17679555837738486,0.7189709660745197,0
1.0644686222076416,0.37614252971809026,[1.22581119],0.005,0.1,0.02772302073465728,0.7272852996787402,0
1.0769731998443604,0.381027497636507,[1.22716828],0.005,0.1,0.0552532226219374,0.7080248708983675,0
1.0941591262817383,0.38825725015576373,[1.22861031],0.005,0.1,-0.2561389696658154,0.7259578464796217,0
1.1029722690582275,0.3917744270570238,[1.23013112],0.005,0.1,-0.3383876290286793,0.6963202586331984,0
1.1179752349853516,0.3980271859925973,[1.23172243],0.005,0.1,-0.05112581428375432,0.7020941960950303,0
1.1335115432739258,0.404084546211434,[1.23338214],0.005,0.1,0.025113778415064632,0.7450763269053943,0
1.141899824142456,0.4072109256792208,[1.23510875],0.005,0.1,0.01861732766134785,0.6763334550393723,0
1.1639187335968018,0.4161992666491076,[1.23689732],0.005,0.1,-0.013509211372885329,0.7526009688096508,0
1.178002119064331,0.42186582943447104,[1.23875163],0.005,0.1,-0.04762248588039267,0.7307878773121707,0
1.1919655799865723,0.4277277909365711,[1.24067316],0.005,0.1,-0.0753224972233564,0.7144705050452866,0
1.206007957458496,0.4333943537219346,[1.24265615],0.005,0.1,0.1812477939732426,0.7032376511427383,0
1.2190020084381104,0.4386701190738247,[1.24469567],0.005,0.1,0.20239143405378854,0.6965198103538187,0
1.2339067459106445,0.4451182767261348,[1.24678763],0.005,0.1,0.1412817036510261,0.6898340747303251,0
1.2489373683929443,0.4509802382282349,[1.24892877],0.005,0.1,0.06360185628540418,0.686722931863865,0
1.2695693969726562,0.45938238304791174,[1.25112505],0.005,0.1,-0.005417620018192161,0.8109862369825014,0
1.2839326858520508,0.4650489458332752,[1.25339085],0.005,0.1,-0.05846974490204092,0.7818881871397173,0
1.3004646301269531,0.47130170476884864,[1.255731],0.005,0.1,-0.09559884196189189,0.7568623234063869,0
1.313971996307373,0.4767728688374754,[1.25814131],0.005,0.1,-0.11939900951747462,0.7438723006381315,0
1.3219752311706543,0.4804854444554721,[1.26060828],0.005,0.1,-0.13295244182298577,0.7408368074136312,0
1.341928482055664,0.4884967918416756,[1.26312097],0.005,0.1,-0.13903584393797103,0.9245648213910623,0
1.352550983428955,0.4926001648931457,[1.2656855],0.005,0.1,-0.13988961980258074,0.7732290790506062,0
1.3679745197296143,0.49904832254545584,[1.26830751],0.005,0.1,0.13881979651608375,0.8620366068917978,0
1.3760321140289307,0.5023701007299791,[1.27098141],0.005,0.1,0.17688957438038339,0.8611615921099256,0
1.4045288562774658,0.5138986250174427,[1.27371447],0.005,0.1,-0.14792090370322025,1.412528498206711,0
1.4125683307647705,0.5170250044852295,[1.27653151],0.005,0.1,-0.2500514228430024,0.9367073233220807,0
1.4260306358337402,0.5223007698371195,[1.27943022],0.005,0.1,-0.25807357949213605,0.8605639721435009,0
1.442821741104126,0.5301167185065864,[1.28240028],0.005,0.1,-0.23117175070207985,0.9549660982166018,0
1.4573760032653809,0.5353924838584764,[1.28545421],0.005,0.1,-0.19536168506228024,1.0084537238105953,0
1.4649732112884521,0.5385188633262632,[1.2885928],0.005,0.1,-0.1611427394077511,0.752011968202682,0
1.4809579849243164,0.5447716222618366,[1.29179707],0.005,0.1,-0.13200402118981663,0.769059807048755,0
1.4979586601257324,0.5520013747810935,[1.29505962],0.005,0.1,-0.10845344441366206,0.8503932845917479,0
1.5163731575012207,0.5592311273003503,[1.29839698],0.005,0.1,-0.08987541743631267,1.0727122821934412,0
1.5309667587280273,0.5650930888024503,[1.30182933],0.005,0.1,-0.07534987161060588,1.0006043215289062,0
1.548006534576416,0.5719320438882337,[1.30536476],0.005,0.1,-0.06398487996321839,1.0611594937676645,0
1.5579707622528076,0.5758400182229672,[1.30899963],0.005,0.1,-0.05502911661478132,0.8929165400969741,0
1.5740060806274414,0.5840467643259073,[1.31272258],0.005,0.1,-0.047890370415361976,0.9088501552055666,0
1.586951732635498,0.5877593399439041,[1.3165233],0.005,0.1,-0.04211838107088502,0.8634025403036709,0
1.6004931926727295,0.5932305040125309,[1.32038932],0.005,0.1,-0.3134161045150192,0.7681385695932833,0
1.6230370998382568,0.6024142436991544,[1.3243237],0.005,0.1,-0.3425843550897874,1.254496167948705,0
1.636033058166504,0.6074946103343077,[1.32835346],0.005,0.1,-0.2841339355303131,1.1339414752668002,0
1.6487984657287598,0.6125749769694612,[1.33248681],0.005,0.1,-0.4812046363562121,1.0535495503271712,0
1.6630423069000244,0.6184369384715612,[1.33671123],0.005,0.1,-0.44129688947431955,1.0002842824751674,0
1.6790003776550293,0.6246896974071348,[1.34101544],0.005,0.1,-0.32736899166445915,0.9651621218120001,0
1.6919548511505127,0.6299654627590249,[1.34538933],0.005,0.1,-0.20732447793967962,0.9453061173845799,0
1.7059545516967773,0.6356320255443884,[1.34982396],0.005,0.1,-0.10563097776270153,0.9332183113526396,0
1.7200384140014648,0.6414939870464884,[1.35431151],0.005,0.1,0.24813766243005084,0.9263320229069422,0
1.7280364036560059,0.6450111639477484,[1.35883017],0.005,0.1,0.06080408476478939,0.928927399461278,0
1.756394624710083,0.6567350869519486,[1.36337696],0.005,0.1,0.28617604304581584,1.8637371639429245,0
1.7681505680084229,0.6614246561536288,[1.36798807],0.005,0.1,0.3221460396328626,1.3262706150403605,0
1.7769649028778076,0.6649418330548889,[1.3726633],0.005,0.1,0.2864285527273645,0.9739251945337258,0
1.7889554500579834,0.6698268009733056,[1.37736425],0.005,0.1,0.2309768760165966,0.8338415016827361,0
1.804941177368164,0.6762749586256158,[1.38207399],0.005,0.1,0.17693488625134526,1.0063361508662236,0
1.8169260025024414,0.6817461226942425,[1.38678995],0.005,0.1,0.13149157510295184,0.795118781498255,0
1.839280128479004,0.690343666230656,[1.3915265],0.005,0.1,0.09587336868620597,1.542282535284195,0
1.851374626159668,0.6952286341490728,[1.39632299],0.005,0.1,0.06903582478789126,1.3304881613081132,0
1.8679397106170654,0.7020675892348561,[1.40119653],0.005,0.1,0.04929635766381309,1.2572041105308298,0
1.881967306137085,0.7079295507369562,[1.40613866],0.005,0.1,0.035001413722608204,1.177656489424726,0
1.8938841819763184,0.712814518655373,[1.41114175],0.005,0.1,0.024755628630469474,1.128518979697683,0
1.9021844863891602,0.7157454994064231,[1.41618419],0.005,0.1,0.017463304311677426,0.7797935690834218,0
1.9198668003082275,0.7231706506424166,[1.42124749],0.005,0.1,0.012297976330693404,1.1868372427368357,0
1.9338703155517578,0.72883721342778,[1.42634314],0.005,0.1,0.008651377770925523,1.142085239435965,0
1.9450180530548096,0.7333313839127235,[1.43147635],0.005,0.1,0.006082847277870717,0.9975407230843084,0
1.9599318504333496,0.7391933454148236,[1.43663766],0.005,0.1,0.00427648132867013,1.1252599443816274,0
1.973832368850708,0.744859908200187,[1.44182766],0.005,0.1,0.0030074241169946725,1.1014279607066857,0
1.9873356819152832,0.7503310722688137,[1.44704659],0.005,0.1,0.0021164120996633364,1.0850003670659045,0
2.001840114593506,0.7561930337709138,[1.45229009],0.005,0.1,0.0014910259729744948,1.0732548297404494,0
2.016923189163208,0.7622503939897506,[1.45755425],0.005,0.1,0.27709046211412747,1.0644850923620393,0
2.0309183597564697,0.767916956775114,[1.46283565],0.005,0.1,0.30990695293465714,1.0596553413038852,0
2.045741319656372,0.7739743169939507,[1.46813377],0.005,0.1,0.25459331867080304,1.1243343963409063,0
2.0589189529418945,0.7794454810625776,[1.47344811],0.005,0.1,0.17835625481590323,1.0356581275669063,0
2.072986602783203,0.7853074425646777,[1.47877625],0.005,0.1,0.1077266137073534,1.1253241812541004,0
2.0929808616638184,0.7931233912341445,[1.48413323],0.005,0.1,0.051029475169201324,1.5300745283974584,0
2.107175588607788,0.7985945553027713,[1.4895449],0.005,0.1,0.008978705078949125,1.3789255807861975,0
2.1219117641448975,0.8046519155216081,[1.49501539],0.005,0.1,-0.020474032514852213,1.2742688563920874,0
2.1378748416900635,0.8111000731739182,[1.50053353],0.005,0.1,-0.04002849511185576,1.2031045441004813,0
2.160369634628296,0.8204792115772783,[1.50610651],0.005,0.1,-0.05220002332499763,1.7048714840144503,0
2.1749770641326904,0.8265365717961152,[1.51175685],0.005,0.1,-0.05905525602622898,1.486602329638554,0
2.187976837158203,0.8316169384312686,[1.51748533],0.005,0.1,0.21385087539161332,1.3415232065518832,0
2.1970837116241455,0.835524912766002,[1.52326157],0.005,0.1,0.2463834309030748,0.9101955985125676,0
2.2157020568847656,0.8433408614354688,[1.52905722],0.005,0.1,-0.08366045142410272,1.2285089764057247,0
2.230841875076294,0.8492028229375689,[1.53487318],0.005,0.1,0.08533503568132042,1.221907406597555,0
2.24387264251709,0.8542831895727223,[1.5407135],0.005,0.1,0.10584967708723515,1.1609049460963579,0
2.2566540241241455,0.8595589549246124,[1.54656465],0.005,0.1,-0.20265285149307566,1.017747822161005,0
2.2704811096191406,0.8652255177099757,[1.55241165],0.005,0.1,-0.003974874803345602,1.0813216730778943,0
2.2848291397094727,0.8708920804953393,[1.55824916],0.005,0.1,-0.23176261184743707,1.093547442754063,0
2.2988996505737305,0.8765586432807027,[1.56407499],0.005,0.1,-0.2747731276546027,1.0667231829577013,0
2.3118643760681152,0.8820298073493293,[1.56988351],0.005,0.1,-0.24681610268821821,1.0470881641912262,0
2.325897455215454,0.8873055727012196,[1.57566871],0.005,0.1,0.07768078857456474,1.0325684945959925,0
2.338822841644287,0.8925813380531097,[1.58142564],0.005,0.1,-0.11699978137546502,1.022216869955983,0
2.349445343017578,0.8968801098213164,[1.5871448],0.005,0.1,-0.16442382849026949,0.882652746441281,0
2.3596184253692627,0.9011788815895231,[1.59280813],0.005,0.1,-0.1534476203583854,0.8069074119953945,0
2.37127947807312,0.90606384950794,[1.59840159],0.005,0.1,-0.12391063813792155,0.8607280075920586,0
2.380882501602173,0.9099718238426734,[1.60391844],0.005,0.1,-0.09252218562512143,0.76999393841739,0
2.3975462913513184,0.9166153802117202,[1.60935755],0.005,0.1,0.2106472602505635,0.9410254564232274,0
2.4078829288482666,0.9207187532631901,[1.61472497],0.005,0.1,0.26516186447102397,0.8466289406930857,0
2.4218783378601074,0.9263853160485537,[1.62002304],0.005,0.1,-0.04996846717570069,0.887184866377961,0
2.4368929862976074,0.9330288724176004,[1.62525453],0.005,0.1,0.12842663580469332,0.9138610794057858,0
2.4498915672302246,0.9381092390527538,[1.63042744],0.005,0.1,-0.12177597981836777,0.9352995800695253,0
2.472897529602051,0.9472929787393772,[1.63556541],0.005,0.1,-0.18494889242673967,1.4003694928640258,0
2.4869067668914795,0.9529595415247408,[1.64070497],0.005,0.1,-0.17367600055972346,1.260443938058428,0
2.5008976459503174,0.9584307055933676,[1.64586043],0.005,0.1,-0.13848929709970528,1.1625513897722097,0
2.5159173011779785,0.9646834645289409,[1.65102711],0.005,0.1,-0.37666430807759055,1.0933025611830005,0
2.5242669582366943,0.9683960401469377,[1.65619531],0.005,0.1,-0.10101184796434197,0.9162736602167151,0
2.539896249771118,0.9746487990825112,[1.66135646],0.005,0.1,0.012892872915596813,1.0523619502902175,0
2.552461862564087,0.979533767000928,[1.66651248],0.005,0.1,0.0529182103202743,0.9854544693564826,0
2.56193208694458,0.9836371400523979,[1.6716519],0.005,0.1,0.060914553615139005,0.7128931023409415,0
2.5818233489990234,0.9918438861553381,[1.67676181],0.005,0.1,-0.21969107874147503,1.0589769984518127,0
2.5937371253967285,0.9967288540737549,[1.68185676],0.005,0.1,-0.2612368244864445,1.0113456417299826,0
2.609851837158203,1.003177011726065,[1.68694764],0.005,0.1,-0.21477675315717953,0.9697385178720561,0
2.623833656311035,1.008648175794692,[1.69203053],0.005,0.1,-0.1462289012445852,0.9401351655433204,0
2.6421966552734375,1.0160733270306852,[1.69710905],0.005,0.1,-0.35787648871128674,1.0987014746409003,0
2.658256769180298,1.0225214846829955,[1.70219651],0.005,0.1,-0.33920108849632286,1.107548118243293,0
2.667978048324585,1.0268202564512021,[1.7072908],0.005,0.1,-0.24583959922672982,0.8151144757492765,0
2.685100555419922,1.0336592115369856,[1.712378],0.005,0.1,-0.14321779705200824,0.9999275225670828,0
2.701374053955078,1.040498166622769,[1.7174649],0.005,0.1,0.22064465670818484,1.0857836415505875,0
2.7159016132354736,1.0463601281248691,[1.72256357],0.005,0.1,0.04476827882674861,1.0011265118047847,0
2.731914520263672,1.0528082857771792,[1.72767065],0.005,0.1,0.00401364928679937,0.940578091572686,0
2.7458760738372803,1.0584748485625428,[1.73277757],0.005,0.1,0.014463438534041057,0.8999824928865487,0
2.7663912773132324,1.0664861959487462,[1.73788885],0.005,0.1,0.039242029411337205,1.1742886533896524,0
2.781790256500244,1.072543556167583,[1.74302282],0.005,0.1,0.06345565779389856,1.1258504569694625,0
2.7898643016815186,1.0762561317855797,[1.7481707],0.005,0.1,0.0821253109669852,1.1292979073072678,0
2.803478956222534,1.0817272958542066,[1.75329722],0.005,0.1,0.09447706628804398,1.0652308916363027,0
2.8158745765686035,1.0870030612060964,[1.75838467],0.005,0.1,0.10131390019435219,0.9392572933528819,0
2.8370466232299805,1.09560060474251,[1.76344444],0.005,0.1,0.3798985238391996,1.2773660563125728,0
2.8498616218566895,1.1006809713776635,[1.76850094],0.005,0.1,0.13641935564401902,1.1158507937424202,0
2.8656961917877197,1.1073245277467103,[1.77356182],0.005,0.1,0.3215363755228785,1.002966140447134,0
2.8808724880218506,1.1135772866822837,[1.77861879],0.005,0.1,0.3295923379997545,0.9279349438530838,0
2.8938679695129395,1.1184622546007006,[1.78366476],0.005,0.1,0.275148899066635,0.8793566474387247,0
2.908891439437866,1.124519614819537,[1.78869372],0.005,0.1,0.20762311948794338,0.8429155034959716,0
2.9218897819519043,1.1303815763216374,[1.79370061],0.005,0.1,0.14622324690744365,0.8165841339046757,0
2.9409780502319336,1.1381975249911043,[1.7986886],0.005,0.1,0.09670721320782061,0.9635944081393536,0
2.957308769226074,1.1446456826434142,[1.80367446],0.005,0.1,0.05926533547230107,1.06241703461262,0
2.966771364212036,1.1485536569781476,[1.80866471],0.005,0.1,0.0321141087012373,0.801385449651133,0
2.976865768432617,1.1526570300296177,[1.81363628],0.005,0.1,0.013049835322822263,0.6393153454210851,0
2.9988794326782227,1.1618407697162412,[1.81857625],0.005,0.1,5.517485486841809e-05,0.9561185759310687,0
3.013892650604248,1.1677027312183414,[1.82350166],0.005,0.1,-0.008516746865277446,0.8775236926825665,0
3.0298540592193604,1.1743462875873882,[1.82842003],0.005,0.1,-0.01393368061940143,0.8184770009870991,0
3.0451390743255615,1.180403647806225,[1.83332604],0.005,0.1,-0.017138286667726675,0.8321883162533502,0
3.062390089035034,1.1874380016087451,[1.838224],0.005,0.1,-0.018815988605563556,0.9307106775923644,0
3.0709140300750732,1.1907597797932685,[1.84311232],0.005,0.1,-0.01945747218847401,0.6670763770609032,0
3.0921313762664795,1.1997481207631555,[1.84798484],0.005,0.1,0.25662843776470945,0.9491554205113912,0
3.104360342025757,1.2044376899648352,[1.85284762],0.005,0.1,0.2902463446134843,0.7600707151494377,0
3.1138017177581787,1.2079548668660955,[1.85769142],0.005,0.1,0.23591919602606026,0.6278071708847001,0
3.126525640487671,1.213621429651459,[1.86249315],0.005,0.1,0.1607648674674581,0.6169083627488607,0
3.1405162811279297,1.2190925937200856,[1.86724348],0.005,0.1,0.0912543309746715,0.6436292191674424,0
3.1509695053100586,1.2233913654882922,[1.87193891],0.005,0.1,0.03567304548899771,0.5870178290991289,0
3.163867950439453,1.2288625295569193,[1.87657365],0.005,0.1,0.2707477062027205,0.6021917050904468,0
3.180464267730713,1.235506085925966,[1.88114917],0.005,0.1,0.27546206390387284,0.6712137990915551,0
3.1907856464385986,1.2398048576941727,[1.88567071],0.005,0.1,0.20179913130494848,0.6012631148896401,0
3.2038609981536865,1.2452760217627994,[1.89013652],0.005,0.1,-0.1615652808311672,0.6086997032289371,0
3.2179248332977295,1.2511379832648997,[1.89454566],0.005,0.1,0.004841171654976967,0.6121379986885854,0
3.2383666038513184,1.2591493306511032,[1.89890887],0.005,0.1,-0.2419181968401446,0.755211254936126,0
3.2557709217071533,1.2657928870201498,[1.90324845],0.005,0.1,-0.29589130163633903,0.8167913716167263,0
3.2669677734375,1.2702870575050933,[1.90757763],0.005,0.1,0.0020567156880737514,0.6828076282784992,0
3.27862286567688,1.2749766267067733,[1.91188959],0.005,0.1,-0.19538818890193943,0.622814693930777,0
3.2867767810821533,1.2782984048912969,[1.91616734],0.005,0.1,-0.23645206453079878,0.4979013320867599,0
3.3090133666992188,1.287677543294657,[1.92040709],0.005,0.1,0.059516671988465816,0.742368895429844,0
3.3183858394622803,1.2919763150628636,[1.92462045],0.005,0.1,0.1310232899381182,0.5609097340012623,0
3.3311500549316406,1.296470485547807,[1.92880392],0.005,0.1,0.11509456881866739,0.5509005049879974,0
3.3442513942718506,1.3021370483331705,[1.9329477],0.005,0.1,0.07265699070584035,0.5420489318665835,0
3.3548898696899414,1.3066312188181142,[1.93704803],0.005,0.1,0.028874816594133178,0.5015107212959309,0
3.369905471801758,1.312493180320214,[1.94110344],0.005,0.1,-0.007368202147098681,0.5611051441434168,0
3.381840944290161,1.317182749521894,[1.94511719],0.005,0.1,-0.03420902087243492,0.5180238969329637,0
3.402925729751587,1.3257802930583074,[1.94910218],0.005,0.1,-0.05251206738441289,0.7419591710497982,0
3.413195848464966,1.3302744635432509,[1.95307614],0.005,0.1,-0.06395822759773086,0.5806782828561217,0
3.429260730743408,1.3369180199122979,[1.95704394],0.005,0.1,-0.07025420125122704,0.6490370839286715,0
3.436840772628784,1.3398490006633477,[1.9609961],0.005,0.1,-0.07285252942334824,0.43781323735571587,0
3.4498445987701416,1.3449293672985012,[1.96491354],0.005,0.1,-0.3489306627233133,0.46067446833093545,0
3.4729208946228027,1.3545039044185982,[1.96879881],0.005,0.1,-0.38038892031607785,0.6676384375699685,0
3.4894967079162598,1.3611474607876448,[1.97267875],0.005,0.1,-0.3225378419446423,0.6372468955855966,0
3.502847194671631,1.366423226139535,[1.97656395],0.005,0.1,-0.24305040818004137,0.5692339498385397,0
3.5168304443359375,1.371894390208162,[1.98044857],0.005,0.1,-0.1687820754959682,0.5435670209931724,0
3.5389347076416016,1.3808827311780487,[1.98433886],0.005,0.1,-0.10827989166384723,0.7272286938429516,0
3.5481135845184326,1.384790705512782,[1.98824571],0.005,0.1,-0.062406463990175035,0.5275006454214375,0
3.5622947216033936,1.3910434644483554,[1.99216165],0.005,0.1,-0.029210569489615673,0.5393571270386445,0
3.5723986625671387,1.3951468374998257,[1.99607114],0.005,0.1,-0.006053533792016175,0.42669172379588455,0
3.582828998565674,1.3992502105512956,[1.99995886],0.005,0.1,0.00954379499394387,0.4311718068459099,0
3.6053268909454346,1.408043152804446,[2.0038268],0.005,0.1,0.019628880145086316,0.6080788867389836,0
3.61598539352417,1.4123419245726525,[2.00768952],0.005,0.1,-0.2502510495733337,0.4793377046075793,0
3.6313705444335938,1.4189854809416993,[2.01154749],0.005,0.1,-0.27996115515958336,0.5262072513508714,0
3.6398353576660156,1.4223072591262227,[2.0153886],0.005,0.1,-0.22333212345204836,0.3655585403559096,0
3.6519315242767334,1.4269968283279029,[2.01919333],0.005,0.1,-0.14698142007893178,0.3832775889859298,0
3.6656858921051025,1.4322725936797929,[2.02295354],0.005,0.1,-0.07702319502940942,0.42117587931054806,0
3.682213544845581,1.4393069474823132,[2.02667841],0.005,0.1,-0.021491132419170868,0.46842761603301997,0
3.6908302307128906,1.4430195231003098,[2.03037188],0.005,0.1,0.019102507578659726,0.3814367498159984,0
3.703911066055298,1.4486860858856732,[2.03402629],0.005,0.1,0.04694395380488985,0.38845801668190855,0
3.717393398284912,1.4537664525208267,[2.0376374],0.005,0.1,0.06482599140792235,0.393287977359127,0
3.7333998680114746,1.4602146101731368,[2.04120982],0.005,0.1,0.07532560039287711,0.4234599536888357,0
3.745919704437256,1.4656857742417637,[2.04474768],0.005,0.1,0.08054923445085177,0.38418101222300854,0
3.759479522705078,1.4709615395936537,[2.04825112],0.005,0.1,0.08211492329801331,0.3987781871606057,0
3.7728452682495117,1.476237304945544,[2.05172046],0.005,0.1,0.08121989382676613,0.3791400677646434,0
3.7868080139160156,1.4819038677309073,[2.05515614],0.005,0.1,0.0787279299305072,0.37720435636340954,0
3.80855131149292,1.4908922087007939,[2.05856881],0.005,0.1,0.07525049113061089,0.5117187637127486,0
3.81931471824646,1.4951909804690007,[2.06197312],0.005,0.1,0.07121343689007303,0.3866325767790147,0
3.835907459259033,1.5018345368380475,[2.065371],0.005,0.1,0.06690866554075324,0.44739760016172453,0
3.8487513065338135,1.5075010996234108,[2.06876484],0.005,0.1,0.06253269185229399,0.41414521221650824,0
3.8627490997314453,1.5131676624087744,[2.07215639],0.005,0.1,0.058214833709095,0.38941864060477815,0
3.8769922256469727,1.518834225194138,[2.07554126],0.005,0.1,0.05403750381426839,0.3708434200150197,0
3.890822172164917,1.5243053892627647,[2.07891548],0.005,0.1,0.32608902632834996,0.35634177809259615,0
3.90582275390625,1.530558148198338,[2.08227546],0.005,0.1,0.35544502204580114,0.3435589801407106,0
3.918262481689453,1.5354431161167548,[2.08561797],0.005,0.1,0.29681007868386533,0.3342878657412304,0
3.9338395595550537,1.5416958750523284,[2.0889401],0.005,0.1,0.2174209712328451,0.3244907164488907,0
3.9478492736816406,1.5473624378376918,[2.09223922],0.005,0.1,0.14382390170610598,0.31619987249811743,0
3.960832357406616,1.5526382031895818,[2.09551301],0.005,0.1,-0.1916889348981072,0.3090902188537189,0
3.9739129543304443,1.557913968541472,[2.09875936],0.005,0.1,-0.2694525826490161,0.3022811416938871,0
3.99111270904541,1.5651437210607286,[2.10197938],0.005,0.1,0.029825892154096173,0.3244120678988147,0
4.000894784927368,1.568660897961989,[2.1051739],0.005,0.1,-0.15878560985634665,0.2808109496535884,0
4.012821912765503,1.5735458658804056,[2.10833768],0.005,0.1,-0.19071771202176419,0.2774306248056269,0
4.027814149856567,1.579798624815979,[2.11146624],0.005,0.1,-0.1638433354813531,0.2722682131845236,0
4.041807651519775,1.5854651876013421,[2.11455882],0.005,0.1,-0.12117328431461702,0.26735173064857626,0
4.055831670761108,1.5911317503867057,[2.11761485],0.005,0.1,0.19596810345061766,0.26207352392889444,0
4.077469825744629,1.5997292939231191,[2.12064217],0.005,0.1,0.2628424210050705,0.33903306856479765,0
4.087693691253662,1.6038326669745895,[2.12365197],0.005,0.1,0.23327051256419135,0.26972995314932957,0
4.099346876144409,1.6110624194938463,[2.12663923],0.005,0.1,0.17546233580590526,0.2351104678497212,0
4.120800733566284,1.617510577146156,[2.12959862],0.005,0.1,0.11744008620371782,0.2858486905941545,0
4.136787414550781,1.624154133515203,[2.13253761],0.005,0.1,0.06896385153583498,0.2635264943881269,0
4.151780605316162,1.63021149373404,[2.13545887],0.005,0.1,0.3079827117239558,0.24695598870633315,0
4.166794300079346,1.6362688539528767,[2.13835865],0.005,0.1,0.0383888971218298,0.23450958289775234,0
4.187995433807373,1.6452571949227635,[2.14124144],0.005,0.1,-0.06817768107509385,0.294460911069504,0
4.195713520050049,1.6481881756738137,[2.14411099],0.005,0.1,-0.10118370711915584,0.29501260134289736,0
4.216185092926025,1.6561995230600168,[2.14696265],0.005,0.1,-0.10301788593626465,0.3418326191582026,0
4.230797290802002,1.6618660858453804,[2.14979993],0.005,0.1,-0.09323002133983865,0.28783890026655184,0
4.253463506698608,1.671049825532004,[2.15263316],0.005,0.1,-0.08044079278138078,0.3278828854923851,0
4.266878128051758,1.6765209896006308,[2.15547066],0.005,0.1,-0.06814978893994567,0.274704155149538,0
4.2817912101745605,1.682773748536204,[2.15831175],0.005,0.1,-0.057536706720021834,0.239184835031276,0
4.296807527542114,1.6886357100383043,[2.16114819],0.005,0.1,-0.048789960403319954,0.2157362324406696,0
4.309885025024414,1.6937160766734578,[2.16397292],0.005,0.1,-0.04172057652282569,0.2000987742119934,0
4.322786569595337,1.6991872407420845,[2.16677994],0.005,0.1,-0.03603383936581694,0.1885443221555,0
4.337064504623413,1.705244600960921,[2.16956424],0.005,0.1,0.24459797123758403,0.1792322661804196,0
4.351792335510254,1.7111065624630215,[2.17232171],0.005,0.1,0.28146851614246626,0.1720165506137871,0
4.365756034851074,1.7167731252483849,[2.17504909],0.005,0.1,0.22946490776675835,0.16623290392582007,0
4.387594699859619,1.7257614662182716,[2.17775051],0.005,0.1,0.15597092873286048,0.20837913185005552,0
4.403407335281372,1.7326004213040551,[2.18043659],0.005,0.1,0.08764925521873822,0.1881496920005441,0
4.414439916610718,1.7368991930722617,[2.18310752],0.005,0.1,0.03292239098705886,0.15789941211177314,0
4.430551052093506,1.7433473507245718,[2.18575652],0.005,0.1,-0.2834622688222459,0.16604846972312315,0
4.443317651748657,1.748232318642989,[2.18838225],0.005,0.1,-0.3445477465392514,0.15676437335513074,0
4.455599784851074,1.753312685278142,[2.19098352],0.005,0.1,-0.3076860738977746,0.14793232373199097,0
4.4707725048065186,1.759370045496979,[2.19355713],0.005,0.1,-0.24259690375595372,0.14344993340450035,0
4.4858033657073975,1.7658182031492888,[2.1961011],0.005,0.1,-0.4539126185796929,0.13772944214742994,0
4.498698949813843,1.7708985697844424,[2.19861396],0.005,0.1,-0.1565570497654063,0.13356265212459267,0
4.512781381607056,1.776565132569806,[2.20109442],0.005,0.1,-0.02606656077588467,0.12952607263621874,0
4.531070709228516,1.7839902838057995,[2.20354385],0.005,0.1,0.026212978331324122,0.13698412675601782,0
4.540760278701782,1.7880936568572692,[2.20596359],0.005,0.1,0.04306092340608596,0.11905197054889025,0
4.5547754764556885,1.7939556183593695,[2.20835066],0.005,0.1,-0.23125630512139092,0.11666205204370117,0
4.568776607513428,1.7998175798614697,[2.2107028],0.005,0.1,-0.2683950107883884,0.11419474421012753,0
4.582761764526367,1.8052887439300964,[2.21302051],0.005,0.1,-0.2188851378880647,0.11182101028371215,0
4.605156898498535,1.8142770848999832,[2.21531077],0.005,0.1,-0.14825467688551489,0.1427905874993331,0
4.617987632751465,1.8195528502518732,[2.21758584],0.005,0.1,-0.0824641179819732,0.12833674177517543,0
4.62640118598938,1.8228746284363966,[2.21984428],0.005,0.1,-0.029742644330154597,0.09303453922463563,0
4.644898414611816,1.83029977967239,[2.22207859],0.005,0.1,0.009110415608778687,0.11862006369026211,0
4.655989408493042,1.8345985514405967,[2.2242915],0.005,0.1,-0.24003191972224627,0.1007238262004034,0
4.667441129684448,1.8394835193590138,[2.22648162],0.005,0.1,-0.25565298590192626,0.08985442259485316,0
4.680738925933838,1.8453454808611136,[2.22864334],0.005,0.1,-0.19004436500994754,0.09165918139442052,0
4.691774606704712,1.8496442526293206,[2.23077374],0.005,0.1,-0.10846489047028789,0.07924146621800547,0
4.713794469833374,1.858241796165734,[2.23287475],0.005,0.1,-0.03594132253299345,0.10445641402105522,0
4.723086357116699,1.8619543717837308,[2.23495365],0.005,0.1,-0.2557202982380005,0.08584831704301367,0
4.739955186843872,1.868207130719304,[2.23701363],0.005,0.1,-0.5247940440329949,0.09415903046462026,0
4.754772901535034,1.8744598896548776,[2.23905667],0.005,0.1,-0.47628080588888333,0.08775256066215699,0
4.767731189727783,1.879540256290031,[2.24108447],0.005,0.1,-0.6050450641716076,0.08315851962095838,0
4.781795024871826,1.8852068190753946,[2.24309589],0.005,0.1,-0.7591669264601965,0.07916168121267655,0
4.794727325439453,1.8902871857105479,[2.24508995],0.005,0.1,-0.6070224206075192,0.07596449335942805,0
4.809199333190918,1.8957583497791746,[2.24706563],0.005,0.1,-0.37788333127814944,0.072186436725339,0
4.8248069286346436,1.9016203112812748,[2.24902211],0.005,0.1,-0.4389921727452473,0.07027030531619871,0
4.847334861755371,1.9102178548176882,[2.25096442],0.005,0.1,-0.5766822619769724,0.08848696683405459,0
4.861265659332275,1.9152982214528416,[2.25290207],0.005,0.1,-0.7059502088912496,0.07849300058396237,0
4.868993759155273,1.9176430060536815,[2.25483256],0.005,0.1,-1.075512273237511,0.05674118963267096,0
4.888730764389038,1.9250681572896753,[2.25674748],0.005,0.1,-0.8872493845349452,0.06830956417467342,0
4.897352695465088,1.9283899354741985,[2.25864531],0.005,0.1,-0.8205281768683867,0.055181167905707956,0
4.916406631469727,1.9354242892767186,[2.26052626],0.005,0.1,-1.0718124415083197,0.0651802395230056,0
4.92882227897644,1.939918459761662,[2.26239299],0.005,0.1,-1.0888503489726329,0.06050087614636954,0
4.943783283233643,1.9449988263968156,[2.26424689],0.005,0.1,-1.01415752282037,0.056583043680217195,0
4.958764553070068,1.9498837943152325,[2.26608548],0.005,0.1,-1.1879875068174635,0.05354466064966828,0
4.972759962081909,1.9547687622336491,[2.26790663],0.005,0.1,-1.6705966483200907,0.05107578463219847,0
4.987739086151123,1.9598491288688025,[2.26970847],0.005,0.1,-1.5888130625166625,0.048816749185883065,0
5.005637884140015,1.9655156916541656,[2.27149114],0.005,0.1,-1.5978065027519437,0.05153517244076868,0
5.014767169952393,1.9682512736884794,[2.27325473],0.005,0.1,-1.6151477136938246,0.044277900988451434,0
5.0378501415252686,1.9752856274909993,[2.27500033],0.005,0.1,-1.6125003041600379,0.05532298334027476,0
5.050785064697266,1.978998203108996,[2.27673187],0.005,0.1,-1.3085312033158945,0.04602613937562488,0
5.0658416748046875,1.9832969748772031,[2.27844973],0.005,0.1,-1.5016649919478158,0.04667066338755138,0
5.07899284362793,1.9870095504951997,[2.28015213],0.005,0.1,-1.5241121515688685,0.043365840405357584,0
5.092852830886841,1.9911129235466698,[2.28183747],0.005,0.1,-1.469043910501658,0.040672409477160484,0
5.108761310577393,1.995607094031613,[2.283503],0.005,0.1,-1.9339268686468585,0.038442152342963755,0
5.131423473358154,2.00107825810024,[2.28515016],0.005,0.1,-2.178660868788391,0.046396206523396474,0
5.146869421005249,2.004790833718237,[2.28678378],0.005,0.1,-2.2798635140004775,0.04119272038127941,0
5.162750244140625,2.008308010619497,[2.28840372],0.005,0.1,-2.8403389175243143,0.03756966483194353,0
5.183881759643555,2.0129975798211768,[2.29000852],0.005,0.1,-2.8560490361873434,0.041591183056690344,0
5.19619345664978,2.0157331618554903,[2.29159911],0.005,0.1,-2.383048862466268,0.036100909087358295,0
5.2047340869903564,2.017296351589384,[2.29317042],0.005,0.1,-2.3660341406123075,0.029118620026390984,0
5.227721452713013,2.0215951233575904,[2.29471642],0.005,0.1,-2.194648762045782,0.03445115333641356,0
5.237107038497925,2.0231583130914834,[2.29623633],0.005,0.1,-1.9797834688009057,0.029143701125995947,0
5.255727529525757,2.0260892938425337,[2.29772844],0.005,0.1,-2.5960997261565284,0.03067002102061994,0
5.269715785980225,2.028238679726637,[2.29919092],0.005,0.1,-2.779726437836737,0.029011848052693346,0
5.290423154830933,2.0307788630442136,[2.30062411],0.005,0.1,-2.755781323336203,0.031154941339814137,0
5.300666809082031,2.0319512553446337,[2.30202751],0.005,0.1,-2.6364782766804757,0.027092316966700863,0
5.312735557556152,2.033123647645054,[2.30339693],0.005,0.1,-2.7535381750938948,0.025441189889226067,0
5.326736688613892,2.0344914386622106,[2.30472759],0.005,0.1,-2.339346383662555,0.025194151605005797,0
5.341795206069946,2.035468432245894,[2.3060185],0.005,0.1,-2.356792551226583,0.026589044632725,0
5.359994649887085,2.0364454258295774,[2.30727185],0.005,0.1,-2.481629859135226,0.027883764913005007,0
5.374674558639526,2.0372270206965237,[2.30848975],0.005,0.1,-2.5875484674225904,0.026723101145636814,0
5.389760494232178,2.037422419413261,[2.3096717],0.005,0.1,-2.6362001372482045,0.026072165539461477,0
5.404736518859863,2.0378132168467338,[2.31081616],0.005,0.1,-3.453648713011344,0.02568571026544063,0
5.428327798843384,2.037422419413261,[2.31192378],0.005,0.1,-3.2177374398204543,0.02831372843232438,0
5.442507028579712,2.037422419413261,[2.31299702],0.005,0.1,-2.924892947573559,0.02718494688740876,0
5.457709074020386,2.0372270206965237,[2.31403609],0.005,0.1,-2.0821809775892346,0.026479872018164312,0
5.470736026763916,2.037031621979787,[2.31503942],0.005,0.1,-0.6454640629820831,0.026005734460372434,0
5.485643625259399,2.036640824546314,[2.31600579],0.005,0.1,0.44125343909538417,0.025761212946766063,0
5.499786615371704,2.0364454258295774,[2.31693438],0.005,0.1,1.203499763674434,0.025588318483000288,0
5.523657321929932,2.035859229679367,[2.31782589],0.005,0.1,1.9780359299435513,0.027080763631425035,0
5.537629127502441,2.0356638309626307,[2.31868232],0.005,0.1,2.5856311224864017,0.026414797890958738,0
5.551666498184204,2.0352730335291573,[2.31950407],0.005,0.1,3.2690390211151183,0.026031880258950545,0
5.566765785217285,2.034882236095684,[2.32029033],0.005,0.1,3.531744282431954,0.02583328047026098,0
5.5816638469696045,2.0344914386622106,[2.32104056],0.005,0.1,3.842726723173665,0.025737188805876512,0
5.595631837844849,2.0341006412287372,[2.32175454],0.005,0.1,4.06405503127117,0.025711547139285522,0
5.617074966430664,2.033709843795264,[2.32243301],0.005,0.1,4.165693669743473,0.02636691009794254,0
5.630246877670288,2.0333190463617905,[2.32307755],0.005,0.1,4.159492569249794,0.026174133948264768,0
5.6405017375946045,2.032928248928317,[2.32368846],0.005,0.1,3.7937930113932006,0.02584013985280888,0
5.658682823181152,2.0325374514948438,[2.32426535],0.005,0.1,3.612330709800458,0.026147708106081757,0
5.672674655914307,2.0321466540613704,[2.32480878],0.005,0.1,3.4813226735096894,0.02616919607427761,0
5.686682224273682,2.031755856627897,[2.32531944],0.005,0.1,3.349676565459283,0.02623107225593184,0
5.702643871307373,2.0313650591944237,[2.32579774],0.005,0.1,2.926603280367666,0.02632855386516625,0
5.724681377410889,2.030583464327477,[2.32624454],0.005,0.1,2.7309934887504457,0.026692608681285524,0
5.739236831665039,2.0301926668940036,[2.32666098],0.005,0.1,2.613020880574255,0.02673047225642428,0
5.747163534164429,2.0299972681772673,[2.32704766],0.005,0.1,2.51110599045266,0.026723299501494505,0
5.765327215194702,2.0294110720270573,[2.32740488],0.005,0.1,2.403592242782315,0.02693085707367707,0
5.772860288619995,2.029020274593584,[2.32773318],0.005,0.1,2.2858601681252475,0.027030763485373182,0
5.794656276702881,2.028434078443374,[2.32803317],0.005,0.1,2.1597765643457985,0.027239409667709397,0
5.809780120849609,2.027847882293164,[2.32830552],0.005,0.1,1.753003974456207,0.027433266542389246,0
5.823689699172974,2.0274570848596905,[2.32855095],0.005,0.1,1.5881386351033793,0.02757803723146495,0
5.846092224121094,2.0266754899927437,[2.32876992],0.005,0.1,1.5134341812791847,0.027821947436441518,0
5.8583149909973145,2.0260892938425337,[2.32896275],0.005,0.1,1.1877558089677756,0.028036567122680527,0
5.867627143859863,2.025893895125797,[2.32913021],0.005,0.1,1.1049280156137198,0.028139030793092972,0
5.889605522155762,2.0251123002588503,[2.32927298],0.005,0.1,1.1027762532338388,0.028426412968749624,0
5.905628442764282,2.0245261041086406,[2.32939105],0.005,0.1,1.1137776926410088,0.02864836114860173,0
5.92824125289917,2.0237445092416935,[2.32948402],0.005,0.1,1.1135588572245618,0.029069799763714727,0
5.942636489868164,2.0231583130914834,[2.32955131],0.005,0.1,1.096405965757337,0.029287341092256915,0
5.9567179679870605,2.0227675156580105,[2.3295929],0.005,0.1,1.0639024860314408,0.02945693163366081,0
5.971630096435547,2.0221813195078004,[2.32960938],0.005,0.1,1.0198649482018023,0.029690346038445132,0
5.993974685668945,2.0213997246408537,[2.3296004],0.005,0.1,0.9682421964719667,0.030450838483547408,0
6.001718759536743,2.0210089272073803,[2.32956572],0.005,0.1,0.9123664223372723,0.030070369327418536,0
6.020689964294434,2.0204227310571703,[2.32950614],0.005,0.1,0.8547891750057599,0.030808274200698146,0
6.034932851791382,2.0198365349069602,[2.32942141],0.005,0.1,0.7973462601977904,0.03107246895975833,0
6.0496826171875,2.01925033875675,[2.32931098],0.005,0.1,0.741292599153542,0.03138557142827462,0
6.063642978668213,2.0188595413232773,[2.32917509],0.005,0.1,0.687440962229773,0.03157994527673067,0
6.077648878097534,2.018273345173067,[2.32901414],0.005,0.1,0.6362808965415616,0.03180700059040356,0
6.092633962631226,2.017882547739594,[2.32882873],0.005,0.1,0.5880725585134594,0.03199289953679135,0
6.108142614364624,2.017100952872647,[2.32861936],0.005,0.1,0.5429173903150927,0.032401347827874155,0
6.121958017349243,2.0167101554391738,[2.32838643],0.005,0.1,0.5008098160758073,0.032581583825775154,0
6.135605573654175,2.0163193580057,[2.32813055],0.005,0.1,0.4616742884038955,0.032655919770485486,0
6.157010078430176,2.015342364422017,[2.32785092],0.005,0.1,0.42539141852349993,0.034948030305569096,0
6.171107053756714,2.0149515669885436,[2.32754515],0.005,0.1,0.3918161527069659,0.03464218417704944,0
6.184641122817993,2.0143653708383336,[2.32721294],0.005,0.1,0.3607902420716532,0.03437079878233871,0
6.198625802993774,2.0137791746881235,[2.32685585],0.005,0.1,0.05611230424185748,0.034549154344687596,0
6.212627410888672,2.0131929785379135,[2.32647508],0.005,0.1,-0.0034277661291172573,0.0345846546736565,0
6.226622581481934,2.01280218110444,[2.32607177],0.005,0.1,0.027320303385681692,0.03461052592540197,0
6.24161434173584,2.01221598495423,[2.32564719],0.005,0.1,0.08097117709526175,0.03472996480061253,0
6.261094331741333,2.0112389913705466,[2.32520155],0.005,0.1,0.13083143362559718,0.03628408290463591,0
6.275982141494751,2.0106527952203366,[2.32473376],0.005,0.1,0.1684276854799434,0.036745286502702715,0
6.290949583053589,2.0100665990701265,[2.32424296],0.005,0.1,-0.08312785192814023,0.037253736935312656,0
6.302266359329224,2.0092850042031802,[2.32373031],0.005,0.1,-0.10295881946937704,0.03558387414500861,0
6.320375204086304,2.0085034093362335,[2.32319784],0.005,0.1,-0.31920944552570074,0.03725130853991211,0
6.3335747718811035,2.007917213186023,[2.32264599],0.005,0.1,-0.27775070964819226,0.03696796200256985,0
6.348658084869385,2.0071356183190767,[2.32207535],0.005,0.1,-0.4338920702076201,0.03683358559335602,0
6.361610412597656,2.00635402345213,[2.32148759],0.005,0.1,-0.6187870984709584,0.0367694105678697,0
6.37432599067688,2.00576782730192,[2.32088426],0.005,0.1,-0.49434694750458735,0.03670968988383277,0
6.389612197875977,2.0049862324349736,[2.32026678],0.005,0.1,-0.5640506938184834,0.036724886922784514,0
6.400874853134155,2.0042046375680265,[2.31963661],0.005,0.1,-0.4002180952524884,0.0366498061814432,0
6.41304612159729,2.003618441417817,[2.3189953],0.005,0.1,-0.4635507298983507,0.03642000172299466,0
6.428699493408203,2.0024460491173963,[2.31834414],0.005,0.1,-0.5824347602969483,0.03702613738685753,0
6.442154407501221,2.00166445425045,[2.31768382],0.005,0.1,-0.41359079754994443,0.037030982067443645,0
6.455703496932983,2.0006874606667666,[2.31701512],0.005,0.1,-0.4552540440400684,0.03708285575222881,0
6.471598148345947,1.9997104670830832,[2.31633905],0.005,0.1,-0.5513215465429426,0.037128340511438505,0
6.484634160995483,1.9989288722161365,[2.31565656],0.005,0.1,-0.36400017576917987,0.0371284606897984,0
6.497781038284302,1.9979518786324533,[2.31496856],0.005,0.1,-0.3926890058168013,0.03717427312150208,0
6.512783050537109,1.9967794863320332,[2.31427589],0.005,0.1,-0.48076997475006567,0.037274497323713705,0
6.52457332611084,1.9958024927483498,[2.31357933],0.005,0.1,-0.2894322289315014,0.03733224875068426,0
6.534504652023315,1.9950208978814032,[2.31288045],0.005,0.1,-0.31704100159988635,0.03619763701103965,0
6.5506298542022705,1.9934577081475098,[2.31218058],0.005,0.1,-0.13006203471619038,0.03792890170861563,0
6.5645740032196045,1.99228531584709,[2.31147922],0.005,0.1,-0.18398943466670326,0.03796401610299669,0
6.580644130706787,1.9909175248299331,[2.31077591],0.005,0.1,-0.3030346055312478,0.03808646099851285,0
6.593644142150879,1.989745132529513,[2.31007109],0.005,0.1,-0.1407543412207868,0.038206572244640524,0
6.607672691345215,1.9885727402290931,[2.30936508],0.005,0.1,-0.1930698445869894,0.03834977589041068,0
6.62061071395874,1.9874003479286733,[2.30865807],0.005,0.1,-0.0261900416917768,0.038543136272154686,0
6.644672393798828,1.9852509620445697,[2.30794776],0.005,0.1,-0.09616059190886608,0.04325932096272945,0
6.659740447998047,1.983883171027413,[2.30722969],0.005,0.1,0.04808973549472233,0.04234749752378245,0
6.683278799057007,1.9817337851433097,[2.30649981],0.005,0.1,0.23333454645955456,0.04738897081808231,0
6.697750568389893,1.9805613928428896,[2.30575446],0.005,0.1,0.3937830524902834,0.04549978701821631,0
6.710730791091919,1.9791936018257328,[2.30499377],0.005,0.1,0.234998175877816,0.042887278042317095,0
6.722931146621704,1.9782166082420496,[2.30422167],0.005,0.1,0.27680765817875747,0.04159596700227375,0
6.738652467727661,1.9768488172248928,[2.3034399],0.005,0.1,0.3719430305144865,0.044624637960428794,0
6.7535905838012695,1.9754810262077362,[2.3026471],0.005,0.1,0.461710302331464,0.044302060998752564,0
6.768637418746948,1.9741132351905792,[2.30184285],0.005,0.1,0.5271527405081883,0.04420824757185854,0
6.782569885253906,1.972745444173423,[2.30102814],0.005,0.1,0.2899643264344054,0.044260310906909635,0
6.797677755355835,1.9713776531562661,[2.30020377],0.005,0.1,0.2729533643714435,0.04444613403688319,0
6.816349744796753,1.969619064705636,[2.29936849],0.005,0.1,0.3267961842754762,0.048912435510587354,0
6.833611011505127,1.9682512736884794,[2.29851819],0.005,0.1,0.3893022319798,0.05076794664739275,0
6.848572731018066,1.9668834826713226,[2.29765012],0.005,0.1,0.7140884228669228,0.04951399385669534,0
6.856642961502075,1.9661018878043761,[2.29676804],0.005,0.1,0.7770120228372752,0.04948172049520739,0
6.875678539276123,1.9647340967872193,[2.29587629],0.005,0.1,0.7343362402640015,0.057078026355514656,0
6.890666723251343,1.9635617044867992,[2.29497236],0.005,0.1,0.9329921799961357,0.053975314080331245,0
6.912826061248779,1.9616077173194326,[2.294051],0.005,0.1,0.8843780399228398,0.061663947289877175,0
6.920737981796265,1.9610215211692226,[2.29311102],0.005,0.1,1.0308054439657601,0.06166219770933605,0
6.943730592727661,1.959067534001856,[2.29215476],0.005,0.1,0.9238069934396601,0.06808549281453442,0
6.958728075027466,1.9578951417014356,[2.29118123],0.005,0.1,0.7444494394210182,0.061242794104331436,0
6.981591463088989,1.9559411545340692,[2.29018674],0.005,0.1,0.5669367960682774,0.06746687719391545,0
6.994959115982056,1.9549641609503858,[2.28916905],0.005,0.1,0.6929807343128294,0.05926685759250419,0
7.0100038051605225,1.953791768649966,[2.2881299],0.005,0.1,0.6084674150748073,0.0567030886434158,0
7.024564743041992,1.952423977632809,[2.28707344],0.005,0.1,0.7409489402804109,0.05378342687871988,0
7.038457632064819,1.9516423827658624,[2.28600359],0.005,0.1,0.6332015686457451,0.05155003842877608,0
7.061275005340576,1.9498837943152325,[2.28492167],0.005,0.1,0.7370124336940348,0.05791033966143089,0
7.075481653213501,1.9489068007315489,[2.28382639],0.005,0.1,0.6043384777120576,0.05397864619218258,0
7.091621160507202,1.9477344084311288,[2.28271997],0.005,0.1,0.4134723992623609,0.05133538849640642,0
7.105561256408691,1.9467574148474456,[2.28160754],0.005,0.1,0.5112097031710356,0.04949239827120238,0
7.119606256484985,1.9457804212637622,[2.28049366],0.005,0.1,0.40113433233973184,0.0481755203222752,0
7.133616924285889,1.944803427680079,[2.27938238],0.005,0.1,0.24024398871201103,0.047219539681122705,0
7.148562669754028,1.9436310353796589,[2.2782772],0.005,0.1,0.09067746126857056,0.046591586507601424,0
7.163526773452759,1.9424586430792388,[2.27718039],0.005,0.1,-0.027913286684495893,0.04750030814156329,0
7.17561674118042,1.9416770482122923,[2.27609384],0.005,0.1,-0.11366263209037084,0.0453557169125172,0
7.189542293548584,1.940504655911872,[2.27502034],0.005,0.1,-0.4472190783425343,0.04524583837773469,0
7.198922395706177,1.9397230610449256,[2.27396391],0.005,0.1,-0.5157886976604923,0.04212935482395184,0
7.215572834014893,1.9383552700277689,[2.27292702],0.005,0.1,-0.4798148666633076,0.04620595515278716,0
7.227564096450806,1.9373782764440857,[2.27190776],0.005,0.1,-0.6872936538328213,0.045922321023804634,0
7.2405686378479,1.9364012828604023,[2.27090418],0.005,0.1,-0.6494573309651298,0.04575140164979702,0
7.255552291870117,1.9352288905599822,[2.26991618],0.005,0.1,-0.5320249560387398,0.045760884546459164,0
7.269567012786865,1.9340564982595623,[2.26894338],0.005,0.1,-0.4048905041130081,0.045848433189532384,0
7.281525611877441,1.9330795046758789,[2.26798513],0.005,0.1,-0.5699672028886856,0.04588949853334995,0
7.295638084411621,1.9317117136587219,[2.26704059],0.005,0.1,-0.514893353309505,0.046122174544315074,0
7.310701847076416,1.9303439226415653,[2.26610836],0.005,0.1,-0.39321633834038916,0.04720642121569672,0
7.323542833328247,1.9291715303411452,[2.26518699],0.005,0.1,-0.2684931408997544,0.046362294027882514,0
7.346591949462891,1.9272175431737786,[2.26427303],0.005,0.1,-0.43930292220490413,0.05333414838645539,0
7.362618684768677,1.9256543534398853,[2.26336053],0.005,0.1,-0.391510469473073,0.05172705815179088,0
7.385952472686768,1.9233095688390454,[2.26244391],0.005,0.1,-0.5537488974453937,0.05854070723089791,0
7.400767087936401,1.9219417778218884,[2.26151845],0.005,0.1,-0.4701086212416724,0.05530770908223271,0
7.416598796844482,1.920378588087995,[2.2605831],0.005,0.1,-0.5935841109957669,0.05326346054322114,0
7.430610418319702,1.9194015945043117,[2.25963999],0.005,0.1,-0.4771291653243604,0.05179231479944613,0
7.442695140838623,1.9184246009206285,[2.25869099],0.005,0.1,-0.29981750913961647,0.0508246283989795,0
7.4556849002838135,1.9170568099034717,[2.25773777],0.005,0.1,-0.13300139673501585,0.05033585404917165,0
7.468451738357544,1.9160798163197883,[2.25678174],0.005,0.1,0.00033610597633983164,0.04992395070913784,0
7.480902910232544,1.9152982214528416,[2.25582456],0.005,0.1,0.0975553375795837,0.04870685936234771,0
7.492103338241577,1.9141258291524215,[2.25486867],0.005,0.1,0.16350216783045074,0.047630213577969545,0
7.50799822807312,1.9127580381352651,[2.25391526],0.005,0.1,0.20488736108422811,0.05030405136588558,0
7.523617506027222,1.911585645834845,[2.25296304],0.005,0.1,0.5040802318523868,0.05054155620611568,0
7.537627935409546,1.9102178548176882,[2.25201095],0.005,0.1,0.5473532068733145,0.05063988204289168,0
7.557602405548096,1.908459266367058,[2.25105715],0.005,0.1,0.49342987172718655,0.055491440099379105,0
7.574966192245483,1.9068960766331648,[2.25009682],0.005,0.1,0.13649524024562942,0.05812671491106782,0
7.591026544570923,1.905528285616008,[2.24912615],0.005,0.1,0.0242089681212789,0.05661075554435307,0
7.606695175170898,1.903965095882115,[2.24814486],0.005,0.1,-0.2642950078825515,0.05584631507321254,0
7.629600286483765,1.9016203112812748,[2.24715035],0.005,0.1,-0.2755154293215934,0.06646233716393343,0
7.64367938041687,1.9002525202641178,[2.24613662],0.005,0.1,-0.19201248096547174,0.06341819871924123,0
7.658703088760376,1.8988847292469615,[2.24510189],0.005,0.1,-0.09157001795139805,0.061645363263024444,0
7.674662351608276,1.8975169382298047,[2.24404794],0.005,0.1,-0.0036582589747307798,0.060788030219124926,0
7.68780779838562,1.896149147212648,[2.24297587],0.005,0.1,0.06355927820403459,0.061419262590055285,0
7.70610785484314,1.8945859574787545,[2.24188396],0.005,0.1,0.38661759224015746,0.06845242801829285,0
7.715613842010498,1.8936089638950713,[2.24077116],0.005,0.1,0.4499977859719187,0.059015330082503425,0
7.730603456497192,1.8924365715946512,[2.23964127],0.005,0.1,0.41231941472496014,0.060236201443234196,0
7.750832796096802,1.8906779831440212,[2.23849278],0.005,0.1,0.34431124311508154,0.07643468743112398,0
7.762399673461914,1.889700989560338,[2.23731899],0.005,0.1,0.27532669347683775,0.06810301644740893,0
7.779627323150635,1.887942401109708,[2.2361176],0.005,0.1,0.21583089422300136,0.07578968424837472,0
7.792614459991455,1.8867700088092878,[2.2348871],0.005,0.1,0.16810470372050285,0.07445417168160633,0
7.807397365570068,1.8855976165088677,[2.23362637],0.005,0.1,0.13121904698676878,0.07394950575641848,0
7.821573257446289,1.8842298254917114,[2.23233628],0.005,0.1,0.10325768834214683,0.07416117565282696,0
7.845110177993774,1.8820804396076078,[2.23101197],0.005,0.1,0.0822435195645847,0.09969312935343978,0
7.856253147125244,1.8811034460239244,[2.22964585],0.005,0.1,0.34251047543584234,0.08387365226026049,0
7.8646080493927,1.8805172498737142,[2.22824235],0.005,0.1,0.3637507464446037,0.06862884181968999,0
7.887573480606079,1.8787586614230845,[2.22680649],0.005,0.1,0.8517004838359675,0.09738874836899764,0
7.90358304977417,1.8773908704059277,[2.22533126],0.005,0.1,0.8349230941348091,0.09337428363028757,0
7.925396680831909,1.8758276806720344,[2.22380702],0.005,0.1,0.9248305561021237,0.12340293623448909,0
7.940669536590576,1.8746552883716143,[2.22222556],0.005,0.1,1.0209101558596752,0.11159845537724153,0
7.95271897315979,1.8736782947879311,[2.22058826],0.005,0.1,0.8124327784827423,0.09326562932379015,0
7.967557430267334,1.8727013012042475,[2.21890271],0.005,0.1,0.8117879225070281,0.10157296568551942,0
7.977103233337402,1.8721151050540379,[2.21717536],0.005,0.1,0.8684462059878033,0.08015737421374357,0
7.994528770446777,1.8711381114703542,[2.21541202],0.005,0.1,0.9223696720403558,0.09971981915910574,0
8.004043102264404,1.8705519153201442,[2.21361566],0.005,0.1,0.9540986322665603,0.08198737812808318,0
8.021520137786865,1.8695749217364608,[2.21178903],0.005,0.1,0.9612032755865023,0.09814196466546211,0
8.03761076927185,1.868988725586251,[2.20993239],0.005,0.1,0.9474945673248008,0.09512549456678494,0
8.060436964035034,1.8680117320025675,[2.20803978],0.005,0.1,1.1943570392943155,0.1294176934493907,0
8.074541330337524,1.8674255358523575,[2.20610309],0.005,0.1,1.1878489174738724,0.11642287580619738,0
8.089594841003418,1.866643940985411,[2.20412219],0.005,0.1,0.8106994609105527,0.1076019616382458,0
8.106697797775269,1.8662531435519374,[2.20210303],0.005,0.1,0.9282102171335185,0.10557262518466828,0
8.118546962738037,1.8658623461184642,[2.20005096],0.005,0.1,0.6194592762283264,0.0964168654994318,0
8.131587982177734,1.8654715486849907,[2.19797227],0.005,0.1,0.7767579556624744,0.09392347009790326,0
8.149700403213501,1.8650807512515175,[2.19587002],0.005,0.1,0.7688784086067852,0.10501017996533507,0
8.16060495376587,1.8648853525347808,[2.19374628],0.005,0.1,0.42404368597997877,0.0872837675078179,0
8.183208227157593,1.864103757667834,[2.19160113],0.005,0.1,0.3071778295652937,0.12420602446526172,0
8.19459056854248,1.8637129602343607,[2.18943086],0.005,0.1,0.006197967156225059,0.09749020658010553,0
8.210530757904053,1.8633221628008876,[2.18723668],0.005,0.1,-0.2969548069311748,0.10891706570076724,0
8.225632905960083,1.862931365367414,[2.18502101],0.005,0.1,-0.5396447738192288,0.10203492598380025,0
8.239505529403687,1.8625405679339408,[2.18278598],0.005,0.1,-0.710278885794523,0.09716674125494255,0
8.254501104354858,1.8621497705004673,[2.18053629],0.005,0.1,-0.5407288249043971,0.09385833383972496,0
8.272168636322021,1.8617589730669941,[2.1782723],0.005,0.1,-0.5634035857005536,0.11096185508789809,0
8.282957792282104,1.8615635743502574,[2.17599355],0.005,0.1,-0.6369056915000104,0.0884554826148608,0
8.303252696990967,1.8609773782000472,[2.17369981],0.005,0.1,-0.7051659339906378,0.1223961524473242,0
8.312674045562744,1.860586580766574,[2.17139029],0.005,0.1,-0.7503068592147143,0.08477553869273723,0
8.332071542739868,1.8601957833331009,[2.16906766],0.005,0.1,-0.7704229061758135,0.11175690688145797,0
8.344219446182251,1.8598049858996273,[2.16673031],0.005,0.1,-0.7694138185395141,0.1041437200847059,0
8.353914737701416,1.8596095871828908,[2.16438059],0.005,0.1,-0.7525611983912734,0.07990837992621809,0
8.371378421783447,1.8590233910326808,[2.16202544],0.005,0.1,-1.0008165839003382,0.10102787733626384,0
8.386637926101685,1.8586325935992072,[2.15966294],0.005,0.1,-0.9992200652988477,0.09690726553271478,0
8.401519060134888,1.858241796165734,[2.15729128],0.005,0.1,-0.9054839313244585,0.09396608363424808,0
8.420012712478638,1.8574602012987873,[2.15490951],0.005,0.1,-0.7890228994792331,0.10899034226105231,0
8.430561304092407,1.857069403865314,[2.15251664],0.005,0.1,-0.6779037717764436,0.08642448359065791,0
8.44460415840149,1.8566786064318406,[2.15011795],0.005,0.1,-0.5814825262097313,0.08674997901687134,0
8.466580390930176,1.8560924102816307,[2.14770984],0.005,0.1,-0.777174604712673,0.13182795573167908,0
8.48264193534851,1.8555062141314205,[2.14527807],0.005,0.1,-0.7443812237152535,0.1185617875868101,0
8.50263524055481,1.8547246192644742,[2.142813],0.005,0.1,-0.6353136924636447,0.14301134721929193,0
8.511561393737793,1.8543338218310006,[2.14031438],0.005,0.1,-0.5147849514584264,0.09516264694461482,0
8.532860279083252,1.8537476256807905,[2.13778475],0.005,0.1,-0.683327101964718,0.1417418313008431,0
8.54622197151184,1.8533568282473172,[2.13521815],0.005,0.1,-0.3526504263605841,0.1254739333964237,0
8.559839487075806,1.852966030813844,[2.13261253],0.005,0.1,-0.1958604116760285,0.11422914363157982,0
8.57456922531128,1.8523798346636338,[2.12997458],0.005,0.1,-0.12250167965753403,0.10666757048789466,0
8.587925434112549,1.851793638513424,[2.12731026],0.005,0.1,-0.3645143192638123,0.10128236682133002,0
8.595806121826172,1.8514028410799506,[2.12463257],0.005,0.1,-0.38168160749822666,0.06194359547730525,0
8.617475748062134,1.8504258474962672,[2.12195261],0.005,0.1,-0.5946450882150698,0.10655506149475757,0
8.63017201423645,1.849839651346057,[2.11926838],0.005,0.1,-0.8230561405164724,0.08039657764425943,0
8.645633220672607,1.8490580564791106,[2.11657826],0.005,0.1,-1.0031665372446346,0.1018908021229483,0
8.659477710723877,1.8484718603289005,[2.11388073],0.005,0.1,-0.8454267893742542,0.09629122170981805,0
8.67352032661438,1.8478856641786905,[2.11117473],0.005,0.1,-0.5987247255660134,0.09178421559413925,0
8.68649673461914,1.8474948667452171,[2.10846367],0.005,0.1,-0.3630654914425682,0.08805493136780218,0
8.704710245132446,1.8467132718782704,[2.10574621],0.005,0.1,0.10465784261492275,0.10847707757626256,0
8.716296672821045,1.8463224744447972,[2.10301947],0.005,0.1,0.28094412959018616,0.08602696047273568,0
8.73209524154663,1.8457362782945872,[2.10028631],0.005,0.1,0.32652196332458827,0.09201600330762164,0
8.750580549240112,1.8449546834276405,[2.09754594],0.005,0.1,0.5934719828246834,0.10470488509135556,0
8.763562679290771,1.8441730885606937,[2.09479421],0.005,0.1,0.5978233189637392,0.09291753661345156,0
8.779478788375854,1.8435868924104835,[2.09203409],0.005,0.1,0.5096172453665528,0.08403049826739085,0
8.79461145401001,1.8431960949770103,[2.08927249],0.005,0.1,0.4022514328733656,0.07716547552746837,0
8.814597845077515,1.8424145001100636,[2.08651022],0.005,0.1,0.3042886716348898,0.09822212424890292,0
8.829813957214355,1.8418283039598535,[2.08374157],0.005,0.1,0.5003535131548105,0.09180367066358183,0
8.840890407562256,1.8414375065263802,[2.08097069],0.005,0.1,0.4718003210376028,0.06184193783620752,0
8.858002662658691,1.8408513103761703,[2.07820902],0.005,0.1,0.37068362473906236,0.07437531764545965,0
8.872499465942383,1.8400697155092236,[2.07546033],0.005,0.1,0.26096544889397977,0.06581736183329212,0
8.884012222290039,1.8396789180757502,[2.07272828],0.005,0.1,0.16619246465875512,0.059055446789277315,0
8.894007921218872,1.8392881206422769,[2.07002388],0.005,0.1,-0.1837939701279937,0.04252453283914607,0
8.908699035644531,1.838701924492067,[2.06735869],0.005,0.1,-0.2712178260626297,0.046157552303559723,0
8.920467615127563,1.8381157283418568,[2.06473847],0.005,0.1,-0.25423138506655457,0.041905374974295896,0
8.930331945419312,1.837529532191647,[2.06216921],0.005,0.1,-0.4798398353059261,0.03335525672493959,0
8.949408292770386,1.8367479373247004,[2.05965566],0.005,0.1,-0.7349401569539539,0.043803249678442166,0
8.957638263702393,1.8359663424577535,[2.0571986],0.005,0.1,-0.6662101585203242,0.03085305281603229,0
8.969528436660767,1.8353801463075436,[2.0548035],0.005,0.1,-0.7743093344992251,0.03012686105348534,0
8.98244595527649,1.8345985514405967,[2.05247494],0.005,0.1,-0.9095169491889863,0.03024213456923235,0
9.001144647598267,1.833426159140177,[2.05021017],0.005,0.1,-1.0168498309623115,0.035646163078266166,0
9.010459423065186,1.8328399629899665,[2.04800617],0.005,0.1,-1.3586499629067497,0.027805647920531227,0
9.025887489318848,1.8316675706895469,[2.04586377],0.005,0.1,-1.4186643651032775,0.029096570133584226,0
9.037534713745117,1.8308859758226002,[2.04378335],0.005,0.1,-1.3595170535224024,0.02645930216792791,0
9.058919191360474,1.82912738737197,[2.04175948],0.005,0.1,-1.2569234546633004,0.037416113869987964,0
9.066452264785767,1.8285411912217602,[2.03978721],0.005,0.1,-1.1447498536278717,0.03706798801108805,0
9.077516794204712,1.8277595963548137,[2.03787044],0.005,0.1,-1.0370674778448845,0.03242844838009778,0
9.091508865356445,1.8265872040543936,[2.03601208],0.005,0.1,-0.6628077585791115,0.029248548223206668,0
9.106509447097778,1.8252194130372366,[2.0342096],0.005,0.1,-0.5419041479481146,0.026984566510041195,0
9.119518995285034,1.8242424194535536,[2.03246038],0.005,0.1,-0.5190500405420273,0.025221840572103096,0
9.135895252227783,1.8228746284363966,[2.03075995],0.005,0.1,-0.24984319341633282,0.027987264137424823,0
9.148622035980225,1.8217022361359765,[2.02910286],0.005,0.1,-0.22550030641248234,0.024338656450584664,0
9.159973382949829,1.8205298438355566,[2.02748728],0.005,0.1,-0.005884399742976734,0.021893232390383054,0
9.180427551269531,1.8187712553849267,[2.02590968],0.005,0.1,-0.04108534989010832,0.028654311028680175,0
9.188443899154663,1.81798966051798,[2.02436607],0.005,0.1,-0.15115612320555258,0.02849084715085461,0
9.209086179733276,1.8160356733506133,[2.02285653],0.005,0.1,-0.26260765917279166,0.03314381620499683,0
9.221921443939209,1.8144724836167199,[2.02137612],0.005,0.1,-0.07413835729138371,0.030826287997005083,0
9.23586654663086,1.813104692599563,[2.01991852],0.005,0.1,-0.10005241237136102,0.02711564250052068,0
9.251477479934692,1.8115415028656698,[2.0184821],0.005,0.1,0.08716475069942906,0.024776489336581362,0
9.265431880950928,1.8101737118485133,[2.01706604],0.005,0.1,0.3063929280229267,0.02325626603454636,0
9.279431581497192,1.8088059208313563,[2.0156693],0.005,0.1,0.49059858310805204,0.022298075447659174,0
9.3019540309906,1.806656534947253,[2.01428647],0.005,0.1,0.6226407285689494,0.030957819778323827,0
9.316895484924316,1.8052887439300964,[2.0129084],0.005,0.1,0.42928816787176244,0.027778065138430542,0
9.331500768661499,1.8037255541962032,[2.01153118],0.005,0.1,0.4387823999883683,0.025796264247398747,0
9.346521854400635,1.8021623644623095,[2.01015536],0.005,0.1,0.5065240064889984,0.024637843675209558,0
9.360442161560059,1.8005991747284162,[2.00878111],0.005,0.1,0.29803371454961924,0.02399843287398737,0
9.373416185379028,1.7994267824279964,[2.00740823],0.005,0.1,0.03663350220643291,0.02365062889382406,0
9.386517524719238,1.7980589914108396,[2.00603618],0.005,0.1,0.08346109349063519,0.023645845876888238,0
9.40057897567749,1.7963004029602097,[2.00466409],0.005,0.1,-0.05639909760170217,0.023913578949700063,0
9.41292428970337,1.7951280106597896,[2.00329097],0.005,0.1,0.04691583053814584,0.0238822761769594,0
9.427521467208862,1.7933694222091594,[2.00191556],0.005,0.1,0.20834032075772818,0.02496822346327348,0
9.44141674041748,1.7918062324752662,[2.00053597],0.005,0.1,0.35530535297617605,0.0256247973607441,0
9.464814186096191,1.7892660491576893,[1.99914479],0.005,0.1,0.46542741936103277,0.04037041940387422,0
9.480800867080688,1.7873120619903229,[1.99773012],0.005,0.1,0.537177729102026,0.03745370117757906,0
9.495498657226562,1.7855534735396927,[1.99628678],0.005,0.1,0.576493641603685,0.03569742399889118,0
9.50943899154663,1.7839902838057995,[1.99481546],0.005,0.1,0.5909777311197215,0.03479143919522579,0
9.522436380386353,1.7826224927886425,[1.99331665],0.005,0.1,0.5876222638529072,0.03441961541152102,0
9.54190182685852,1.7804731069045392,[1.99178733],0.005,0.1,0.5721085309164573,0.04428555581066482,0
9.559529066085815,1.7785191197371728,[1.99021879],0.005,0.1,0.5487621433213326,0.050626673401434036,0
9.575074434280396,1.7769559300032791,[1.98860431],0.005,0.1,0.5207443088493243,0.046345953016363586,0
9.589479446411133,1.7755881389861226,[1.98694447],0.005,0.1,0.49029672532643254,0.04350960249225226,0
9.605422973632812,1.7738295505354924,[1.98524281],0.005,0.1,0.7350066024532982,0.04185597134644717,0
9.620431900024414,1.7724617595183356,[1.98350266],0.005,0.1,1.0130022260258233,0.04075892423488697,0
9.637844324111938,1.7707031710677057,[1.98172413],0.005,0.1,0.9607023050840915,0.049810985241801685,0
9.653501749038696,1.7691399813338122,[1.97990126],0.005,0.1,0.8004557761266773,0.057878192211972275,0
9.668504238128662,1.7675767915999188,[1.97802923],0.005,0.1,0.9023301702552874,0.05188616873326425,0
9.684480667114258,1.7660136018660257,[1.97611086],0.005,0.1,0.7823850450114098,0.04781778890379241,0
9.698391199111938,1.7644504121321325,[1.9741524],0.005,0.1,0.6044149877857995,0.045097524834374556,0
9.712484121322632,1.7630826211149755,[1.97215958],0.005,0.1,0.43432223348150756,0.043212072688004026,0
9.727883577346802,1.761714830097819,[1.97013639],0.005,0.1,0.5699100869125955,0.04572058699760532,0
9.745241641998291,1.7601516403639255,[1.96808236],0.005,0.1,0.49528812316094084,0.05344206309476865,0
9.757527351379395,1.7589792480635058,[1.96599687],0.005,0.1,0.6372516735900042,0.045160437215613185,0
9.76847219467163,1.7581976531965589,[1.96388792],0.005,0.1,0.8143356649206456,0.03488231569470338,0
9.7924222946167,1.7560482673124556,[1.96176036],0.005,0.1,0.9593104518897464,0.05797131080040432,0
9.806557178497314,1.7548758750120355,[1.95960749],0.005,0.1,0.7788507804289382,0.052588536129873964,0
9.821826219558716,1.7537034827116156,[1.95742666],0.005,0.1,0.79458070124477,0.05146690880185898,0
9.835566997528076,1.7529218878446686,[1.95522248],0.005,0.1,0.5849216577250733,0.04568717095014801,0
9.849557399749756,1.7517494955442485,[1.9530004],0.005,0.1,0.6115418857440476,0.044340907930512694,0
9.871399164199829,1.749795508376882,[1.95075811],0.005,0.1,0.4258093335672757,0.06848687904747959,0
9.886437892913818,1.748623116076462,[1.94848587],0.005,0.1,0.20187865907824518,0.06005437803360889,0
9.900457859039307,1.7476461224927786,[1.94618263],0.005,0.1,0.00577247344862479,0.05422559375749306,0
9.915092706680298,1.7464737301923585,[1.9438547],0.005,0.1,0.13185503849869554,0.05041448710530323,0
9.934756517410278,1.745105939175202,[1.94150236],0.005,0.1,0.060106073767409327,0.06666414634914056,0
9.944108247756958,1.7443243443082552,[1.9391256],0.005,0.1,-0.06243361313970817,0.0427525720983921,0
9.957887172698975,1.7437381481580454,[1.9367339],0.005,0.1,0.3747805506399198,0.04441313384782566,0
9.977977991104126,1.742565755857625,[1.93432951],0.005,0.1,0.3525906772575369,0.0628090395326927,0
9.991923570632935,1.7413933635572052,[1.93190486],0.005,0.1,0.45849605140322297,0.05542716743261182,0
10.002532482147217,1.7410025661237318,[1.92946264],0.005,0.1,0.5800241215484203,0.04338520115331454,0
10.017673015594482,1.7400255725400484,[1.92701134],0.005,0.1,0.4004937173406084,0.0478313477753356,0
10.03357195854187,1.7392439776731017,[1.92455439],0.005,0.1,0.42936569626120813,0.04425731053420134,0
10.04640007019043,1.7384623828061552,[1.92209509],0.005,0.1,0.5147051781991236,0.041423013778601414,0
10.060402631759644,1.7376807879392087,[1.91963864],0.005,0.1,0.595836232402007,0.039119867382474555,0
10.073393106460571,1.737289990505735,[1.91718982],0.005,0.1,0.37700887810815864,0.03701306451545857,0
10.08806586265564,1.7365083956387886,[1.91475319],0.005,0.1,0.37468636673557537,0.034644471449792505,0
10.103396892547607,1.7357268007718416,[1.9123329],0.005,0.1,0.16198509586491852,0.033820120232991205,0
10.1252281665802,1.7345544084714217,[1.90992683],0.005,0.1,0.1960496444296143,0.047617638978703115,0
10.133955955505371,1.7341636110379486,[1.90753253],0.005,0.1,0.024709567213363398,0.02922586241162769,0
10.15022587776184,1.7333820161710016,[1.90515696],0.005,0.1,-0.18051269963982713,0.03179610639772608,0
10.1650230884552,1.7326004213040551,[1.90280311],0.005,0.1,-0.3554866484583237,0.035975495426911315,0
10.180146932601929,1.7316234277203715,[1.90046743],0.005,0.1,-0.48320974881263096,0.034029571081034354,0
10.195369720458984,1.7308418328534252,[1.89815053],0.005,0.1,-0.5656521699084058,0.030218733281963728,0
10.2103750705719,1.730255636703215,[1.89585654],0.005,0.1,-0.6110623262358308,0.02733503961422662,0
10.225381135940552,1.7294740418362682,[1.89358989],0.005,0.1,-0.6285874156908149,0.025172537635933332,0
10.240903854370117,1.7288878456860584,[1.89135393],0.005,0.1,-0.35022233794944135,0.02426894739522689,0
10.254364967346191,1.727910852102375,[1.8891514],0.005,0.1,-0.3013056827649945,0.021961861940584,0
10.267683267593384,1.727324655952165,[1.88698468],0.005,0.1,-0.3319499159357508,0.022001537074378907,0
10.286123037338257,1.7263476623684817,[1.88485152],0.005,0.1,-0.37840695186319606,0.02786563731213108,0
10.294825792312622,1.7261522636517448,[1.88275013],0.005,0.1,-0.1405496303510502,0.017845503879803454,0
10.31009554862976,1.725566067501535,[1.88068446],0.005,0.1,-0.1306877409451312,0.020780970989623147,0
10.319380283355713,1.7251752700680614,[1.87865755],0.005,0.1,-0.19454588677320678,0.016244089019116743,0
10.339113473892212,1.7243936752011149,[1.87666804],0.005,0.1,0.008364074080675021,0.023068572482063728,0
10.34738278388977,1.7241982764843784,[1.87471542],0.005,0.1,-0.017518255843747027,0.022806843935515984,0
10.355425834655762,1.7236120803341684,[1.87281057],0.005,0.1,-0.11194384164301187,0.0225539099121719,0
10.36335015296936,1.7232212829006948,[1.87097078],0.005,0.1,0.06688219124627415,0.022302756186103154,0
10.37136459350586,1.723025884183958,[1.86920986],0.005,0.1,0.022877353130681122,0.02201339556601529,0
10.379380941390991,1.7228304854672214,[1.86753843],0.005,0.1,-0.08479263444409649,0.02173430120724418,0
10.387369632720947,1.7224396880337483,[1.86596434],0.005,0.1,0.08455036878649409,0.021537877214538634,0
10.395406246185303,1.7222442893170116,[1.86449295],0.005,0.1,0.033863420338475676,0.021308838020890376,0
10.40344500541687,1.722048890600275,[1.86312748],0.005,0.1,-0.07844901338898291,0.021092483934630587,0
10.411441087722778,1.7216580931668013,[1.86186925],0.005,0.1,-0.18832410280754874,0.020930333219922236,0
10.419389247894287,1.7216580931668013,[1.86071803],0.005,0.1,0.0017601485432571506,0.02074211891302609,0
10.42743706703186,1.7212672957333282,[1.8596722],0.005,0.1,-0.023744181596055583,0.02063227420146836,0
10.435465335845947,1.7210718970165915,[1.85872904],0.005,0.1,-0.1135372820695619,0.020498607975546812,0
10.44344425201416,1.720681099583118,[1.85788493],0.005,0.1,-0.20560823011588075,0.02041629971058417,0
10.45144248008728,1.7204857008663814,[1.85713551],0.005,0.1,-0.2784518661904559,0.020314034995193325,0
10.459545373916626,1.720290302149645,[1.85647588],0.005,0.1,-0.3279225945616707,0.020227568584383102,0
10.467545986175537,1.7200949034329083,[1.85590071],0.005,0.1,-0.3565327371271344,0.02015664086117073,0
10.475530624389648,1.7198995047161716,[1.85540443],0.005,0.1,-0.36871145113018067,0.020100369246706412,0
10.483537197113037,1.719508707282698,[1.85498128],0.005,0.1,-0.09282239238330862,0.02012138990103835,0
10.491523504257202,1.7193133085659613,[1.85462547],0.005,0.1,-0.05151892294295029,0.02010563483687616,0
10.49953579902649,1.7191179098492249,[1.8543312],0.005,0.1,-0.09298144537763858,0.020094031027641766,0
10.50753378868103,1.7187271124157517,[1.85409278],0.005,0.1,-0.1521009605889745,0.02012562948066094,0
10.515537023544312,1.7187271124157517,[1.85390469],0.005,0.1,-0.20384810805716622,0.020092775271521878,0
10.523537635803223,1.7185317136990148,[1.8537616],0.005,0.1,-0.24094321779642125,0.02010300831662302,0
10.531540870666504,1.7183363149822781,[1.8536584],0.005,0.1,-0.26338098192294956,0.020120648413155202,0
10.53953242301941,1.7179455175488048,[1.85359029],0.005,0.1,-0.2736753337950585,0.020180964068361555,0
10.547440528869629,1.717750118832068,[1.85355272],0.005,0.1,-0.550857835738688,0.0201834642694656,0
10.555525779724121,1.7175547201153312,[1.85354148],0.005,0.1,-0.5786649929285119,0.020203977723484763,0
10.563477516174316,1.7173593213985947,[1.85355263],0.005,0.1,-0.5139459493263976,0.02023570402571808,0
10.571465730667114,1.7169685239651216,[1.85358259],0.005,0.1,-0.42556273596176974,0.02031087387904934,0
10.579464673995972,1.7167731252483849,[1.85362805],0.005,0.1,-0.3412457176413437,0.020354781840414376,0
10.587410688400269,1.7165777265316482,[1.85368604],0.005,0.1,-0.27016329899434005,0.020401621758609163,0
10.595339298248291,1.7163823278149113,[1.85375388],0.005,0.1,-0.2136061213971781,0.020450813082181316,0
10.603401899337769,1.715991530381438,[1.85382916],0.005,0.1,-0.169908661704759,0.020538262246495114,0
10.611403942108154,1.7157961316647015,[1.85390975],0.005,0.1,-0.13661564457876513,0.0205907347790262,0
10.619361639022827,1.7156007329479648,[1.85399381],0.005,0.1,-0.11135914347815977,0.02064362352027753,0
10.627347707748413,1.7154053342312279,[1.85407969],0.005,0.1,-0.09215282602510513,0.020696953091978734,0
10.63533353805542,1.7150145367977547,[1.85416601],0.005,0.1,-0.07743803411033803,0.020787231922675693,0
10.643404006958008,1.714819138081018,[1.85425159],0.005,0.1,-0.06603606747338099,0.020841075706489482,0
10.651406049728394,1.7146237393642816,[1.85433542],0.005,0.1,-0.057074771427222365,0.020894296109127422,0
10.65934681892395,1.7142329419308078,[1.85441669],0.005,0.1,-0.0499171203029453,0.020984046556405088,0
10.667348623275757,1.7140375432140713,[1.85449475],0.005,0.1,-0.04410119111349038,0.021036711570901208,0
10.675402164459229,1.7138421444973346,[1.85456908],0.005,0.1,-0.03929310863968152,0.021088361815590557,0
10.683406591415405,1.7134513470638615,[1.85463928],0.005,0.1,-0.03525157117466357,0.021176400795341846,0
10.691400289535522,1.7132559483471248,[1.8547051],0.005,0.1,-0.031801734466725434,0.021226953344673734,0
10.699407577514648,1.7130605496303881,[1.85476635],0.005,0.1,-0.028816273563482243,0.021276319365174434,0
10.7075355052948,1.7126697521969145,[1.85482294],0.005,0.1,-0.026201783958198145,0.021362121990168046,0
10.715428113937378,1.712474353480178,[1.85487486],0.005,0.1,-0.02388907872836747,0.021410213292744118,0
10.723365783691406,1.712474353480178,[1.85492216],0.005,0.1,-0.02182629311635732,0.02141973379918217,0
10.731422424316406,1.7122789547634414,[1.85496494],0.005,0.1,-0.019973995370174344,0.02146537556951315,0
10.739405155181885,1.7120835560467045,[1.85500335],0.005,0.1,-0.018301723344117907,0.02151058895585584,0
10.747417449951172,1.7116927586132313,[1.85503755],0.005,0.1,-0.016785530604761015,0.021592520334902783,0
10.755408763885498,1.7114973598964947,[1.85506776],0.005,0.1,-0.015406245648948916,0.021636655674068736,0
10.763411521911621,1.7113019611797582,[1.8550942],0.005,0.1,-0.014148234193249952,0.02167973240423321,0
10.771434783935547,1.7109111637462844,[1.85511711],0.005,0.1,-0.012998516170850183,0.02175978795404204,0
10.779428720474243,1.710715765029548,[1.85513674],0.005,0.1,-0.0119461328641833,0.02180203286585628,0
10.787400722503662,1.7105203663128112,[1.85515334],0.005,0.1,-0.010981690569877037,0.021843355213478848,0
10.79537296295166,1.710129568879338,[1.85516717],0.005,0.1,-0.01009702903062806,0.021921938851442484,0
10.803412199020386,1.7099341701626012,[1.85517846],0.005,0.1,-0.009284978238600007,0.021962712156117364,0
10.811382532119751,1.7097387714458647,[1.85518747],0.005,0.1,-0.008539178018798176,0.022002702396871663,0
10.819350481033325,1.709543372729128,[1.85519444],0.005,0.1,-0.007853942388789961,0.022042324380984458,0
10.827435731887817,1.7091525752956547,[1.85519958],0.005,0.1,-0.0072241560177288755,0.02211956593702451,0
10.835399150848389,1.708957176578918,[1.85520312],0.005,0.1,-0.006645193846341994,0.022159000208959497,0
10.843516111373901,1.708761777862181,[1.85520525],0.005,0.1,-0.0061128575536542815,0.02219781789958804,0
10.851455926895142,1.708370980428708,[1.85520616],0.005,0.1,-0.005623324398877844,0.022274503978132715,0
10.859492063522339,1.7081755817119713,[1.85520603],0.005,0.1,-0.005173105261128371,0.022313357029127148,0
10.867498397827148,1.7079801829952348,[1.85520503],0.005,0.1,-0.004759009609900852,0.022351694149835684,0
10.875511407852173,1.707784784278498,[1.8552033],0.005,0.1,0.27166024389893406,0.022419858361902655,0
10.883502960205078,1.707589385561761,[1.85520097],0.005,0.1,0.30513521746577293,0.02247333619021994,0
10.891494750976562,1.7073939868450245,[1.85519817],0.005,0.1,0.25036026530400235,0.02251914025220105,0
10.899428129196167,1.7070031894115512,[1.85519501],0.005,0.1,0.1745717547847002,0.022599477745272333,0
10.907399892807007,1.7068077906948147,[1.85519158],0.005,0.1,0.10432183441553072,0.022639915435160647,0
10.915409326553345,1.7066123919780778,[1.85518797],0.005,0.1,0.04795096293185552,0.022679012373102988,0
10.923330783843994,1.706416993261341,[1.85518425],0.005,0.1,0.006184199216026198,0.022717637752087273,0
10.931416034698486,1.706026195827868,[1.8551805],0.005,0.1,-0.023018567083135738,0.02279460999629717,0
10.939409971237183,1.7058307971111315,[1.85517675],0.005,0.1,-0.042350977812301856,0.022833355189107507,0
10.94740343093872,1.7056353983943944,[1.85517307],0.005,0.1,-0.05432376427563121,0.022871703988950477,0
10.955408573150635,1.7054399996776577,[1.85516949],0.005,0.1,-0.061000037126028674,0.022910071900326633,0
10.963401079177856,1.705244600960921,[1.85516603],0.005,0.1,-0.06397034030597129,0.022948484139068085,0
10.971423387527466,1.7048538035274479,[1.85516273],0.005,0.1,-0.06441531956416313,0.02302571969784354,0
10.979403257369995,1.7046584048107114,[1.8551596],0.005,0.1,-0.06318961462572757,0.023064675399071498,0
10.987364053726196,1.7044630060939745,[1.85515666],0.005,0.1,-0.060900557938771395,0.023103317235414342,0
10.995379447937012,1.7040722086605014,[1.85515392],0.005,0.1,-0.05797321606404838,0.023180931402001143,0
11.003414392471313,1.7040722086605014,[1.85515137],0.005,0.1,-0.05470086272229323,0.023181201528289508,0
11.011401176452637,1.7038768099437644,[1.85514903],0.005,0.1,-0.05128275247042032,0.023219676088557482,0
11.0193612575531,1.7034860125102913,[1.8551469],0.005,0.1,-0.047851756411699906,0.023297613989839767,0
11.027410984039307,1.7032906137935544,[1.85514496],0.005,0.1,-0.044494279297393975,0.02333704793894005,0
11.035395622253418,1.7028998163600813,[1.85514321],0.005,0.1,-0.04126446458333663,0.023415281165653588,0
11.043294429779053,1.702509018926608,[1.85514165],0.005,0.1,-0.0381942483828314,0.02349407883760924,0
11.051374435424805,1.702313620209871,[1.85514027],0.005,0.1,-0.03530043300118743,0.023533805938743775,0
11.059387922286987,1.7021182214931343,[1.85513906],0.005,0.1,-0.03258963840971966,0.023573210830956894,0
11.067396879196167,1.7019228227763976,[1.855138],0.005,0.1,-0.030061751824149215,0.023612679082356206,0
11.07537841796875,1.7017274240596612,[1.85513709],0.005,0.1,-0.02771231904584482,0.023652212530817368,0
11.08337926864624,1.701336626626188,[1.85513632],0.005,0.1,-0.025534192792809267,0.023731201344437736,0
11.091472864151001,1.701336626626188,[1.85513567],0.005,0.1,-0.02351866091547372,0.023731860641791832,0
11.099415063858032,1.7009458291927144,[1.85513514],0.005,0.1,-0.02165621155281793,0.023810650157640913,0
11.10732913017273,1.700750430475978,[1.85513471],0.005,0.1,-0.019937045600162476,0.023850849695271684,0
11.115417957305908,1.7003596330425044,[1.85513437],0.005,0.1,-0.018351413889332244,0.02393028729678138,0
11.123416185379028,1.7001642343257677,[1.85513412],0.005,0.1,-0.016889833262753194,0.023970635620119474,0
11.131423711776733,1.699968835609031,[1.85513394],0.005,0.1,-0.015543219405201673,0.02401064362819113,0
11.139418601989746,1.6995780381755579,[1.85513383],0.005,0.1,-0.29034132252602896,0.0240587541815506,0
11.14738392829895,1.6993826394588212,[1.85513377],0.005,0.1,-0.32232392937194465,0.02408309228492637,0
11.155380487442017,1.6991872407420845,[1.85513375],0.005,0.1,-0.2661753639641494,0.024115129649868,0
11.163304328918457,1.6989918420253478,[1.85513378],0.005,0.1,-0.18912268415057293,0.02415123727735749,0
11.171391725540161,1.6986010445918742,[1.85513385],0.005,0.1,-0.11770941645310434,0.024229219022527775,0
11.179396390914917,1.6984056458751378,[1.85513394],0.005,0.1,-0.06026804732210765,0.024268871806101863,0
11.187382698059082,1.698210247158401,[1.85513405],0.005,0.1,-0.017516273096536854,0.024308678065688597,0
11.195390701293945,1.6980148484416642,[1.85513419],0.005,0.1,0.012592809743786286,0.024348773995239607,0
11.20338487625122,1.697624051008191,[1.85513433],0.005,0.1,0.03275910650147103,0.024429028666030146,0
11.211303472518921,1.6974286522914546,[1.85513449],0.005,0.1,0.04549912047857116,0.024469829137301412,0
11.219321966171265,1.6972332535747179,[1.85513465],0.005,0.1,0.05288127929892779,0.0245103038993598,0
11.227391958236694,1.6970378548579812,[1.85513481],0.005,0.1,0.05650102323135903,0.024550828097906846,0
11.235373497009277,1.696842456141244,[1.85513497],0.005,0.1,0.05754350594394376,0.024591397208666127,0
11.24332880973816,1.696451658707771,[1.85513513],0.005,0.1,0.05686751675701597,0.024672218156632467,0
11.251373529434204,1.6962562599910345,[1.85513529],0.005,0.1,0.05508420736287992,0.024713304826181712,0
11.25937294960022,1.695865462557561,[1.85513545],0.005,0.1,0.052622159158550175,0.02479435210648259,0
11.267321586608887,1.6956700638408244,[1.85513559],0.005,0.1,0.04977788030626057,0.024835550409753274,0
11.275479793548584,1.6954746651240877,[1.85513573],0.005,0.1,0.04675360160359196,0.024876385824325515,0
11.283403635025024,1.6950838676906144,[1.85513586],0.005,0.1,0.04368493268335899,0.024957721669943242,0
11.291301012039185,1.6948884689738777,[1.85513599],0.005,0.1,0.040660798015718855,0.02499906605960404,0
11.29939889907837,1.6946930702571408,[1.8551361],0.005,0.1,0.03773765938807119,0.02504004578905994,0
11.307376146316528,1.6943022728236676,[1.8551362],0.005,0.1,0.03494958591190146,0.02512167389779437,0
11.315416812896729,1.694106874106931,[1.8551363],0.005,0.1,0.03231534234403685,0.025163164142352843,0
11.323408842086792,1.6939114753901945,[1.85513639],0.005,0.1,0.029843354176407974,0.025204288399304883,0
11.331411838531494,1.6937160766734578,[1.85513647],0.005,0.1,0.027535169749392775,0.02524544447043205,0
11.33930778503418,1.6937160766734578,[1.85513654],0.005,0.1,0.025387863130991183,0.025245870832159345,0
11.34734320640564,1.6933252792399842,[1.8551366],0.005,0.1,0.023395693066890936,0.025327456789235057,0
11.355304956436157,1.6931298805232475,[1.85513666],0.005,0.1,0.021551240968651655,0.02536912455336262,0
11.36333417892456,1.692934481806511,[1.85513671],0.005,0.1,0.01984618506246332,0.02541042908105263,0
11.37132978439331,1.6925436843730375,[1.85513675],0.005,0.1,0.018271821131534954,0.025492718693689038,0
11.379356622695923,1.692348285656301,[1.85513678],0.005,0.1,0.016819407309945144,0.025534539291437043,0
11.38733434677124,1.6921528869395643,[1.85513681],0.005,0.1,0.015480387161943193,0.025575991611789046,0
11.395289659500122,1.6919574882228277,[1.85513684],0.005,0.1,0.014246528959011719,0.025617476805419852,0
11.403333902359009,1.6915666907893543,[1.85513686],0.005,0.1,0.013110007613438852,0.02570013982485953,0
11.411313772201538,1.6913712920726174,[1.85513688],0.005,0.1,0.012063447700238242,0.025742148432045246,0
11.419289112091064,1.691175893355881,[1.85513689],0.005,0.1,0.011099940379367797,0.025783787515749012,0
11.427295207977295,1.6909804946391442,[1.8551369],0.005,0.1,0.01021304309963502,0.025825460058201594,0
11.43528437614441,1.6907850959224076,[1.8551369],0.005,0.1,0.009396768219104266,0.02586717021827773,0
11.443379402160645,1.6903942984889342,[1.85513691],0.005,0.1,0.008645564759790645,0.025950286262335844,0
11.45132064819336,1.6901988997721975,[1.85513691],0.005,0.1,0.007954296178260418,0.02599252383518283,0
11.459319829940796,1.690003501055461,[1.85513691],0.005,0.1,0.007318216103729933,0.02603439031000179,0
11.467280149459839,1.6896127036219875,[1.85513691],0.005,0.1,0.006732943349362324,0.026117811419617824,0
11.475319147109985,1.6896127036219875,[1.8551369],0.005,0.1,0.00619443705523049,0.026118644874910092,0
11.483318567276001,1.689221906188514,[1.8551369],0.005,0.1,0.005698972512518309,0.026201808051790267,0
11.491286516189575,1.6890265074717774,[1.85513689],0.005,0.1,0.0052431180067233595,0.026244273886269508,0
11.499386072158813,1.688831108755041,[1.85513689],0.005,0.1,0.004823712872837574,0.02628637097344916,0
11.507286787033081,1.6884403113215678,[1.85513688],0.005,0.1,0.004437846857672036,0.026370253285973255,0
11.515321016311646,1.6882449126048311,[1.85513687],0.005,0.1,0.004082840819324848,0.026412879740520333,0
11.52333116531372,1.688049513888094,[1.85513687],0.005,0.1,0.003756228750963905,0.026455132147354697,0
11.5313138961792,1.6876587164546208,[1.85513686],0.005,0.1,0.0034557410889174177,0.02653932428860728,0
11.539263486862183,1.6874633177378842,[1.85513685],0.005,0.1,0.0031792892484233046,0.026582108271816004,0
11.547289609909058,1.6874633177378842,[1.85513684],0.005,0.1,0.002924951321185394,0.026582534620075485,0
11.555282831192017,1.6872679190211477,[1.85513684],0.005,0.1,0.2787293185430203,0.026658709417082656,0
11.563275575637817,1.686877121587674,[1.85513683],0.005,0.1,0.3116386475495092,0.02676077751642546,0
11.571377038955688,1.6866817228709376,[1.85513682],0.005,0.1,0.2563433379688263,0.026812542020628292,0
11.579394340515137,1.686290925437464,[1.85513682],0.005,0.1,0.18007612352777844,0.0269018185312577,0
11.587369203567505,1.686290925437464,[1.85513681],0.005,0.1,-0.16665254669552076,0.0268704440683515,0
11.59532642364502,1.6860955267207276,[1.85513681],0.005,0.1,-0.2565531680992549,0.026896239764204175,0
11.603366613388062,1.685704729287254,[1.8551368],0.005,0.1,-0.24359540169918065,0.026972994924353094,0
11.611367225646973,1.6855093305705175,[1.8551368],0.005,0.1,-0.19705606522191238,0.027012055621757604,0
11.61930775642395,1.6851185331370444,[1.8551368],0.005,0.1,-0.14618126432780104,0.02709520967827332,0
11.627384185791016,1.6849231344203075,[1.85513679],0.005,0.1,-0.1018224808894115,0.02713747796762657,0
11.635297536849976,1.6847277357035708,[1.85513679],0.005,0.1,-0.06676815415438878,0.02717988282192697,0
11.643388986587524,1.684532336986834,[1.85513679],0.005,0.1,-0.04056896670765265,0.027222581793658763,0
11.651260614395142,1.6843369382700975,[1.85513678],0.005,0.1,0.254326207552553,0.0273002492245586,0
11.659449338912964,1.6841415395533608,[1.85513678],0.005,0.1,0.30062113228793963,0.027361040810590345,0
11.667324304580688,1.6837507421198874,[1.85513678],0.005,0.1,0.2544632873891623,0.02745581159454481,0
11.675369501113892,1.6835553434031507,[1.85513678],0.005,0.1,0.18425208175027433,0.027503915811590646,0
11.683287858963013,1.6833599446864143,[1.85513678],0.005,0.1,0.11742479804346163,0.027549421503152448,0
11.691359043121338,1.6831645459696776,[1.85513677],0.005,0.1,0.0629752235265469,0.027593853793158866,0
11.699347734451294,1.682773748536204,[1.85513677],0.005,0.1,0.02210098784467712,0.02768073752015821,0
11.707306861877441,1.6825783498194673,[1.85513677],0.005,0.1,-0.006901095806894934,0.027724886690999737,0
11.71542501449585,1.6821875523859942,[1.85513677],0.005,0.1,-0.30252549713990834,0.02777632511707051,0
11.72331976890564,1.6819921536692575,[1.85513677],0.005,0.1,-0.34816498286871206,0.027802347353765636,0
11.73126769065857,1.6817967549525208,[1.85513677],0.005,0.1,-0.3004598436900617,0.027836916741624765,0
11.739346027374268,1.681601356235784,[1.85513677],0.005,0.1,-0.22815619361087436,0.027875995472656394,0
11.747370481491089,1.681210558802311,[1.85513677],0.005,0.1,-0.15893164221342676,0.027960561882433187,0
11.755486488342285,1.681015160085574,[1.85513677],0.005,0.1,-0.10194404565045886,0.028003551908592463,0
11.7633535861969,1.6806243626521005,[1.85513677],0.005,0.1,-0.05850106334335037,0.028090044123045974,0
11.771450757980347,1.680428963935364,[1.85513677],0.005,0.1,-0.026971600704856703,0.028133999781669704,0
11.779362440109253,1.6802335652186273,[1.85513677],0.005,0.1,-0.004945230092513388,0.028177708524953625,0
11.78745174407959,1.6798427677851542,[1.85513677],0.005,0.1,0.009895477232174441,0.02826501286597898,0
11.795430898666382,1.6796473690684175,[1.85513677],0.005,0.1,0.019483920859759172,0.028309380230933264,0
11.803348064422607,1.6794519703516808,[1.85513677],0.005,0.1,0.025325524237318695,0.02835337614785686,0
11.811298608779907,1.6790611729182072,[1.85513677],0.005,0.1,0.02854683412178806,0.02844106852753339,0
11.819291830062866,1.6788657742014708,[1.85513677],0.005,0.1,0.02996979861397342,0.028485632740739154,0
11.827321290969849,1.678670375484734,[1.85513677],0.005,0.1,0.03018369505295647,0.028529808617422586,0
11.835294485092163,1.6782795780512607,[1.85513677],0.005,0.1,0.029605426914763658,0.0286178365357953,0
11.843345403671265,1.678084179334524,[1.85513677],0.005,0.1,0.02852668760600758,0.028662571262972635,0
11.851292133331299,1.6778887806177873,[1.85513677],0.005,0.1,0.027149436797712527,0.02870691428245339,0
11.85929012298584,1.677497983184314,[1.85513677],0.005,0.1,0.025611949698576705,0.028795272441624643,0
11.867306232452393,1.677302584467577,[1.85513677],0.005,0.1,0.024007645666243055,0.028840175030941044,0
11.875327110290527,1.676911787034104,[1.85513677],0.005,0.1,0.022398552599561736,0.02892878556959529,0
11.883292436599731,1.6767163883173675,[1.85513677],0.005,0.1,0.020824862515302453,0.028973814279486455,0
11.891292333602905,1.6765209896006308,[1.85513678],0.005,0.1,0.019311674957205788,0.029018448452621807,0
11.899277210235596,1.676325590883894,[1.85513678],0.005,0.1,0.017873734749080397,0.029063120003795996,0
11.907274007797241,1.6761301921671574,[1.85513678],0.005,0.1,0.01651874801020519,0.029107833296247238,0
11.915286540985107,1.6757393947336838,[1.85513678],0.005,0.1,0.015249694792692156,0.029196937830640927,0
11.923293113708496,1.6755439960169474,[1.85513678],0.005,0.1,0.0140664359428752,0.029242219832173226,0
11.931297063827515,1.6753485973002107,[1.85513678],0.005,0.1,0.012966824829606689,0.029287105159341242,0
11.939284801483154,1.6749577998667373,[1.85513678],0.005,0.1,0.011947472501069385,0.02937654383864056,0
11.947267293930054,1.6747624011500006,[1.85513678],0.005,0.1,0.011004270773628543,0.02942199566674602,0
11.955277919769287,1.674567002433264,[1.85513678],0.005,0.1,0.2861711062973528,0.02950388116676305,0
11.963234186172485,1.6743716037165275,[1.85513678],0.005,0.1,0.31849126211219225,0.029567828687781367,0
11.971286058425903,1.6741762049997908,[1.85513678],0.005,0.1,0.26265206231060356,0.02962244836682777,0
11.9792640209198,1.6739808062830537,[1.85513678],0.005,0.1,0.18588317321509978,0.02967241439037189,0
11.987269163131714,1.6737854075663172,[1.85513678],0.005,0.1,0.1147304150165218,0.029720071623998243,0
11.995291709899902,1.6733946101328439,[1.85513678],0.005,0.1,0.05752831004428535,0.029811524927797588,0
12.003356456756592,1.6731992114161074,[1.85513678],0.005,0.1,0.01499637563512201,0.029857992824101728,0
12.011317491531372,1.6730038126993705,[1.85513678],0.005,0.1,-0.014910652822608512,0.029903763626199623,0
12.019261837005615,1.6728084139826338,[1.85513678],0.005,0.1,-0.03489119832313922,0.02994942477772161,0
12.027343511581421,1.6724176165491607,[1.85513678],0.005,0.1,-0.047460418286475965,0.03004019719611735,0
12.035342693328857,1.6724176165491607,[1.85513678],0.005,0.1,-0.05468551461436004,0.03004114137080096,0
12.043376684188843,1.6720268191156873,[1.85513678],0.005,0.1,-0.05816080865396239,0.03013158141190318,0
12.051337957382202,1.6718314203989504,[1.85513678],0.005,0.1,-0.05907043078536274,0.030177764703121654,0
12.059255599975586,1.671636021682214,[1.85513678],0.005,0.1,-0.05827223318792975,0.0302235433062392,0
12.067254781723022,1.6712452242487406,[1.85513678],0.005,0.1,-0.05637650838307431,0.03031475527766018,0
12.075347661972046,1.671049825532004,[1.85513678],0.005,0.1,-0.053811049429752206,0.030361108332509754,0
12.08326506614685,1.6708544268152674,[1.85513678],0.005,0.1,-0.050871640688595926,0.03040705484748361,0
12.091265439987183,1.6706590280985305,[1.85513678],0.005,0.1,-0.047759848088317715,0.030453039678514218,0
12.099293947219849,1.6704636293817938,[1.85513678],0.005,0.1,-0.04461067030239133,0.03049906746363315,0
12.107247591018677,1.6700728319483205,[1.85513678],0.005,0.1,-0.04151247022238878,0.030590791731327224,0
12.115340948104858,1.669877433231584,[1.85513678],0.005,0.1,-0.0385211933362222,0.0306374052247789,0
12.123344898223877,1.669682034514847,[1.85513678],0.005,0.1,-0.035670434006807784,0.030683610492523855,0
12.131315231323242,1.6694866357981104,[1.85513678],0.005,0.1,-0.0329785203951715,0.03072985461548907,0
12.139341115951538,1.669291237081374,[1.85513678],0.005,0.1,-0.030453476446136295,0.030776142115433135,0
12.14738917350769,1.6689004396479008,[1.85513678],0.005,0.1,-0.028096481161414805,0.030868384268657973,0
12.155235528945923,1.6687050409311641,[1.85513678],0.005,0.1,-0.02590426887676788,0.030915261002881802,0
12.163259029388428,1.668509642214427,[1.85513678],0.005,0.1,-0.02387078582570061,0.03096172726104043,0
12.171264886856079,1.6683142434976903,[1.85513678],0.005,0.1,-0.02198832593764306,0.031008232639289222,0
12.179272651672363,1.6681188447809538,[1.85513678],0.005,0.1,-0.02024830297555637,0.031054781680173355,0
12.187337398529053,1.6679234460642172,[1.85513678],0.005,0.1,-0.018641769430720212,0.031101374475630397,0
12.195310115814209,1.6677280473474807,[1.85513678],0.005,0.1,-0.017159759618586054,0.03114801107305602,0
12.203266859054565,1.6675326486307438,[1.85513678],0.005,0.1,-0.0157935111972673,0.031194691519383002,0
12.211344242095947,1.6671418511972707,[1.85513678],0.005,0.1,-0.014534603009474883,0.03128771690473393,0
12.21924614906311,1.6669464524805337,[1.85513678],0.005,0.1,-0.013375035696445216,0.03133499175011225,0
12.22726583480835,1.666751053763797,[1.85513678],0.005,0.1,-0.012307273506208284,0.03138185268676611,0
12.235264539718628,1.6665556550470606,[1.85513678],0.005,0.1,-0.011324260099579254,0.03142875312745766,0
12.243302583694458,1.6663602563303237,[1.85513678],0.005,0.1,-0.010419417227334037,0.03147569765276587,0
12.251272201538086,1.666164857613587,[1.85513678],0.005,0.1,-0.009586632406162122,0.031522686354949446,0
12.259289503097534,1.6657740601801139,[1.85513678],0.005,0.1,-0.008820239804581818,0.031616326150592136,0
12.26725697517395,1.6655786614633772,[1.85513678],0.005,0.1,-0.008114997214359031,0.031663913292188976,0
12.275264978408813,1.6653832627466405,[1.85513678],0.005,0.1,-0.007466061053360472,0.0317110838291222,0
12.283259868621826,1.664992465313167,[1.85513678],0.005,0.1,-0.006868960700525891,0.03180507681754135,0
12.291360139846802,1.6647970665964305,[1.85513678],0.005,0.1,-0.0063195730165488285,0.03185284345729631,0
12.299322366714478,1.6646016678796938,[1.85513678],0.005,0.1,-0.005814097595701562,0.0319001919413393,0
12.30733871459961,1.6642108704462204,[1.85513678],0.005,0.1,-0.0053490330823904985,0.0319945395709783,0
12.315345048904419,1.6640154717294837,[1.85513678],0.005,0.1,-0.004921154741853789,0.032042486467074,0
12.323313474655151,1.6638200730127473,[1.85513678],0.005,0.1,-0.004527493376748071,0.032090013649560656,0
12.331296682357788,1.663429275579274,[1.85513678],0.005,0.1,-0.28020367529525875,0.0321455355348333,0
12.339252233505249,1.6632338768625372,[1.85513678],0.005,0.1,-0.3129950684043563,0.03217363105238163,0
12.347325086593628,1.6630384781458003,[1.85513678],0.005,0.1,-0.2575912540052383,0.03221126903104818,0
12.355406522750854,1.6628430794290636,[1.85513678],0.005,0.1,-0.18122421247624457,0.03225393602184622,0
12.363288879394531,1.6626476807123272,[1.85513678],0.005,0.1,-0.11044205915222705,0.03229914441151715,0
12.37133264541626,1.6624522819955905,[1.85513678],0.005,0.1,-0.053581544251948485,0.03234564723898337,0
12.379309177398682,1.662061484562117,[1.85513678],0.005,0.1,-0.011364316224145125,0.0324401880948541,0
12.387240648269653,1.6618660858453804,[1.85513678],0.005,0.1,0.018252871900136056,0.03248823757874343,0
12.395222663879395,1.6616706871286435,[1.85513678],0.005,0.1,0.31400490664774294,0.03257553848963104,0
12.403297185897827,1.6612798896951704,[1.85513678],0.005,0.1,0.35945305684756634,0.032691274797441154,0
12.4113187789917,1.6610844909784337,[1.85513678],0.005,0.1,0.3113547710028596,0.0327499645265572,0
12.41921091079712,1.6610844909784337,[1.85513678],0.005,0.1,0.23853694981027587,0.03275549212401498,0
12.427235841751099,1.6606936935449603,[1.85513678],0.005,0.1,0.16873238086454384,0.03285349329329663,0
12.435247659683228,1.6604982948282236,[1.85513678],0.005,0.1,0.1111361586716132,0.032903517707811865,0
12.443289756774902,1.6601074973947505,[1.85513678],0.005,0.1,0.0670806724456848,0.033000387340130354,0
12.451242446899414,1.6599120986780134,[1.85513678],0.005,0.1,0.0349508775147039,0.03304960949858046,0
12.459279775619507,1.659716699961277,[1.85513678],0.005,0.1,0.012346405687411648,0.03309824555998303,0
12.467236042022705,1.6595213012445402,[1.85513678],0.005,0.1,-0.003044219321562537,0.033146843551427364,0
12.475216150283813,1.659130503811067,[1.85513678],0.005,0.1,-0.013151236271469675,0.03324357240344497,0
12.483238935470581,1.6589351050943304,[1.85513678],0.005,0.1,-0.01947878337061678,0.033292729350119864,0
12.491239786148071,1.6587397063775937,[1.85513678],0.005,0.1,-0.023153361828537996,0.03334144635100742,0
12.499253511428833,1.658544307660857,[1.85513678],0.005,0.1,-0.024997674135033888,0.03339019963259766,0
12.507245302200317,1.6583489089441203,[1.85513678],0.005,0.1,-0.02560224931291471,0.03343899643638138,0
12.515226602554321,1.6581535102273839,[1.85513678],0.005,0.1,-0.02538553285983374,0.033487838098926276,0
12.523248434066772,1.657958111510647,[1.85513678],0.005,0.1,-0.024640910233349415,0.033536725289596094,0
12.531229496002197,1.6575673140771736,[1.85513678],0.005,0.1,-0.02357208919526041,0.03363414804865603,0
12.539234161376953,1.657371915360437,[1.85513678],0.005,0.1,-0.0223190871955243,0.03368365794201224,0
12.547256469726562,1.6571765166437002,[1.85513678],0.005,0.1,-0.020977020259747237,0.03373273450667961,0
12.5552396774292,1.6571765166437002,[1.85513678],0.005,0.1,-0.019609542889243357,0.033733225310847895,0
12.563232183456421,1.6569811179269638,[1.85513678],0.005,0.1,-0.018258389544478542,0.033781857550265436,0
12.571247339248657,1.656785719210227,[1.85513678],0.005,0.1,-0.016950110996980752,0.03383101716428162,0
12.57924747467041,1.6563949217767535,[1.85513678],0.005,0.1,-0.015700809726256267,0.03392899342524732,0
12.587237358093262,1.6561995230600168,[1.85513678],0.005,0.1,-0.01451945666337932,0.03397878466156882,0
12.595290184020996,1.6560041243432801,[1.85513678],0.005,0.1,-0.013410206525419502,0.0340281402027995,0
12.603307723999023,1.6558087256265437,[1.85513678],0.005,0.1,-0.012374008577181591,0.03407753758947396,0
12.611392974853516,1.6556133269098068,[1.85513678],0.005,0.1,-0.011409722941279614,0.03412698164393976,0
12.619219779968262,1.6554179281930703,[1.85513678],0.005,0.1,-0.010514890665472494,0.0341764724612152,0
12.627317428588867,1.6552225294763336,[1.85513678],0.005,0.1,-0.009686261816038606,0.03422601008897366,0
12.635233163833618,1.655027130759597,[1.85513678],0.005,0.1,-0.008920154809491666,0.03427559457438071,0
12.643227577209473,1.6546363333261238,[1.85513678],0.005,0.1,-0.008212698309887044,0.034374407992802364,0
12.651314973831177,1.6546363333261238,[1.85513678],0.005,0.1,0.2684783680499588,0.034416444462401136,0
12.659304141998291,1.6542455358926502,[1.85513678],0.005,0.1,0.30220475408115044,0.03453602717753221,0
12.667399644851685,1.6540501371759135,[1.85513678],0.005,0.1,0.24766204265161612,0.03459690773699132,0
12.675402641296387,1.6538547384591769,[1.85513678],0.005,0.1,0.17208785249951483,0.034652113151433836,0
12.683411359786987,1.6536593397424404,[1.85513678],0.005,0.1,-0.1740027915810199,0.034663455397142856,0
12.691263914108276,1.6534639410257037,[1.85513678],0.005,0.1,-0.2633161182735614,0.034693709715912555,0
12.69939637184143,1.6532685423089668,[1.85513678],0.005,0.1,-0.2498178232763018,0.03473385355727107,0
12.707300662994385,1.6530731435922303,[1.85513678],0.005,0.1,-0.2027810482650902,0.03477897274035057,0
12.715356349945068,1.6528777448754937,[1.85513678],0.005,0.1,-0.15144849736233493,0.03482660526835294,0
12.72339129447937,1.6526823461587568,[1.85513678],0.005,0.1,-0.10666850932567579,0.034875519294684236,0
12.731387376785278,1.6524869474420203,[1.85513678],0.005,0.1,-0.0712266221469586,0.034925098406536445,0
12.739299297332764,1.6522915487252834,[1.85513678],0.005,0.1,-0.04467084254269129,0.03497503414046166,0
12.747261047363281,1.6520961500085467,[1.85513678],0.005,0.1,-0.025485937591696577,0.03502517214193283,0
12.755338191986084,1.6519007512918102,[1.85513678],0.005,0.1,-0.012013754968647197,0.03507543518255959,0
12.763302564620972,1.651509953858337,[1.85513678],0.005,0.1,-0.002796618573949754,0.03517571677417928,0
12.77132534980774,1.651509953858337,[1.85513678],0.005,0.1,0.003332696443119501,0.035176700508110864,0
12.779310703277588,1.6511191564248633,[1.85513678],0.005,0.1,0.0072631707660219015,0.03527670690531061,0
12.787240505218506,1.6509237577081268,[1.85513678],0.005,0.1,0.00965167021486426,0.0353277762669122,0
12.795322179794312,1.6507283589913901,[1.85513678],0.005,0.1,0.010974018816400245,0.0353784060601819,0
12.803346633911133,1.6505329602746535,[1.85513678],0.005,0.1,0.011570132385016807,0.03542908011506742,0
12.811341285705566,1.650337561557917,[1.85513678],0.005,0.1,0.2877186547850545,0.035521749187070586,0
12.819318294525146,1.65014216284118,[1.85513678],0.005,0.1,0.3206358500366984,0.03559398638039157,0
12.827318668365479,1.6499467641244434,[1.85513678],0.005,0.1,0.2651306606483125,0.03565559775668081,0
12.835402250289917,1.649751365407707,[1.85513678],0.005,0.1,0.18851788146184859,0.03571190856535906,0
12.843254089355469,1.6495559666909703,[1.85513678],0.005,0.1,0.11740267182829066,0.035765589955908124,0
12.851317644119263,1.6493605679742336,[1.85513678],0.005,0.1,0.06016073735920387,0.035817979320683806,0
12.859453201293945,1.6493605679742336,[1.85513678],0.005,0.1,0.2935783958725728,0.03586137854610999,0
12.867319345474243,1.649165169257497,[1.85513678],0.005,0.1,0.2966777877796044,0.03593390820046311,0
12.87532925605774,1.64896977054076,[1.85513678],0.005,0.1,0.22146567992369948,0.035996075772294626,0
12.883408308029175,1.64896977054076,[1.85513678],0.005,0.1,0.13266998147766806,0.03600207283238834,0
12.891310214996338,1.6487743718240233,[1.85513678],0.005,0.1,0.05477950978863051,0.03605557987604559,0
12.899311542510986,1.6485789731072868,[1.85513678],0.005,0.1,-0.005457643381205031,0.03610826865743903,0
12.907300472259521,1.6483835743905502,[1.85513678],0.005,0.1,0.22753848251367034,0.03620281256085725,0
12.915341854095459,1.6483835743905502,[1.85513678],0.005,0.1,0.23191763887850778,0.03622535111265841,0
12.923351764678955,1.6481881756738137,[1.85513678],0.005,0.1,0.15906707967881717,0.036287353538925766,0
12.93135380744934,1.6479927769570768,[1.85513678],0.005,0.1,0.07328135335914056,0.03634441001812587,0
12.939315557479858,1.6479927769570768,[1.85513678],0.005,0.1,-0.0012495850127450803,0.0363476863309241,0
12.947247505187988,1.6479927769570768,[1.85513678],0.005,0.1,-0.05798060835462633,0.03634907201816504,0
12.95536994934082,1.6477973782403401,[1.85513678],0.005,0.1,0.17853296235704905,0.03644352153454263,0
12.963312149047852,1.6476019795236037,[1.85513678],0.005,0.1,0.1863529586917799,0.036517348715840524,0
12.971306562423706,1.6476019795236037,[1.85513678],0.005,0.1,0.11681158926923813,0.03652894531522294,0
12.979392051696777,1.6476019795236037,[1.85513678],0.005,0.1,0.3102093408705867,0.03657727095576849,0
12.987322568893433,1.6474065808068667,[1.85513678],0.005,0.1,0.27176704486824504,0.03665319632352692,0
12.99527621269226,1.6474065808068667,[1.85513678],0.005,0.1,0.1627150852395391,0.03666603144998605,0
13.003276348114014,1.6474065808068667,[1.85513678],0.005,0.1,0.325732464908407,0.03671508555857609,0
13.011267185211182,1.6474065808068667,[1.85513678],0.005,0.1,0.2654357204364244,0.0367400552034435,0
13.019224882125854,1.6474065808068667,[1.85513678],0.005,0.1,0.41754134047421104,0.03679549702351276,0
13.027344703674316,1.6474065808068667,[1.85513678],0.005,0.1,0.32809159831258916,0.03682366809321963,0
13.035299301147461,1.6474065808068667,[1.85513678],0.005,0.1,0.44995774103239855,0.03688077707261493,0
13.043339967727661,1.6474065808068667,[1.85513678],0.005,0.1,0.33527517899619497,0.036909783558003215,0
13.051372766494751,1.6474065808068667,[1.85513678],0.005,0.1,0.16219031866747835,0.03692429676087546,0
13.059271574020386,1.6474065808068667,[1.85513678],0.005,0.1,0.27727811760569987,0.03697464028409578,0
13.067264556884766,1.6474065808068667,[1.85513678],0.005,0.1,0.18392513393966609,0.037000259836114255,0
13.07528829574585,1.6474065808068667,[1.85513678],0.005,0.1,0.038984183564330505,0.0370130783202634,0
13.083193063735962,1.6474065808068667,[1.85513678],0.005,0.1,-0.09549712172285889,0.037019488706970735,0
13.091277837753296,1.6474065808068667,[1.85513678],0.005,0.1,-0.1999130078264227,0.037022694176157646,0
13.099266767501831,1.6474065808068667,[1.85513678],0.005,0.1,-0.2724098544992676,0.037024296979606144,0
13.10727858543396,1.6474065808068667,[1.85513678],0.005,0.1,-0.3175854513535875,0.037025098398543184,0
13.115312576293945,1.6474065808068667,[1.85513678],0.005,0.1,-0.34156921694777853,0.03702549911231494,0
13.123286008834839,1.6474065808068667,[1.85513678],0.005,0.1,-0.3500734668099391,0.037025699470276674,0
13.131356954574585,1.6474065808068667,[1.85513678],0.005,0.1,-0.3477766235308549,0.03702579964952658,0
13.139262676239014,1.6474065808068667,[1.85513678],0.005,0.1,-0.33826490900094697,0.03702584973921882,0
13.147226095199585,1.6474065808068667,[1.85513678],0.005,0.1,-0.3241780527809443,0.03702587478408173,0
13.155327558517456,1.6474065808068667,[1.85513678],0.005,0.1,-0.30740436698516005,0.03702588730651737,0
13.163358211517334,1.6474065808068667,[1.85513678],0.005,0.1,-0.28926366996335207,0.03702589356773624,0
13.171310901641846,1.6474065808068667,[1.85513678],0.005,0.1,-0.2706583637213471,0.037025896698345925,0
13.179360628128052,1.6474065808068667,[1.85513678],0.005,0.1,-0.25219056113176386,0.03702589826365084,0
13.187262058258057,1.6474065808068667,[1.85513678],0.005,0.1,-0.23424963047669983,0.0370258990463033,0
13.1953444480896,1.6474065808068667,[1.85513678],0.005,0.1,-0.21707613384329255,0.03702589943762956,0
13.203260898590088,1.6474065808068667,[1.85513678],0.005,0.1,-0.20080780171908674,0.037025899633292676,0
13.21126651763916,1.6474065808068667,[1.85513678],0.005,0.1,-0.185512222049814,0.03702589973112424,0
13.219183921813965,1.6474065808068667,[1.85513678],0.005,0.1,-0.1712098821435938,0.03702589978004002,0
13.227273941040039,1.6474065808068667,[1.85513678],0.005,0.1,-0.1578902914375353,0.03702589980449791,0
13.235284090042114,1.6474065808068667,[1.85513678],0.005,0.1,-0.14552318471082926,0.037025899816726854,0
13.243220329284668,1.6474065808068667,[1.85513678],0.005,0.1,-0.1340662498870191,0.03702589982284133,0
13.251309871673584,1.6474065808068667,[1.85513678],0.005,0.1,-0.12347041303382103,0.03702589982589857,0
13.259264707565308,1.6474065808068667,[1.85513678],0.005,0.1,-0.1136834137728619,0.03702589982742719,0
13.267265558242798,1.6474065808068667,[1.85513678],0.005,0.1,-0.10465218911091156,0.037025899828191496,0
13.275272846221924,1.6474065808068667,[1.85513678],0.005,0.1,-0.09632443028628186,0.03702589982857364,0
13.283223152160645,1.6474065808068667,[1.85513678],0.005,0.1,-0.08864956847451341,0.037025899828764725,0
13.291361093521118,1.6474065808068667,[1.85513678],0.005,0.1,-0.0815793684234283,0.037025899828860266,0
13.29984998703003,1.6474065808068667,[1.85513678],0.005,0.1,-0.07506825504790826,0.03702589982890803,0
13.307221174240112,1.6474065808068667,[1.85513678],0.005,0.1,-0.06907346006269385,0.037025899828931924,0
13.31537389755249,1.6474065808068667,[1.85513678],0.005,0.1,-0.06355504912559654,0.03702589982894386,0
13.323361158370972,1.6474065808068667,[1.85513678],0.005,0.1,-0.058475871340534176,0.03702589982894982,0
13.331358194351196,1.6474065808068667,[1.85513678],0.005,0.1,-0.05380145995350233,0.037025899828952824,0
13.339350700378418,1.6474065808068667,[1.85513678],0.005,0.1,-0.04949990399073053,0.0370258998289543,0
13.347282648086548,1.6474065808068667,[1.85513678],0.005,0.1,-0.0455417042596083,0.037025899828955045,0
13.355255842208862,1.6474065808068667,[1.85513678],0.005,0.1,-0.04189962273287516,0.03702589982895543,0
13.363365650177002,1.6474065808068667,[1.85513678],0.005,0.1,-0.038548531285240106,0.03702589982895562,0
13.371352672576904,1.6474065808068667,[1.85513678],0.005,0.1,-0.03546526364270241,0.037025899828955704,0
13.379358530044556,1.6474065808068667,[1.85513678],0.005,0.1,-0.0326284729537758,0.03702589982895576,0
13.387352466583252,1.6474065808068667,[1.85513678],0.005,0.1,-0.030018496399362694,0.03702589982895577,0
13.395360946655273,1.6474065808068667,[1.85513678],0.005,0.1,-0.027617227584809036,0.03702589982895579,0
13.40327763557434,1.6474065808068667,[1.85513678],0.005,0.1,-0.02540799700623763,0.03702589982895579,0
13.411258697509766,1.6474065808068667,[1.85513678],0.005,0.1,-0.023375460585506238,0.0370258998289558,0
13.419272899627686,1.6474065808068667,[1.85513678],0.005,0.1,-0.02150549607651223,0.0370258998289558,0
13.42726182937622,1.6474065808068667,[1.85513678],0.005,0.1,-0.019785107026888366,0.0370258998289558,0
13.43520712852478,1.6474065808068667,[1.85513678],0.005,0.1,-0.01820233391028756,0.0370258998289558,0
13.443223237991333,1.6474065808068667,[1.85513678],0.005,0.1,-0.01674617200935087,0.0370258998289558,0
13.451239824295044,1.6474065808068667,[1.85513678],0.005,0.1,-0.015406495616923815,0.0370258998289558,0
13.459240198135376,1.6474065808068667,[1.85513678],0.005,0.1,-0.014173988125394903,0.0370258998289558,0
13.467236280441284,1.6474065808068667,[1.85513678],0.005,0.1,-0.013040077585840944,0.0370258998289558,0
13.475255012512207,1.6474065808068667,[1.85513678],0.005,0.1,-0.011996877336308068,0.0370258998289558,0
13.483237028121948,1.6474065808068667,[1.85513678],0.005,0.1,-0.011037131319537553,0.0370258998289558,0
13.491239786148071,1.6474065808068667,[1.85513678],0.005,0.1,-0.01015416373306845,0.0370258998289558,0
13.499240159988403,1.6474065808068667,[1.85513678],0.005,0.1,-0.009341832677788705,0.0370258998289558,0
13.507242679595947,1.6474065808068667,[1.85513678],0.005,0.1,-0.008594487493921641,0.0370258998289558,0
13.515271425247192,1.6474065808068667,[1.85513678],0.005,0.1,-0.007906929495657126,0.0370258998289558,0
13.52323579788208,1.6474065808068667,[1.85513678],0.005,0.1,-0.007274375836879022,0.0370258998289558,0
13.531235218048096,1.6474065808068667,[1.85513678],0.005,0.1,-0.006692426260540825,0.0370258998289558,0
13.539263486862183,1.6474065808068667,[1.85513678],0.005,0.1,-0.006157032503126037,0.0370258998289558,0
13.547184944152832,1.6474065808068667,[1.85513678],0.005,0.1,-0.0056644701432758925,0.0370258998289558,0
13.555397033691406,1.6474065808068667,[1.85513678],0.005,0.1,-0.005211312700093773,0.0370258998289558,0
13.563238859176636,1.6474065808068667,[1.85513678],0.005,0.1,-0.004794407801882241,0.0370258998289558,0
13.571258544921875,1.6474065808068667,[1.85513678],0.005,0.1,-0.004410855260188845,0.0370258998289558,0
13.579240322113037,1.6474065808068667,[1.85513678],0.005,0.1,-0.004057986897093761,0.0370258998289558,0
13.587416887283325,1.6474065808068667,[1.85513678],0.005,0.1,-0.0037333479857302792,0.0370258998289558,0
13.595250368118286,1.6474065808068667,[1.85513678],0.005,0.1,-0.003434680175154671,0.0370258998289558,0
13.603237628936768,1.6474065808068667,[1.85513678],0.005,0.1,-0.003159905780940269,0.0370258998289558,0
13.611241579055786,1.6474065808068667,[1.85513678],0.005,0.1,-0.0029071133323236237,0.0370258998289558,0
13.619166135787964,1.6474065808068667,[1.85513678],0.005,0.1,-0.002674544275438736,0.0370258998289558,0
13.62716817855835,1.6474065808068667,[1.85513678],0.005,0.1,-0.002460580740194343,0.0370258998289558,0
13.63523244857788,1.6474065808068667,[1.85513678],0.005,0.1,-0.0022637342857322893,0.0370258998289558,0
13.64327073097229,1.6474065808068667,[1.85513678],0.005,0.1,-0.0020826355462011527,0.0370258998289558,0
13.651350975036621,1.6474065808068667,[1.85513678],0.005,0.1,-0.0019160247048342724,0.0370258998289558,0
13.659245014190674,1.6474065808068667,[1.85513678],0.005,0.1,-0.0017627427300779775,0.0370258998289558,0
13.667257308959961,1.6474065808068667,[1.85513678],0.005,0.1,-0.0016217233128130535,0.0370258998289558,0
13.67522931098938,1.6474065808068667,[1.85513678],0.005,0.1,-0.0014919854485869258,0.0370258998289558,0
13.683194160461426,1.6474065808068667,[1.85513678],0.005,0.1,-0.0013726266132592147,0.0370258998289558,0
13.691167116165161,1.6474065808068667,[1.85513678],0.005,0.1,-0.0012628164845899488,0.0370258998289558,0
13.699172258377075,1.6474065808068667,[1.85513678],0.005,0.1,-0.001161791166096784,0.0370258998289558,0
13.707167625427246,1.6474065808068667,[1.85513678],0.005,0.1,-0.001068847873000861,0.0370258998289558,0
13.715270757675171,1.6474065808068667,[1.85513678],0.005,0.1,-0.000983340043295067,0.0370258998289558,0
13.723183155059814,1.6474065808068667,[1.85513678],0.005,0.1,-0.0009046728399254541,0.0370258998289558,0
13.73114824295044,1.6474065808068667,[1.85513678],0.005,0.1,-0.0008322990127972133,0.0370258998289558,0
13.739162921905518,1.6474065808068667,[1.85513678],0.005,0.1,-0.0007657150918194912,0.0370258998289558,0
13.747225046157837,1.6474065808068667,[1.85513678],0.005,0.1,-0.0007044578845061712,0.0370258998289558,0
13.755182981491089,1.6474065808068667,[1.85513678],0.005,0.1,-0.000648101253768245,0.0370258998289558,0
13.763215065002441,1.6474065808068667,[1.85513678],0.005,0.1,-0.0005962531534825827,0.0370258998289558,0
13.77118468284607,1.6474065808068667,[1.85513678],0.005,0.1,-0.0005485529012150328,0.0370258998289558,0
13.779174089431763,1.6474065808068667,[1.85513678],0.005,0.1,-0.0005046686691255716,0.0370258998289558,0
13.787178993225098,1.6474065808068667,[1.85513678],0.005,0.1,-0.0004642951756009447,0.0370258998289558,0
13.795187950134277,1.6474065808068667,[1.85513678],0.005,0.1,-0.00042715156155666105,0.0370258998289558,0
13.803181409835815,1.6474065808068667,[1.85513678],0.005,0.1,-0.00039297943663478373,0.0370258998289558,0
13.811175346374512,1.6474065808068667,[1.85513678],0.005,0.1,-0.0003615410817058597,0.0370258998289558,0
13.819153785705566,1.6474065808068667,[1.85513678],0.005,0.1,-0.0003326177951706922,0.0370258998289558,0
13.827171802520752,1.6474065808068667,[1.85513678],0.005,0.1,-0.0003060083715579474,0.0370258998289558,0
13.83521056175232,1.6474065808068667,[1.85513678],0.005,0.1,-0.00028152770183394876,0.0370258998289558,0
13.843163967132568,1.6474065808068667,[1.85513678],0.005,0.1,-0.000259005485687679,0.0370258998289558,0
13.851184844970703,1.6474065808068667,[1.85513678],0.005,0.1,-0.00023828504683297738,0.0370258998289558,0
13.859180212020874,1.6474065808068667,[1.85513678],0.005,0.1,-0.00021922224308655757,0.0370258998289558,0
13.867180824279785,1.6474065808068667,[1.85513678],0.005,0.1,-0.0002016844636397864,0.0370258998289558,0
13.875232219696045,1.6474065808068667,[1.85513678],0.005,0.1,-0.00018554970654871067,0.0370258998289558,0
13.883178234100342,1.6474065808068667,[1.85513678],0.005,0.1,-0.00017070573002488852,0.0370258998289558,0
13.891145467758179,1.6474065808068667,[1.85513678],0.005,0.1,-0.00015704927162294992,0.0370258998289558,0
13.899173498153687,1.6474065808068667,[1.85513678],0.005,0.1,-0.00014448532989315085,0.0370258998289558,0
13.907147407531738,1.6474065808068667,[1.85513678],0.005,0.1,-0.00013292650350172443,0.0370258998289558,0
13.915220260620117,1.6474065808068667,[1.85513678],0.005,0.1,-0.00012229238322160452,0.0370258998289558,0
13.923150539398193,1.6474065808068667,[1.85513678],0.005,0.1,-0.00011250899256388902,0.0370258998289558,0
13.93111801147461,1.6474065808068667,[1.85513678],0.005,0.1,-0.00010350827315878665,0.0370258998289558,0
13.939148902893066,1.64721118209013,[1.85513678],0.005,0.1,-9.522761130608979e-05,0.03707762300559489,0
13.94714903831482,1.6474065808068667,[1.85513678],0.005,0.1,-8.760940240160686e-05,0.03702641706072219,0
13.955146551132202,1.6474065808068667,[1.85513678],0.005,0.1,-8.060065020948145e-05,0.037025905001273465,0
13.963147401809692,1.6474065808068667,[1.85513678],0.005,0.1,-7.415259819272503e-05,0.037025899880678975,0
13.971164464950562,1.6474065808068667,[1.85513678],0.005,0.1,-6.82203903373085e-05,0.03702589982947303,0
13.97916293144226,1.6474065808068667,[1.85513678],0.005,0.1,-6.276275911032493e-05,0.03702589982896097,0
13.987144231796265,1.6474065808068667,[1.85513678],0.005,0.1,-5.774173838149962e-05,0.03702589982895585,0
13.995147228240967,1.6474065808068667,[1.85513678],0.005,0.1,-5.312239931098019e-05,0.0370258998289558,0
14.003158569335938,1.6474065808068667,[1.85513678],0.005,0.1,-4.8872607366102123e-05,0.0370258998289558,0
14.011153221130371,1.6474065808068667,[1.85513678],0.005,0.1,-4.496279877681423e-05,0.0370258998289558,0
14.019146203994751,1.6474065808068667,[1.85513678],0.005,0.1,-4.136577487466924e-05,0.0370258998289558,0
14.02713918685913,1.6474065808068667,[1.85513678],0.005,0.1,-3.80565128846958e-05,0.0370258998289558,0
14.035115957260132,1.6474065808068667,[1.85513678],0.005,0.1,-3.5011991853920204e-05,0.0370258998289558,0
14.043148040771484,1.6474065808068667,[1.85513678],0.005,0.1,-3.221103250560663e-05,0.0370258998289558,0
14.051154136657715,1.6474065808068667,[1.85513678],0.005,0.1,-2.9634149905158187e-05,0.0370258998289558,0
14.059123754501343,1.6474065808068667,[1.85513678],0.005,0.1,-2.7263417912745628e-05,0.0370258998289558,0
14.067143201828003,1.6474065808068667,[1.85513678],0.005,0.1,-2.5082344479725935e-05,0.0370258998289558,0
14.075157880783081,1.6474065808068667,[1.85513678],0.005,0.1,-2.307575692134789e-05,0.0370258998289558,0
14.083143711090088,1.6474065808068667,[1.85513678],0.005,0.1,-2.1229696367640055e-05,0.0370258998289558,0
14.091126203536987,1.6474065808068667,[1.85513678],0.005,0.1,-1.953132065822887e-05,0.0370258998289558,0
14.09912896156311,1.6474065808068667,[1.85513678],0.005,0.1,-1.796881500557054e-05,0.0370258998289558,0
14.107210636138916,1.6474065808068667,[1.85513678],0.005,0.1,-1.6531309805124894e-05,0.0370258998289558,0
14.115231275558472,1.6474065808068667,[1.85513678],0.005,0.1,-1.5208805020714929e-05,0.0370258998289558,0
14.123218059539795,1.6474065808068667,[1.85513678],0.005,0.1,-1.3992100619057727e-05,0.0370258998289558,0
