t_s,q_rad,q_des_rad,K,B,jerk,tau_Nm,ilc_ff_Nm
0.005852460861206055,-0.06369998165615451,[0.00030779],0.005,0.1,0.0,2.9810851508670675,0
0.015266180038452148,-0.06350458293941783,[0.00148732],0.005,0.1,0.0,1.3695547202908092,0
0.02310776710510254,-0.06291838678920783,[0.00369629],0.005,0.1,0.0,0.6360929757777888,0
0.035099029541015625,-0.0597920073214211,[0.00674686],0.005,0.1,1.9322685177507668,0.29414186549309207,0
0.044123172760009766,-0.056665627853634375,[0.01046929],0.005,0.1,4.924524336667669,0.1386838174385351,0
0.054093360900878906,-0.05314845095237431,[0.01471136],0.005,0.1,5.0,0.06557791745012054,0
0.06313705444335938,-0.0498266727678509,[0.01933755],0.005,0.1,5.0,0.03107116354864269,0
0.07419562339782715,-0.04591869843311751,[0.02422824],0.005,0.1,5.0,0.014287620914036387,0
0.08509063720703125,-0.04220612281512077,[0.02927884],0.005,0.1,5.0,0.0063845048312665105,0
0.09711718559265137,-0.038493547197124035,[0.03439878],0.005,0.1,5.0,0.002724885435114723,0
0.10707879066467285,-0.03536716772933732,[0.03951053],0.005,0.1,5.0,0.001207374735023979,0
0.11509251594543457,-0.03302238312849727,[0.0445487],0.005,0.1,5.0,0.000662079810721304,0
0.12409210205078125,-0.030677598527657227,[0.04945902],0.005,0.1,3.373068100976071,0.000533695794904582,0
0.13608789443969727,-0.027355820343133833,[0.0541973],0.005,0.1,0.21181468488997046,0.0005513334414562849,0
0.14828753471374512,-0.02442483959208378,[0.05872825],0.005,0.1,-3.397470606209821,0.0006320635352557655,0
0.16024088859558105,-0.02129846012429706,[0.0630247],0.005,0.1,-5.0,0.0007081473741006163,0
0.1712503433227539,-0.018758276806720344,[0.0670668],0.005,0.1,-5.0,0.0007794688060443351,0
0.1838388442993164,-0.016022694772406962,[0.07084105],0.005,0.1,-5.0,0.0008314571345793731,0
0.19678425788879395,-0.013091714021356905,[0.07433947],0.005,0.1,-5.0,0.0008569001711227614,0
0.20415616035461426,-0.011919321720936885,[0.07755896],0.005,0.1,-5.0,0.0008913302257070814,0
0.21322298049926758,-0.010356131987043523,[0.08050068],0.005,0.1,-5.0,0.0009273266158270578,0
0.22608566284179688,-0.00781594866946681,[0.08316909],0.005,0.1,-5.0,0.0009332802850567264,0
0.2341320514678955,-0.006643556369046789,[0.08557141],0.005,0.1,-5.0,0.0009484811327599144,0
0.2420947551727295,-0.005471164068626767,[0.08771736],0.005,0.1,-5.0,0.0009594364172581517,0
0.2518641948699951,-0.0042987717682067455,[0.08961853],0.005,0.1,-5.0,0.0009691442962067933,0
0.26108789443969727,-0.0033217781845233945,[0.09128785],0.005,0.1,-5.0,0.0009768295989536812,0
0.27292537689208984,-0.0019539871673667024,[0.0927392],0.005,0.1,-5.0,0.0009684136125547568,0
0.28266024589538574,-0.0009769935836833512,[0.09398712],0.005,0.1,-5.0,0.0009617784675018089,0
0.2931039333343506,0.0,[0.09504659],0.005,0.1,-5.0,0.000950206783006227,0
0.30576324462890625,0.0009769935836833512,[0.09592884],0.005,0.1,-5.0,0.0018063082037022258,0
0.31362342834472656,0.0013677910171566918,[0.09663921],0.005,0.1,-4.858069090512968,0.0023480367837425287,0
0.32361507415771484,0.0015631897338933619,[0.0971853],0.005,0.1,-4.992120437400343,0.0018382375267731697,0
0.33310532569885254,0.0019539871673667024,[0.097582],0.005,0.1,-4.853624510004178,0.0013684696792109203,0
0.34511685371398926,0.0019539871673667024,[0.0978472],0.005,0.1,-4.8714774520526305,0.001125192946619911,0
0.3540809154510498,0.0019539871673667024,[0.09799798],0.005,0.1,-4.877824941648424,0.0010525132656377485,0
0.3637878894805908,0.0019539871673667024,[0.09804935],0.005,0.1,-4.5446893935527815,0.001017834993701603,0
0.37297749519348145,0.0019539871673667024,[0.09801484],0.005,0.1,-4.110999788736041,0.00098017324871877,0
0.3811185359954834,0.0019539871673667024,[0.09790719],0.005,0.1,-3.401962445426801,0.0009391414153169864,0
0.3900926113128662,0.0019539871673667024,[0.09773851],0.005,0.1,-2.698156676206594,0.0009146100591239415,0
0.4010891914367676,0.0019539871673667024,[0.09751998],0.005,0.1,-1.8213423302017064,0.000893142630978009,0
0.4131507873535156,0.0019539871673667024,[0.09726187],0.005,0.1,-0.7575194805719905,0.0008745053023394854,0
0.42562055587768555,0.0019539871673667024,[0.0969738],0.005,0.1,0.17348399956211202,0.0008597724280924812,0
0.43441057205200195,0.0019539871673667024,[0.09666453],0.005,0.1,1.158785533177106,0.0008504407145371707,0
0.4444549083709717,0.0019539871673667024,[0.09634182],0.005,0.1,1.9604583222279577,0.000842580928010566,0
0.4541163444519043,0.0019539871673667024,[0.09601256],0.005,0.1,2.527159325742769,0.0008365424293464736,0
0.4626338481903076,0.0019539871673667024,[0.09568286],0.005,0.1,2.8802003117382524,0.0008313572296858666,0
0.47287750244140625,0.0019539871673667024,[0.09535801],0.005,0.1,3.0628025810124946,0.0008266673971222374,0
0.4830789566040039,0.0019539871673667024,[0.09504242],0.005,0.1,3.1190755213682517,0.0008207785976842933,0
0.4942052364349365,0.0019539871673667024,[0.09473977],0.005,0.1,3.086549652888251,0.000818122302774324,0
0.5041577816009521,0.0019539871673667024,[0.09445296],0.005,0.1,2.9945718871396645,0.0008055199427568454,0
0.5122323036193848,0.0019539871673667024,[0.0941839],0.005,0.1,2.8649915233171512,0.0007967098272581691,0
0.5231587886810303,0.0019539871673667024,[0.09393288],0.005,0.1,2.7135434937613088,0.0007853255306481181,0
0.5334410667419434,0.0019539871673667024,[0.09369868],0.005,0.1,2.5512666795298085,0.0007775484011322052,0
0.5432431697845459,0.0019539871673667024,[0.09348084],0.005,0.1,2.38572039118237,0.0007681779078522191,0
0.5535762310028076,0.0019539871673667024,[0.09327994],0.005,0.1,2.2219464822614308,0.0007624109445813195,0
0.562091588973999,0.0019539871673667024,[0.09309641],0.005,0.1,2.0631969644236596,0.0007580119782367696,0
0.5731856822967529,0.0019539871673667024,[0.0929302],0.005,0.1,1.9114693453307638,0.0007537925942544964,0
0.5811777114868164,0.0019539871673667024,[0.09278086],0.005,0.1,1.7678933931174012,0.0007500337594414945,0
0.590073823928833,0.0019539871673667024,[0.09264777],0.005,0.1,1.633006987842374,0.000746720080095269,0
0.6013202667236328,0.0019539871673667024,[0.09253038],0.005,0.1,1.5069509498296392,0.0007459745102308193,0
0.6095190048217773,0.0019539871673667024,[0.09242872],0.005,0.1,1.389605525899826,0.0007546369873398175,0
0.6200971603393555,0.0019539871673667024,[0.09234303],0.005,0.1,1.2806852839405818,0.0007518340333666034,0
0.633934736251831,0.0019539871673667024,[0.09227295],0.005,0.1,1.1798045731408302,0.0007502343528092276,0
0.6430599689483643,0.0019539871673667024,[0.09221775],0.005,0.1,1.0865222715486962,0.0007495746699174372,0
0.6540982723236084,0.0019539871673667024,[0.09217677],0.005,0.1,1.000372027765337,0.0007540791525351174,0
0.668159008026123,0.0019539871673667024,[0.09214979],0.005,0.1,0.920882388582057,0.0007753230729850899,0
0.6761634349822998,0.0019539871673667024,[0.09213674],0.005,0.1,0.847589906861843,0.000767256471470109,0
0.68861985206604,0.0019539871673667024,[0.09213747],0.005,0.1,0.7800474024892321,0.0008044332568867863,0
0.6970930099487305,0.0019539871673667024,[0.09215223],0.005,0.1,0.7178288978234766,0.0008211345706202734,0
0.7077090740203857,0.0019539871673667024,[0.09218137],0.005,0.1,0.6605322901759395,0.0008411257121875219,0
0.7198424339294434,0.0019539871673667024,[0.09222498],0.005,0.1,0.6077805013391895,0.0008657866557720374,0
0.7320659160614014,0.0019539871673667024,[0.09228366],0.005,0.1,0.5592216180224262,0.0009556477631065961,0
0.740046501159668,0.0019539871673667024,[0.09235793],0.005,0.1,0.5145283786970138,0.0009041214001938742,0
0.7500557899475098,0.0019539871673667024,[0.09244695],0.005,0.1,0.4733972516642799,0.0008732914262000203,0
0.7613351345062256,0.0019539871673667024,[0.09254999],0.005,0.1,0.43554727190603754,0.0009884211290665775,0
0.7741601467132568,0.0019539871673667024,[0.0926681],0.005,0.1,0.4007187504613747,0.0010981721052421207,0
0.7820882797241211,0.0019539871673667024,[0.09280203],0.005,0.1,0.36867193266263343,0.0009986046712719223,0
0.7933566570281982,0.0019539871673667024,[0.09295126],0.005,0.1,0.3391856556276891,0.0011029207700879206,0
0.8051266670227051,0.0019539871673667024,[0.09311561],0.005,0.1,0.31205603748779387,0.0010894802898962052,0
0.8166844844818115,0.0019539871673667024,[0.09329511],0.005,0.1,0.287095218508831,0.0011683747403754261,0
0.827538251876831,0.0019539871673667024,[0.0934895],0.005,0.1,0.2641301658435859,0.001130044532443072,0
0.8353216648101807,0.0019539871673667024,[0.09369744],0.005,0.1,0.24300154794763112,0.0010215238727601587,0
0.8470897674560547,0.0019539871673667024,[0.09391711],0.005,0.1,0.22356268087224723,0.0011024773919418957,0
0.8550641536712646,0.0019539871673667024,[0.09414715],0.005,0.1,0.205678546134944,0.001008831484324504,0
0.8636264801025391,0.0019539871673667024,[0.09438584],0.005,0.1,0.1892248782569701,0.0010149317947106783,0
0.871178150177002,0.0019539871673667024,[0.09463151],0.005,0.1,0.17408731906543218,0.0010182401845397267,0
0.8834238052368164,0.0019539871673667024,[0.09488302],0.005,0.1,0.1601606352885337,0.001020393182951573,0
0.8915069103240967,0.0019539871673667024,[0.09513919],0.005,0.1,0.14734799568929724,0.0010182709664236691,0
0.9038145542144775,0.0019539871673667024,[0.0953989],0.005,0.1,0.13556030389085164,0.001016690999930724,0
0.9131584167480469,0.0019539871673667024,[0.09566107],0.005,0.1,0.12471558307927455,0.001016331244539849,0
0.9210457801818848,0.0019539871673667024,[0.09592434],0.005,0.1,0.11473840888271805,0.0009666616599993657,0
0.930443286895752,0.0019539871673667024,[0.09618715],0.005,0.1,0.10555938688695103,0.000978450948534698,0
0.9413943290710449,0.0019539871673667024,[0.09644875],0.005,0.1,0.09711467143639069,0.0010340411773362148,0
0.9541127681732178,0.0019539871673667024,[0.09670938],0.005,0.1,0.08934552257175654,0.0010715896594200663,0
0.9630427360534668,0.0019539871673667024,[0.09696859],0.005,0.1,0.08219789816120997,0.0010795091107023709,0
0.9749715328216553,0.0019539871673667024,[0.09722502],0.005,0.1,0.07562207848494909,0.0011048746758516765,0
0.9869005680084229,0.0019539871673667024,[0.09747839],0.005,0.1,0.06957232072979835,0.0011211815176882683,0
0.9987905025482178,0.0019539871673667024,[0.09772904],0.005,0.1,0.06400654103796606,0.0010851850422200536,0
1.0082647800445557,0.0019539871673667024,[0.09797669],0.005,0.1,0.05888602193151483,0.0010617249274007244,0
1.0170412063598633,0.0019539871673667024,[0.09822053],0.005,0.1,0.05417514310060389,0.0010123915873411088,0
1.026216983795166,0.0019539871673667024,[0.0984597],0.005,0.1,0.049841133699082905,0.0010203571714595327,0
1.0389931201934814,0.0019539871673667024,[0.0986941],0.005,0.1,0.04585384443572533,0.0010676400291559783,0
1.0499093532562256,0.0019539871673667024,[0.09892435],0.005,0.1,0.04218553788366563,0.001066129046037182,0
1.0610496997833252,0.0019539871673667024,[0.09915078],0.005,0.1,0.03881069555493125,0.0010715296463678658,0
1.0715551376342773,0.0019539871673667024,[0.09937356],0.005,0.1,0.03570584040190799,0.0010785680291096108,0
1.0811495780944824,0.0019539871673667024,[0.09959329],0.005,0.1,0.03284937351371519,0.0011451777316544651,0
1.089057445526123,0.0019539871673667024,[0.09981064],0.005,0.1,0.030221423873389764,0.0010913506519337507,0
1.097599983215332,0.0019539871673667024,[0.10002564],0.005,0.1,0.02780371013205892,0.00111275815215974,0
1.1054627895355225,0.0019539871673667024,[0.1002381],0.005,0.1,0.02557941343947247,0.0010786413264834412,0
1.1139194965362549,0.0019539871673667024,[0.10044793],0.005,0.1,0.023533060446899415,0.0011141115229608084,0
1.1220598220825195,0.0019539871673667024,[0.10065519],0.005,0.1,0.021650415668956775,0.0010877884623637687,0
1.1351253986358643,0.0019539871673667024,[0.10086047],0.005,0.1,0.01991838245590672,0.0012006654599394984,0
1.1493029594421387,0.0019539871673667024,[0.10106568],0.005,0.1,0.018324911887760767,0.0013161705399503012,0
1.159848690032959,0.0019539871673667024,[0.10127304],0.005,0.1,0.016858918956568495,0.001320281355768433,0
1.1723883152008057,0.0019539871673667024,[0.10148413],0.005,0.1,0.015510205453923058,0.001435669378207427,0
1.1818251609802246,0.0019539871673667024,[0.10170037],0.005,0.1,0.01426938902732525,0.0014172528827535984,0
1.1910679340362549,0.0019539871673667024,[0.10192201],0.005,0.1,0.01312783791194043,0.0013014869567445915,0
1.2021524906158447,0.0019539871673667024,[0.10214828],0.005,0.1,0.012077610883746023,0.0013309369037957646,0
1.2144711017608643,0.0019539871673667024,[0.10237955],0.005,0.1,0.01111140201637894,0.00147711923206339,0
1.2254443168640137,0.0019539871673667024,[0.10261708],0.005,0.1,0.010222489857401443,0.0014677019855677334,0
1.2356274127960205,0.0019539871673667024,[0.10286143],0.005,0.1,0.009404690670442301,0.0014715058099811487,0
1.2430510520935059,0.0019539871673667024,[0.10311205],0.005,0.1,0.008652315417950003,0.0013598909987022297,0
1.2547671794891357,0.0019539871673667024,[0.10336847],0.005,0.1,0.007960130185314149,0.0015308086004795106,0
1.2640838623046875,0.0019539871673667024,[0.10363132],0.005,0.1,0.007323319771049136,0.0015381889443672062,0
1.2761750221252441,0.0019539871673667024,[0.10390169],0.005,0.1,0.006737454189757276,0.0017089153990225002,0
1.284609317779541,0.0019539871673667024,[0.10417998],0.005,0.1,0.0061984578548511466,0.001522500879274151,0
1.2947583198547363,0.0019539871673667024,[0.10446534],0.005,0.1,0.0057025812266551755,0.0015557404617610958,0
1.3051235675811768,0.0019539871673667024,[0.10475768],0.005,0.1,0.005246374728657243,0.0017665529838478277,0
1.3161110877990723,0.0019539871673667024,[0.10505817],0.005,0.1,0.004826664750458795,0.0017622759088285012,0
1.3248615264892578,0.0019539871673667024,[0.10536661],0.005,0.1,0.004440531570487992,0.001588900759147435,0
1.3391222953796387,0.0019539871673667024,[0.10568227],0.005,0.1,0.004085289044895082,0.0018508722411148,0
1.3514409065246582,0.0019539871673667024,[0.10600654],0.005,0.1,0.0037584659213357637,0.002100958509043158,0
1.3590161800384521,0.0019539871673667024,[0.10634131],0.005,0.1,0.003457788647651507,0.002057162259502696,0
1.3720319271087646,0.0019539871673667024,[0.10668686],0.005,0.1,0.0031811655558552075,0.002034438215526174,0
1.3819103240966797,0.0019539871673667024,[0.10704199],0.005,0.1,0.0029266723113978675,0.0018027172990190813,0
1.3960304260253906,0.0019539871673667024,[0.10740568],0.005,0.1,0.00269253852649379,0.002129664875278241,0
1.4054367542266846,0.0019539871673667024,[0.10777927],0.005,0.1,0.002477135444379712,0.0024366778369223703,0
1.4130322933197021,0.0019539871673667024,[0.10816384],0.005,0.1,0.002278964608833135,0.0020636643852135895,0
1.421809434890747,0.0019539871673667024,[0.10855722],0.005,0.1,0.002096647440129146,0.0018500603206900671,0
1.435274600982666,0.0019539871673667024,[0.10895752],0.005,0.1,0.001928915644920673,0.0022271704060292776,0
1.4481234550476074,0.0019539871673667024,[0.10936615],0.005,0.1,0.0017746023933283219,0.0025623527362734536,0
1.458000898361206,0.0019539871673667024,[0.10978427],0.005,0.1,0.0016326342018629708,0.002175248274535691,0
1.4710030555725098,0.0019539871673667024,[0.11021121],0.005,0.1,0.0015020234657145692,0.0025368713604191863,0
1.4843323230743408,0.0019539871673667024,[0.11064793],0.005,0.1,0.0013818615884578509,0.002845312545150638,0
1.495058298110962,0.0019539871673667024,[0.11109671],0.005,0.1,0.0012713126613815358,0.0030952322299918848,0
1.5061249732971191,0.0019539871673667024,[0.11155864],0.005,0.1,0.0011696076484712342,0.0028974778872638365,0
1.5171105861663818,0.0019539871673667024,[0.11203294],0.005,0.1,0.0010760390365936888,0.002776167332294017,0
1.5260555744171143,0.0019539871673667024,[0.11251808],0.005,0.1,0.0009899559136663006,0.002708165494801082,0
1.5352208614349365,0.0019539871673667024,[0.1130126],0.005,0.1,0.0009107594405730712,0.002635773721828719,0
1.545018196105957,0.0019539871673667024,[0.11351426],0.005,0.1,0.0008378986853272779,0.002305356828934721,0
1.5545742511749268,0.0019539871673667024,[0.11402042],0.005,0.1,0.0007708667905011305,0.0024209301611246153,0
1.5630359649658203,0.0019539871673667024,[0.11452981],0.005,0.1,0.0007091974472610669,0.0025243387627278736,0
1.5727081298828125,0.0019539871673667024,[0.11504226],0.005,0.1,0.0006524616514802,0.002621545280026614,0
1.5817668437957764,0.0019539871673667024,[0.11555766],0.005,0.1,0.000600264719361796,0.0027025823994041394,0
1.5910065174102783,0.0019539871673667024,[0.11607508],0.005,0.1,0.0005522435418128615,0.0024043584001405315,0
1.5990407466888428,0.0019539871673667024,[0.11659192],0.005,0.1,0.000508064058467839,0.0022322463158265153,0
1.6070210933685303,0.0019539871673667024,[0.11710606],0.005,0.1,0.00046741893379041586,0.00243970030828798,0
1.6150474548339844,0.0019539871673667024,[0.11761755],0.005,0.1,0.00043002541908718564,0.0026186057758725728,0
1.6251673698425293,0.0019539871673667024,[0.11812745],0.005,0.1,0.0003956233855602136,0.002760345733458065,0
1.6350126266479492,0.0019539871673667024,[0.11863669],0.005,0.1,0.0003639735147153985,0.002877824983297419,0
1.6460230350494385,0.0019539871673667024,[0.11914612],0.005,0.1,0.00033485563353816757,0.0029795481361317615,0
1.6566908359527588,0.0019539871673667024,[0.11965744],0.005,0.1,0.0003080671828551149,0.0035483515578191684,0
1.6676487922668457,0.0019539871673667024,[0.12017307],0.005,0.1,0.0002834218082267064,0.0034896397054671744,0
1.675079107284546,0.0019539871673667024,[0.12069317],0.005,0.1,0.00026074806356856956,0.002984758121546365,0
1.6840343475341797,0.0019539871673667024,[0.12121599],0.005,0.1,0.00023988821848308422,0.0031031917786901375,0
1.6935176849365234,0.0019539871673667024,[0.12174094],0.005,0.1,0.00022069716100443776,0.0032024716596265996,0
1.7038021087646484,0.0019539871673667024,[0.12226848],0.005,0.1,0.00020304138812408284,0.0032939552268983667,0
1.7143380641937256,0.0019539871673667024,[0.12279901],0.005,0.1,0.00018679807707415653,0.003366795096333398,0
1.7223458290100098,0.0019539871673667024,[0.12333284],0.005,0.1,0.00017185423090822414,0.0034279725780552365,0
1.731031894683838,0.0019539871673667024,[0.12386924],0.005,0.1,0.0001581058924355661,0.003020731529466836,0
1.741037368774414,0.0019539871673667024,[0.12440662],0.005,0.1,0.00014545742104072096,0.0031909632231842274,0
1.7520325183868408,0.0019539871673667024,[0.12494554],0.005,0.1,0.00013382082735746307,0.0038495852354167785,0
1.7602412700653076,0.0019539871673667024,[0.1254874],0.005,0.1,0.00012311516116886615,0.0033049956648289803,0
1.772080898284912,0.0019539871673667024,[0.1260324],0.005,0.1,0.00011326594827535682,0.00394342184357687,0
1.7840452194213867,0.0019539871673667024,[0.12658157],0.005,0.1,0.00010420467241332822,0.0039033598976308385,0
1.7939538955688477,0.0019539871673667024,[0.12713577],0.005,0.1,9.586829862026205e-05,0.0038666088488488767,0
1.805091142654419,0.0019539871673667024,[0.1276956],0.005,0.1,8.819883473064117e-05,0.004414966705210465,0
1.8148458003997803,0.0019539871673667024,[0.12826144],0.005,0.1,8.114292795218996e-05,0.003696738154365583,0
1.826535701751709,0.0019539871673667024,[0.12883256],0.005,0.1,7.465149371601478e-05,0.00427271274803561,0
1.8350024223327637,0.0019539871673667024,[0.12940824],0.005,0.1,6.867937421873357e-05,0.0036322396712691915,0
1.8460626602172852,0.0019539871673667024,[0.12998775],0.005,0.1,6.318502428123479e-05,0.004222904174811564,0
1.8558986186981201,0.0019539871673667024,[0.13057041],0.005,0.1,5.8130222338735985e-05,0.0036211729317474003,0
1.8660225868225098,0.0019539871673667024,[0.13115462],0.005,0.1,5.3479804551637105e-05,0.003700387249776481,0
1.8747360706329346,0.0019539871673667024,[0.13173893],0.005,0.1,4.920142018750613e-05,0.0037504068882369423,0
1.8850176334381104,0.0019539871673667024,[0.13232293],0.005,0.1,4.526530657250571e-05,0.0037988528142769654,0
1.893014669418335,0.0019539871673667024,[0.13290536],0.005,0.1,4.1644082046705255e-05,0.003403772984726748,0
1.9064252376556396,0.0019539871673667024,[0.13348598],0.005,0.1,3.831255548296886e-05,0.004514716736414591,0
1.9140472412109375,0.0019539871673667024,[0.13406629],0.005,0.1,3.524755104433132e-05,0.0038448385414469105,0
1.925790786743164,0.0019539871673667024,[0.13464659],0.005,0.1,3.242774696078481e-05,0.0043388971179964255,0
1.9368641376495361,0.0019539871673667024,[0.13522701],0.005,0.1,2.9833527203922036e-05,0.004206807773576855,0
1.9451076984405518,0.0019539871673667024,[0.13580676],0.005,0.1,2.7446845027608293e-05,0.0036831589265885097,0
1.9530038833618164,0.0019539871673667024,[0.13638343],0.005,0.1,2.525109742539963e-05,0.003753490739793559,0
1.9639370441436768,0.0019539871673667024,[0.13695578],0.005,0.1,2.3231009631367672e-05,0.0038066452733959005,0
1.9719927310943604,0.0019539871673667024,[0.13752276],0.005,0.1,2.137252886085824e-05,0.0034756886686929346,0
1.986825704574585,0.0019539871673667024,[0.1380843],0.005,0.1,1.9662726551989567e-05,0.004435761864246048,0
1.995978593826294,0.0019539871673667024,[0.13864192],0.005,0.1,1.808970842783041e-05,0.0038737926276473165,0
2.009960889816284,0.0019539871673667024,[0.13919613],0.005,0.1,1.6642531753603973e-05,0.004318036790539478,0
2.0200114250183105,0.0019539871673667024,[0.13974732],0.005,0.1,1.5311129213315635e-05,0.0042204384162341626,0
2.0310189723968506,0.0019539871673667024,[0.14029663],0.005,0.1,1.408623887625039e-05,0.00460850948941423,0
2.04001784324646,0.0019539871673667024,[0.14084424],0.005,0.1,1.295933976615037e-05,0.004010633908501862,0
2.047996997833252,0.0019539871673667024,[0.14138873],0.005,0.1,1.1922592584858349e-05,0.004035957034621131,0
2.0579352378845215,0.0019539871673667024,[0.14192898],0.005,0.1,1.0968785178069671e-05,0.004076413881761072,0
2.067016839981079,0.0019539871673667024,[0.14246493],0.005,0.1,1.0091282363824107e-05,0.0041137026486728605,0
2.0762009620666504,0.0019539871673667024,[0.1429958],0.005,0.1,9.28397977471819e-06,0.003794127654649814,0
2.088458299636841,0.0019539871673667024,[0.14352109],0.005,0.1,8.541261392740726e-06,0.004339441796286371,0
2.098158597946167,0.0019539871673667024,[0.14404209],0.005,0.1,7.857960481321469e-06,0.004360921515256889,0
2.1060791015625,0.0019539871673667024,[0.14455915],0.005,0.1,7.229323642815751e-06,0.003984772552658697,0
2.1140055656433105,0.0019539871673667024,[0.14507109],0.005,0.1,6.6509777513904794e-06,0.004137535074912799,0
2.124028205871582,0.0019539871673667024,[0.14557787],0.005,0.1,6.118899531279255e-06,0.00427507874311756,0
2.1319942474365234,0.0019539871673667024,[0.14607957],0.005,0.1,5.629387568776904e-06,0.0039875796908851934,0
2.1420183181762695,0.0019539871673667024,[0.14657558],0.005,0.1,5.179036563274759e-06,0.004195514195972507,0
2.153358221054077,0.0019539871673667024,[0.14706724],0.005,0.1,4.764713638212773e-06,0.004861568601805159,0
2.1621463298797607,0.0019539871673667024,[0.14755757],0.005,0.1,4.383536547155748e-06,0.004895250113821863,0
2.170025110244751,0.0019539871673667024,[0.14804749],0.005,0.1,4.032853623383294e-06,0.004438569370218501,0
2.1802127361297607,0.0019539871673667024,[0.14853608],0.005,0.1,3.7102253335126306e-06,0.0046134889210373365,0
2.1899850368499756,0.0019539871673667024,[0.14902356],0.005,0.1,3.413407306831623e-06,0.004774251586005063,0
2.2003891468048096,0.0019539871673667024,[0.14951107],0.005,0.1,3.1403347222850924e-06,0.004914867043486709,0
2.210003137588501,0.0019539871673667024,[0.14999969],0.005,0.1,2.8891079445022863e-06,0.0050346285651802465,0
2.2210004329681396,0.0019539871673667024,[0.15049037],0.005,0.1,2.657979308942105e-06,0.005142079739719976,0
2.230006456375122,0.0019539871673667024,[0.15098395],0.005,0.1,2.445340964226732e-06,0.0052422553174381265,0
2.2430269718170166,0.0019539871673667024,[0.15148214],0.005,0.1,2.249713687088593e-06,0.0059975337846026435,0
2.2530322074890137,0.0019539871673667024,[0.15198736],0.005,0.1,2.0697365921215048e-06,0.005893232022167224,0
2.2620983123779297,0.0019539871673667024,[0.15249971],0.005,0.1,1.9041576647517871e-06,0.005208775324724948,0
2.271313428878784,0.0019539871673667024,[0.15301829],0.005,0.1,1.751825051571645e-06,0.00604062429328276,0
2.2803874015808105,0.0019539871673667024,[0.15354327],0.005,0.1,1.6116790474459142e-06,0.005336738272384423,0
2.292004108428955,0.0019539871673667024,[0.15407478],0.005,0.1,1.4827447236502409e-06,0.006206671429913559,0
2.3035032749176025,0.0019539871673667024,[0.15461391],0.005,0.1,1.3641251457582186e-06,0.006171434763901914,0
2.3163821697235107,0.0019539871673667024,[0.15516259],0.005,0.1,1.2549951340975619e-06,0.006966028623759266,0
2.326070547103882,0.0019539871673667024,[0.15572135],0.005,0.1,1.1545955233697564e-06,0.005967791214688945,0
2.3345232009887695,0.0019539871673667024,[0.15628853],0.005,0.1,1.062227881500175e-06,0.006061016774573543,0
2.3463051319122314,0.0019539871673667024,[0.15686368],0.005,0.1,9.772496509801624e-07,0.0069463641235985325,0
2.354001522064209,0.0019539871673667024,[0.15744738],0.005,0.1,8.990696789017513e-07,0.006040054651959373,0
2.3619906902313232,0.0019539871673667024,[0.15803698],0.005,0.1,8.271441045896101e-07,0.005499514591512124,0
2.3719890117645264,0.0019539871673667024,[0.15863016],0.005,0.1,7.609725762224416e-07,0.006525045176069087,0
2.383842706680298,0.0019539871673667024,[0.15922808],0.005,0.1,7.000947701246464e-07,0.006589889452369869,0
2.3965113162994385,0.0019539871673667024,[0.1598327],0.005,0.1,6.44087188514674e-07,0.0074789950270357,0
2.404874563217163,0.0019539871673667024,[0.16044456],0.005,0.1,5.925602134335002e-07,0.006454172522810118,0
2.4169373512268066,0.0019539871673667024,[0.16106192],0.005,0.1,5.4515539635882e-07,0.006554012196962665,0
2.4291303157806396,0.0019539871673667024,[0.16168423],0.005,0.1,5.015429646501148e-07,0.00748788934755595,0
2.4409515857696533,0.0019539871673667024,[0.16231408],0.005,0.1,4.6141952747810546e-07,0.00823397986804898,0
2.450532913208008,0.0019539871673667024,[0.16295352],0.005,0.1,4.245059652798571e-07,0.007829693194748747,0
2.457974910736084,0.0019539871673667024,[0.16359999],0.005,0.1,3.905454880574698e-07,0.007890399514269984,0
2.4678590297698975,0.0019539871673667024,[0.16424918],0.005,0.1,3.5930184901287165e-07,0.008583292143886865,0
2.47696852684021,0.0019539871673667024,[0.16489948],0.005,0.1,3.3055770109184176e-07,0.007249848774301928,0
2.4897680282592773,0.0019539871673667024,[0.16555053],0.005,0.1,3.041130850044946e-07,0.008103896691242772,0
2.5007612705230713,0.0019539871673667024,[0.16620307],0.005,0.1,2.797840382041351e-07,0.007862722262442258,0
2.5137414932250977,0.0019539871673667024,[0.16685876],0.005,0.1,2.57401315147804e-07,0.008656453780275441,0
2.5242559909820557,0.0019539871673667024,[0.167519],0.005,0.1,2.368092099359795e-07,0.008304062728865426,0
2.532243251800537,0.0019539871673667024,[0.16818397],0.005,0.1,2.1786447314110126e-07,0.008080453431476897,0
2.5414047241210938,0.0019539871673667024,[0.16885169],0.005,0.1,2.0043531528981318e-07,0.007115173589817868,0
2.5542047023773193,0.0019539871673667024,[0.16952047],0.005,0.1,1.8440049006662805e-07,0.008177063315121724,0
2.565065860748291,0.0019539871673667024,[0.17019105],0.005,0.1,1.6964845086129796e-07,0.008096550429406005,0
2.5776984691619873,0.0019539871673667024,[0.17086513],0.005,0.1,1.5607657479239426e-07,0.009078788583133279,0
2.58902645111084,0.0019539871673667024,[0.17154423],0.005,0.1,1.4359044880900282e-07,0.00879359147064952,0
2.6013505458831787,0.0019539871673667024,[0.17222966],0.005,0.1,1.321032129042826e-07,0.009739670265827761,0
2.6099395751953125,0.0019539871673667024,[0.17292149],0.005,0.1,1.2153495587193993e-07,0.008297676752274706,0
2.6209452152252197,0.0019539871673667024,[0.17361755],0.005,0.1,1.1181215940218468e-07,0.008388668042739916,0
2.6305534839630127,0.0019539871673667024,[0.17431612],0.005,0.1,1.0286718665000996e-07,0.008519403099267103,0
2.6399831771850586,0.0019539871673667024,[0.17501696],0.005,0.1,9.463781171800898e-08,0.008680495601248154,0
2.6533203125,0.0019539871673667024,[0.17572123],0.005,0.1,8.70667867805683e-08,0.010056982558023644,0
2.662992238998413,0.0019539871673667024,[0.17643004],0.005,0.1,8.010144383812267e-08,0.008725242056870523,0
2.6719608306884766,0.0019539871673667024,[0.17714203],0.005,0.1,7.369332833107286e-08,0.009017603145483413,0
2.6829731464385986,0.0019539871673667024,[0.17785758],0.005,0.1,6.779786206458708e-08,0.01072208658383093,0
2.693990468978882,0.0019539871673667024,[0.17857981],0.005,0.1,6.237403309942027e-08,0.010697838583488328,0
2.702972650527954,0.0019539871673667024,[0.17930892],0.005,0.1,5.738411045146657e-08,0.009343631793100955,0
2.7181456089019775,0.0019539871673667024,[0.18004551],0.005,0.1,5.2793381615349194e-08,0.013352117189720953,0
2.726973056793213,0.0019539871673667024,[0.18079318],0.005,0.1,4.8569911086121306e-08,0.011156005493419071,0
2.7399749755859375,0.0019539871673667024,[0.18155394],0.005,0.1,4.4684318199231665e-08,0.013618662053776886,0
2.7490904331207275,0.0019539871673667024,[0.18232836],0.005,0.1,4.110957274329313e-08,0.011515610093356414,0
2.7601523399353027,0.0019539871673667024,[0.18311728],0.005,0.1,3.7820806923829675e-08,0.014525064088559294,0
2.771036148071289,0.0019539871673667024,[0.18392352],0.005,0.1,3.47951423699233e-08,0.014740111718967396,0
2.7809524536132812,0.0019539871673667024,[0.1847498],0.005,0.1,3.201153098032941e-08,0.015125910842916358,0
2.792846202850342,0.0019539871673667024,[0.18559911],0.005,0.1,2.945060850190307e-08,0.01901797067392438,0
2.803962469100952,0.0019539871673667024,[0.18647637],0.005,0.1,2.7094559821750847e-08,0.01892755119682828,0
2.8134889602661133,0.0019539871673667024,[0.18738422],0.005,0.1,2.492699503601082e-08,0.01919405965866972,0
2.821972370147705,0.0019539871673667024,[0.188321],0.005,0.1,2.293283543312991e-08,0.015958835975357976,0
2.8348217010498047,0.0019539871673667024,[0.18928564],0.005,0.1,2.1098208598479495e-08,0.021799166757194822,0
2.8468356132507324,0.0019539871673667024,[0.19028206],0.005,0.1,1.941035191060112e-08,0.02247158731614863,0
2.860322952270508,0.0019539871673667024,[0.1913164],0.005,0.1,1.785752375775305e-08,0.028973879979470245,0
2.870983839035034,0.0019539871673667024,[0.19239438],0.005,0.1,1.6428921857132815e-08,0.028487975166700256,0
2.8840138912200928,0.0019539871673667024,[0.19352105],0.005,0.1,1.5114608108562202e-08,0.03520069725213575,0
2.893980026245117,0.0019539871673667024,[0.19470075],0.005,0.1,1.3905439459877211e-08,0.033448222176681364,0
2.901961088180542,0.0019539871673667024,[0.19593137],0.005,0.1,1.2793004303087032e-08,0.02587525499022719,0
2.914921522140503,0.0021493858841033727,[0.19720809],0.005,0.1,1.1769563958840082e-08,0.033902046694484954,0
2.928882360458374,0.0021493858841033727,[0.19853447],0.005,0.1,1.082799884213288e-08,0.04071856615363699,0
2.9409494400024414,0.0021493858841033727,[0.19991565],0.005,0.1,0.27603836964043993,0.03770251293805335,0
2.9503870010375977,0.002344784600840043,[0.20134971],0.005,0.1,0.3091629720049409,0.03559280292522669,0
2.9621331691741943,0.002344784600840043,[0.20283418],0.005,0.1,0.5301040743585719,0.04182187770684043,0
2.9718592166900635,0.002540183317576713,[0.20436878],0.005,0.1,0.4871436716905286,0.03828332696532173,0
2.9820165634155273,0.0027355820343133836,[0.20594972],0.005,0.1,0.6375620965308294,0.035808119865006496,0
2.991914987564087,0.0029309807510500534,[0.20757028],0.005,0.1,0.5379798982721085,0.03407538367711058,0
3.0042078495025635,0.0031263794677867237,[0.20922405],0.005,0.1,0.6464007179440758,0.032865398452338206,0
3.0135767459869385,0.0033217781845233945,[0.21090496],0.005,0.1,0.5174033853580408,0.03199189065242781,0
3.023175001144409,0.0035171769012600643,[0.21260729],0.005,0.1,0.6062964199906602,0.03137126615602333,0
3.0339620113372803,0.003907974334733405,[0.21432578],0.005,0.1,0.7411849192476001,0.030867503951692177,0
3.045625925064087,0.0042987717682067455,[0.21605559],0.005,0.1,0.5803225645451012,0.03052635166952038,0
3.054544687271118,0.004494170484943416,[0.2177923],0.005,0.1,0.6238667711652777,0.030320941580023943,0
3.0654256343841553,0.004689569201680086,[0.21953199],0.005,0.1,0.44143173034085814,0.030221024102207845,0
3.0741515159606934,0.005080366635153426,[0.22127115],0.005,0.1,0.49163520851050974,0.030118958740710036,0
3.0848381519317627,0.005471164068626767,[0.22300669],0.005,0.1,0.3252716467632093,0.030018249930205156,0
3.097111225128174,0.005861961502100107,[0.22473821],0.005,0.1,0.3929176748121587,0.0359280680696468,0
3.105518102645874,0.006057360218836778,[0.22646516],0.005,0.1,0.2423086736697785,0.028149489581307946,0
3.114513397216797,0.0062527589355734475,[0.22818214],0.005,0.1,0.04712955926080119,0.028334378113618018,0
3.121952772140503,0.006643556369046789,[0.22988213],0.005,0.1,0.15015570508523493,0.023643898904641254,0
3.13092303276062,0.007034353802520129,[0.23155918],0.005,0.1,0.05178874885848263,0.02490038855324705,0
3.139951467514038,0.007425151235993469,[0.23321045],0.005,0.1,-0.09335852953196899,0.02566077975439128,0
3.150963544845581,0.00781594866946681,[0.2348356],0.005,0.1,0.05116757326811738,0.02593230086903564,0
3.1599578857421875,0.008011347386203481,[0.23643412],0.005,0.1,-0.015143825278357309,0.02593617728098681,0
3.1709232330322266,0.008597543536413491,[0.23800531],0.005,0.1,-0.13656400763125187,0.025630617775004208,0
3.1799848079681396,0.008988340969886831,[0.23954831],0.005,0.1,0.025017744047486634,0.025141746686200284,0
3.1899280548095703,0.009183739686623501,[0.24106213],0.005,0.1,-0.029312986941792407,0.0246305178384757,0
3.2009551525115967,0.009769935836833513,[0.24254566],0.005,0.1,-0.1424929426189149,0.023945225792410336,0
3.210948944091797,0.010160733270306851,[0.24399007],0.005,0.1,-0.2514082417554397,0.014069048337855118,0
3.223935127258301,0.010746929420516863,[0.24537944],0.005,0.1,-0.33523951574888783,0.014858117308129967,0
3.2332537174224854,0.011137726853990204,[0.24670697],0.005,0.1,-0.39104291739852365,0.01587393914424461,0
3.2441294193267822,0.011723923004200214,[0.24797448],0.005,0.1,-0.1464878231525649,0.01623201519442114,0
3.2549490928649902,0.012114720437673556,[0.24918314],0.005,0.1,-0.125963266935801,0.016078176568332696,0
3.2629432678222656,0.012505517871146895,[0.25033309],0.005,0.1,-0.17996465044239213,0.01584050505811725,0
3.2754814624786377,0.013091714021356905,[0.25142493],0.005,0.1,-0.24554354786833973,0.016193481284714036,0
3.2835159301757812,0.013287112738093578,[0.25245953],0.005,0.1,-0.29944389169097513,0.015406609492898233,0
3.293684244155884,0.013677910171566917,[0.25343685],0.005,0.1,-0.3357493492267497,0.0153462931522252,0
3.303828477859497,0.014068707605040257,[0.25435734],0.005,0.1,-0.355462224255639,0.01530289328576873,0
3.3139774799346924,0.0144595050385136,[0.25522254],0.005,0.1,-0.36182129477075253,0.015249862882062287,0
3.322948932647705,0.014850302471986938,[0.2560337],0.005,0.1,-0.35833036129730533,0.014910724094367288,0
3.3326897621154785,0.015241099905460279,[0.25679234],0.005,0.1,-0.34803103956393633,0.015234026348396983,0
3.3436522483825684,0.01563189733893362,[0.25750121],0.005,0.1,-0.33331991546544026,0.01515215153615552,0
3.3559231758117676,0.01621809348914363,[0.25816309],0.005,0.1,-0.3159834655985069,0.01504618221417261,0
3.367961883544922,0.01660889092261697,[0.25878055],0.005,0.1,-0.2973037847216675,0.015180809062817536,0
3.3759443759918213,0.016999688356090312,[0.25935617],0.005,0.1,-0.5542114370882614,0.014878621640716641,0
3.385793447494507,0.017195087072826982,[0.25989162],0.005,0.1,-0.5683568598858459,0.014864844063974375,0
3.3959407806396484,0.01758588450630032,[0.26038863],0.005,0.1,-0.4948249321120368,0.014824282622604535,0
3.4069836139678955,0.017976681939773663,[0.2608493],0.005,0.1,-0.40109406454592367,0.01476486971466808,0
3.4159791469573975,0.018562878089983675,[0.26127562],0.005,0.1,-0.313854874429694,0.014674962852282957,0
3.4249627590179443,0.018758276806720344,[0.26166948],0.005,0.1,-0.24151519208125852,0.014649555586088589,0
3.4338927268981934,0.018953675523457014,[0.26203263],0.005,0.1,-0.18481950857527923,0.014630712530207689,0
3.4420766830444336,0.019344472956930356,[0.26236658],0.005,0.1,-0.14171553845979912,0.014542612779066696,0
3.4517011642456055,0.019735270390403698,[0.26267274],0.005,0.1,-0.10947726791648879,0.014528972454237139,0
3.4609198570251465,0.019930669107140364,[0.26295263],0.005,0.1,-0.08554929682364784,0.014491009118313504,0
3.468994140625,0.020321466540613703,[0.2632075],0.005,0.1,-0.3438553247782965,0.01444808818089221,0
3.4769554138183594,0.020516865257350376,[0.26343843],0.005,0.1,-0.3637979315388271,0.01443419094435424,0
3.4858829975128174,0.020907662690823715,[0.26364649],0.005,0.1,-0.298832846211889,0.014393830468645744,0
3.494950771331787,0.020907662690823715,[0.2638327],0.005,0.1,-0.21528485609035958,0.014420550062690754,0
3.5062954425811768,0.02129846012429706,[0.26399794],0.005,0.1,-0.1390438704749804,0.014382837201888486,0
3.518895387649536,0.02188465627450707,[0.26414269],0.005,0.1,-0.07797300113180385,0.014323327733454691,0
3.5277013778686523,0.022080054991243738,[0.26426739],0.005,0.1,-0.03245469838989741,0.014316522221956287,0
3.536907196044922,0.02247085242471708,[0.26437283],0.005,0.1,-0.0002033432338808816,0.014273111868691549,0
3.5478835105895996,0.02286164985819042,[0.26445966],0.005,0.1,0.021650737438640863,0.01427694120999545,0
3.5568971633911133,0.02305704857492709,[0.26452827],0.005,0.1,0.03574481155043342,0.014251056459586613,0
3.568901538848877,0.023447846008400428,[0.26457899],0.005,0.1,0.04423335172982408,0.014283142407843992,0
3.5768990516662598,0.02383864344187377,[0.26461217],0.005,0.1,0.04877328712814472,0.01419544454217456,0
3.5858922004699707,0.024034042158610443,[0.26462842],0.005,0.1,0.05059390461573755,0.014214287565463909,0
3.5949044227600098,0.02442483959208378,[0.26462827],0.005,0.1,0.05058585755804325,0.01419470823809435,0
3.6046769618988037,0.024815637025557124,[0.26461202],0.005,0.1,0.049383479167033575,0.014170287663066208,0
3.6139400005340576,0.02501103574229379,[0.26458],0.005,0.1,0.04743237623098586,0.01418339742974594,0
3.6247291564941406,0.025401833175767132,[0.26453251],0.005,0.1,0.045041705034512096,0.014156727652093717,0
3.6358981132507324,0.02579263060924047,[0.26446985],0.005,0.1,0.04242321992509682,0.014131814530395265,0
3.645885705947876,0.02618342804271381,[0.26439232],0.005,0.1,0.039719812267404196,0.014107581753993731,0
3.6569013595581055,0.026574225476187156,[0.26430017],0.005,0.1,0.037026069256913575,0.01409282429290548,0
3.6675221920013428,0.026965022909660494,[0.26419309],0.005,0.1,0.034402936603737284,0.014320632553514985,0
3.6777613162994385,0.027160421626397167,[0.26407024],0.005,0.1,0.03188810045047194,0.014317606011860025,0
3.6859054565429688,0.027355820343133833,[0.26393178],0.005,0.1,0.02950329743389599,0.014062278658432298,0
3.6939754486083984,0.027746617776607176,[0.26377867],0.005,0.1,0.027259438091270252,0.01413466253963579,0
3.7067904472351074,0.028137415210080514,[0.26361042],0.005,0.1,0.02516018262966866,0.014657959414083318,0
3.7159087657928467,0.028332813926817187,[0.26342588],0.005,0.1,0.023204425963899503,0.014259359233420872,0
3.7258875370025635,0.02872361136029053,[0.26322517],0.005,0.1,0.021388016565320453,0.014439988083491834,0
3.7348825931549072,0.02911440879376387,[0.26300806],0.005,0.1,0.019704938573717162,0.014646113403126501,0
3.7445664405822754,0.029309807510500538,[0.26277341],0.005,0.1,0.01814811885068591,0.014916840258405053,0
3.7550947666168213,0.029700604943973877,[0.26251993],0.005,0.1,0.016709972611298606,0.015195400554178024,0
3.765934944152832,0.030091402377447216,[0.26224618],0.005,0.1,0.0153827673477962,0.015522178275512413,0
3.7749147415161133,0.030482199810920558,[0.26195061],0.005,0.1,0.014158860870422719,0.015877755879323503,0
3.78790283203125,0.030872997244393897,[0.26163036],0.005,0.1,0.013030852502432813,0.01775375219619346,0
3.7994418144226074,0.03126379467786724,[0.26128143],0.005,0.1,0.01199167468555621,0.017897584063564193,0
3.8069100379943848,0.03165459211134058,[0.26090265],0.005,0.1,0.011034643995117359,0.01639741225380828,0
3.8159024715423584,0.032045389544813924,[0.26049545],0.005,0.1,0.010153484782635086,0.01709862898253436,0
3.82692813873291,0.03243618697828726,[0.26005954],0.005,0.1,0.009342334619031112,0.017760047688315756,0
3.8390424251556396,0.0328269844117606,[0.25959156],0.005,0.1,0.008595737884823993,0.020928881947302757,0
3.8488872051239014,0.03302238312849727,[0.25908684],0.005,0.1,0.007908631879767244,0.02103347812139758,0
3.8584511280059814,0.03360857927870728,[0.25854286],0.005,0.1,0.00727632844789737,0.02117136532583006,0
3.8700265884399414,0.033803977995443955,[0.25795904],0.005,0.1,0.006694493155276054,0.021491802562802653,0
3.879626989364624,0.034390174145653964,[0.25733491],0.005,0.1,0.0061591233912248,0.021803118874296368,0
3.8897769451141357,0.0347809715791273,[0.25667017],0.005,0.1,0.005666526301848768,0.022103570138302324,0
3.9002010822296143,0.03536716772933732,[0.25596473],0.005,0.1,0.0052132971450811715,0.022405750663369556,0
3.91192364692688,0.035757965162810657,[0.2552167],0.005,0.1,0.004796298436653363,0.026790606398203253,0
3.921926736831665,0.036148762596283995,[0.25442467],0.005,0.1,0.2804509997846399,0.02200009523440659,0
3.9334301948547363,0.036539560029757334,[0.25358966],0.005,0.1,0.31322262361857395,0.0267171050181421,0
3.9408881664276123,0.03693035746323068,[0.25271284],0.005,0.1,0.25780061648110814,0.021851666498178445,0
3.949918031692505,0.03732115489670401,[0.25179556],0.005,0.1,0.1814168341292014,0.026737596417438187,0
3.959859848022461,0.03771195233017736,[0.25083931],0.005,0.1,0.11061927679555915,0.02178211336619675,0
3.9699580669403076,0.03829814848038737,[0.24984779],0.005,0.1,0.05374458848963643,0.022338550344642726,0
3.9809303283691406,0.03868894591386071,[0.24882448],0.005,0.1,0.28755267940557416,0.022815347264442648,0
3.991506814956665,0.03927514206407072,[0.24776834],0.005,0.1,0.29104809612537574,0.027640493335041535,0
4.00519871711731,0.03986133821428073,[0.24667454],0.005,0.1,0.216226125423751,0.031410647105505576,0
4.014208078384399,0.040252135647754074,[0.24554157],0.005,0.1,0.12780741690065395,0.024085306029404476,0
4.021896839141846,0.040642933081227406,[0.24437725],0.005,0.1,0.05027642441561985,0.01961858857720377,0
4.029895782470703,0.04083833179796408,[0.24319078],0.005,0.1,-0.009621152025982686,0.02043258148520452,0
4.0388288497924805,0.04161992666491077,[0.24198593],0.005,0.1,0.22369358452529275,0.0208692348092872,0
4.049312114715576,0.0420107240983841,[0.24076406],0.005,0.1,0.22837020322254997,0.02108043089293729,0
4.0590126514434814,0.04259692024859412,[0.23952666],0.005,0.1,0.1557963479796612,0.021068586886150157,0
4.0723652839660645,0.04318311639880412,[0.23827315],0.005,0.1,0.07026731644844048,0.02511515101164449,0
4.080859184265137,0.04357391383227746,[0.23700336],0.005,0.1,0.27201238602460553,0.019594045522656166,0
4.090881824493408,0.04396471126575081,[0.23572168],0.005,0.1,0.248625644626905,0.01955494631793262,0
4.099238395690918,0.04435550869922414,[0.23443215],0.005,0.1,0.15420643322565972,0.019408455346137804,0
4.110101699829102,0.04494170484943416,[0.23313634],0.005,0.1,0.05300393945079869,0.019120663202121184,0
4.119829416275024,0.04533250228290749,[0.23183582],0.005,0.1,-0.03179034470455155,0.01876215938212944,0
4.129786491394043,0.04591869843311751,[0.23053215],0.005,0.1,-0.09480878723644356,0.018333511263255605,0
4.140263795852661,0.046504894583327516,[0.22922686],0.005,0.1,-0.13770419923769422,0.017865786112573598,0
4.152847528457642,0.04709109073353753,[0.22791955],0.005,0.1,-0.16431741673697675,0.020738142980675715,0
4.160888195037842,0.04748188816701086,[0.22661011],0.005,0.1,-0.17865944728092123,0.015982405060789868,0
4.168860912322998,0.04787268560048421,[0.22530247],0.005,0.1,-0.18418125645453137,0.01574407364599113,0
4.181180715560913,0.048458881750694224,[0.22399829],0.005,0.1,-0.18360363552645698,0.018419283704586183,0
4.1908791065216064,0.04884967918416756,[0.22269722],0.005,0.1,-0.1789685024556531,0.014253947672689898,0
4.203237771987915,0.04943587533437757,[0.22140104],0.005,0.1,0.1042784559498039,0.016843453689297485,0
4.211874723434448,0.0498266727678509,[0.22011135],0.005,0.1,0.1461317988659066,0.013132914609409038,0
4.221517562866211,0.050412868918060925,[0.21882965],0.005,0.1,0.10055068085399178,0.015519019809524219,0
4.229891777038574,0.050803666351534264,[0.21755729],0.005,0.1,-0.2417688890034166,0.012134451923385955,0
4.238836050033569,0.0511944637850076,[0.21629719],0.005,0.1,-0.3356579357354412,0.012035255603902128,0
4.250857353210449,0.05178065993521762,[0.21505186],0.005,0.1,-0.3276855399131824,0.011849595124514738,0
4.262882709503174,0.05217145736869095,[0.21382007],0.005,0.1,-0.2844962883157148,0.013811164700626507,0
4.274519920349121,0.05275765351890097,[0.21259917],0.005,0.1,-0.23475921150236356,0.012772701930423427,0
4.2835023403167725,0.053343849669110974,[0.21138871],0.005,0.1,-0.18954666902600037,0.011910542117009395,0
4.290886163711548,0.05373464710258431,[0.21019158],0.005,0.1,-0.15210684964835353,0.009443119524410643,0
4.302735328674316,0.05412544453605766,[0.20901021],0.005,0.1,-0.12245813059445888,0.011248882174474973,0
4.313495397567749,0.05471164068626767,[0.20784353],0.005,0.1,-0.0994819048979214,0.010573232647620842,0
4.323592185974121,0.05510243811974101,[0.20669062],0.005,0.1,-0.08182592208601001,0.010013258629555915,0
4.333409786224365,0.05549323555321435,[0.20555229],0.005,0.1,-0.34429414283088366,0.0095018476945136,0
4.342854738235474,0.05588403298668769,[0.2044292],0.005,0.1,-0.3669235057868382,0.009085742351963135,0
4.350862264633179,0.05607943170342436,[0.20332332],0.005,0.1,-0.3036220955037031,0.007342313629845315,0
4.3634421825408936,0.056665627853634375,[0.20223624],0.005,0.1,-0.22103477904533414,0.008787687289224662,0
4.3708391189575195,0.05686102657037104,[0.20116777],0.005,0.1,-0.42131493325575453,0.007033729805244919,0
4.3809404373168945,0.05744722272058106,[0.2001177],0.005,0.1,-0.3935310448438042,0.008328784749758908,0
4.389806509017944,0.05764262143731772,[0.19908575],0.005,0.1,-0.2928671009675912,0.006648681501764682,0
4.399770021438599,0.05803341887079106,[0.19807295],0.005,0.1,-0.1843475233567627,0.006633819095352846,0
4.412898063659668,0.058619615021001076,[0.19707878],0.005,0.1,-0.36774334082784144,0.007725025190729463,0
4.4233527183532715,0.058815013737737745,[0.19610005],0.005,0.1,-0.32983943042716574,0.007240517518536054,0
4.431865453720093,0.05920581117121108,[0.19513661],0.005,0.1,-0.22392067746279481,0.005768436931814037,0
4.439891815185547,0.059401209887947753,[0.19419091],0.005,0.1,-0.11353866012658877,0.0057720196008889625,0
4.451930999755859,0.0597920073214211,[0.19326361],0.005,0.1,-0.2973679507136968,0.005700991491515422,0
4.4638354778289795,0.06037820347163111,[0.19235269],0.005,0.1,-0.26139894215331405,0.006553959040477688,0
4.471835136413574,0.06037820347163111,[0.19145641],0.005,0.1,-0.1583522055880756,0.005207871471997674,0
4.480169057846069,0.060769000905104446,[0.1905757],0.005,0.1,-0.05138509408560425,0.005129878589340364,0
4.489860534667969,0.06115979833857779,[0.18971123],0.005,0.1,-0.23890111158847185,0.005054220421496978,0
4.50213885307312,0.061355197055314455,[0.18886111],0.005,0.1,-0.20670748028776847,0.005793187331188477,0
4.509862661361694,0.06174599448878779,[0.18802372],0.005,0.1,-0.10740364225599813,0.00458881474466062,0
4.520826816558838,0.06194139320552447,[0.18719995],0.005,0.1,-0.004069203175787989,0.004519279752273888,0
4.53455924987793,0.06233219063899781,[0.18638947],0.005,0.1,-0.19505998322379514,0.005167303870144311,0
4.545956611633301,0.06252758935573448,[0.18558866],0.005,0.1,-0.16615615614459972,0.00559638091414846,0
4.558516025543213,0.06291838678920783,[0.1847946],0.005,0.1,-0.06994411884175358,0.005020777166070757,0
4.568122863769531,0.06330918422268116,[0.18400707],0.005,0.1,0.030500204491668598,0.004583062610040222,0
4.576015949249268,0.06350458293941783,[0.18322808],0.005,0.1,-0.1631814596389926,0.003651934961805206,0
4.585858345031738,0.06350458293941783,[0.18246033],0.005,0.1,-0.1367756383539181,0.003602998800819202,0
4.598913192749023,0.06389538037289116,[0.18170319],0.005,0.1,-0.042877445148895896,0.004689502222878645,0
4.608935356140137,0.06409077908962785,[0.18095416],0.005,0.1,0.05542716444718485,0.00363318687299551,0
4.616850852966309,0.0642861778063645,[0.18021504],0.005,0.1,0.13580763832456688,0.002988423379051094,0
4.629430770874023,0.06448157652310119,[0.17948833],0.005,0.1,-0.08252380087476,0.003424386989342754,0
4.6388630867004395,0.06487237395657452,[0.1787734],0.005,0.1,-0.07852885734772648,0.0032284254010399283,0
4.646868467330933,0.0650677726733112,[0.17806973],0.005,0.1,-0.0027615115647706898,0.0030619758648679288,0
4.655878067016602,0.0650677726733112,[0.17737863],0.005,0.1,0.08175389018460287,0.0025588072528220595,0
4.664844274520874,0.06526317139004786,[0.17670204],0.005,0.1,0.15204719294057217,0.0025515053768463076,0
4.672864675521851,0.06545857010678453,[0.17604148],0.005,0.1,0.20258068598174203,0.002214465458071622,0
4.684860706329346,0.0656539688235212,[0.1753973],0.005,0.1,-0.04131917129353445,0.0025745618992141107,0
4.6958277225494385,0.06584936754025787,[0.17476812],0.005,0.1,-0.05715140475420114,0.0024885014516182083,0
4.707862377166748,0.06604476625699454,[0.17415194],0.005,0.1,0.004148077868010438,0.002735912228816894,0
4.720297574996948,0.06604476625699454,[0.1735463],0.005,0.1,-0.1974510652424151,0.002890503406612626,0
4.728562355041504,0.06604476625699454,[0.17294991],0.005,0.1,-0.44303031586484704,0.0023165883394006084,0
4.737969160079956,0.06624016497373121,[0.17236388],0.005,0.1,-0.3747563800188316,0.002220434131113725,0
4.747865200042725,0.06624016497373121,[0.17178908],0.005,0.1,-0.4899350490591732,0.0021413378458236547,0
4.755834102630615,0.06624016497373121,[0.17122621],0.005,0.1,-0.36038392948786124,0.0018373382873643606,0
4.764831066131592,0.06643556369046788,[0.17067645],0.005,0.1,-0.44835828322697635,0.0018455269829293559,0
4.774431228637695,0.06643556369046788,[0.17013997],0.005,0.1,-0.3082420530842107,0.0018438201028293222,0
4.7860190868377686,0.06663096240720455,[0.16961538],0.005,0.1,-0.1176038340215963,0.0020601873192409967,0
4.794828653335571,0.06643556369046788,[0.16910146],0.005,0.1,0.05449244985957333,0.0017530286772194966,0
4.805834054946899,0.06663096240720455,[0.16859846],0.005,0.1,0.18726602727657998,0.001745316870346594,0
4.816346883773804,0.06663096240720455,[0.16810578],0.005,0.1,0.2799035211755746,0.001956597659215989,0
4.828842878341675,0.06663096240720455,[0.16762151],0.005,0.1,0.06261887040817454,0.0018638015442371098,0
4.840955018997192,0.06663096240720455,[0.16714399],0.005,0.1,0.0621103059377838,0.0020198670379143672,0
4.852776050567627,0.06682636112394122,[0.16667183],0.005,0.1,0.1307549448331497,0.0018796470177425766,0
4.860810041427612,0.06682636112394122,[0.1662051],0.005,0.1,0.20705537448417302,0.0015875647154589827,0
4.870818376541138,0.06682636112394122,[0.16574451],0.005,0.1,0.268839222631012,0.0017666086503402235,0
4.878885984420776,0.06682636112394122,[0.16529],0.005,0.1,0.3109837297140344,0.0015070847660727396,0
4.886831521987915,0.06682636112394122,[0.16484271],0.005,0.1,0.3350651078721636,0.001346696520445785,0
4.898695230484009,0.06682636112394122,[0.16440357],0.005,0.1,0.3447339153719676,0.001540079908642537,0
4.909840822219849,0.06682636112394122,[0.16397087],0.005,0.1,0.06774963503168271,0.001683464063192815,0
4.9198267459869385,0.06682636112394122,[0.16354312],0.005,0.1,0.02631543772984353,0.0014257721389591674,0
4.92891788482666,0.06682636112394122,[0.16312091],0.005,0.1,0.06828507940097656,0.001405717985202849,0
4.937803268432617,0.06682636112394122,[0.16270475],0.005,0.1,0.12831710435107985,0.0013829031637073294,0
4.948819875717163,0.06682636112394122,[0.16229451],0.005,0.1,0.18121932672427765,0.001352330005255982,0
4.960710763931274,0.06682636112394122,[0.16188957],0.005,0.1,0.21959969849611372,0.001468957087409316,0
4.970014572143555,0.06682636112394122,[0.16148942],0.005,0.1,0.2433765673557099,0.001261659694001932,0
4.980813026428223,0.06682636112394122,[0.16109476],0.005,0.1,0.2550129843859724,0.0012397269011928576,0
4.9898154735565186,0.06702175984067789,[0.16070621],0.005,0.1,0.25746910087880753,0.0012144638664447346,0
5.000878572463989,0.06682636112394122,[0.16032331],0.005,0.1,0.2534128692544066,0.0013065999989779573,0
5.009803771972656,0.06682636112394122,[0.1599457],0.005,0.1,0.24498939111383966,0.0011368576768405665,0
5.017796754837036,0.06682636112394122,[0.1595741],0.005,0.1,0.23382024774840832,0.0011204230041205751,0
5.028003215789795,0.06682636112394122,[0.15920913],0.005,0.1,0.22108329444702196,0.0011010794131518275,0
5.035923004150391,0.06682636112394122,[0.15885129],0.005,0.1,0.20760852794015677,0.00099880904614828,0
5.043805837631226,0.06682636112394122,[0.15850144],0.005,0.1,0.19396508888215042,0.001003017459695968,0
5.053803443908691,0.06682636112394122,[0.15815983],0.005,0.1,0.18053200961711208,0.0010003400234528507,0
5.064332962036133,0.06682636112394122,[0.15782615],0.005,0.1,0.16755256715036113,0.000994688094750984,0
5.077830791473389,0.06702175984067789,[0.15749974],0.005,0.1,0.15517465899553712,0.001049277171083502,0
5.086809873580933,0.06682636112394122,[0.15717962],0.005,0.1,0.14348015153062357,0.0010184010450754349,0
5.098830938339233,0.06702175984067789,[0.15686535],0.005,0.1,0.1325058936878273,0.0009837850516391238,0
5.108851432800293,0.06682636112394122,[0.15655694],0.005,0.1,0.12225859448923032,0.000962532462244443,0
5.116833925247192,0.06682636112394122,[0.15625439],0.005,0.1,0.11272525968792835,0.0009411699024522933,0
5.124830007553101,0.06682636112394122,[0.15595806],0.005,0.1,0.10388045191854728,0.0008670072636357935,0
5.133831024169922,0.06682636112394122,[0.15566855],0.005,0.1,0.09569129790660458,0.000866453913672338,0
5.143343448638916,0.06682636112394122,[0.15538598],0.005,0.1,0.08812090809194698,0.0008660995749159303,0
5.1528496742248535,0.06682636112394122,[0.15510996],0.005,0.1,0.08113068351649669,0.0008600132576968948,0
5.162811517715454,0.06682636112394122,[0.1548405],0.005,0.1,0.07468184661520884,0.0008063606926014079,0
5.170827388763428,0.06682636112394122,[0.15457793],0.005,0.1,0.06873643339686356,0.0008132262184122743,0
5.179812431335449,0.06682636112394122,[0.15432169],0.005,0.1,0.0632579139151489,0.0008670753396948767,0
5.188844442367554,0.06682636112394122,[0.15407091],0.005,0.1,0.05821155795117339,0.0008024933333550665,0
5.196815013885498,0.06682636112394122,[0.15382586],0.005,0.1,0.05356462757765099,0.000761131841183652,0
5.20664644241333,0.06682636112394122,[0.15358709],0.005,0.1,0.049286453484292114,0.0007718475713742621,0
5.22093653678894,0.06682636112394122,[0.15335356],0.005,0.1,0.04534843454907248,0.0008763039934824923,0
5.2328126430511475,0.06682636112394122,[0.15312332],0.005,0.1,0.04172398795787658,0.0008483083464969417,0
5.241817235946655,0.06682636112394122,[0.15289573],0.005,0.1,0.038388468658289064,0.0007794914511378811,0
5.250503301620483,0.06682636112394122,[0.15267128],0.005,0.1,0.035319070989621545,0.000776781920902337,0
5.26124906539917,0.06682636112394122,[0.15244964],0.005,0.1,0.03249472119128158,0.0008199850132111499,0
5.273797988891602,0.06682636112394122,[0.15222953],0.005,0.1,0.02989596661457641,0.0008521417342560092,0
5.282933235168457,0.06702175984067789,[0.15201018],0.005,0.1,0.02750486546943664,0.0007700506836323627,0
5.29383659362793,0.06702175984067789,[0.15179194],0.005,0.1,0.02530487956120429,0.0007605219336713841,0
5.304854869842529,0.06702175984067789,[0.15157509],0.005,0.1,0.023280771527085777,0.0007536597570815049,0
5.313790559768677,0.06702175984067789,[0.15135955],0.005,0.1,0.02141850743658944,0.000747365353936651,0
5.324827432632446,0.06682636112394122,[0.15114521],0.005,0.1,0.019705165183894667,0.0007452880523904637,0
5.334741592407227,0.06682636112394122,[0.150932],0.005,0.1,0.01812884880877729,0.0007388623269197184,0
5.345412731170654,0.06682636112394122,[0.15071985],0.005,0.1,0.016678608691806776,0.0007329398899320962,0
5.354165315628052,0.06682636112394122,[0.15050868],0.005,0.1,0.015344367447882281,0.0007270194437297658,0
5.365262746810913,0.06682636112394122,[0.15029842],0.005,0.1,0.014116851268049697,0.0007223001214004992,0
5.375465154647827,0.06682636112394122,[0.150089],0.005,0.1,0.01298752641780627,0.0007157541040506982,0
5.383901119232178,0.06682636112394122,[0.14988072],0.005,0.1,0.011948540580223113,0.0006724183229222071,0
5.39708685874939,0.06682636112394122,[0.14967347],0.005,0.1,0.010992668726894726,0.0007605047640016259,0
5.408992052078247,0.06682636112394122,[0.14946622],0.005,0.1,0.010113263203906007,0.0007369001871754151,0
5.419858932495117,0.06682636112394122,[0.14925842],0.005,0.1,0.009304207730207653,0.0007165097996870524,0
5.429114103317261,0.06682636112394122,[0.14905032],0.005,0.1,0.008559875019620989,0.0007022142581327881,0
5.43787956237793,0.06682636112394122,[0.14884213],0.005,0.1,0.007875087753532312,0.000691848624040789,0
5.447163820266724,0.06682636112394122,[0.14863401],0.005,0.1,0.007245082648086433,0.0006811473584766998,0
5.459868907928467,0.06682636112394122,[0.14842616],0.005,0.1,0.006665477376625236,0.0006710765750556592,0
5.469471454620361,0.06682636112394122,[0.14821877],0.005,0.1,0.00613224012476522,0.000662447142357966,0
5.477804899215698,0.06682636112394122,[0.14801204],0.005,0.1,0.005641661571573006,0.0006536395770394999,0
5.486609220504761,0.06682636112394122,[0.14780646],0.005,0.1,0.00519032910559946,0.0006146774808911176,0
5.498746633529663,0.06682636112394122,[0.14760245],0.005,0.1,0.004775103098978108,0.0006480742862603076,0
5.508649110794067,0.06682636112394122,[0.14739979],0.005,0.1,0.004393095076338491,0.0006373113455786179,0
5.518809080123901,0.06682636112394122,[0.1471983],0.005,0.1,0.004041647627926454,0.0006285203242717387,0
5.531183481216431,0.06682636112394122,[0.14699787],0.005,0.1,0.0037183159280788705,0.0006511058217021566,0
5.539802074432373,0.06682636112394122,[0.14679841],0.005,0.1,0.003420850731103128,0.0006034988646939748,0
5.548235177993774,0.06682636112394122,[0.14660044],0.005,0.1,0.0031471827267042724,0.0005986706168722009,0
5.558826208114624,0.06682636112394122,[0.14640438],0.005,0.1,0.002895408146430506,0.0005934411907765934,0
5.571248292922974,0.06682636112394122,[0.14621011],0.005,0.1,0.0026637755212198747,0.0006125111916174792,0
5.5825018882751465,0.06682636112394122,[0.14601725],0.005,0.1,0.0024506734980749506,0.0005992203647720734,0
5.5897839069366455,0.06682636112394122,[0.14582605],0.005,0.1,0.002254619631215819,0.0005628202109870912,0
5.597784519195557,0.06682636112394122,[0.14563721],0.005,0.1,0.0020742500698093585,0.0005597431553401992,0
5.605865240097046,0.06682636112394122,[0.14545135],0.005,0.1,0.001908310070588174,0.0005367594132989112,0
5.614497661590576,0.06682636112394122,[0.14526895],0.005,0.1,0.001755645269395614,0.0005384243853770831,0
5.622791767120361,0.06682636112394122,[0.14509041],0.005,0.1,0.0016151936509621089,0.0005204612043659269,0
5.6335015296936035,0.06682636112394122,[0.14491581],0.005,0.1,0.0014859781610678437,0.0005403367935372652,0
5.640843629837036,0.06682636112394122,[0.14474498],0.005,0.1,0.0013670999097103104,0.0005194007387899335,0
5.653809547424316,0.06682636112394122,[0.14457774],0.005,0.1,0.001257731918003007,0.0005353558487595046,0
5.665587902069092,0.06682636112394122,[0.14441375],0.005,0.1,0.0011571133653114339,0.0005281455705911201,0
5.678764581680298,0.06682636112394122,[0.14425254],0.005,0.1,0.0010645442966105865,0.0005385864861049835,0
5.687162160873413,0.06682636112394122,[0.14409371],0.005,0.1,0.000979380753248587,0.0005256061789934982,0
5.69676661491394,0.06682636112394122,[0.14393738],0.005,0.1,0.0009010302932454921,0.0005023123300898386,0
5.7096028327941895,0.06682636112394122,[0.14378385],0.005,0.1,0.0008289478699656077,0.0005113809517427332,0
5.718868970870972,0.06682636112394122,[0.14363283],0.005,0.1,0.0007626320404941875,0.0005160655077909098,0
5.728765249252319,0.06682636112394122,[0.14348412],0.005,0.1,0.000701621477342733,0.0004916364191202519,0
5.73677659034729,0.06682636112394122,[0.14333823],0.005,0.1,0.000645491759216971,0.00047659746909095314,0
5.749632835388184,0.06682636112394122,[0.14319565],0.005,0.1,0.0005938524185227722,0.0004834210060103076,0
5.759864091873169,0.06702175984067789,[0.14305611],0.005,0.1,0.000546344225071162,0.00048394322609551115,0
5.7713463306427,0.06682636112394122,[0.14291926],0.005,0.1,0.000502636687086617,0.00047867380527655983,0
5.780531644821167,0.06682636112394122,[0.14278526],0.005,0.1,0.00046242575213449155,0.0004636983780496309,0
5.791762351989746,0.06682636112394122,[0.14265456],0.005,0.1,0.0004254316919740946,0.00046002796835006485,0
5.80158257484436,0.06682636112394122,[0.14252739],0.005,0.1,0.00039139715662342027,0.00045626719974516914,0
5.815814018249512,0.06682636112394122,[0.1423964],0.005,0.1,0.00036008538409862384,0.0021908455350894227,0
5.828606605529785,0.06682636112394122,[0.14224606],0.005,0.1,0.000331278553374288,0.002082001009208422,0
5.837786436080933,0.06682636112394122,[0.14206934],0.005,0.1,0.0003047762691068337,0.0012102461213953637,0
5.846752405166626,0.06682636112394122,[0.14187054],0.005,0.1,0.0002803941675800289,0.0008221702290043634,0
5.854780435562134,0.06682636112394122,[0.14165524],0.005,0.1,0.0002579626341748458,0.0006703872737692316,0
5.867783308029175,0.06682636112394122,[0.14142694],0.005,0.1,0.00023732562344171108,0.000671556229110056,0
5.876760244369507,0.06682636112394122,[0.14118799],0.005,0.1,0.0002183395735669716,0.0005686593728537725,0
5.885757684707642,0.06682636112394122,[0.14094121],0.005,0.1,0.00020087240768203198,0.000526050765295117,0
5.895175457000732,0.06682636112394122,[0.14068944],0.005,0.1,0.0001848026150677621,0.0004980118591788958,0
5.9037675857543945,0.06682636112394122,[0.14043538],0.005,0.1,0.00017001840586254612,0.0004504093273852264,0
5.911766052246094,0.06682636112394122,[0.14018204],0.005,0.1,0.00015641693339368587,0.00042302412157250015,0
5.92196249961853,0.06682636112394122,[0.13993237],0.005,0.1,0.00014390357872229157,0.0004060540690101782,0
5.936349153518677,0.06682636112394122,[0.13968898],0.005,0.1,0.00013239129242457852,0.0003923111370722717,0
5.9449217319488525,0.06682636112394122,[0.13945421],0.005,0.1,0.0001217999890306613,0.00038538482535871763,0
5.9548163414001465,0.06682636112394122,[0.13922996],0.005,0.1,0.00011205598990824282,0.0003804012230699494,0
5.963786840438843,0.06682636112394122,[0.13901762],0.005,0.1,0.00010309151071560775,0.00037673067993406194,0
5.975207567214966,0.06702175984067789,[0.1388181],0.005,0.1,9.484418985837597e-05,0.00037075714362462607,0
5.983641147613525,0.06682636112394122,[0.13863184],0.005,0.1,8.725665466971768e-05,0.00037075806988842654,0
5.994762897491455,0.06682636112394122,[0.13845902],0.005,0.1,8.027612229614847e-05,0.00036838093940706247,0
6.004784107208252,0.06682636112394122,[0.13829957],0.005,0.1,7.385403251246244e-05,0.0003658951480187155,0
6.01485800743103,0.06682636112394122,[0.1381533],0.005,0.1,6.794570991146954e-05,0.00036348454967262677,0
6.024796962738037,0.06682636112394122,[0.13801997],0.005,0.1,6.251005311855469e-05,0.0003612746211599524,0
6.034005641937256,0.06682636112394122,[0.13789925],0.005,0.1,5.7509248869072304e-05,0.00035937266078753314,0
6.042738199234009,0.06682636112394122,[0.13779071],0.005,0.1,5.2908508959547836e-05,0.000357651961369137,0
6.053744554519653,0.06682636112394122,[0.13769383],0.005,0.1,4.8675828242785076e-05,0.0003561972237157861,0
6.063650369644165,0.06682636112394122,[0.13760798],0.005,0.1,4.4781761983362967e-05,0.0003548868564948073,0
6.074070692062378,0.06682636112394122,[0.13753252],0.005,0.1,4.1199221024694406e-05,0.0003537143692496146,0
6.085801124572754,0.06682636112394122,[0.13746643],0.005,0.1,3.7903283342719194e-05,0.00035633256564358617,0
6.0959389209747314,0.06682636112394122,[0.13740866],0.005,0.1,3.487102067530192e-05,0.00035184970982246925,0
6.104358673095703,0.06682636112394122,[0.1373591],0.005,0.1,3.208133902127792e-05,0.00035255898019767584,0
6.111764192581177,0.06682636112394122,[0.13731854],0.005,0.1,2.951483189957586e-05,0.00036769116756113864,0
6.1212005615234375,0.06682636112394122,[0.13728813],0.005,0.1,2.715364534760987e-05,0.0003747626737085211,0
6.135298728942871,0.06682636112394122,[0.13727054],0.005,0.1,2.4981353719801123e-05,0.0005735659341916838,0
6.1444971561431885,0.06682636112394122,[0.13726988],0.005,0.1,2.2982845422217053e-05,0.0005557719201037203,0
6.15275502204895,0.06702175984067789,[0.1372892],0.005,0.1,2.1144217788439714e-05,0.0006963712690929682,0
6.16480016708374,0.06682636112394122,[0.13733156],0.005,0.1,1.9452680365364514e-05,0.0008996929346270335,0
6.175684928894043,0.06702175984067789,[0.13740251],0.005,0.1,1.789646593613537e-05,0.0015597080324910627,0
6.184695482254028,0.06682636112394122,[0.13750771],0.005,0.1,1.6464748661244574e-05,0.0013465772889620204,0
6.1957807540893555,0.06682636112394122,[0.1376501],0.005,0.1,1.5147568768345023e-05,0.001726722271593691,0
6.207157850265503,0.06682636112394122,[0.13783468],0.005,0.1,1.3935763266877402e-05,0.0030021160143472473,0
6.2174482345581055,0.06682636112394122,[0.13806962],0.005,0.1,1.2820902205527202e-05,0.0033919620336256397,0
6.2247912883758545,0.06682636112394122,[0.13835883],0.005,0.1,1.1795230029085049e-05,0.0027332006403699956,0
6.232778072357178,0.06702175984067789,[0.1387022],0.005,0.1,1.0851611626758258e-05,0.0034025903548276525,0
6.241257667541504,0.06682636112394122,[0.13909954],0.005,0.1,9.983482696617612e-06,0.002863785112565782,0
6.249762296676636,0.06682636112394122,[0.13955057],0.005,0.1,9.184804080888192e-06,0.0037417449741161666,0
6.261760950088501,0.06682636112394122,[0.14005979],0.005,0.1,8.450019754417129e-06,0.006400298699010166,0
6.272780895233154,0.06702175984067789,[0.14063578],0.005,0.1,7.774018174063773e-06,0.006841099160945427,0
6.282136917114258,0.06682636112394122,[0.1412834],0.005,0.1,7.152096720138658e-06,0.007321688500503278,0
6.294032573699951,0.06682636112394122,[0.14200401],0.005,0.1,6.579928982527574e-06,0.007789577193715269,0
6.302757024765015,0.06682636112394122,[0.14279557],0.005,0.1,6.053534663925373e-06,0.005969922505044677,0
6.310739994049072,0.06682636112394122,[0.14365306],0.005,0.1,5.569251890811341e-06,0.006936824008172039,0
6.318770885467529,0.06682636112394122,[0.14457154],0.005,0.1,5.1237117395464244e-06,0.005529687932535983,0
6.326746225357056,0.06682636112394122,[0.14554621],0.005,0.1,4.713814800382711e-06,0.006749965044965986,0
6.335752010345459,0.06702175984067789,[0.14657521],0.005,0.1,4.336709616352096e-06,0.007755900797759477,0
6.345455646514893,0.06702175984067789,[0.14765911],0.005,0.1,3.98977284704393e-06,0.008571411016621459,0
6.353390693664551,0.06682636112394122,[0.14879773],0.005,0.1,3.670591019280419e-06,0.009248794574903114,0
6.362331867218018,0.06682636112394122,[0.14999019],0.005,0.1,3.376943737737982e-06,0.009759487424460303,0
6.370238780975342,0.06682636112394122,[0.15123221],0.005,0.1,3.106788238718946e-06,0.0074308223362683215,0
6.380096435546875,0.06682636112394122,[0.15251665],0.005,0.1,2.858245179621428e-06,0.008430168868657816,0
6.389749526977539,0.06682636112394122,[0.15383954],0.005,0.1,2.629585565251715e-06,0.009187080212684181,0
6.402368783950806,0.06682636112394122,[0.15520225],0.005,0.1,2.4192187200315806e-06,0.012771192556871007,0
6.409742116928101,0.06682636112394122,[0.15660516],0.005,0.1,2.225681222429055e-06,0.009289319914503456,0
6.418720483779907,0.06682636112394122,[0.15803984],0.005,0.1,2.0476267246347293e-06,0.007159168819333804,0
6.430745363235474,0.06682636112394122,[0.15949838],0.005,0.1,1.8838165866639484e-06,0.010798349681928677,0
6.44149374961853,0.06682636112394122,[0.16098111],0.005,0.1,1.7331112597308351e-06,0.010647164062950644,0
6.451748847961426,0.06682636112394122,[0.16248745],0.005,0.1,1.5944623589523649e-06,0.010387245480569747,0
6.461724042892456,0.06682636112394122,[0.16401333],0.005,0.1,1.4669053702361779e-06,0.010049102337753267,0
6.470807075500488,0.06682636112394122,[0.16555431],0.005,0.1,1.3495529406172843e-06,0.009635787921519775,0
6.479192733764648,0.06682636112394122,[0.1671037],0.005,0.1,1.241588705367901e-06,0.007255372558040785,0
6.488748788833618,0.06702175984067789,[0.16863376],0.005,0.1,1.1422616089384669e-06,0.0022997624160666177,0
6.497728109359741,0.06682636112394122,[0.17010113],0.005,0.1,1.05088068022339e-06,0.0013191045334939703,0
6.509848594665527,0.06682636112394122,[0.17149072],0.005,0.1,9.668102258055192e-07,0.00183852865548603,0
6.523710012435913,0.06682636112394122,[0.17281324],0.005,0.1,8.894654077410799e-07,0.0024790052809978377,0
6.533789873123169,0.06682636112394122,[0.17407467],0.005,0.1,8.183081751217929e-07,0.0022068969641393966,0
6.545402526855469,0.06682636112394122,[0.17527374],0.005,0.1,7.528435211120494e-07,0.0020177554543907325,0
6.555713891983032,0.06682636112394122,[0.17640806],0.005,0.1,6.926160394230851e-07,0.0019176127742433035,0
6.565405607223511,0.06702175984067789,[0.17747628],0.005,0.1,6.37206756269238e-07,0.0018276045683082135,0
6.575211048126221,0.06682636112394122,[0.17847786],0.005,0.1,5.862302157676988e-07,0.001791535163630279,0
6.584162712097168,0.06682636112394122,[0.17941302],0.005,0.1,5.39331798506283e-07,0.0017663528804981114,0
6.596858739852905,0.06682636112394122,[0.18028296],0.005,0.1,4.961852546257803e-07,0.0018195364955149963,0
6.606906175613403,0.06682636112394122,[0.1810897],0.005,0.1,4.564904342557178e-07,0.0017859250305016085,0
6.615809440612793,0.06702175984067789,[0.18183498],0.005,0.1,4.1997119951526097e-07,0.0017076179886448628,0
6.624750137329102,0.06682636112394122,[0.18252066],0.005,0.1,3.8637350355404006e-07,0.001776954840099298,0
6.635531663894653,0.06682636112394122,[0.18314929],0.005,0.1,3.554636232697169e-07,0.001727086428114986,0
6.647577285766602,0.06702175984067789,[0.18372367],0.005,0.1,3.2702653340813934e-07,0.0017742544036853255,0
6.655799627304077,0.06702175984067789,[0.18424681],0.005,0.1,3.0086441073548847e-07,0.001737539568082137,0
6.6647913455963135,0.06682636112394122,[0.18472672],0.005,0.1,2.7679525787664976e-07,0.003529419977738936,0
6.6778035163879395,0.06682636112394122,[0.18517921],0.005,0.1,2.5465163724651727e-07,0.004721572369939944,0
6.6890904903411865,0.06682636112394122,[0.1856169],0.005,0.1,2.3427950626679612e-07,0.0036963366807593674,0
6.69889497756958,0.06702175984067789,[0.1860437],0.005,0.1,2.1553714576545208e-07,0.0034027989546722565,0
6.708909749984741,0.06702175984067789,[0.18646185],0.005,0.1,1.9829417410421598e-07,0.003508026179606838,0
6.720781087875366,0.06702175984067789,[0.18687542],0.005,0.1,1.8243064017587868e-07,0.003766830681424962,0
6.732791423797607,0.06682636112394122,[0.18729056],0.005,0.1,1.6783618896180841e-07,0.005016335216774643,0
6.745160102844238,0.06682636112394122,[0.18771641],0.005,0.1,1.544092938448639e-07,0.0065307531219679,0
6.752723217010498,0.06682636112394122,[0.18815868],0.005,0.1,1.420565503372749e-07,0.006582476124566243,0
6.765750885009766,0.06682636112394122,[0.18861856],0.005,0.1,1.3069202631029292e-07,0.008370631952997974,0
6.773707151412964,0.06682636112394122,[0.18910101],0.005,0.1,1.2023666420546943e-07,0.008328962984776988,0
6.783230304718018,0.06702175984067789,[0.18961247],0.005,0.1,1.1061773106903199e-07,0.008567359723652296,0
6.790714263916016,0.06682636112394122,[0.19015533],0.005,0.1,1.0176831258350947e-07,0.006923936308018163,0
6.800700426101685,0.06682636112394122,[0.19072993],0.005,0.1,9.362684757682852e-08,0.00791797347300636,0
6.812774419784546,0.06682636112394122,[0.19134128],0.005,0.1,8.613669977068226e-08,0.011791218175989932,0
6.82213282585144,0.06682636112394122,[0.19199853],0.005,0.1,7.924576378902756e-08,0.012318716585740215,0
6.83370304107666,0.06682636112394122,[0.19270764],0.005,0.1,7.290610268590542e-08,0.013001066533850423,0
6.843897581100464,0.06682636112394122,[0.19347163],0.005,0.1,6.707361447103294e-08,0.013831020273307062,0
6.85371732711792,0.06682636112394122,[0.19429316],0.005,0.1,6.170772531335028e-08,0.014773601122094446,0
6.866070508956909,0.06702175984067789,[0.19517745],0.005,0.1,5.677110728828239e-08,0.02066584337027319,0
6.87474799156189,0.06682636112394122,[0.19612888],0.005,0.1,5.2229418705219824e-08,0.015586693456386786,0
6.888000249862671,0.06682636112394122,[0.19714825],0.005,0.1,4.805106520880226e-08,0.022446061060185436,0
6.89825963973999,0.06682636112394122,[0.19823921],0.005,0.1,4.4206979992098076e-08,0.02261746802350626,0
6.9086902141571045,0.06702175984067789,[0.19940457],0.005,0.1,4.0670421592730216e-08,0.022995801275629113,0
6.918382406234741,0.06702175984067789,[0.20064339],0.005,0.1,3.741678786531181e-08,0.023676823925436023,0
6.9257073402404785,0.06702175984067789,[0.20195114],0.005,0.1,3.442344483608687e-08,0.018256234993962957,0
6.93472695350647,0.06702175984067789,[0.20332367],0.005,0.1,3.166956924919986e-08,0.027657523508632067,0
6.947777986526489,0.06721715855741456,[0.20476388],0.005,0.1,0.27603838881468473,0.02811590871634053,0
6.955899238586426,0.06721715855741456,[0.20627027],0.005,0.1,0.3091629896452462,0.021461051222026215,0
6.96860671043396,0.06741255727415124,[0.20783779],0.005,0.1,0.5301040905876526,0.031962186454368186,0
6.978771448135376,0.06741255727415124,[0.2094689],0.005,0.1,0.48714368662128305,0.03227958252460261,0
6.990931987762451,0.06760795599088791,[0.21116516],0.005,0.1,0.3615237505884423,0.03267070447584272,0
6.999688625335693,0.06780335470762457,[0.21292382],0.005,0.1,0.22881694806937647,0.03327170201772352,0
7.0077173709869385,0.06780335470762457,[0.21473828],0.005,0.1,0.39233502332221676,0.025353569063645352,0
7.017788410186768,0.06799875342436125,[0.21659869],0.005,0.1,0.339422694961024,0.02830875643678781,0
7.027430295944214,0.06838955085783459,[0.21850379],0.005,0.1,0.49883840636388754,0.04046616780505908,0
7.037374973297119,0.06858494957457126,[0.22045957],0.005,0.1,0.4143103408491863,0.0398412257694277,0
7.045284748077393,0.06878034829130793,[0.22246302],0.005,0.1,0.5383593472033125,0.02974108709646045,0
7.053696393966675,0.0689757470080446,[0.2244997],0.005,0.1,0.4235021876467965,0.023686038204298647,0
7.0617125034332275,0.06917114572478127,[0.22655698],0.005,0.1,0.5244964364097111,0.027837218803808187,0
7.070695877075195,0.06936654444151794,[0.22863521],0.005,0.1,0.39347361447093115,0.04116308373096697,0
7.082695722579956,0.06975734187499127,[0.23074187],0.005,0.1,0.48395230823960345,0.0407991531949187,0
7.094062566757202,0.06995274059172794,[0.23287886],0.005,0.1,0.3467177508724718,0.04033588659984873,0
7.1068949699401855,0.07053893674193797,[0.23504688],0.005,0.1,0.4341118392075794,0.05075696361789885,0
7.1179187297821045,0.0709297341754113,[0.2372492],0.005,0.1,0.5720221326046416,0.04658076632734705,0
7.1284706592559814,0.07132053160888463,[0.23948393],0.005,0.1,0.41709306301627824,0.04343511723052825,0
7.138733625411987,0.07171132904235797,[0.24174486],0.005,0.1,0.4683394846908833,0.04101754386331322,0
7.148895978927612,0.07210212647583132,[0.24402581],0.005,0.1,0.2945791609390155,0.03910199550843079,0
7.1586058139801025,0.07249292390930466,[0.2463207],0.005,0.1,0.353884536420094,0.037451194161506954,0
7.1700499057769775,0.07307912005951467,[0.24862357],0.005,0.1,0.4727224312757319,0.0359712499118382,0
7.18034291267395,0.07366531620972468,[0.25092869],0.005,0.1,0.5824779281721022,0.034682614397333555,0
7.190834045410156,0.07405611364319802,[0.25323357],0.005,0.1,0.3854272536985267,0.041942336292421147,0
7.199704170227051,0.07444691107667137,[0.25553561],0.005,0.1,0.3984378528281096,0.030612685161640205,0
7.208600044250488,0.07503310722688138,[0.25782622],0.005,0.1,0.1957965543106649,0.030165033672864824,0
7.217659950256348,0.07561930337709137,[0.26009759],0.005,0.1,0.23590599249615068,0.029628358337180066,0
7.226871013641357,0.07601010081056472,[0.2623457],0.005,0.1,0.06769114305610058,0.02909487552180311,0
7.234688758850098,0.07640089824403806,[0.26456421],0.005,0.1,0.13958276035625009,0.022637856171113403,0
7.243680953979492,0.07698709439424807,[0.26674498],0.005,0.1,-0.0025841001432432703,0.023692143577097084,0
7.253507852554321,0.07737789182772142,[0.26888375],0.005,0.1,-0.18663507779759972,0.024303564692879285,0
7.264758348464966,0.07796408797793142,[0.27097955],0.005,0.1,-0.07092507480924325,0.024411961184717917,0
7.274828910827637,0.07855028412814144,[0.27303144],0.005,0.1,-0.15586419540269209,0.024235985092927542,0
7.286691188812256,0.07913648027835145,[0.27504082],0.005,0.1,-0.2874035305318896,0.028866978048361545,0
7.2987425327301025,0.07972267642856146,[0.27701306],0.005,0.1,-0.40550681870067473,0.03175167431769143,0
7.309010982513428,0.08050427129550815,[0.27895228],0.005,0.1,-0.4919779931717221,0.028101491129019114,0
7.31671929359436,0.08089506872898149,[0.2808553],0.005,0.1,-0.5459303679645424,0.02141440218539384,0
7.324681520462036,0.08128586616245481,[0.28271322],0.005,0.1,-0.5726095736347644,0.017526306468250437,0
7.3348352909088135,0.08187206231266483,[0.28451878],0.005,0.1,-0.5785664548865508,0.018100841650744052,0
7.343528747558594,0.08245825846287484,[0.28627009],0.005,0.1,-0.29373778310043486,0.01830206234862509,0
7.352680206298828,0.08304445461308485,[0.2879676],0.005,0.1,-0.2419071171569619,0.01820147272215375,0
7.361732006072998,0.0834352520465582,[0.28960624],0.005,0.1,-0.2720467502181872,0.011296054638652417,0
7.374021530151367,0.08421684691350488,[0.29117496],0.005,0.1,-0.31958972827467885,0.011283115751492124,0
7.383806228637695,0.08460764434697822,[0.29266867],0.005,0.1,-0.3598683408496264,0.012292700366035289,0
7.3956992626190186,0.08538923921392488,[0.29408947],0.005,0.1,-0.385836471260068,0.012565450809215969,0
7.407681703567505,0.08578003664739824,[0.29544064],0.005,0.1,-0.6736710036591125,0.013381413985134934,0
7.419685363769531,0.08656163151434493,[0.29672514],0.005,0.1,-0.7070155446200872,0.01267262944896824,0
7.432449579238892,0.08714782766455492,[0.29794498],0.005,0.1,-0.6435946590199801,0.012797725643117392,0
7.441663503646851,0.08753862509802827,[0.2991011],0.005,0.1,-0.5533421384229713,0.011574616921781506,0
7.451665639877319,0.08812482124823828,[0.30019315],0.005,0.1,-0.46495770460932834,0.011264034850750065,0
7.4597086906433105,0.08851561868171162,[0.30122112],0.005,0.1,-0.6644267043878834,0.011043418431624272,0
7.472628355026245,0.08910181483192163,[0.30218644],0.005,0.1,-0.6346739196938688,0.011086263726901593,0
7.486537456512451,0.08968801098213164,[0.30309141],0.005,0.1,-0.5291486624552209,0.010978057504567559,0
7.498569488525391,0.09027420713234166,[0.30393806],0.005,0.1,-0.6889630436617638,0.010646646534915118,0
7.506681203842163,0.09066500456581499,[0.30472725],0.005,0.1,-0.6195461398158029,0.010336322843234276,0
7.514708518981934,0.09105580199928834,[0.30545946],0.005,0.1,-0.4820714202358723,0.010265874904788216,0
7.52335262298584,0.09125120071602501,[0.30613596],0.005,0.1,-0.3430174236669532,0.010246805715259854,0
7.530779123306274,0.09164199814949833,[0.30675841],0.005,0.1,-0.5017973098503521,0.010163108066472462,0
7.543727397918701,0.09222819429970835,[0.30732874],0.005,0.1,-0.4442516005082708,0.010186575571794683,0
7.55471396446228,0.09261899173318171,[0.30784965],0.005,0.1,-0.3226517149758816,0.010167460385742882,0
7.564515829086304,0.09300978916665503,[0.30832395],0.005,0.1,-0.47569690206033144,0.010153825579578751,0
7.574699878692627,0.09340058660012837,[0.30875434],0.005,0.1,-0.4063524944779551,0.010142013523229894,0
7.582720994949341,0.09379138403360171,[0.30914366],0.005,0.1,-0.2736978449197801,0.010131272068515669,0
7.593294620513916,0.09418218146707506,[0.30949577],0.005,0.1,-0.14257730672241878,0.010331467607034133,0
7.600687265396118,0.09437758018381173,[0.30981522],0.005,0.1,-0.03515272696005674,0.010236322459429853,0
7.613664627075195,0.09496377633402173,[0.31010567],0.005,0.1,-0.23138544292377947,0.010260145718114635,0
7.624867916107178,0.09535457376749508,[0.31037049],0.005,0.1,-0.20929660708443665,0.010250502759947228,0
7.636025905609131,0.09574537120096842,[0.31061357],0.005,0.1,-0.11859355108895969,0.010386489359730215,0
7.645105600357056,0.09633156735117841,[0.31083855],0.005,0.1,-0.021607174229277576,0.010207423512954172,0
7.6539387702941895,0.0965269660679151,[0.31104814],0.005,0.1,0.05923430643608339,0.01025280161276307,0
7.6644957065582275,0.09691776350138845,[0.31124498],0.005,0.1,0.11880643752323108,0.01026515204322796,0
7.67662501335144,0.09730856093486177,[0.31143238],0.005,0.1,-0.11725290378933477,0.01044638972507495,0
7.685824871063232,0.09769935836833513,[0.31161333],0.005,0.1,-0.12620890984106456,0.010236420954672212,0
7.695685625076294,0.09789475708507178,[0.31178963],0.005,0.1,-0.05882149387087829,0.010270796020683332,0
7.704737663269043,0.09828555451854513,[0.31196287],0.005,0.1,0.021050752882471435,0.010271081843251895,0
7.717664480209351,0.09867635195201847,[0.3121354],0.005,0.1,0.08951477923027965,0.01046456383436264,0
7.728753566741943,0.09906714938549181,[0.31230978],0.005,0.1,0.14022301625065392,0.010418961657854858,0
7.738293170928955,0.0992625481022285,[0.31248784],0.005,0.1,0.1738966478787174,0.010429081057844477,0
7.7468602657318115,0.0996533455357018,[0.3126703],0.005,0.1,-0.0824379728920957,0.010213187573027017,0
7.758652687072754,0.10004414296917516,[0.31285801],0.005,0.1,-0.10642405763551237,0.01058666257647035,0
7.77067756652832,0.10043494040264851,[0.3130538],0.005,0.1,-0.04975946898523247,0.011052894141959072,0
7.783004283905029,0.10082573783612185,[0.31326105],0.005,0.1,0.022705478282084388,0.01103577069423544,0
7.7906434535980225,0.1010211365528585,[0.31348079],0.005,0.1,0.08621733530391665,0.010631559425867786,0
7.800765752792358,0.10141193398633185,[0.31371248],0.005,0.1,0.13374443640890568,0.010735880396561634,0
7.813676834106445,0.1018027314198052,[0.31395689],0.005,0.1,0.16548936366182032,0.011224485427550146,0
7.8250672817230225,0.10199813013654188,[0.31421575],0.005,0.1,0.18413502239236434,0.011095318182085106,0
7.834665298461914,0.10258432628675188,[0.31448931],0.005,0.1,0.19281042123119793,0.010892189182724731,0
7.843372583389282,0.10277972500348855,[0.3147752],0.005,0.1,0.19431334555074764,0.010099870472444913,0
7.850645542144775,0.10297512372022523,[0.31506893],0.005,0.1,-0.08514894237091733,0.009937434286473326,0
7.8606696128845215,0.10336592115369855,[0.31536648],0.005,0.1,-0.12492404694200697,0.009838576458015702,0
7.870648384094238,0.10356131987043524,[0.31566537],0.005,0.1,-0.07846352004239707,0.009856194252785163,0
7.878643274307251,0.1037567185871719,[0.31596373],0.005,0.1,-0.012121057679642458,0.009816667490220223,0
7.890440940856934,0.10414751602064523,[0.31625961],0.005,0.1,0.048163772745483356,0.009731016577167973,0
7.89969539642334,0.1043429147373819,[0.31655054],0.005,0.1,0.09446596263296628,0.009659106244350473,0
7.9138078689575195,0.10492911088759192,[0.31683353],0.005,0.1,0.12633473463711714,0.009565282703838515,0
7.9250404834747314,0.10512450960432859,[0.31710519],0.005,0.1,0.14598486258639412,0.00957402050320181,0
7.936638116836548,0.10551530703780194,[0.31736206],0.005,0.1,0.15621524448860685,0.009604533255355664,0
7.945130825042725,0.10571070575453859,[0.31760073],0.005,0.1,0.159594112668384,0.009712044116828293,0
7.954155683517456,0.10590610447127527,[0.31781776],0.005,0.1,0.15820967912335382,0.009873397752692832,0
7.9647216796875,0.10629690190474862,[0.31800976],0.005,0.1,0.1536559886470128,0.0100609072866563,0
7.977774381637573,0.10649230062148528,[0.3181727],0.005,0.1,-0.12893523291314926,0.0107247108048257,0
7.990732431411743,0.10688309805495863,[0.3183019],0.005,0.1,-0.16977662491223577,0.010988782199364156,0
7.999669075012207,0.1070784967716953,[0.31839374],0.005,0.1,-0.12297738781388219,0.01131413941694539,0
8.009275197982788,0.10727389548843196,[0.31844567],0.005,0.1,-0.05537399454107055,0.011657332786689045,0
8.018741846084595,0.1076646929219053,[0.31845555],0.005,0.1,0.00674818023257227,0.011941049396407251,0
8.029720067977905,0.10786009163864198,[0.31842179],0.005,0.1,0.05522121127970346,0.012201107258906472,0
8.041567325592041,0.10805549035537865,[0.31834242],0.005,0.1,0.08942668761258046,0.013396005967142473,0
8.05465841293335,0.10844628778885199,[0.31821441],0.005,0.1,0.11146585057287443,0.014167356941157422,0
8.065750360488892,0.10883708522232532,[0.31803615],0.005,0.1,0.12406242945786833,0.013438299072927033,0
8.074827194213867,0.10903248393906198,[0.31781026],0.005,0.1,0.12973639712896834,0.012006162569019001,0
8.085038185119629,0.10922788265579866,[0.31754182],0.005,0.1,0.13054639336613755,0.011737851785242108,0
8.093382120132446,0.10961868008927202,[0.31723207],0.005,0.1,0.128069734796129,0.01481508802892364,0
8.100626230239868,0.10981407880600867,[0.31687926],0.005,0.1,0.12346850168895407,0.012883845858709055,0
8.108652830123901,0.11000947752274534,[0.31648693],0.005,0.1,0.11757576785090851,0.011541490904171744,0
8.117358922958374,0.11020487623948202,[0.31606272],0.005,0.1,0.11097588099254041,0.0106408189440132,0
8.12566328048706,0.11040027495621868,[0.31561435],0.005,0.1,0.1040705587928075,0.00978077691005284,0
8.134661674499512,0.11059567367295536,[0.31514971],0.005,0.1,0.09713005092558938,0.009308526751088148,0
8.144625663757324,0.1109864711064287,[0.3146763],0.005,0.1,0.0903313491571073,0.008872556776363909,0
8.156751155853271,0.11137726853990204,[0.31420183],0.005,0.1,0.08378608609854532,0.008458789748823269,0
8.1656973361969,0.11157266725663871,[0.31373425],0.005,0.1,0.07756059725252251,0.008308728917214967,0
8.174632549285889,0.11157266725663871,[0.31328109],0.005,0.1,0.07169019141664912,0.008277757901596194,0
8.187142133712769,0.11176806597337538,[0.31285086],0.005,0.1,0.06618921712186059,0.008687616569780579,0
8.197589874267578,0.11215886340684872,[0.31245329],0.005,0.1,0.06105811429384719,0.009089763537029998,0
8.206637859344482,0.11235426212358537,[0.31209591],0.005,0.1,0.05628832224393389,0.008980743269930081,0
8.215691089630127,0.11254966084032206,[0.31178396],0.005,0.1,0.051865672887124264,0.009728580890824321,0
8.226584672927856,0.11294045827379541,[0.31152517],0.005,0.1,0.047772718780639684,0.012238086408242371,0
8.236389875411987,0.11313585699053208,[0.31132965],0.005,0.1,0.04399031519962872,0.013332375628127953,0
8.245654344558716,0.11333125570726875,[0.31120537],0.005,0.1,0.04049868178581284,0.014670601208027528,0
8.254971265792847,0.1135266544240054,[0.31115824],0.005,0.1,0.037278102533032396,0.01627536077217507,0
8.26370882987976,0.11391745185747876,[0.31119144],0.005,0.1,0.03430937554773829,0.014535987816782739,0
8.272634267807007,0.11411285057421541,[0.3113056],0.005,0.1,0.03157409061320614,0.017054352299052018,0
8.28305959701538,0.11450364800768877,[0.31150375],0.005,0.1,0.029054789069221758,0.01974510101725772,0
8.295599222183228,0.11469904672442544,[0.31179396],0.005,0.1,0.026735044001519728,0.029077075218746758,0
8.304377794265747,0.11489444544116212,[0.31218335],0.005,0.1,0.024599487154024074,0.02385972629995696,0
8.31261682510376,0.11508984415789876,[0.31267229],0.005,0.1,0.022633800868615786,0.027350316043388275,0
8.324788570404053,0.11548064159137211,[0.31326453],0.005,0.1,0.020824687687998174,0.04014500805431182,0
8.333195924758911,0.11587143902484545,[0.31396608],0.005,0.1,0.019159826299188068,0.031717072973274855,0
8.340864896774292,0.11606683774158212,[0.31477136],0.005,0.1,0.29366617941430073,0.02661476460303382,0
8.353626012802124,0.11645763517505547,[0.31567533],0.005,0.1,0.32538110267615433,0.0424265202672504,0
8.364374876022339,0.1168484326085288,[0.31668384],0.005,0.1,0.2689867768733962,0.04489144221224591,0
8.374176263809204,0.11723923004200215,[0.3178011],0.005,0.1,0.4677467131305573,0.04705365090899824,0
8.383232355117798,0.11763002747547549,[0.31902618],0.005,0.1,0.4292506136459001,0.04906868473272069,0
8.390706539154053,0.11802082490894884,[0.32035733],0.005,0.1,0.5925596818693883,0.050838592647067464,0
8.399619102478027,0.11841162234242215,[0.32178415],0.005,0.1,0.5066722152713303,0.05116484396495124,0
8.407639980316162,0.11880241977589551,[0.32328895],0.005,0.1,0.6268203762097913,0.0526933817911764,0
8.420717239379883,0.11938861592610552,[0.32487147],0.005,0.1,0.7829620141221821,0.08632934003866563,0
8.43263578414917,0.11997481207631551,[0.3265461],0.005,0.1,0.9116310962473606,0.07715978994507246,0
8.442171573638916,0.12056100822652555,[0.32831213],0.005,0.1,0.7200289569716212,0.05556700174184011,0
8.451964378356934,0.12114720437673555,[0.33015993],0.005,0.1,0.7291019030621977,0.07169604481204692,0
8.459643363952637,0.12173340052694555,[0.33208425],0.005,0.1,0.7923191440467778,0.052773942611572325,0
8.469640970230103,0.12231959667715558,[0.33407579],0.005,0.1,0.8514517424715891,0.05452226311563478,0
8.479936122894287,0.12310119154410225,[0.33612593],0.005,0.1,0.8878164713817807,0.056210448663670094,0
8.490749597549438,0.12407818512778561,[0.3382307],0.005,0.1,0.8992868501587544,0.05762855549295136,0
8.501646995544434,0.12466438127799562,[0.34039034],0.005,0.1,0.8897704340232977,0.07599708462952001,0
8.509653568267822,0.1254459761449423,[0.34260463],0.005,0.1,0.8646271437834927,0.05633139443027696,0
8.518684148788452,0.12583677357841566,[0.34486495],0.005,0.1,0.828853699502254,0.05924984996870978,0
8.530164957046509,0.12700916587883565,[0.34716383],0.005,0.1,0.7865080556390758,0.06187280857336357,0
8.539993286132812,0.12779076074578233,[0.34949899],0.005,0.1,0.4646153794981689,0.06470510482975032,0
8.550620794296265,0.128572355612729,[0.35186862],0.005,0.1,0.3843311425553239,0.0674692638416048,0
8.560247659683228,0.12954934919641237,[0.35427133],0.005,0.1,0.392486854342713,0.07027298548269674,0
8.569616317749023,0.13033094406335904,[0.35670616],0.005,0.1,0.4228608021295236,0.07326080363347323,0
8.580305814743042,0.1313079376470424,[0.35917256],0.005,0.1,0.4495436422030998,0.07621246448643906,0
8.589622259140015,0.13228493123072574,[0.36167036],0.005,0.1,0.18853532259392106,0.07956669691270564,0
8.59948444366455,0.1332619248144091,[0.36419967],0.005,0.1,0.1582579661001986,0.08254071431620785,0
8.609617471694946,0.13443431711482912,[0.36676073],0.005,0.1,0.20612958187024766,0.0856187365447103,0
8.6192786693573,0.13541131069851248,[0.36935395],0.005,0.1,0.2675960047304744,0.08894137349847622,0
8.628057718276978,0.1365837029989325,[0.37197995],0.005,0.1,0.31855018307353605,0.09224103100649197,0
8.637611389160156,0.13736529786587917,[0.37463437],0.005,0.1,0.6286538822786963,0.07144854941551397,0
8.64573860168457,0.13834229144956253,[0.37730866],0.005,0.1,0.4036634584077592,0.0808714782579899,0
8.654598951339722,0.1393192850332459,[0.38000087],0.005,0.1,0.3203153056195737,0.08912471726696745,0
8.665222406387329,0.14068707605040257,[0.38271478],0.005,0.1,0.5706066891610452,0.09597705567105108,0
8.673214435577393,0.1418594683508226,[0.38545393],0.005,0.1,0.5978890005791766,0.1022464904275207,0
8.683343172073364,0.14303186065124263,[0.3882217],0.005,0.1,0.541004083597185,0.1080867404315073,0
8.693926811218262,0.1443996516683993,[0.39102132],0.005,0.1,0.4613334042937899,0.11360507712042318,0
8.705769062042236,0.14615824011902934,[0.39385594],0.005,0.1,0.38392713773900405,0.11891217872072425,0
8.717613697052002,0.14791682856965938,[0.39673454],0.005,0.1,0.3173500770818183,0.1636146397186283,0
8.728462219238281,0.14948001830355273,[0.39967118],0.005,0.1,0.5391398210022047,0.15918965115884837,0
8.73858380317688,0.1510432080374461,[0.40267247],0.005,0.1,0.5291355871209991,0.15836720919295097,0
8.746593475341797,0.1524109990546028,[0.40573234],0.005,0.1,0.44004486977968493,0.11893876959385467,0
8.75763463973999,0.1543649862219695,[0.40884625],0.005,0.1,0.6131733623003579,0.17841294964996313,0
8.76719617843628,0.15612357467259955,[0.41202378],0.005,0.1,0.8304839464700765,0.1808453733649882,0
8.775651931762695,0.15768676440649287,[0.41526679],0.005,0.1,1.2868047054795761,0.13601878447578647,0
8.784618377685547,0.15964075157385957,[0.41857126],0.005,0.1,1.4419057804312234,0.20883436318032847,0
8.79358720779419,0.16120394130775295,[0.42194116],0.005,0.1,1.4532420435102829,0.15626840321218685,0
8.801581859588623,0.162962529758383,[0.4253656],0.005,0.1,1.3986932426592211,0.12435284576956065,0
8.810621500015259,0.16491651692574968,[0.42882858],0.005,0.1,1.316509404472435,0.1525740712944486,0
8.81962776184082,0.16706590280985303,[0.43233173],0.005,0.1,1.2252439006653666,0.17773585926830923,0
8.828460216522217,0.16901988997721973,[0.43588454],0.005,0.1,1.4097299791226305,0.19976207723628017,0
8.83757734298706,0.17116927586132313,[0.43949571],0.005,0.1,1.0789622330552913,0.21903826516530933,0
8.847686529159546,0.17390485789563648,[0.44317309],0.005,0.1,1.184257799804508,0.23545043403194146,0
8.857300519943237,0.17624964249647657,[0.44692353],0.005,0.1,1.3957485020006444,0.24977957634915882,0
8.86660385131836,0.17878982581405328,[0.45075284],0.005,0.1,1.308463462690768,0.2626872712471798,0
8.878612279891968,0.18211160399857668,[0.45466577],0.005,0.1,1.4018935902111898,0.2730876617472993,0
8.88661789894104,0.1844563885994167,[0.45865754],0.005,0.1,1.5189395541395645,0.20478168981491093,0
8.894903898239136,0.18699657191699343,[0.46271507],0.005,0.1,1.603123809595236,0.23292781779148217,0
8.905333042144775,0.19031835010151682,[0.46683534],0.005,0.1,1.641494100670951,0.25505690739875575,0
8.913405895233154,0.1930539321358302,[0.47102376],0.005,0.1,1.914162370382634,0.2724766384227517,0
8.923322916030884,0.1961803116036169,[0.47528435],0.005,0.1,1.9114593098465589,0.28560265606947843,0
8.930653810501099,0.19872049492119365,[0.47961971],0.005,0.1,1.7976627507544116,0.2959506471433396,0
8.941606998443604,0.20262846925592706,[0.48402255],0.005,0.1,2.4762585573816485,0.21851647334181026,0
8.956052303314209,0.2080996333245538,[0.48849435],0.005,0.1,3.2513563998228125,0.4322467187042002,0
8.965577602386475,0.21181220894255054,[0.4930526],0.005,0.1,3.319166311577004,0.2979860065785399,0
8.97357439994812,0.21513398712707393,[0.49769357],0.005,0.1,2.8304772709991095,0.3002282395948791,0
8.984562873840332,0.21962815761201734,[0.5024041],0.005,0.1,2.4975191179068044,0.30062282613817254,0
8.996219873428345,0.22451312553043412,[0.50718888],0.005,0.1,2.247998130257475,0.39486233071419735,0
9.005282402038574,0.22822570114843083,[0.51205055],0.005,0.1,1.7697385602923539,0.2738781513429875,0
9.012981414794922,0.2311566818994809,[0.51697317],0.005,0.1,1.0114192627127974,0.280105625456299,0
9.022888422012329,0.23506465623421427,[0.52194207],0.005,0.1,0.2948643682289027,0.2838988467702644,0
9.030656099319458,0.23858183313547435,[0.526944],0.005,0.1,-0.5516736906036964,0.2084755301735668,0
9.041584253311157,0.24288060490368113,[0.53195874],0.005,0.1,-1.2726040128910447,0.23018809285314423,0
9.053375720977783,0.2475701741053612,[0.5369851],0.005,0.1,-1.8008406346216264,0.32983986768999807,0
9.06437611579895,0.25186894587356795,[0.54203792],0.005,0.1,-2.421093198707303,0.31566283780203397,0
9.072913408279419,0.2551907240580913,[0.54712072],0.005,0.1,-3.200112150349205,0.30558406371265245,0
9.082556009292603,0.25890329967608805,[0.5522274],0.005,0.1,-3.567800572489452,0.29733674518456177,0
9.093254804611206,0.2633974701610315,[0.55735198],0.005,0.1,-3.6903661570536332,0.28955418360851787,0
9.10160756111145,0.2667192483455549,[0.56248071],0.005,0.1,-3.6664303329664394,0.20978445272669285,0
9.109602451324463,0.2700410265300783,[0.56759357],0.005,0.1,-3.555871697874484,0.22613369153227292,0
9.120596885681152,0.27433979829828503,[0.57268106],0.005,0.1,-3.395756197931981,0.2364287467929522,0
9.13456654548645,0.28020175980038514,[0.57775758],0.005,0.1,-3.2093562581214288,0.4055134275299619,0
9.142913341522217,0.28352353798490854,[0.582842],0.005,0.1,-3.0113964421399726,0.27418057739777724,0
9.150707483291626,0.28645451873595856,[0.5879195],0.005,0.1,-2.811189953762313,0.19722744330297157,0
9.16371750831604,0.292121081521322,[0.59296919],0.005,0.1,-2.6145649902196904,0.2753278694275919,0
9.179177284240723,0.29798304302342216,[0.59800205],0.005,0.1,-2.4250772408643835,0.33500139023172476,0
9.189062595367432,0.3020864160748922,[0.60303379],0.005,0.1,-2.244789419964486,0.2986956477775027,0
9.198562860488892,0.30579899169288893,[0.60806246],0.005,0.1,-2.0747811889586734,0.27305142420312545,0
9.206558465957642,0.3089253711606756,[0.61307189],0.005,0.1,-1.9154871755223604,0.1934364186614209,0
9.217594385147095,0.3134195416456191,[0.61804809],0.005,0.1,-1.4908847969113572,0.26080837493938813,0
9.227870225906372,0.31771831341382584,[0.62299289],0.005,0.1,-1.3196753187659507,0.24524479855155765,0
9.239588260650635,0.3224078826155059,[0.62790793],0.005,0.1,-1.2467520515928727,0.23328355105353182,0
9.248060703277588,0.3263158569502393,[0.63278787],0.005,0.1,-1.2043713404967114,0.22540302820175057,0
9.259690999984741,0.3310054261519194,[0.63762849],0.005,0.1,-1.1654252114795671,0.2193568891656816,0
9.269562721252441,0.3347180017699161,[0.64242664],0.005,0.1,-1.1209996798674193,0.21605198435633624,0
9.281553030014038,0.33960296968833287,[0.64718692],0.005,0.1,-1.0697986354675786,0.2776336204652566,0
9.292182445526123,0.3444879376067496,[0.65192054],0.005,0.1,-1.2893448504391567,0.2563207240841149,0
9.30259108543396,0.3480051145080097,[0.65662403],0.005,0.1,-1.2628474041996989,0.18345989113137157,0
9.314205169677734,0.35249928499295313,[0.66128846],0.005,0.1,-1.1470042449854612,0.2535181609280137,0
9.324185609817505,0.3566026580444232,[0.66592061],0.005,0.1,-1.0106379155042275,0.24333757192085667,0
9.337596416473389,0.36207382211305,[0.6705339],0.005,0.1,-0.8814450728123449,0.3055976214256215,0
9.347554445266724,0.36637259388125676,[0.67514038],0.005,0.1,-0.7685313921044357,0.2798892765001464,0
9.355564832687378,0.36949897334904347,[0.67973677],0.005,0.1,-0.6730908241844961,0.19910673463536566,0
9.365857362747192,0.3736023464005135,[0.68431364],0.005,0.1,-0.5933332165969102,0.2720803373835468,0
9.37758755683899,0.3782919156021936,[0.68887713],0.005,0.1,-0.5266594690788506,0.25729377622439087,0
9.386578798294067,0.3820044912201903,[0.69343243],0.005,0.1,-0.47054682290262384,0.2469128444543724,0
9.396863460540771,0.38630326298839707,[0.69797684],0.005,0.1,-0.42284969225718183,0.23853020553369145,0
9.405498743057251,0.38982043988965714,[0.70250106],0.005,0.1,-0.3818506161281239,0.17417934762699344,0
9.418582916259766,0.3952916039582839,[0.70699704],0.005,0.1,-0.6222542903030182,0.2441764452837161,0
9.430572509765625,0.399981173159964,[0.71147135],0.005,0.1,-0.6240875408202459,0.23320464961989099,0
9.4389967918396,0.4031075526277507,[0.7159292],0.005,0.1,-0.5412637468315555,0.22498958946979952,0
9.446548700332642,0.40623393209553743,[0.72036138],0.005,0.1,-0.44042174040788856,0.1644497462072647,0
9.459565877914429,0.41131429873069086,[0.7247597],0.005,0.1,-0.34765278991572784,0.22710175056270468,0
9.469569444656372,0.4156130704988976,[0.72912986],0.005,0.1,-0.27093763054809067,0.21569352283458695,0
9.477912187576294,0.4191302474001577,[0.73347626],0.005,0.1,-0.21071642063574403,0.20647507506212381,0
9.487553596496582,0.42284282301815435,[0.73779583],0.005,0.1,-0.16471969528383112,0.19874185183554438,0
9.49858283996582,0.42733699350309784,[0.74208562],0.005,0.1,-0.13006599543370218,0.19156718325663794,0
9.507558584213257,0.43085417040435786,[0.7463429],0.005,0.1,-0.10408816082155431,0.1861498547238932,0
9.516587972640991,0.43476214473909125,[0.75055934],0.005,0.1,-0.08459068546245585,0.1375023707879975,0
9.527571678161621,0.4392563152240347,[0.75472792],0.005,0.1,-0.06986931787553846,0.1904617731476055,0
9.539782524108887,0.44453208057592475,[0.75886041],0.005,0.1,-0.05864448501826791,0.2324557553086376,0
9.550480604171753,0.44922164977760487,[0.76297268],0.005,0.1,-0.0499745207665459,0.20944754860644746,0
9.559280395507812,0.4525434279621283,[0.76706071],0.005,0.1,-0.0431748231645091,0.14970661222999346,0
9.5699782371521,0.4566468010135984,[0.77110981],0.005,0.1,-0.03775119609007047,0.15247651568404963,0
9.578256130218506,0.45996857919812173,[0.77511372],0.005,0.1,-0.03334813851661428,0.1554062031358453,0
9.585546016693115,0.46250876251569845,[0.77906779],0.005,0.1,-0.029710107599145122,0.11916226947904833,0
9.598379850387573,0.46778452786758856,[0.7829688],0.005,0.1,-0.026653119848119786,0.17185262515228442,0
9.610379934310913,0.4726694957860053,[0.7868264],0.005,0.1,-0.02404421823117342,0.16925457519525475,0
9.61954641342163,0.4765774701207387,[0.79064955],0.005,0.1,-0.297825120716556,0.16824933168833556,0
9.632224321365356,0.4818532354726288,[0.79444678],0.005,0.1,-0.3289729075232774,0.21694198115074048,0
9.64287257194519,0.48615200724083557,[0.79823204],0.005,0.1,-0.2721270766980101,0.20271072530785691,0
9.65404987335205,0.490646177725779,[0.80201185],0.005,0.1,-0.19448248393163714,0.19332766221858266,0
9.664678573608398,0.494749550777249,[0.80578635],0.005,0.1,-0.12255937263867604,0.1878962568088443,0
9.676528930664062,0.49963451869566583,[0.80956234],0.005,0.1,-0.06467325705413206,0.23889805597890437,0
9.684555292129517,0.5029562968801892,[0.81334594],0.005,0.1,0.2545090227145476,0.16933349889793176,0
9.698958158493042,0.5086228596655527,[0.81713652],0.005,0.1,0.31809156624327545,0.22442852712446612,0
9.706546545028687,0.5117492391333394,[0.82093377],0.005,0.1,0.2834732126372446,0.16157942669811975,0
9.714555978775024,0.5146802198843894,[0.82473134],0.005,0.1,0.22040997878738702,0.16887683965827194,0
9.726592779159546,0.5193697890860695,[0.82853052],0.005,0.1,0.15752458818506485,0.2286773769591826,0
9.736324071884155,0.523863959571013,[0.83234532],0.005,0.1,0.38079275194327605,0.21682139854128538,0
9.745528221130371,0.5275765351890096,[0.83617497],0.005,0.1,0.3731735363895463,0.15743281799930847,0
9.756009340286255,0.5320707056739531,[0.84001262],0.005,0.1,0.28817815321595575,0.22142966535144928,0
9.764533281326294,0.5353924838584764,[0.8438591],0.005,0.1,0.1909586290331308,0.16151695275705666,0
9.77746057510376,0.5408636479271033,[0.84771547],0.005,0.1,0.10598313749166136,0.22714865416277502,0
9.78667664527893,0.5443808248283633,[0.85158293],0.005,0.1,0.03982377020370117,0.16544475824382654,0
9.799227237701416,0.5496565901802534,[0.85546288],0.005,0.1,-0.0081844105323577,0.23385597373787295,0
9.809549331665039,0.5537599632317235,[0.85936359],0.005,0.1,-0.31716650161111815,0.2271567227406504,0
9.81862473487854,0.5574725388497203,[0.86329226],0.005,0.1,-0.09559287713858089,0.22317517145417806,0
9.830265760421753,0.5621621080514002,[0.86724831],0.005,0.1,-0.02017054606134802,0.22032846453974714,0
9.838611364364624,0.5652884875191869,[0.87123125],0.005,0.1,-0.005897127809337991,0.22023442947480604,0
9.849284410476685,0.5697826580041304,[0.87524056],0.005,0.1,-0.28999320309991256,0.2197995061620406,0
9.862064361572266,0.5746676259225473,[0.87928261],0.005,0.1,-0.060629363211411685,0.28665312840203244,0
9.871155261993408,0.5781848028238072,[0.8833694],0.005,0.1,0.0151786324657368,0.26669200587810243,0
9.878594398498535,0.581311182291594,[0.88749662],0.005,0.1,0.026955983538682653,0.19033811587405017,0
9.88751220703125,0.5850237579095907,[0.89163927],0.005,0.1,0.015554298542701501,0.14492672570228032,0
9.90058422088623,0.5906903206949541,[0.89578287],0.005,0.1,-0.0013313675007669149,0.22119114746844062,0
9.912747859954834,0.595575288613371,[0.89994266],0.005,0.1,-0.016758622483234648,0.28651583801270275,0
9.923937559127808,0.6000694590983143,[0.90413799],0.005,0.1,-0.028583987187639104,0.2637048458750392,0
9.934647560119629,0.6039774334330478,[0.90837072],0.005,0.1,-0.03665971608236211,0.2476404595611214,0
9.946539878845215,0.6090578000682011,[0.91264162],0.005,0.1,-0.04155375716342854,0.303887102146923,0
9.957342624664307,0.6135519705531445,[0.91695744],0.005,0.1,0.23204357780161924,0.2733318026052792,0
9.966572046279907,0.6170691474544047,[0.92130959],0.005,0.1,0.26450875959780423,0.19211898129838215,0
9.974958658218384,0.6205863243556646,[0.92567668],0.005,0.1,0.2099868984171865,0.19678356205119996,0
9.986212491989136,0.6252758935573448,[0.93005395],0.005,0.1,0.13529452024138622,0.2627389422368955,0
9.997564315795898,0.6297700640422882,[0.93445079],0.005,0.1,0.06667525320358253,0.2465553572099258,0
10.009980201721191,0.6352412281109149,[0.93887508],0.005,0.1,0.012249085650940128,0.3029832041872103,0
10.019340991973877,0.6389538037289116,[0.94332646],0.005,0.1,-0.02741292106026616,0.21007005025123132,0
10.029406785964966,0.6432525754971185,[0.94779082],0.005,0.1,-0.0544561316526311,0.21019628992653352,0
10.042346715927124,0.6483329421322718,[0.95226301],0.005,0.1,-0.07164440630243818,0.2754739981847975,0
10.053541421890259,0.6526317139004786,[0.95675224],0.005,0.1,-0.0815338865195457,0.2561129314783605,0
10.065955400466919,0.6577120805356321,[0.96126597],0.005,0.1,-0.08621574704988894,0.31071081485554397,0
10.077720642089844,0.6620108523038388,[0.96580989],0.005,0.1,-0.08729661157573687,0.27778760675319536,0
10.085514783859253,0.6651372317716254,[0.97037458],0.005,0.1,-0.08596503178931739,0.19485955590691187,0
10.096524000167847,0.6694360035398322,[0.97493795],0.005,0.1,-0.0830780647123156,0.19670882885540084,0
10.108510494232178,0.6745163701749858,[0.97949408],0.005,0.1,-0.3552802095745354,0.25651534043645213,0
10.119516849517822,0.6790105406599292,[0.9840506],0.005,0.1,-0.38404091876373847,0.2359844499272397,0
10.128573179244995,0.6827231162779259,[0.98860646],0.005,0.1,-0.04830210021638043,0.22023976919914076,0
10.142441511154175,0.6881942803465526,[0.99315945],0.005,0.1,-0.2104819034167273,0.2636367716129673,0
10.153540849685669,0.6928838495482326,[0.99771285],0.005,0.1,-0.22361319769206203,0.23296331901750247,0
10.16431736946106,0.6971826213164394,[1.00226213],0.005,0.1,0.09246579186979852,0.21030550823587002,0
10.178106307983398,0.7030445828185395,[1.00680207],0.005,0.1,0.17734753562936176,0.24338531256908502,0
10.186820268630981,0.7063663610030629,[1.01133317],0.005,0.1,0.1695280644986959,0.21381201426608296,0
10.196521520614624,0.7102743353377963,[1.01584928],0.005,0.1,0.13131016491430839,0.19217012088016872,0
10.208999872207642,0.7151593032562131,[1.02033888],0.005,0.1,0.0889896503097812,0.1762312307344634,0
10.21652340888977,0.7178948852905265,[1.02479209],0.005,0.1,0.052321115639911805,0.16638759271149026,0
10.228540658950806,0.7229752519256799,[1.02920067],0.005,0.1,0.02381168670863175,0.15798200038089466,0
10.240684986114502,0.7280556185608333,[1.0335635],0.005,0.1,0.003060541081587119,0.19468516792675644,0
10.24894404411316,0.7315727954620934,[1.03788021],0.005,0.1,-0.011286446145300938,0.13809557157656724,0
10.259086608886719,0.7354807697968269,[1.04214027],0.005,0.1,-0.020709929440456246,0.1392509182758608,0
10.266911029815674,0.7386071492646135,[1.04633578],0.005,0.1,-0.026509063490321914,0.14163579131777823,0
10.274517297744751,0.7415381300156635,[1.0504611],0.005,0.1,-0.3057595725304625,0.10864199113385695,0
10.285433053970337,0.7460323005006069,[1.05450714],0.005,0.1,-0.34029635305082284,0.11982866386003263,0
10.296549558639526,0.7505264709855504,[1.05847329],0.005,0.1,-0.28538976845233555,0.12936148227823024,0
10.306559085845947,0.7548252427537571,[1.06237205],0.005,0.1,-0.2086899941378773,0.18080481743667923,0
10.31763219833374,0.7589286158052272,[1.06622148],0.005,0.1,-0.1370414899249222,0.17614826925503801,0
10.325494766235352,0.762054995273014,[1.07002646],0.005,0.1,-0.07898821260607031,0.13094145144442482,0
10.337472915649414,0.766744564474694,[1.07378667],0.005,0.1,-0.035394862486391857,0.18815666302302786,0
10.345475912094116,0.7700663426592175,[1.07750906],0.005,0.1,-0.004315607097749526,0.13940380409699682,0
10.354755878448486,0.7735835195604776,[1.08119441],0.005,0.1,0.016880838548800133,0.151161838935324,0
10.36571478843689,0.7780776900454209,[1.08484463],0.005,0.1,0.03066512472302253,0.16097643340258622,0
10.3785240650177,0.7835488541140476,[1.08847523],0.005,0.1,0.03907569967733706,0.22360315171243178,0
10.389127016067505,0.7878476258822544,[1.092107],0.005,0.1,0.043689021981460074,0.21613996568380012,0
10.398657321929932,0.7919509989337246,[1.09575202],0.005,0.1,0.04567882943055729,0.2123710888506547,0
10.409507513046265,0.7962497707019311,[1.09941471],0.005,0.1,0.04589765572791763,0.21148768414415062,0
10.420475482940674,0.8007439411868746,[1.10309948],0.005,0.1,0.044953877229131946,0.21239470354964882,0
10.43091893196106,0.8046519155216081,[1.1068178],0.005,0.1,0.043275611374043524,0.2845678102100585,0
10.44048261642456,0.8083644911396048,[1.11057988],0.005,0.1,-0.23487795591242586,0.20212689921609012,0
10.449483871459961,0.8122724654743383,[1.11438042],0.005,0.1,-0.27035049732582184,0.21180836085246268,0
10.460520505905151,0.8167666359592817,[1.11821533],0.005,0.1,-0.21769575957162635,0.220682158128232,0
10.470487117767334,0.820674610294015,[1.12208873],0.005,0.1,-0.1440560889838675,0.22984157060525265,0
10.481924295425415,0.8249733820622217,[1.1260122],0.005,0.1,-0.07592213436761558,0.3164111555076453,0
10.49140477180481,0.8286859576802185,[1.13000351],0.005,0.1,-0.021595406058862072,0.30243152322852607,0
10.500723361968994,0.8325939320149518,[1.13406219],0.005,0.1,0.018222461872936854,0.21734491259835995,0
10.51350712776184,0.8380650960835787,[1.13818014],0.005,0.1,0.04558441231386267,0.31284061810299835,0
10.523447275161743,0.8423638678517854,[1.14236612],0.005,0.1,0.06318977379118508,0.30456648458474933,0
10.536555767059326,0.8476396332036755,[1.14663535],0.005,0.1,0.07355021765596842,0.39200932676472894,0
10.546858787536621,0.8519384049718822,[1.15100043],0.005,0.1,0.07872671110343027,0.3614274296094252,0
10.555485010147095,0.8552601831564056,[1.15545499],0.005,0.1,0.08030571822816579,0.2552535455456232,0
10.565499782562256,0.8591681574911391,[1.15997653],0.005,0.1,0.07946265478464562,0.2673980786910978,0
10.574569702148438,0.8628807331091358,[1.16455359],0.005,0.1,0.07704631481487029,0.2786702488846071,0
10.587828397750854,0.8681564984610259,[1.16919235],0.005,0.1,0.07365792862022957,0.37730087013101726,0
10.5964834690094,0.8716736753622859,[1.17389723],0.005,0.1,0.06971644177470454,0.2664064900887687,0
10.606475830078125,0.875777048413756,[1.17865467],0.005,0.1,0.06550914171890151,0.27692530847234254,0
10.619701147079468,0.8808574150489095,[1.1834689],0.005,0.1,0.06122952711935464,0.4839219399818784,0
10.628512144088745,0.8845699906669061,[1.18835901],0.005,0.1,0.05700499968529387,0.3274713256009966,0
10.637510538101196,0.888282566284903,[1.19330718],0.005,0.1,0.052916810534720984,0.23562181935382903,0
10.648193836212158,0.8923859393363729,[1.19828902],0.005,0.1,0.049014276523570086,0.33896384170240446,0
10.660325050354004,0.8974663059715264,[1.20331539],0.005,0.1,0.04532483361123885,0.42120044249335625,0
10.672760486602783,0.9023512738899433,[1.2084022],0.005,0.1,0.04186110218266903,0.3777363959426096,0
10.685712814331055,0.9080178366753067,[1.21355309],0.005,0.1,0.03862582559716655,0.44175501405770695,0
10.695253133773804,0.9117304122933033,[1.21876164],0.005,0.1,0.03561530411516459,0.2988643917823366,0
10.706508159637451,0.9160291840615101,[1.22400546],0.005,0.1,0.03282176920866156,0.2889400822002708,0
10.714501857757568,0.919155563529297,[1.22926446],0.005,0.1,0.03023501438122747,0.2825989883421224,0
10.725000381469727,0.9236497340142403,[1.23453587],0.005,0.1,0.027843505983901305,0.35812562733718145,0
10.733251810073853,0.926776113482027,[1.23981641],0.005,0.1,0.02563513146075506,0.24895181611194933,0
10.744657754898071,0.9312702839669704,[1.24508764],0.005,0.1,0.023597695627020073,0.24832440626398575,0
10.756556034088135,0.9361552518853872,[1.2503404],0.005,0.1,0.02171924251208434,0.3213139416251837,0
10.768478393554688,0.9410402198038039,[1.25558088],0.005,0.1,0.01998825701426476,0.2945603363149613,0
10.778180360794067,0.9447527954218007,[1.26080652],0.005,0.1,0.0183937842496444,0.2755097783916859,0
10.786467552185059,0.948074573606324,[1.26600066],0.005,0.1,0.016925492999359686,0.19804278297066333,0
10.795310258865356,0.951591750507584,[1.27114219],0.005,0.1,0.015573701618266142,0.2064406008898432,0
10.807485818862915,0.9566721171427376,[1.27622029],0.005,0.1,0.29036773881672057,0.2107031965244969,0
10.819345951080322,0.9613616863444175,[1.28123958],0.005,0.1,0.32234709320559257,0.2767711343126881,0
10.833317041397095,0.9668328504130442,[1.28621718],0.005,0.1,0.2661958772774064,0.32548391643115826,0
10.843221187591553,0.9709362234645145,[1.29116722],0.005,0.1,0.1891409982061938,0.28699473214126525,0
10.852326393127441,0.9748441977992479,[1.29608808],0.005,0.1,0.1177258746479995,0.26006124143948117,0
10.862476587295532,0.9789475708507178,[1.30097165],0.005,0.1,0.06028291534521141,0.24077973252963034,0
10.874362707138062,0.9838325387691347,[1.30581101],0.005,0.1,0.017529760216137905,0.22608386964462512,0
10.885451793670654,0.9881313105373414,[1.31060034],0.005,0.1,-0.012580535617129195,0.21528968426027756,0
10.895615100860596,0.9922346835888115,[1.31533487],0.005,0.1,-0.03274790812143022,0.20711910275426357,0
10.90379786491394,0.9953610630565983,[1.32001076],0.005,0.1,-0.04548888364051658,0.20154788647294777,0
10.912456512451172,0.9988782399578583,[1.3246191],0.005,0.1,-0.05287190737802114,0.1493672471648664,0
10.920493364334106,1.002004619425645,[1.32914681],0.005,0.1,-0.056492433243227655,0.1593009644050264,0
10.930481910705566,1.0057171950436417,[1.33358958],0.005,0.1,-0.057535625680179586,0.1661341178429394,0
10.942431926727295,1.0109929603955317,[1.33795648],0.005,0.1,-0.05686028268211042,0.21931854178628046,0
10.953501462936401,1.0154871308804754,[1.34226174],0.005,0.1,-0.05507756305142565,0.20606007159431225,0
10.963858366012573,1.019785902648682,[1.34651193],0.005,0.1,-0.05261605411826162,0.1962139676317812,0
10.972455978393555,1.023303079549942,[1.35070723],0.005,0.1,-0.049772269077518035,0.18977528031853158,0
10.98446798324585,1.0279926487516222,[1.35485412],0.005,0.1,0.22928991661970158,0.2356569691818295,0
10.997453212738037,1.0332684141035122,[1.3589644],0.005,0.1,0.2654827733676919,0.21465241528095058,0
11.00648283958435,1.0371763884382457,[1.36303682],0.005,0.1,-0.0626290895471232,0.15470451938144153,0
11.019272565841675,1.042256755073399,[1.36706493],0.005,0.1,-0.16891590948638477,0.2051204130040093,0
11.030462265014648,1.0465555268416058,[1.3710554],0.005,0.1,0.09448478079355117,0.1940788957050587,0
11.040786027908325,1.0504635011763392,[1.3750143],0.005,0.1,-0.1263318185160645,0.18646075034983975,0
11.05347990989685,1.0555438678114926,[1.37894716],0.005,0.1,-0.183556889703743,0.23073658884450396,0
11.063371896743774,1.0596472408629627,[1.38286469],0.005,0.1,-0.17503004263414051,0.2109140841378641,0
11.073095083236694,1.0635552151976961,[1.38677038],0.005,0.1,-0.144850818317285,0.19730198704406626,0
11.082095623016357,1.0670723920989562,[1.39066152],0.005,0.1,-0.1116953713271592,0.18830099632781433,0
11.092459917068481,1.0715665625838997,[1.39453022],0.005,0.1,-0.08254077110851163,0.138425983480564,0
11.100445747375488,1.0746929420516864,[1.39836438],0.005,0.1,-0.05922332833844767,0.1468882309330677,0
11.109478235244751,1.078405517669683,[1.40215992],0.005,0.1,-0.041505084453108396,0.15265013741763614,0
11.123601198196411,1.0838766817383099,[1.40592532],0.005,0.1,-0.02845818793349757,0.20181426426474255,0
11.133465051651001,1.0877846560730433,[1.40967381],0.005,0.1,-0.019052877349035505,0.19076165745205664,0
11.143992185592651,1.0918880291245132,[1.41341104],0.005,0.1,-0.012378531918697255,0.18232315466139382,0
11.157626390457153,1.0973591931931401,[1.41714187],0.005,0.1,-0.007703140516633517,0.22522466277028022,0
11.165490865707397,1.1008763700944002,[1.42087057],0.005,0.1,-0.00446729899191664,0.15956436137578786,0
11.174544095993042,1.10439354699566,[1.42458924],0.005,0.1,-0.002256194829478674,0.16028392366386343,0
11.187059164047241,1.109278514914077,[1.42829701],0.005,0.1,-0.0007680915505806742,0.20685096915228585,0
11.195459127426147,1.112795691815337,[1.43199893],0.005,0.1,0.00021368291941049119,0.14888404324651697,0
11.204165697097778,1.1159220712831237,[1.43568792],0.005,0.1,0.0008433181686190617,0.1525387396627658,0
11.21447229385376,1.1202208430513305,[1.43936378],0.005,0.1,0.0012298140734125405,0.20030794018429848,0
11.227450132369995,1.125887405836694,[1.44303782],0.005,0.1,0.0014498271184327127,0.18673301717001173,0
11.235458374023438,1.129404582737954,[1.44670822],0.005,0.1,0.0015570322786208608,0.1363536863495336,0
11.244578838348389,1.132921759639214,[1.45036203],0.005,0.1,0.0015888599321272222,0.14241100008753713,0
11.252880811691284,1.1362435378237374,[1.4539941],0.005,0.1,0.0015713024551769433,0.1470117271647092,0
11.262951850891113,1.1401515121584709,[1.45760585],0.005,0.1,0.0015223232573247647,0.14972229521850464,0
11.274843692779541,1.1444502839266775,[1.46119864],0.005,0.1,-0.27458409524469707,0.15114313345710328,0
11.284687519073486,1.1485536569781476,[1.46477368],0.005,0.1,-0.30778742086581434,0.1517529293933166,0
11.296458005905151,1.153047827463091,[1.46833759],0.005,0.1,-0.252773869660865,0.19474363109646617,0
11.304428815841675,1.1563696056476145,[1.47189586],0.005,0.1,-0.1767737724109189,0.1399019650105872,0
11.313624858856201,1.160277579982348,[1.4754419],0.005,0.1,-0.10633474054300593,0.14203537120749332,0
11.323457956314087,1.164380953033818,[1.47897011],0.005,0.1,-0.049793770896518416,0.14326875183174817,0
11.334702253341675,1.1688751235187615,[1.48248123],0.005,0.1,-0.00787323626742751,0.1432600550897756,0
11.3433837890625,1.172001502986548,[1.48597589],0.005,0.1,0.021469095541793437,0.14369793352274499,0
11.35740876197815,1.1776680657719116,[1.48945994],0.005,0.1,0.0409285738527594,0.1820061749118743,0
11.367470502853394,1.1817714388233818,[1.49293824],0.005,0.1,0.05301732957192739,0.13038799785671018,0
11.379258394241333,1.1866564067417984,[1.49640932],0.005,0.1,0.05979964107506791,0.1694017756320077,0
11.390455961227417,1.191541374660215,[1.49988242],0.005,0.1,0.06286704266213355,0.200359659462851,0
11.402465343475342,1.1962309438618952,[1.50337042],0.005,0.1,-0.2126373272359848,0.178184838321203,0
11.41188931465149,1.1997481207631555,[1.50686797],0.005,0.1,-0.2469059696661216,0.12686464193298633,0
11.425473928451538,1.2052192848317822,[1.51036502],0.005,0.1,-0.19402279415390572,0.16357910712458013,0
11.434628248214722,1.2087364617330423,[1.5138635],0.005,0.1,-0.12079626308161975,0.15344530704315604,0
11.442611694335938,1.2118628412008288,[1.51736499],0.005,0.1,-0.05348265726588251,0.14661613263416742,0
11.452659368515015,1.215966214252299,[1.52086027],0.005,0.1,-0.00022080660047034406,0.10813613642825906,0
11.465428829193115,1.221241979604189,[1.52434167],0.005,0.1,0.0383992769593112,0.14744831712044604,0
11.47544527053833,1.2249545552221854,[1.52781337],0.005,0.1,0.064506104311176,0.14216309294513274,0
11.483440637588501,1.2278855359732357,[1.53127911],0.005,0.1,-0.19518906696313984,0.13900288865309948,0
11.492994785308838,1.2319889090247058,[1.53473701],0.005,0.1,-0.21918977077076485,0.13648327584592387,0
11.50043511390686,1.2351152884924925,[1.53818047],0.005,0.1,-0.16010644508141425,0.1028131603354223,0
11.51098108291626,1.2394140602606996,[1.54160415],0.005,0.1,-0.08357461643395733,0.14441424106351908,0
11.520854949951172,1.2433220345954328,[1.54501449],0.005,0.1,-0.014962521879852753,0.1409364526323,0
11.53042984008789,1.246839211496693,[1.5484119],0.005,0.1,-0.5138340487638822,0.1054151287670761,0
11.541419744491577,1.2511379832648997,[1.5517864],0.005,0.1,-0.5424069837005124,0.11272804232477085,0
11.552559852600098,1.2556321537498432,[1.55514069],0.005,0.1,-0.4076060305877005,0.15456405878409873,0
11.564732074737549,1.2599309255180497,[1.55849361],0.005,0.1,-0.5169579539261133,0.18987067703741303,0
11.572925329208374,1.2628619062690998,[1.56185593],0.005,0.1,-0.677946742600299,0.13427474000656317,0
11.580445766448975,1.2655974883034131,[1.56521516],0.005,0.1,-0.5408010114746278,0.10171141801633513,0
11.589375019073486,1.2691146652046732,[1.56855542],0.005,0.1,-0.32722404174964176,0.11136517242685727,0
11.598997116088867,1.2730226395394069,[1.57187453],0.005,0.1,-0.40172750862110784,0.11873349389866743,0
11.607789278030396,1.2765398164406667,[1.57517642],0.005,0.1,-0.2739781275888863,0.12443915865229527,0
11.618432998657227,1.2804477907754,[1.57847025],0.005,0.1,-0.3781263340754556,0.16706199974303784,0
11.628445863723755,1.284160366393397,[1.58176393],0.005,0.1,-0.2565815288230723,0.1210782097848521,0
11.639034986495972,1.2882637394448668,[1.5850532],0.005,0.1,-0.35841646812131944,0.1254435949377615,0
11.646431684494019,1.2908039227624437,[1.58833457],0.005,0.1,-0.2324916894022226,0.12974560543300998,0
