t_s,q_rad,q_des_rad,K,B,Kff,jerk,tau_Nm,reward
0.005074977874755859,-0.050412868918060925,[0.00024434],9.825212432529046,0.9790254919034855,1.9737818648793566,0.0,9.998999999999999,1.0985587639001317
0.020143508911132812,-0.050412868918060925,[0.00118077],9.650424865058092,0.9580509838069711,1.9475637297587132,0.0,10.098989999999999,1.087205337329282
0.031693220138549805,-0.050412868918060925,[0.00293451],9.475637297587138,0.9370764757104565,1.92134559463807,0.0,10.099989899999999,1.0659845135969581
0.040056467056274414,-0.050217470201324256,[0.0053565],9.300849730116184,0.9161019676139419,1.8951274595174268,0.0,10.099999898999998,1.0391868305117278
0.049034833908081055,-0.050412868918060925,[0.00831208],9.12606216264523,0.8951274595174274,1.8689093243967834,0.0,10.099999998989999,1.0017145999938104
0.05802726745605469,-0.050217470201324256,[0.0116805],8.951274595174274,0.8741529514209129,1.84269118927614,0.0,1.864229846024359,0.9647425787247257
0.06786274909973145,-0.050412868918060925,[0.01535425],8.77648702770332,0.8531784433243983,1.8164730541554968,0.0,-9.980357701539756,0.92102510716078
0.07594060897827148,-0.04963127405111425,[0.01923845],8.601699460232366,0.8322039352278838,1.7902549190348536,0.0,-10.098803577015396,0.8872797811792262
0.08823108673095703,-0.048068084317220885,[0.02325015],8.426911892761412,0.8112294271313693,1.7640367839142101,1.104153438714724,-10.099988035770153,0.8606783272360563
0.0970451831817627,-0.04709109073353753,[0.02731753],8.252124325290458,0.7902549190348547,1.7378186487935667,2.616843649753896,-10.0999998803577,0.8253688280192191
0.10597777366638184,-0.04611409714985418,[0.03137918],8.077336757819502,0.7692804109383402,1.7116005136729235,3.6662310779083693,-10.099999998803575,0.7909744107668675
0.11641168594360352,-0.04533250228290749,[0.03538321],7.902549190348549,0.7483059028418256,1.6853823785522803,4.599094985368399,-10.099999999988034,0.7562139995745747
0.12459206581115723,-0.044746306132697485,[0.03928652],7.727761622877595,0.727331394745311,1.659164243431637,4.985966677244315,-10.099999999999879,0.725414244773301
0.13509726524353027,-0.044160109982487476,[0.04305393],7.55297405540664,0.7063568866487966,1.6329461083109935,5.0,-10.099999999999998,0.7001690335826727
0.14410686492919922,-0.04357391383227746,[0.04665744],7.378186487935686,0.685382378552282,1.6067279731903503,4.106378437211786,-10.099999999999998,0.683859101653848
0.15439414978027344,-0.04318311639880412,[0.05007549],7.203398920464732,0.6644078704557674,1.5805098380697071,2.4479094123517857,-10.099999999999998,0.6711790624078675
0.1625807285308838,-0.04298771768206745,[0.05329229],7.028611352993777,0.643433362359253,1.5542917029490637,0.552855346801174,-5.100499999999999,0.6563870282018714
0.17066001892089844,-0.04298771768206745,[0.05629711],6.853823785522822,0.6224588542627384,1.5280735678284203,-1.0649530935588036,-5.050504999999999,0.6384049448284759
0.178663969039917,-0.04279231896533078,[0.05908361],6.679036218051868,0.6014843461662238,1.501855432707777,-2.5493637614949893,-5.050005049999999,0.6206486878537257
0.18623995780944824,-0.04279231896533078,[0.06164928],6.504248650580913,0.6,1.475637297587134,-3.678189954664893,-5.6346847166836875,0.6028894085017484
0.19643902778625488,-0.04279231896533078,[0.06399483],6.329461083109958,0.6,1.4494191624664907,-4.4339026908017996,-3.999025988388074,0.5877902721808623
0.20447182655334473,-0.04279231896533078,[0.06612369],6.154673515639004,0.6,1.4232010273458477,-4.872680641618438,-2.7604693322347047,0.5758780749265602
0.21392273902893066,-0.04279231896533078,[0.06804156],5.97988594816805,0.6,1.3969828922252046,-5.0,-1.8434054267936992,0.5674383087771306
0.22377848625183105,-0.04279231896533078,[0.06975602],5.805098380697095,0.6,1.3707647571045614,-4.776256947242238,-1.1734119393981512,0.5626899965249139
0.234419584274292,-0.04279231896533078,[0.0712761],5.63031081322614,0.6,1.3445466219839184,-4.381155639849127,-0.6933111061534558,0.5600152014247896
0.24203085899353027,-0.04259692024859412,[0.07261193],5.455523245755186,0.6,1.3183284868632752,-3.677333995511253,-0.3365031721883506,0.5603601226582468
0.25272655487060547,-0.04259692024859412,[0.07377448],5.280735678284231,0.6,1.292110351742632,-2.963702507155233,-0.08581510809212697,0.5601433996803965
0.26360440254211426,-0.04259692024859412,[0.07477526],5.105948110813277,0.6,1.2658922166219888,-2.3469378017271447,0.08912750919710936,0.5595098999942031
0.27332639694213867,-0.04279231896533078,[0.07562609],5.0,0.6,1.2396740815013456,-1.574347881133782,0.21967157153145817,0.5586903138286804
0.28200578689575195,-0.04259692024859412,[0.0763389],5.0,0.6,1.2134559463807026,-0.8794821515963342,0.3286969591784179,0.5584878281625714
0.2898898124694824,-0.04259692024859412,[0.07692562],5.0,0.6,1.1872378112600595,-0.3311143143718543,0.4068341030910373,0.5573518973339108
0.30101585388183594,-0.0420107240983841,[0.07739795],5.0,0.6,1.1610196761394163,0.3459030439063445,0.4604884477970407,0.5576577948418628
0.3099672794342041,-0.04161992666491077,[0.07776727],5.0,0.6,1.1348015410187733,0.9315614133641079,0.5007430626577636,0.5571605572080582
0.3211691379547119,-0.04044753436449074,[0.0780445],5.0,0.6,1.10858340589813,1.9174250806217081,0.5236440989107615,0.5575918328094529
0.3307955265045166,-0.03907974334733405,[0.0782401],5.0,0.6,1.082365270777487,3.373908375381812,0.536834535080254,0.5553475099947103
0.3420732021331787,-0.03693035746323068,[0.07836398],5.0,0.6,1.0561471356568437,5.0,0.5390408246042979,0.551781301880395
0.35199689865112305,-0.0347809715791273,[0.07842546],5.0,0.6,1.0299290005362005,5.0,0.5370844691260862,0.5587944988477073
0.3603973388671875,-0.03263158569502393,[0.07843322],5.0,0.6,1.0037108654155575,5.0,0.5337186079372498,0.5665644043381634
0.3692336082458496,-0.02989600366071055,[0.07839533],5.0,0.6,0.9774927302949143,5.0,0.5282913641139442,0.5775406751765434
0.37908077239990234,-0.026574225476187156,[0.07831922],5.0,0.6,0.9512745951742712,5.0,0.5146641362334788,0.5924768541640434
0.38764429092407227,-0.02383864344187377,[0.07821166],5.0,0.6,0.9250564600536281,5.0,0.50051905690566,0.6063063876552138
0.3951730728149414,-0.021103061407560384,[0.07807878],5.0,0.6,0.898838324932985,5.0,0.48804312511578385,0.621550900374588
0.4063746929168701,-0.016999688356090312,[0.07792611],5.0,0.6,0.8726201898123418,5.0,0.461944434369114,0.646670724561343
0.4144458770751953,-0.013482511454830247,[0.07775856],5.0,0.6,0.8464020546916986,5.0,0.4382459867330984,0.6709252711295032
0.425961971282959,-0.008988340969886831,[0.07758045],5.0,0.6,0.8201839195710555,5.0,0.40717678949110275,0.7051231514566438
0.4350402355194092,-0.006057360218836778,[0.07739562],5.0,0.6,0.7939657844504124,5.0,0.3865142494831045,0.7300911045396187
0.4429807662963867,-0.0029309807510500534,[0.07720736],5.0,0.6,0.7677476493297692,5.0,0.3657847619214355,0.7585401883781421
0.45092129707336426,0.00039079743347334047,[0.07701855],5.0,0.6,0.741529514209126,4.022737792320061,0.34714225370087265,0.7971136579193244
0.46008825302124023,0.0042987717682067455,[0.07683161],5.0,0.6,0.715311379088483,2.631637320099094,0.32335345511561214,0.8440389687528831
0.4722421169281006,0.009183739686623501,[0.07664854],5.0,0.6,0.6890932439678399,1.3400103685767795,0.29538482310783293,0.901068664397733
0.48395347595214844,0.013873308888303588,[0.07647097],5.0,0.6,0.6628751088471967,-0.5183721919503687,0.26875741068180437,0.9565160536521575
0.49350833892822266,0.01739048578956365,[0.07630021],5.0,0.6,0.6366569737265535,-2.199936905773504,0.24555772920890456,0.9959485374444723
0.5014545917510986,0.020712263974087045,[0.07613727],5.0,0.6,0.6104388386059104,-3.754708094140919,0.2279357089861175,1.0305877335567237
0.5089619159698486,0.02383864344187377,[0.07598296],5.0,0.6,0.5842207034852673,-4.928188744392084,0.2130805707727588,1.0627782185016599
0.5212082862854004,0.0289190100770272,[0.07583782],5.0,0.6,0.5580025683646241,-5.0,0.18558431337741566,1.1255913810107638
0.5308682918548584,0.03263158569502393,[0.07570217],5.0,0.6,0.531784433243981,-5.0,0.16703939117938577,1.1717656293504741
0.5411157608032227,0.03693035746323068,[0.07557615],5.0,0.6,0.5055662981233379,-5.0,0.1461070779803097,1.2235144024866842
0.552361249923706,0.04103373051470075,[0.07545976],5.0,0.6,0.4793481630026947,-5.0,0.12269263034195345,1.270699470099295
0.5603845119476318,0.044160109982487476,[0.07535287],5.0,0.6,0.4531300278820516,-5.0,0.10578091383816023,1.3048978899164683
0.568023681640625,0.04709109073353753,[0.07525527],5.0,0.6,0.42691189276140845,-5.0,0.09390233330316222,1.3350319293453996
0.5783038139343262,0.0511944637850076,[0.0751667],5.0,0.6,0.4006937576407653,-5.0,0.07328729093001102,1.373157334821574
0.5871052742004395,0.05471164068626767,[0.07508678],5.0,0.6,0.3744756225201221,-4.947755901266746,0.05605345378781897,1.4024291322367075
0.5969686508178711,0.058815013737737745,[0.07501507],5.0,0.6,0.3482574873994789,-5.0,0.035621170860486884,1.4305974363535992
0.6062695980072021,0.06233219063899781,[0.07495107],5.0,0.6,0.3220393522788358,-4.782702068175044,0.017619565270483174,1.4519136368634826
0.6160125732421875,0.06584936754025787,[0.07489429],5.0,0.6,0.2958212171581926,-4.721538764576772,-0.0013819804576471809,1.4674485177302214
0.6288032531738281,0.07014813930846461,[0.07484419],5.0,0.6,0.2696030820375494,-5.0,-0.02351413116151832,1.47733120060999
0.6399567127227783,0.07405611364319802,[0.07480021],5.0,0.6,0.24338494691690624,-5.0,-0.043563638869839556,1.481621331342042
0.6497430801391602,0.07737789182772142,[0.07476181],5.0,0.6,0.21716681179626307,-5.0,-0.059587882029148775,1.4803642239359747
0.658287763595581,0.07991807514529814,[0.07472846],5.0,0.6,0.19094867667561988,-5.0,-0.07127230774042752,1.4763601234000219
0.666527271270752,0.0820674610294015,[0.07469967],5.0,0.6,0.16473054155497668,-5.0,-0.08041284219379356,1.470933928489262
0.6747353076934814,0.08441224563024154,[0.074675],5.0,0.6,0.13851240643433352,-5.0,-0.09000402090803661,1.4629479214316554
0.6833343505859375,0.08636623279760824,[0.07465399],5.0,0.6,0.11229427131369034,-5.0,-0.09783961577356802,1.45466968152683
0.6918036937713623,0.08832021996497495,[0.07463625],5.0,0.6,0.08607613619304716,-5.0,-0.10574741835278416,1.444974441152286
0.7036948204040527,0.09066500456581499,[0.07462137],5.0,0.6,0.05985800107240398,-5.0,-0.11587482068590274,1.431555027546984
0.712925910949707,0.09242359301644502,[0.07460896],5.0,0.6,0.0336398659517608,-5.0,-0.12301757883402285,1.4202322123604265
0.7212076187133789,0.09379138403360171,[0.07459864],5.0,0.6,0.0074217308311176206,-5.0,-0.1284693260273464,1.410708174963895
0.7292459011077881,0.09476837761728506,[0.07459009],5.0,0.6,0.0,-5.0,-0.13134992767987494,1.40352684883864
0.7368919849395752,0.09574537120096842,[0.07458301],5.0,0.6,0.0,-5.0,-0.13415519869330647,1.396057142525641
0.7483439445495605,0.09691776350138845,[0.07457715],5.0,0.6,0.0,-5.0,-0.13794991920093022,1.3867318070438626
0.7594506740570068,0.09789475708507178,[0.07457223],5.0,0.6,0.0,-5.0,-0.14054674895558036,1.3786525649198456
0.7687497138977051,0.0984809532352818,[0.074568],5.0,0.6,0.0,-5.0,-0.14098816823466673,1.373663638386878
0.779181957244873,0.09906714938549181,[0.07456425],5.0,0.6,0.0,-5.0,-0.1414394698213104,1.3685829227180382
0.7897357940673828,0.09906714938549181,[0.07456078],5.0,0.6,0.0,-5.0,-0.13891959596133469,1.368552805034811
0.797926664352417,0.0992625481022285,[0.07455746],5.0,0.6,0.0,-5.0,-0.1375214204906549,1.3668199935025558
0.8093888759613037,0.0992625481022285,[0.07455416],5.0,0.6,0.0,-5.0,-0.13528181227894848,1.3667911369791854
0.8179969787597656,0.09906714938549181,[0.07455077],5.0,0.6,0.0,-4.551097146267667,-0.1322771594692352,1.3715505926194447
0.8273980617523193,0.09887175066875514,[0.07454719],5.0,0.6,0.0,-4.0862921667270005,-0.12919213860084958,1.3761201284737714
0.8364672660827637,0.09867635195201847,[0.07454338],5.0,0.6,0.0,-3.1035674234307415,-0.12635493547880586,1.382928819135837
0.8444414138793945,0.09828555451854513,[0.0745393],5.0,0.6,0.0,-2.3795857680289245,-0.12278468082761565,1.3891525555590118
0.8554370403289795,0.09769935836833513,[0.07453493],5.0,0.6,0.0,-1.5718825125604519,-0.1182736071913759,1.3964039702032465
0.872469425201416,0.0965269660679151,[0.07453021],5.0,0.6,0.0,-1.4238986496161343,-0.11093481132100741,1.4062564703327398
0.8839495182037354,0.09574537120096842,[0.07452506],5.0,0.6,0.0,-0.9472978618713074,-0.10557131595704906,1.4132085088826074
0.8928821086883545,0.09496377633402173,[0.07451942],5.0,0.6,0.0,-0.16803063999107776,-0.10025480573761568,1.4197832917264825
0.9025082588195801,0.09418218146707506,[0.07451327],5.0,0.6,0.0,0.5626507692034273,-0.09525845786626568,1.425308784110744
0.9148886203765869,0.0932051878833917,[0.0745066],5.0,0.6,0.0,1.1321062697357085,-0.08948917421029945,1.4315082959357848
0.928563117980957,0.09183739686623502,[0.07449935],5.0,0.6,0.0,1.251826847662112,-0.08150130635052479,1.4404848578222609
0.9364700317382812,0.09105580199928834,[0.07449151],5.0,0.6,0.0,1.7410406678888235,-0.0765187212524747,1.4443519632408135
0.9449458122253418,0.09007880841560498,[0.07448312],5.0,0.6,0.0,2.2353881982784802,-0.07070045263393065,1.4488132099016637
0.9554214477539062,0.08890641611518496,[0.07447424],5.0,0.6,0.0,2.8866764538659293,-0.06437499882348313,1.4530335010539706
0.9629836082458496,0.08812482124823828,[0.07446488],5.0,0.6,0.0,3.154076377280372,-0.059757334752015424,1.4560181152970144
0.9718735218048096,0.08714782766455492,[0.07445512],5.0,0.6,0.0,3.4852477154376857,-0.054309896093938645,1.45933165098435
0.980067253112793,0.08636623279760824,[0.07444498],5.0,0.6,0.0,3.7322079223070608,-0.05019669688496894,1.461714633067703
0.9932436943054199,0.08480304306371489,[0.0744345],5.0,0.6,0.0,3.8603432105288484,-0.04206234986776601,1.4677570694912605
1.0063674449920654,0.08323985332982153,[0.07442366],5.0,0.6,0.0,3.8795470516576276,-0.03427131491443694,1.473495838941104
1.0162241458892822,0.08226285974613817,[0.07441244],5.0,0.6,0.0,3.8134716723880966,-0.028839827544566026,1.4770406979068234
1.0248961448669434,0.08128586616245481,[0.0744009],5.0,0.6,0.0,3.962767405821552,-0.023734550410076292,1.4790101211007594
1.0373904705047607,0.07991807514529814,[0.07438907],5.0,0.6,0.0,4.105493239323147,-0.017045059264658893,1.4815138649808788
1.0475690364837646,0.07894108156161479,[0.07437698],5.0,0.6,0.0,4.169719737809503,-0.012046561784987316,1.4830659637738857
1.055419683456421,0.07796408797793142,[0.07436466],5.0,0.6,0.0,4.146429778854835,-0.00710128504631069,1.4847761938476678
1.0632143020629883,0.07718249311098475,[0.07435217],5.0,0.6,0.0,4.0496274554592775,-0.003182018166143027,1.4863391765706977
1.0730831623077393,0.0762054995273014,[0.07433955],5.0,0.6,0.0,3.8989510626934125,0.0015546688474138684,1.4881147463492161
1.0811796188354492,0.07522850594361805,[0.07432684],5.0,0.6,0.0,3.7127683214634972,0.006487829244462495,1.48968069112172
1.0919723510742188,0.0742515123599347,[0.07431405],5.0,0.6,0.0,3.7820123966829557,0.011010866773368077,1.489464168346529
1.0998620986938477,0.07366531620972468,[0.07430121],5.0,0.6,0.0,3.87496338374721,0.013705625118070846,1.488865712424901
1.1122043132781982,0.07288372134277801,[0.0742883],5.0,0.6,0.0,4.187426107957004,0.016768791417698083,1.48672169281784
1.1199531555175781,0.07229752519256799,[0.0742753],5.0,0.6,0.0,4.184916220953652,0.019423206920472513,1.4863494087843296
1.1298964023590088,0.07190672775909465,[0.07426224],5.0,0.6,0.0,4.5833197563762,0.020724973348052126,1.4834954386256993
1.1405024528503418,0.07151593032562131,[0.07424917],5.0,0.6,0.0,4.704082545334414,0.021866019024205412,1.4823029905074443
1.1484110355377197,0.07132053160888463,[0.07423611],5.0,0.6,0.0,4.656051093485031,0.02211158529673739,1.4824212577557807
1.1561906337738037,0.07112513289214797,[0.07422307],5.0,0.6,0.0,4.782959618503864,0.022324744324209275,1.4813397043294343
1.1642134189605713,0.0709297341754113,[0.07421012],5.0,0.6,0.0,4.884690680898633,0.02232245360449855,1.4804003562393133
1.1721038818359375,0.0709297341754113,[0.07419727],5.0,0.6,0.0,4.624331050623976,0.02142885587870222,1.48219906277632
1.1800251007080078,0.07073433545867464,[0.07418457],5.0,0.6,0.0,4.517392934133147,0.021584530203515466,1.4826595843547428
1.1879146099090576,0.07073433545867464,[0.07417206],5.0,0.6,0.0,4.149927712325676,0.020748330326994108,1.4849821631950042
1.1959078311920166,0.07073433545867464,[0.07415977],5.0,0.6,0.0,3.718592022201781,0.01987440847962196,1.4874677538613168
1.204946756362915,0.07073433545867464,[0.07414767],5.0,0.6,0.0,3.304020718137095,0.018954271580917278,1.4896119302119293
1.2129018306732178,0.0709297341754113,[0.07413578],5.0,0.6,0.0,2.93396784553813,0.01753490038000855,1.4915793221967477
1.221952199935913,0.07073433545867464,[0.07412414],5.0,0.6,0.0,2.6133523395184683,0.017664107506553853,1.4926462824856763
1.229970932006836,0.0709297341754113,[0.07411274],5.0,0.6,0.0,2.0621740239281885,0.016045930743392688,1.4948201398878125
1.2379372119903564,0.0709297341754113,[0.07410159],5.0,0.6,0.0,1.516732275331168,0.015744534480713956,1.4962803483478502
1.2459511756896973,0.0709297341754113,[0.07409069],5.0,0.6,0.0,1.0585708462354448,0.015174160753799742,1.4971702063618721
1.2551369667053223,0.0709297341754113,[0.07408004],5.0,0.6,0.0,0.4268231417138177,0.014809719951250409,1.497881493315343
1.264922857284546,0.0709297341754113,[0.07406958],5.0,0.6,0.0,-0.14590915733640838,0.014688050135077308,1.4980143675486213
1.2728877067565918,0.07112513289214797,[0.07405932],5.0,0.6,0.0,-0.3130300894385837,0.013594628201341299,1.4982066545529569
1.2814514636993408,0.07112513289214797,[0.07404926],5.0,0.6,0.0,-0.5900731828894843,0.013349443649532427,1.4980322340063474
1.2937898635864258,0.07132053160888463,[0.07403937],5.0,0.6,0.0,-0.8427921463443362,0.012064012583599109,1.4979942052085564
1.3058459758758545,0.07151593032562131,[0.07402958],5.0,0.6,0.0,-1.0295486311279032,0.010863909053994819,1.4979486860757074
1.315504550933838,0.07151593032562131,[0.07401983],5.0,0.6,0.0,-0.8711885224182194,0.010672486387400197,1.4981822221372525
1.3239161968231201,0.07151593032562131,[0.07401011],5.0,0.6,0.0,-0.8973733886682138,0.010734811465875424,1.4981574989818323
1.3344898223876953,0.07171132904235797,[0.07400041],5.0,0.6,0.0,-0.967238131603707,0.009474531655237031,1.4982566288959052
1.3418290615081787,0.07171132904235797,[0.07399074],5.0,0.6,0.0,-1.0262866360949434,0.009657308939327841,1.4981779575252014
1.3518784046173096,0.07190672775909465,[0.07398111],5.0,0.6,0.0,-0.7822792966419738,0.008351699116773163,1.498684422636954
1.3601934909820557,0.07190672775909465,[0.07397151],5.0,0.6,0.0,-0.753700378054013,0.008228772071967917,1.4987250113383175
1.3690154552459717,0.07210212647583132,[0.07396194],5.0,0.6,0.0,-0.7908750009796481,0.0071944263681002875,1.498843068150521
1.3782544136047363,0.07210212647583132,[0.07395239],5.0,0.6,0.0,-0.8326685859050341,0.007100607487176128,1.4987996840485938
1.3873989582061768,0.07210212647583132,[0.07394287],5.0,0.6,0.0,-0.8580166724276574,0.007053528745849012,1.4987748368554594
1.3994433879852295,0.07229752519256799,[0.07393337],5.0,0.6,0.0,-1.138995331634841,0.006087748265614768,1.4985001578731993
1.408236026763916,0.07229752519256799,[0.07392386],5.0,0.6,0.0,-1.159194786338789,0.0061626484841875995,1.4984718694887917
1.4163711071014404,0.07229752519256799,[0.07391433],5.0,0.6,0.0,-1.07767510336288,0.006083786383479928,1.4986135343754263
1.4256842136383057,0.07249292390930466,[0.07390478],5.0,0.6,0.0,-0.9659584965791246,0.00515672673045655,1.498907313162797
1.4339210987091064,0.07249292390930466,[0.07389521],5.0,0.6,0.0,-0.8541531336592076,0.005334348649427921,1.4990639909312122
1.4429352283477783,0.07268832262604133,[0.07388568],5.0,0.6,0.0,-0.7533123726143196,0.004213284632453766,1.4992910554384742
1.4563493728637695,0.07268832262604133,[0.07387616],5.0,0.6,0.0,-0.6661222095003482,0.003954813784461928,1.4993876542396272
1.464202642440796,0.07288372134277801,[0.07386661],5.0,0.6,0.0,-0.5919002033977818,0.0030340142493270575,1.4995460737198398
1.4719748497009277,0.07288372134277801,[0.07385706],5.0,0.6,0.0,-0.5288533225716023,0.003183774996727423,1.4996023854934546
1.4839677810668945,0.07307912005951467,[0.07384752],5.0,0.6,0.0,-0.4750374995705344,0.0019526288219358587,1.499713965169977
1.4952220916748047,0.07307912005951467,[0.07383795],5.0,0.6,0.0,-0.4287186335645089,0.0015749732695273407,1.499748039850846
1.503871202468872,0.07327451877625135,[0.07382829],5.0,0.6,0.0,-0.3884697486492576,0.0007618248236358754,1.4998263464562713
1.512864112854004,0.07327451877625135,[0.07381855],5.0,0.6,0.0,-0.3531610487953422,0.000994180969519753,1.4998479732457919
1.525482416152954,0.07327451877625135,[0.07380878],5.0,0.6,0.0,-0.32191380891787735,0.0006932518492420513,1.499865779005567
1.5329623222351074,0.07346991749298801,[0.073799],5.0,0.6,0.0,-0.29404836902253284,-5.483376103127448e-05,1.4999139814099611
1.5418596267700195,0.07346991749298801,[0.07378922],5.0,0.6,0.0,-0.2690377218732761,-0.00017808863682037995,1.4999257316770405
1.5503325462341309,0.07346991749298801,[0.07377947],5.0,0.6,0.0,-0.24646988828413913,-0.00019508645667889223,1.4999356174156768
1.559788703918457,0.07366531620972468,[0.07376974],5.0,0.6,0.0,-0.22601889038388714,-0.0013695210133660978,1.4999597932725879
1.5719740390777588,0.07366531620972468,[0.07376001],5.0,0.6,0.0,-0.48346133617057846,-0.0011919116951794244,1.499824244395167
1.5806992053985596,0.07366531620972468,[0.07375028],5.0,0.6,0.0,-0.49963151041226617,-0.0012644858488551193,1.4998127647923651
1.5919685363769531,0.07366531620972468,[0.07374054],5.0,0.6,0.0,-0.42904410198559506,-0.001140132022226138,1.4998618587391817
1.6004869937896729,0.07366531620972468,[0.0737308],5.0,0.6,0.0,-0.33878383031695253,-0.001162226939666314,1.4999137116050405
1.6095423698425293,0.07366531620972468,[0.07372106],5.0,0.6,0.0,-0.25527294233763387,-0.0012457961879071972,1.4999508724630521
1.6169464588165283,0.07366531620972468,[0.07371136],5.0,0.6,0.0,-0.18673914931429658,-0.0010242836808868562,1.4999736182672228
1.627366304397583,0.07366531620972468,[0.07370171],5.0,0.6,0.0,-0.13380853174944757,-0.001362810505620366,1.4999864070160607
1.636200189590454,0.07366531620972468,[0.07369209],5.0,0.6,0.0,-0.09435325163855984,-0.0012975805052912602,1.4999932296270018
1.6457319259643555,0.07366531620972468,[0.0736825],5.0,0.6,0.0,-0.34163965406793473,-0.0012221066575489542,1.4999130638331575
1.6542038917541504,0.07366531620972468,[0.07367293],5.0,0.6,0.0,-0.35413442628619657,-0.0011839321190260062,1.4999066409669153
1.6618704795837402,0.07366531620972468,[0.0736634],5.0,0.6,0.0,-0.28440267373957623,-0.0010055761184976932,1.4999397921402566
1.6728715896606445,0.07366531620972468,[0.07365393],5.0,0.6,0.0,-0.19803018111764667,-0.00104711573001743,1.4999707825641384
1.6817378997802734,0.07366531620972468,[0.07364455],5.0,0.6,0.0,-0.12033378161622235,-0.0011300500414745155,1.4999891347985135
1.6905732154846191,0.07366531620972468,[0.07363525],5.0,0.6,0.0,-0.058749394625476355,-0.001087474973820535,1.4999972499360967
1.699282169342041,0.07366531620972468,[0.07362603],5.0,0.6,0.0,-0.013349116455904905,-0.0012745454123824227,1.4999995587165778
1.7071876525878906,0.07366531620972468,[0.07361688],5.0,0.6,0.0,0.018374015218500368,-0.001333423054872007,1.4999992794127706
1.7150757312774658,0.07366531620972468,[0.07360777],5.0,0.6,0.0,0.039445222520703246,-0.001341349512644222,1.4999981793816226
1.7228484153747559,0.07366531620972468,[0.07359871],5.0,0.6,0.0,0.05260963811739002,-0.0012686007710084489,1.4999970524905317
1.730947732925415,0.07366531620972468,[0.07358974],5.0,0.6,0.0,0.0600955121641214,-0.0013099412222002357,1.4999961692525412
1.7404990196228027,0.07366531620972468,[0.07358085],5.0,0.6,0.0,0.06360943361691862,-0.0013952217366970554,1.4999955611781404
1.7491850852966309,0.07366531620972468,[0.07357205],5.0,0.6,0.0,0.06441342805503478,-0.0013949975627528272,1.4999951715652018
1.7568960189819336,0.07366531620972468,[0.07356333],5.0,0.6,0.0,0.06341910591452105,-0.0013633182084968533,1.499994925962287
1.7664988040924072,0.07366531620972468,[0.07355472],5.0,0.6,0.0,0.06127361777141169,-0.0014719528169753501,1.4999947591040415
1.7738661766052246,0.07366531620972468,[0.07354624],5.0,0.6,0.0,0.05842981350940055,-0.0012598413540615958,1.4999946226232035
1.7828636169433594,0.07366531620972468,[0.0735379],5.0,0.6,0.0,0.05520031650477232,-0.001460777715935903,1.4999944846075808
1.7928802967071533,0.07366531620972468,[0.0735297],5.0,0.6,0.0,0.051797827069843455,-0.0015207513184622313,1.499994324309414
1.804487943649292,0.07366531620972468,[0.07352158],5.0,0.6,0.0,0.04836453314015619,-0.001985796130637032,1.4999941269784134
1.8150324821472168,0.07366531620972468,[0.07351348],5.0,0.6,0.0,0.04499327161211533,-0.0019205092195581472,1.4999938819712646
1.8246665000915527,0.07366531620972468,[0.07350534],5.0,0.6,0.0,0.04174260494838705,-0.0019088292481983624,1.4999935845632062
1.8357934951782227,0.07366531620972468,[0.07349718],5.0,0.6,0.0,0.0386474852376952,-0.0019572783501005816,1.4999932343137705
1.8452351093292236,0.07366531620972468,[0.073489],5.0,0.6,0.0,0.035726754568060126,-0.0018922055384247615,1.4999928322014666
1.8539488315582275,0.07366531620972468,[0.0734808],5.0,0.6,0.0,0.032988394942059324,-0.0018870738820130583,1.4999923809718494
1.8638970851898193,0.07366531620972468,[0.07347261],5.0,0.6,0.0,0.030433186381744193,-0.001958176631490475,1.4999918836484591
1.8728809356689453,0.07366531620972468,[0.07346443],5.0,0.6,0.0,0.028057243854458742,-0.0019316049996834972,1.499991342848677
1.8822619915008545,0.07366531620972468,[0.07345625],5.0,0.6,0.0,0.025853767143739638,-0.0020751851991413694,1.499990760832587
1.8911983966827393,0.07366531620972468,[0.07344806],5.0,0.6,0.0,0.02381423979526661,-0.0022192689629593003,1.499990137775003
1.9001452922821045,0.07366531620972468,[0.07343983],5.0,0.6,0.0,0.021929243460103505,-0.0021937815447724855,1.499989473103893
1.909440040588379,0.07366531620972468,[0.07343155],5.0,0.6,0.0,0.020189004493385967,-0.0022766106706576055,1.4999887674702062
1.9178714752197266,0.07366531620972468,[0.07342324],5.0,0.6,0.0,0.01858375474906356,-0.002094715718889366,1.4999880232687481
1.9268221855163574,0.07366531620972468,[0.07341494],5.0,0.6,0.0,0.01710396392878492,-0.0021756700702369788,1.4999872447061
1.9365088939666748,0.07366531620972468,[0.07340665],5.0,0.6,0.0,0.0157404835707559,-0.002264731483246724,1.4999864342118738
1.9468400478363037,0.07366531620972468,[0.07339837],5.0,0.6,0.0,0.01448463064674765,-0.0023229440875726193,1.4999855918907483
1.9573066234588623,0.07366531620972468,[0.07339008],5.0,0.6,0.0,0.013328230244294739,-0.002452455862342461,1.4999847171300655
1.9697675704956055,0.07366531620972468,[0.07338177],5.0,0.6,0.0,0.012263630867317118,-0.0024573663247541623,1.499983808886476
1.9802556037902832,0.07366531620972468,[0.07337343],5.0,0.6,0.0,0.0112837017317605,-0.0026100015711776007,1.4999828659496024
1.9878733158111572,0.07366531620972468,[0.07336506],5.0,0.6,0.0,0.010381818528916086,-0.002390456465230056,1.4999818889409142
1.9978351593017578,0.07366531620972468,[0.07335667],5.0,0.6,0.0,0.009551842102598442,-0.0026884142236136394,1.4999808795663228
2.0069024562835693,0.07366531620972468,[0.07334826],5.0,0.6,0.0,0.00878809307409159,-0.00253700020657636,1.49997983749041
2.014998197555542,0.07366531620972468,[0.07333984],5.0,0.6,0.0,0.008085324466207015,-0.002518513732448093,1.4999787651454972
2.024836540222168,0.07366531620972468,[0.07333147],5.0,0.6,0.0,0.00743869369566641,-0.0024220825144221536,1.4999776686362383
2.0338401794433594,0.07366531620972468,[0.07332317],5.0,0.6,0.0,0.0068437348308052655,-0.0025575458338948243,1.4999765526570221
2.0428359508514404,0.07366531620972468,[0.07331494],5.0,0.6,0.0,0.0062963316859268575,-0.0026685102617266744,1.4999754178093463
2.0518202781677246,0.07366531620972468,[0.07330676],5.0,0.6,0.0,0.005792692100178678,-0.0027381415481500713,1.499974262260944
2.062035083770752,0.07366531620972468,[0.07329861],5.0,0.6,0.0,0.005329323596560435,-0.002769545296027914,1.4999730851333095
2.071906089782715,0.07366531620972468,[0.07329051],5.0,0.6,0.0,0.004903010513916772,-0.0028170705145560315,1.4999718864343468
2.080019950866699,0.07366531620972468,[0.07328244],5.0,0.6,0.0,0.0045107926363622255,-0.0028510389285818353,1.4999706662967054
2.0893077850341797,0.07366531620972468,[0.0732744],5.0,0.6,0.0,0.004149945299945385,-0.0029602294281646053,1.499969423873486
2.098262310028076,0.07366531620972468,[0.07326637],5.0,0.6,0.0,0.003817960928094748,-0.002973181719621566,1.4999681574820056
2.107602596282959,0.07366531620972468,[0.07325835],5.0,0.6,0.0,0.003512531930348909,-0.002999860394641722,1.4999668666259458
2.1179256439208984,0.07366531620972468,[0.07325035],5.0,0.6,0.0,0.0032315348894723273,-0.002970787671884049,1.4999655526914182
2.126235008239746,0.07366531620972468,[0.07324238],5.0,0.6,0.0,0.0029730159578005436,-0.002908011502998549,1.499964219482612
2.134960889816284,0.07366531620972468,[0.07323447],5.0,0.6,0.0,0.002735177382816729,-0.0030887042111559983,1.499962869687505
2.1445674896240234,0.07366531620972468,[0.0732266],5.0,0.6,0.0,0.0025163650833395696,-0.0031384526740608674,1.4999615011674183
2.1528642177581787,0.07366531620972468,[0.07321876],5.0,0.6,0.0,0.002315057200476138,-0.003029753678373876,1.4999601138972705
2.162820339202881,0.07366531620972468,[0.07321096],5.0,0.6,0.0,0.002129853551100661,-0.0032658497619915956,1.4999587094004356
2.1728694438934326,0.07366531620972468,[0.07320318],5.0,0.6,0.0,0.0019594659156764427,-0.0033164192368768854,1.4999572836051296
2.183847427368164,0.07366531620972468,[0.07319539],5.0,0.6,0.0,0.001802709096487012,-0.003310461970047839,1.4999558329364018
2.19319224357605,0.07366531620972468,[0.07318761],5.0,0.6,0.0,0.001658492686613331,-0.0033599374413948026,1.4999543574700793
2.2036333084106445,0.07366531620972468,[0.07317981],5.0,0.6,0.0,0.0015258134941759584,-0.0034717823698589226,1.499952855544414
2.212834119796753,0.07366531620972468,[0.073172],5.0,0.6,0.0,0.0014037485703860698,-0.003332534649185286,1.4999513267052877
2.2228286266326904,0.07366531620972468,[0.07316419],5.0,0.6,0.0,0.0012914487937761149,-0.0033968657929599085,1.4999497749799393
2.2322592735290527,0.07366531620972468,[0.07315641],5.0,0.6,0.0,0.0011881329665886795,-0.0034744060504689413,1.4999482022391133
2.2421672344207764,0.07366531620972468,[0.07314863],5.0,0.6,0.0,0.0010930823826818406,-0.003476252018514343,1.4999466077532637
2.25205659866333,0.07366531620972468,[0.07314084],5.0,0.6,0.0,0.001005635829461471,-0.0038657071162818027,1.499944985737037
2.2628095149993896,0.07366531620972468,[0.07313298],5.0,0.6,0.0,0.0009251849892804806,-0.0038397442485111725,1.4999433237576114
2.272814989089966,0.07366531620972468,[0.07312502],5.0,0.6,0.0,0.000851170208461188,-0.0037999343820938982,1.4999416163308616
2.2833480834960938,0.07366531620972468,[0.07311696],5.0,0.6,0.0,0.0007830766046104977,-0.003995791641561168,1.4999398619792763
2.29182505607605,0.07366531620972468,[0.07310879],5.0,0.6,0.0,0.0007204304852200002,-0.003919829936383707,1.499938056222421
2.303868532180786,0.07366531620972468,[0.07310052],5.0,0.6,0.0,0.0006627960526872409,-0.0037722423586129634,1.4999362024081355
2.3152999877929688,0.07366531620972468,[0.07309218],5.0,0.6,0.0,0.0006097723728716493,-0.004070429618746418,1.49993430470973
2.3242578506469727,0.07366531620972468,[0.07308374],5.0,0.6,0.0,0.0005609905861214882,-0.004109896601158844,1.499932356680011
2.333834648132324,0.07366531620972468,[0.07307521],5.0,0.6,0.0,0.0005161113413874693,-0.003918351796389713,1.4999303572902944
2.3427960872650146,0.07366531620972468,[0.0730666],5.0,0.6,0.0,0.00047482243558546127,-0.004247081826464017,1.4999283100534617
2.3518245220184326,0.07366531620972468,[0.07305789],5.0,0.6,0.0,0.0004368366417949182,-0.004270468970440836,1.4999262083663707
2.3642079830169678,0.07366531620972468,[0.07304904],5.0,0.6,0.0,0.0004018897111907298,-0.004378008366984067,1.4999240446722713
2.374190330505371,0.07366531620972468,[0.07304007],5.0,0.6,0.0,0.000369738534813055,-0.004380368787935309,1.4999218159327834
2.38179612159729,0.07366531620972468,[0.07303099],5.0,0.6,0.0,0.00034015945239031914,-0.004080463818057309,1.4999195291572658
2.3936314582824707,0.07366531620972468,[0.07302186],5.0,0.6,0.0,0.0003129466964527096,-0.004346462084736896,1.499917196725022
2.4048590660095215,0.07366531620972468,[0.0730127],5.0,0.6,0.0,0.00028791096091402386,-0.004316698336759703,1.4999148207856616
2.4129135608673096,0.07366531620972468,[0.0730035],5.0,0.6,0.0,0.0002648780841651741,-0.004319417097580507,1.4999124031525173
2.4241504669189453,0.07366531620972468,[0.07299427],5.0,0.6,0.0,0.00024368783751895027,-0.004651895728917987,1.4999099429335065
2.4338040351867676,0.07366531620972468,[0.07298498],5.0,0.6,0.0,0.00022419281057832756,-0.0045256656285945765,1.499907432762142
2.4459316730499268,0.07366531620972468,[0.07297563],5.0,0.6,0.0,0.00020625738577468683,-0.004688124134046101,1.4999048710967076
2.454841136932373,0.07366531620972468,[0.07296624],5.0,0.6,0.0,0.00018975679494254928,-0.004453055551147633,1.4999022633374937
2.4630651473999023,0.07366531620972468,[0.07295686],5.0,0.6,0.0,0.00017457625136803147,-0.004439112906060624,1.4998996234209838
2.472569227218628,0.07366531620972468,[0.07294502],5.0,0.6,0.0,0.00016061015127320934,-0.03224458237819323,1.4998962389860049
2.481917142868042,0.07366531620972468,[0.07292457],5.0,0.6,0.0,0.00014776133918158706,-0.04101568810227151,1.4998902662442226
2.4920709133148193,0.07366531620972468,[0.07289217],5.0,0.6,0.0,0.00013594043205422402,-0.022657690899499806,1.4998804556795309
2.5018630027770996,0.07346991749298801,[0.07285188],5.0,0.6,0.0,0.00012506519749490077,0.00571305913524507,1.4999236084826861
2.5101161003112793,0.07346991749298801,[0.07281305],5.0,0.6,0.0,0.00011505998169881917,0.03536248852906989,1.4999137077378277
2.518139600753784,0.07346991749298801,[0.07278764],5.0,0.6,0.0,0.00010585518316537118,0.06565500782961037,1.4999069035897785
2.5280752182006836,0.07346991749298801,[0.07278926],5.0,0.6,0.0,9.73867685138615e-05,0.09674525424765834,1.4999073464692105
2.5371482372283936,0.07346991749298801,[0.07283324],5.0,0.6,0.0,8.959582703395666e-05,0.1326762091103615,1.4999189322302484
2.5455050468444824,0.07346991749298801,[0.07293688],5.0,0.6,0.0,8.242816087208299e-05,0.16877087786661327,1.4999431766762519
2.556020736694336,0.07366531620972468,[0.07311882],5.0,0.6,0.0,7.583390800290618e-05,0.20186464188671116,1.499940270901067
2.5657989978790283,0.07386071492646136,[0.07339807],5.0,0.6,0.0,6.976719536308675e-05,0.23251733928671794,1.4999571929023015
2.5753414630889893,0.0742515123599347,[0.07379346],5.0,0.6,0.0,0.27610254549841534,0.25877664433230857,1.499901293536824
2.5853304862976074,0.07483770851014471,[0.07432311],5.0,0.6,0.0,0.8612987331516405,0.2800013702463439,1.499395120500496
2.59432315826416,0.07561930337709137,[0.07500388],5.0,0.6,0.0,1.4245226781636886,0.29643535132849447,1.498415948162224
2.604084014892578,0.07640089824403806,[0.07585098],5.0,0.6,0.0,2.408641458712386,0.3093445717035659,1.495639438401942
2.6143734455108643,0.07757329054445808,[0.07687776],5.0,0.6,0.0,3.3124021104950847,0.31773158581543565,1.4918020304214608
2.6238462924957275,0.07894108156161479,[0.07808876],5.0,0.6,0.0,4.254862455329157,0.29629558113002474,1.4865581964299868
2.6338014602661133,0.08050427129550815,[0.07948078],5.0,0.6,0.0,4.979658286343349,0.3122655662366502,1.4816681940251553
2.6418628692626953,0.08187206231266483,[0.0810579],5.0,0.6,0.0,5.0,0.3226596054110069,1.4815995000747002
2.6547605991363525,0.08421684691350488,[0.08283922],5.0,0.6,0.0,5.0,0.310718658897323,1.481352563314249
2.6638283729553223,0.0859754353641349,[0.08485052],5.0,0.6,0.0,5.0,0.3048753036815892,1.4814790053133704
2.674086332321167,0.08832021996497495,[0.08710719],5.0,0.6,0.0,5.0,0.29340853528919336,1.4814378168164213
2.683377742767334,0.09066500456581499,[0.08961522],5.0,0.6,0.0,5.0,0.27870505724646005,1.4815116777026698
2.6932578086853027,0.0932051878833917,[0.09238034],5.0,0.6,0.0,5.0,0.2576882254813891,1.4815959969068369
2.7038092613220215,0.0959407699177051,[0.09541907],5.0,0.6,0.0,5.0,0.24199754451339583,1.481677629204738
2.7128021717071533,0.0984809532352818,[0.09874572],5.0,0.6,0.0,5.0,0.2381283990824233,1.4817180420254927
2.7242956161499023,0.10199813013654188,[0.10236216],5.0,0.6,0.0,5.0,0.2591992100830784,1.4817055589744499
2.7333788871765137,0.10473371217085524,[0.10628184],5.0,0.6,0.0,4.322113317635421,0.2659521978456427,1.4858064696437587
2.743377685546875,0.10786009163864198,[0.11051532],5.0,0.6,0.0,3.4473563842296153,0.2741709692153287,1.4898220918927643
2.7517802715301514,0.11059567367295536,[0.11504603],5.0,0.6,0.0,2.6340427707248866,0.2446142487912639,1.4909085038773688
2.7634356021881104,0.11469904672442544,[0.1198587],5.0,0.6,0.0,1.9634349795454862,0.30762502371479017,1.491828243303351
2.771803379058838,0.11763002747547549,[0.12495152],5.0,0.6,0.0,1.442632723724413,0.2758262691580359,1.4877895843535587
2.783177614212036,0.12192879924368223,[0.13032152],5.0,0.6,0.0,0.7756703265313358,0.3407350780376849,1.4855635318740612
2.7922117710113525,0.12505517871146896,[0.13597867],5.0,0.6,0.0,0.17905917536476246,0.3532446611942142,1.4763941012596633
2.801873207092285,0.128572355612729,[0.14192974],5.0,0.6,0.0,0.26838525339340086,0.36646447662387016,1.464891631014301
2.8118624687194824,0.13228493123072574,[0.14816524],5.0,0.6,0.0,-0.26972453767936044,0.3813388865858769,1.450759817192307
2.8218836784362793,0.13638830428219584,[0.15469012],5.0,0.6,0.0,-0.3523144044894396,0.4450208826070893,1.4351109295507978
2.8309175968170166,0.1399054811834559,[0.16150656],5.0,0.6,0.0,-0.5443453678177999,0.402007143509385,1.410680273582884
2.84315824508667,0.14498584781860932,[0.16859984],5.0,0.6,0.0,-0.7285983367788073,0.46920320438042934,1.3940748077534295
2.8526341915130615,0.14869842343660605,[0.17597074],5.0,0.6,0.0,-0.8665955474096432,0.48015380035446237,1.3612208034265518
2.8632125854492188,0.1529971952048128,[0.18363315],5.0,0.6,0.0,-1.2291181469480106,0.5435162226540557,1.3277297527133645
2.8727993965148926,0.15651437210607286,[0.19158138],5.0,0.6,0.0,-1.5803092100389575,0.4973398057523024,1.2801142728035484
2.8812613487243652,0.15983615029059628,[0.19977716],5.0,0.6,0.0,-2.39423822524349,0.5252031177239734,1.2225852547209197
2.8909053802490234,0.16393952334206632,[0.20818608],5.0,0.6,0.0,-2.8977531297581436,0.5504137451049432,1.1697953835344643
2.901826858520508,0.16843369382700976,[0.21680883],5.0,0.6,0.0,-3.170873821215732,0.6272459592209574,1.1188054229302629
2.9114372730255127,0.1725370668784798,[0.22566019],5.0,0.6,0.0,-3.5559025185161053,0.6388902056494311,1.0593692926775788
2.9218878746032715,0.1768358386466866,[0.23473459],5.0,0.6,0.0,-3.861139310988597,0.6542800335779849,1.0005012654408327
2.931422233581543,0.18074381298141998,[0.24400918],5.0,0.6,0.0,-4.0363544478048645,0.6757468449331837,0.9371218178613632
2.940263509750366,0.18406559116594334,[0.25346271],5.0,0.6,0.0,-4.087975482131105,0.7032059655588817,0.8693860748432367
2.948819875717163,0.1873873693504668,[0.26305915],5.0,0.6,0.0,-4.040935513147966,0.6786645772988951,0.8061375384555899
2.960357666015625,0.19207693855214686,[0.27276674],5.0,0.6,0.0,-3.9225730690481777,0.772816033309205,0.7606178114399011
2.96878981590271,0.19539871673667025,[0.28257394],5.0,0.6,0.0,-3.756662775511309,0.7462686709728165,0.7083371412273166
2.9798200130462646,0.19989288722161366,[0.29245357],5.0,0.6,0.0,-3.5618850769215333,0.7855574545291844,0.6708789828107591
2.9908998012542725,0.2043870577065571,[0.30239883],5.0,0.6,0.0,-3.3520772157136802,0.8775351311476433,0.6381273294020777
2.9993300437927246,0.2075134371743438,[0.31243693],5.0,0.6,0.0,-3.137068209183817,0.9038290441154848,0.6033328522141197
3.006998300552368,0.2108352153588672,[0.32257397],5.0,0.6,0.0,-2.923591326590662,0.932269997009111,0.576000196900823
3.0147767066955566,0.21376619610991726,[0.33278108],5.0,0.6,0.0,-2.7160852996788245,0.9093326811616231,0.5533799871502848
3.0228099822998047,0.21708797429444063,[0.34301665],5.0,0.6,0.0,-2.5173350098133773,0.9582625826018687,0.537241123094193
3.0318479537963867,0.2206051511957007,[0.35326275],5.0,0.6,0.0,-2.3289586022336515,1.0031646586798924,0.5255896474116973
3.042001724243164,0.22470852424717075,[0.36353908],5.0,0.6,0.0,-2.1517665989631363,1.0998213609381942,0.5177433655881869
3.052675247192383,0.22900729601537753,[0.37388014],5.0,0.6,0.0,-1.9860212553141339,1.1204077689706338,0.5121036637390383
3.063750743865967,0.2336968652170576,[0.38429783],5.0,0.6,0.0,-1.831621096292727,1.1421533148471181,0.5082236732645885
3.072538137435913,0.23721404211831768,[0.39478451],5.0,0.6,0.0,-1.6882306637799926,1.172343687330272,0.5048559975945375
3.0814390182495117,0.24073121901957772,[0.405333],5.0,0.6,0.0,-1.5553707774151362,1.2040918075796323,0.5026350880140779
3.089982271194458,0.24405299720410112,[0.41593637],5.0,0.6,0.0,-1.4324806559902123,1.2379305786564119,0.5011903205913673
3.0977799892425537,0.24698397795515117,[0.4265705],5.0,0.6,0.0,-1.3189601540748193,1.2172684341043645,0.5002867800511848
3.1068320274353027,0.2506965535731479,[0.43719709],5.0,0.6,0.0,-1.214198043156463,1.2670340692358295,0.4998561850443963
3.115180730819702,0.2538229330409346,[0.44780098],5.0,0.6,0.0,-1.1175905586957815,1.3152248237600002,0.4996102620699547
3.1237857341766357,0.2573401099421947,[0.45836941],5.0,0.6,0.0,-1.0285531992976882,1.300788285064707,0.4995219829383656
3.132814645767212,0.26085728684345477,[0.46887433],5.0,0.6,0.0,-0.9465278800637911,1.3568550298047157,0.49950791466594835
3.141249656677246,0.26437446374471485,[0.47930954],5.0,0.6,0.0,-0.8709869138564661,1.4062216601361046,0.4995327371255235
3.1488394737243652,0.2673054444957649,[0.4896703],5.0,0.6,0.0,-0.8014348499367818,1.396984690611483,0.4995728198781516
3.158461570739746,0.27121341883049827,[0.49993582],5.0,0.6,0.0,-0.46137052682055935,1.4511793972924758,0.4998701503973093
3.1678309440612793,0.27473059573175834,[0.51010587],5.0,0.6,0.0,-0.36931539099193744,1.49965582403135,0.4999138915750877
3.1767613887786865,0.2784431713497551,[0.52019734],5.0,0.6,0.0,-0.6462162642641646,1.5411974139231182,0.49969762375151977
3.1870322227478027,0.2825465444012252,[0.5302242],5.0,0.6,0.0,-0.7055168516953254,1.576213489406928,0.49963430468499637
3.1952767372131348,0.28586832258574857,[0.54019748],5.0,0.6,0.0,-0.39897847357461524,1.61164420695903,0.4998839256392691
3.202777862548828,0.2889947020535353,[0.55010958],5.0,0.6,0.0,-0.30413285838500814,1.593199048916215,0.4999323464741957
3.211820602416992,0.2923164802380587,[0.55993736],5.0,0.6,0.0,-0.2918233854445721,1.640061801579249,0.49993721149874554
3.223804473876953,0.2972014481564754,[0.56969193],5.0,0.6,0.0,-0.3049274695417068,1.7235566007337408,0.4999311451943618
3.236666679382324,0.3026726122251022,[0.57942722],5.0,0.6,0.0,-0.3200658133920033,1.7821547720172002,0.499923970279513
3.2473409175872803,0.3065805865598356,[0.58918523],5.0,0.6,0.0,-0.32914211379060765,1.785221741768851,0.4999194778265595
3.2571678161621094,0.310488560894569,[0.59896749],5.0,0.6,0.0,-0.3305922337564749,1.7933991805408245,0.49991870927331566
3.2671403884887695,0.31459193394603907,[0.60875698],5.0,0.6,0.0,-0.3253440940244715,1.8045169930318254,0.4999212427874978
3.2756147384643555,0.31791371213056246,[0.61853622],5.0,0.6,0.0,-0.31503213209053743,1.8221212110024392,0.49992614137765334
3.286233901977539,0.3224078826155059,[0.62828759],5.0,0.6,0.0,-0.3012685065898596,1.8356794794641258,0.49993244822188054
3.296109914779663,0.32612045823350266,[0.63799345],5.0,0.6,0.0,-0.28539331218686725,1.8540069007080013,0.4999393763038641
3.305959463119507,0.3296376351347627,[0.64763632],5.0,0.6,0.0,-0.26842975978758593,1.873821122687147,0.4999463670883913
3.3171653747558594,0.33413180561970607,[0.65721062],5.0,0.6,0.0,-0.527156033630565,1.9273949596322815,0.4997931795877885
3.32485294342041,0.33706278637075615,[0.66670941],5.0,0.6,0.0,-0.5431322074112191,1.9011651726170333,0.4997804559333375
3.336782932281494,0.34214315300590964,[0.67611227],5.0,0.6,0.0,-0.47138978946444265,1.9520373906450823,0.49983461556135445
3.3459572792053223,0.34605112734064297,[0.68541049],5.0,0.6,0.0,-0.3793763669178343,1.9606668440530939,0.49989287266768606
3.354806423187256,0.34956830424190305,[0.69459501],5.0,0.6,0.0,-0.293765714770835,1.9732996905031288,0.49993576367546055
3.363884449005127,0.3530854811431631,[0.70364549],5.0,0.6,0.0,-0.22295759002327636,1.9875833297871779,0.4999629971752331
3.3724606037139893,0.3566026580444232,[0.71254353],5.0,0.6,0.0,0.10834442795865198,2.002719748340515,0.49999126192937887
3.382598400115967,0.3607060310958933,[0.72127276],5.0,0.6,0.0,0.18323960333124084,2.015366326718842,0.49997500607756606
3.391216516494751,0.36402780928041667,[0.72981874],5.0,0.6,0.0,0.15914281682288223,2.045938987883708,0.4999811473452562
3.4001572132110596,0.36793578361515006,[0.73816898],5.0,0.6,0.0,0.10583929422357201,2.0936051345860065,0.49999166132861006
3.410849094390869,0.3722345553833568,[0.74631284],5.0,0.6,0.0,0.051988800366208156,2.1328102037671797,0.49999798801266376
3.4197494983673096,0.37555633356788015,[0.75424153],5.0,0.6,0.0,0.28360826967083874,2.1710623349011033,0.4999401287328175
3.429415464401245,0.37926890918587697,[0.76195519],5.0,0.6,0.0,0.283699709031042,2.1547305971823736,0.49994009012204255
3.4409499168395996,0.3837630796708204,[0.76946134],5.0,0.6,0.0,0.20581735276233515,2.2036308035977514,0.4999684676052398
3.4508280754089355,0.3876710540055538,[0.77675884],5.0,0.6,0.0,0.11515527375905202,2.239041812224783,0.4999901287977681
3.4638822078704834,0.39294681935744386,[0.7838461],5.0,0.6,0.0,0.03622205576080396,2.2336268214967636,0.4999990233197245
3.4751152992248535,0.3974409898423873,[0.79073436],5.0,0.6,0.0,-0.024371822243355285,2.2391953314836526,0.4999995578369461
3.483181953430176,0.40076276802691063,[0.7974268],5.0,0.6,0.0,-0.06725513408168413,2.290124410313929,0.49999663289937046
3.493165969848633,0.40486614107838076,[0.80390817],5.0,0.6,0.0,-0.09548075275641614,2.3004011267225337,0.49999321366341654
3.5027358531951904,0.40857871669637746,[0.81016103],5.0,0.6,0.0,-0.11247795765107743,2.2899144016030655,0.49999058246097067
3.5119469165802,0.41248669103111085,[0.81617259],5.0,0.6,0.0,-0.12128040888688052,2.2991138734489818,0.4999890507789217
3.520732879638672,0.4158084692156343,[0.82193919],5.0,0.6,0.0,-0.12431631880300947,2.308498240779475,0.49998849575924215
3.5300378799438477,0.41932564611689427,[0.82746482],5.0,0.6,0.0,-0.12342678370453597,2.314389317600812,0.4999886598036429
3.5383570194244385,0.42245202558468103,[0.8327543],5.0,0.6,0.0,-0.11996114557557291,2.319899744391146,0.49998928768754136
3.5469605922698975,0.4259692024859411,[0.83780869],5.0,0.6,0.0,-0.1148849397684016,2.2922670952412965,0.4999901750893361
3.555328130722046,0.4294863793872012,[0.84262614],5.0,0.6,0.0,-0.10887599099502554,2.3013176495776757,0.49999117596778375
3.563260793685913,0.43261275885498784,[0.8472115],5.0,0.6,0.0,-0.37844024704011586,2.308253003999529,0.4998934005386243
3.5708682537078857,0.43573913832277467,[0.85157107],5.0,0.6,0.0,-0.40494222374511063,2.280364532817059,0.49987794943590147
3.5798089504241943,0.439060916507298,[0.85570786],5.0,0.6,0.0,-0.34328346424368106,2.2903794721542154,0.4999122849032311
3.591972589492798,0.4441412831424515,[0.85963033],5.0,0.6,0.0,-0.26083271041812023,2.2864259041149078,0.4999493582401258
3.6014626026153564,0.4478538587604482,[0.86335129],5.0,0.6,0.0,-0.18422258512204492,2.285067984400464,0.4999747372020756
3.611121892929077,0.45176183309518164,[0.86688292],5.0,0.6,0.0,-0.12183839499732366,2.27981175148064,0.4999889497980569
3.6207497119903564,0.45586520614665166,[0.87023347],5.0,0.6,0.0,-0.07442589138140435,2.242258022878827,0.4999958766236654
3.629063129425049,0.4595777817646485,[0.87340791],5.0,0.6,0.0,-0.03994953581179701,2.2433055622848506,0.49999881196390994
3.6388776302337646,0.46309495866590844,[0.87641523],5.0,0.6,0.0,-0.015709733041559357,2.2412334262311995,0.4999998162851755
3.6488263607025146,0.4670029330006419,[0.87926458],5.0,0.6,0.0,0.00081685399738822,2.2060795460862983,0.49999999950330015
3.6578311920166016,0.47052010990190196,[0.88196185],5.0,0.6,0.0,0.011709931785508344,2.2076203223719433,0.49999989792594857
3.667081594467163,0.47423268551989867,[0.88451626],5.0,0.6,0.0,0.01857881563369306,2.2038034916227915,0.4999997430535571
3.677312135696411,0.4783360585713688,[0.88693963],5.0,0.6,0.0,0.022623875314425897,2.1945517970245847,0.4999996189863774
3.6864700317382812,0.48165783675589213,[0.88924272],5.0,0.6,0.0,0.024719615770143536,2.1866593004333637,0.4999995451272648
3.698817491531372,0.48673820339104557,[0.89143531],5.0,0.6,0.0,0.025492849359601527,2.1685249760492966,0.49999951622522537
3.7091264724731445,0.4910369751592523,[0.89352626],5.0,0.6,0.0,0.02538740716379833,2.1525411485837864,0.49999952021887784
3.720756769180298,0.49572654436093233,[0.89552356],5.0,0.6,0.0,0.024714416496388066,2.1339213327530167,0.49999954531860064
3.7302772998809814,0.49963451869566583,[0.89743658],5.0,0.6,0.0,0.02368997044995829,2.1392447103582133,0.49999958223167085
3.7400991916656494,0.5035424930303992,[0.89927566],5.0,0.6,0.0,0.022462720874929697,2.1165128950901924,0.4999996243951388
3.7501349449157715,0.5076458660818692,[0.90104744],5.0,0.6,0.0,0.021133793332445236,2.0941085894672637,0.4999996675231616
3.758794069290161,0.5109676442663927,[0.90275359],5.0,0.6,0.0,0.01977101619750936,2.057334579001696,0.49999970901911306
3.7703893184661865,0.5156572134680728,[0.90439387],5.0,0.6,0.0,0.018419014955058502,2.040331390945082,0.4999997474547305
3.779759168624878,0.5195651878028061,[0.90596858],5.0,0.6,0.0,-0.2589320240720803,2.0073505286410436,0.4999500935668215
3.7917604446411133,0.5244501557212229,[0.90747848],5.0,0.6,0.0,-0.2933125118832408,1.9933910895632052,0.4999359616638598
3.79971981048584,0.5275765351890096,[0.90892641],5.0,0.6,0.0,-0.2394044393760237,1.9856930871198024,0.49995733688686106
3.810734987258911,0.5318753069572164,[0.91031527],5.0,0.6,0.0,-0.16443713095020784,1.9530331835376677,0.49997987213516215
3.819889783859253,0.5353924838584764,[0.91164458],5.0,0.6,0.0,-0.3709976512668255,1.928829061018946,0.4998975517611421
3.83143949508667,0.5398866543434199,[0.9129144],5.0,0.6,0.0,-0.3484733020843945,1.9198599176569904,0.4999096129036193
3.8412396907806396,0.54399002739489,[0.91412847],5.0,0.6,0.0,-0.25228157164301557,1.909240085592469,0.49995262413596664
3.84930682182312,0.5473118055794133,[0.91529185],5.0,0.6,0.0,-0.14761799436031445,1.8997315382713953,0.4999837789790574
3.859816789627075,0.5514151786308834,[0.91640759],5.0,0.6,0.0,-0.05834114614609048,1.8696163940314927,0.49999746630094943
3.8693959712982178,0.5549323555321435,[0.9174771],5.0,0.6,0.0,0.009718667901131073,1.860895954623479,0.4999999296933409
3.8789918422698975,0.5590357285836136,[0.91850193],5.0,0.6,0.0,0.05789860826278539,1.832891154868473,0.49999750459638165
3.889742851257324,0.5633345003518203,[0.91948371],5.0,0.6,0.0,0.08982825732977956,1.8208578837528424,0.499993993391575
3.903008460998535,0.5690010631371838,[0.92042539],5.0,0.6,0.0,0.10938074018926675,1.799479336945221,0.4999910939811694
3.9147632122039795,0.5736906323388637,[0.92133091],5.0,0.6,0.0,0.11992023490431625,1.7810079704882775,0.4999892950245377
3.925947904586792,0.5783802015405439,[0.92220485],5.0,0.6,0.0,0.12411600062211571,1.7734028155643475,0.4999885328578027
3.936311721801758,0.5822881758752773,[0.92305215],5.0,0.6,0.0,0.40002085778772634,1.7524041374978891,0.49988089776281514
3.9480316638946533,0.5867823463602206,[0.92387581],5.0,0.6,0.0,0.430155509565907,1.7291734578978457,0.4998622798739264
3.956937551498413,0.5904949219782174,[0.92467712],5.0,0.6,0.0,0.3702647052566634,1.710270947839697,0.4998979563141094
3.9663305282592773,0.5940120988794776,[0.92545716],5.0,0.6,0.0,0.2883217804429389,1.692688574043896,0.49993812251009057
3.9758031368255615,0.5977246744974742,[0.92621682],5.0,0.6,0.0,0.21138736717608383,1.67437284771486,0.499966738276168
3.986218214035034,0.6024142436991544,[0.92695764],5.0,0.6,0.0,0.14814658474190023,1.6607586569709758,0.49998366331284366
3.9951157569885254,0.6059314206004144,[0.92768174],5.0,0.6,0.0,0.09955314108137896,1.640616891747634,0.49999262344764567
4.002712965011597,0.6090578000682011,[0.92838912],5.0,0.6,0.0,0.06371425710854942,1.614760247271281,0.4999969794995411
4.011686086654663,0.612770375686198,[0.92907806],5.0,0.6,0.0,-0.23801120145399818,1.5983938491071032,0.49995783402571925
4.021563768386841,0.6166783500209313,[0.92974798],5.0,0.6,0.0,-0.2891298058113698,1.5807679126612386,0.49993777799927214
4.03145170211792,0.6205863243556646,[0.9303992],5.0,0.6,0.0,-0.24637091061711444,1.5627594987861373,0.4999548225541689
4.040756702423096,0.6241035012569247,[0.93103131],5.0,0.6,0.0,-0.1785511997266783,1.5388968280735715,0.49997627524777855
4.054089784622192,0.6297700640422882,[0.93164463],5.0,0.6,0.0,-0.11340503685462795,1.5287344299491532,0.49999043873141447
4.065140962600708,0.6342642345272317,[0.93224148],5.0,0.6,0.0,-0.0601366669478319,1.5043254940789312,0.499997327341394
4.074778079986572,0.6377814114284917,[0.93282249],5.0,0.6,0.0,-0.020092296654765102,1.4789579634761918,0.4999997269642003
4.085206031799316,0.641689385763225,[0.93338687],5.0,0.6,0.0,0.008326622966818792,1.4673931136290976,0.4999999890705843
4.093754529953003,0.6450111639477484,[0.93393459],5.0,0.6,0.0,0.027502633268442475,1.4439651143048196,0.4999994930834072
4.102260112762451,0.6483329421322718,[0.93446515],5.0,0.6,0.0,0.03972895321252913,1.4290908932035165,0.4999989024434316
4.1121134757995605,0.6526317139004786,[0.93497815],5.0,0.6,0.0,0.3229560843123384,1.408984973268813,0.49992248361017505
4.121204137802124,0.6563442895184753,[0.93547389],5.0,0.6,0.0,0.35971848900478554,1.3915734900031866,0.4999038566086627
4.1287407875061035,0.6596660677029987,[0.9359522],5.0,0.6,0.0,0.30581777303451624,1.3706847082771558,0.49993061941819145
4.138713836669922,0.6635740420377321,[0.93641254],5.0,0.6,0.0,0.22929485496875263,1.353923427436296,0.499961205930093
4.148735761642456,0.6674820163724656,[0.93685505],5.0,0.6,0.0,0.15727540400106987,1.3364813565608458,0.4999820853296754
4.157913684844971,0.671389990707199,[0.93728044],5.0,0.6,0.0,0.09850246027488604,1.3186037926868805,0.4999935005561013
4.168731451034546,0.6756887624754058,[0.93768937],5.0,0.6,0.0,0.053979721665081165,1.2985193202425407,0.4999989214746077
4.181196212768555,0.6807691291105592,[0.93808249],5.0,0.6,0.0,0.021857112778725544,1.2742494505991804,0.5000014188016481
4.189796209335327,0.6842863060118193,[0.93846004],5.0,0.6,0.0,-0.00043164400166983106,1.2532359900641494,0.500002446349072
4.201205253601074,0.6889758752134992,[0.93882227],5.0,0.6,0.0,-0.015313856887677484,1.2361281536226414,0.5000036097497971
4.2129058837890625,0.693274646981706,[0.93916989],5.0,0.6,0.0,0.2512385837700443,1.2108940218084319,0.4999586141904324
4.223759889602661,0.6975734187499129,[0.93950325],5.0,0.6,0.0,0.27871479645987635,1.1909625587223178,0.49995042100556686
4.233729839324951,0.7016767918013829,[0.93982268],5.0,0.6,0.0,0.22064340577550776,1.1717149832025349,0.4999756170825389
4.245896816253662,0.7063663610030629,[0.94012926],5.0,0.6,0.0,0.14341153016531738,1.1527768058620274,0.5000026205460801
4.255202054977417,0.7098835379043231,[0.94042423],5.0,0.6,0.0,0.07296309641307457,1.1348502282050674,0.5000202215307711
4.263103246688843,0.7130099173721096,[0.94070836],5.0,0.6,0.0,0.017208576194923685,1.11901052472193,0.5000311603011046
4.271742105484009,0.7169178917068433,[0.94098173],5.0,0.6,0.0,-0.29946600761676334,1.0966258546672871,0.49997682633825813
4.281698226928711,0.7210212647583132,[0.94124418],5.0,0.6,0.0,-0.3603567292112242,1.0774140058960442,0.49996465010867525
4.290838718414307,0.7245384416595733,[0.94149597],5.0,0.6,0.0,-0.3229915293182892,1.0607269105741068,0.5000039122817603
4.301760196685791,0.7286418147110434,[0.9417376],5.0,0.6,0.0,-0.2572114123342277,1.0409979432191725,0.5000644527777032
4.30972957611084,0.73176819417883,[0.94196935],5.0,0.6,0.0,-0.1916933773258143,1.023215090431242,0.5001179184329867
4.319717645645142,0.7356761685135634,[0.94219121],5.0,0.6,0.0,-0.13640783883725174,1.0051197625313812,0.5001836646999718
4.330021619796753,0.7397795415650336,[0.94240354],5.0,0.6,0.0,-0.09328452247488099,0.9856903248475519,0.5002650905405996
4.341919422149658,0.7446645094834503,[0.94260691],5.0,0.6,0.0,0.21488690220250042,0.9619808189535877,0.500360779850323
4.350767374038696,0.7481816863847104,[0.94280166],5.0,0.6,0.0,0.2712342445634031,0.9425455018693045,0.5004581608081718
4.360703229904175,0.7522850594361805,[0.9429879],5.0,0.6,0.0,0.2325334264350474,0.9232991068683091,0.5006534201145033
4.371950387954712,0.7569746286378605,[0.9431658],5.0,0.6,0.0,0.16778985495637405,0.8986247077167118,0.5009536946212955
4.381049394607544,0.7602964068223839,[0.94333557],5.0,0.6,0.0,0.10494831722038653,0.8833759776247326,0.501221892578794
4.389979124069214,0.7642043811571174,[0.94349744],5.0,0.6,0.0,0.053399746712716856,0.8628490525958487,0.5016116181121737
4.400970458984375,0.768503152925324,[0.9436517],5.0,0.6,0.0,0.014640943088383589,0.8428887041837485,0.5021646934854577
4.410749912261963,0.7729973234102675,[0.94379864],5.0,0.6,0.0,0.26322728545078705,0.819378541171039,0.5028729636133832
4.419767379760742,0.7765145003115275,[0.94393841],5.0,0.6,0.0,0.277910272667964,0.801169338159103,0.5036176898608924
4.429781198501587,0.7804224746462608,[0.94407101],5.0,0.6,0.0,0.21115168868515866,0.7814010878147835,0.504685763681578
4.438854694366455,0.7837442528307843,[0.94419669],5.0,0.6,0.0,0.1283192294684101,0.7665654560678892,0.5057929684156923
4.449319362640381,0.7878476258822544,[0.94431607],5.0,0.6,0.0,0.05450931892393647,0.7474222805517137,0.5074706700924976
4.457134962081909,0.7911694040667778,[0.94442972],5.0,0.6,0.0,-0.0030255597717617835,0.7299858373177429,0.5091158045336847
4.468721389770508,0.7954681758349845,[0.94453786],5.0,0.6,0.0,-0.044351944542637245,0.7080562034429413,0.5117432273285657
4.479786157608032,0.799962346319928,[0.94464069],5.0,0.6,0.0,-0.07207495782878512,0.6870418607249823,0.5151975792085008
4.4936628341674805,0.8058243078220281,[0.94473875],5.0,0.6,0.0,-0.08928541347853375,0.6587773262269206,0.5210737676510343
4.505697011947632,0.8105138770237083,[0.94483253],5.0,0.6,0.0,-0.09876941403415403,0.6344999175580077,0.5270906131730387
4.515007734298706,0.814226452641705,[0.9449223],5.0,0.6,0.0,-0.10277830297555716,0.6168363579268404,0.5328264661378318
4.52310585975647,0.8173528321094915,[0.94500846],5.0,0.6,0.0,-0.10302917744254914,0.6019308966730084,0.5384115368024308
4.533944606781006,0.8216516038776983,[0.9450915],5.0,0.6,0.0,-0.10078595497068171,0.5809425766890886,0.5474707906568743
4.541723966598511,0.8249733820622217,[0.9451717],5.0,0.6,0.0,-0.09695641409458483,0.5633102442126263,0.555595509780237
4.549786329269409,0.8280997615300084,[0.94524907],5.0,0.6,0.0,-0.09218021448967599,0.5471032519720319,0.5642553447867232
4.559727430343628,0.8323985332982152,[0.94532363],5.0,0.6,0.0,-0.08690050612510308,0.526554475899495,0.5780435955767688
4.5687031745910645,0.8359157101994752,[0.94539567],5.0,0.6,0.0,-0.08141900645564921,0.5095894456084612,0.5909699084849056
4.580347299575806,0.8404098806844187,[0.94546562],5.0,0.6,0.0,-0.35197534652443196,0.4889380945564015,0.609900438870202
4.588773488998413,0.8437316588689421,[0.94553397],5.0,0.6,0.0,-0.10370974286025873,0.47214149928785276,0.6258322565057316
4.597676753997803,0.8472488357702022,[0.94560088],5.0,0.6,0.0,-0.010347780774676518,0.4534048853533446,0.6444783614782525
4.606741189956665,0.8505706139547256,[0.94566631],5.0,0.6,0.0,0.01552060929578137,0.4371058257815333,0.6638769853899728
4.6148459911346436,0.8540877908559856,[0.94573028],5.0,0.6,0.0,0.014554827752329644,0.41976742833583,0.6864354867653374
4.624672889709473,0.8583865626241924,[0.94579293],5.0,0.6,0.0,0.004957283509456885,0.39846788961407076,0.716974689861344
4.635119676589966,0.8626853343923993,[0.94585442],5.0,0.6,0.0,-0.005655642318633792,0.37802367829253475,0.7507197961560792
4.644375562667847,0.8662025112936592,[0.94591496],5.0,0.6,0.0,-0.014511197401967131,0.3602264554253158,0.7806026876771113
4.652744770050049,0.8693288907614459,[0.94597457],5.0,0.6,0.0,-0.29698254894948817,0.3437745683837295,0.8087804886460137
4.6617209911346436,0.8730414663794427,[0.94603307],5.0,0.6,0.0,-0.33428647989832166,0.32556897104390625,0.844453418365783
4.670371055603027,0.8765586432807027,[0.94609041],5.0,0.6,0.0,-0.2815473167754394,0.3081657473625635,0.8801883958663559
4.680756092071533,0.8806620163321728,[0.94614651],5.0,0.6,0.0,-0.20645615055346053,0.2871176452910223,0.9241285969844009
4.689969301223755,0.8843745919501695,[0.94620127],5.0,0.6,0.0,-0.13595748710909691,0.26885263321768144,0.9655493897875871
4.698026657104492,0.8875009714179563,[0.94625464],5.0,0.6,0.0,-0.07870086576827534,0.25348626247612377,1.0013715368309215
4.7078118324279785,0.8914089457526896,[0.9463066],5.0,0.6,0.0,-0.0356425296503145,0.2335325629624746,1.0473032467252117
4.718294858932495,0.8955123188041597,[0.94635708],5.0,0.6,0.0,0.27112894479792626,0.21325125372421297,1.0962294244968727
4.727118253707886,0.8992248944221565,[0.94640608],5.0,0.6,0.0,0.3252375626271231,0.19484438672827512,1.1406091941252086
4.73569655418396,0.9025466726066799,[0.94645359],5.0,0.6,0.0,0.2838052524859083,0.17778995307047185,1.1800073590274809
4.747153043746948,0.9070408430916233,[0.94649963],5.0,0.6,0.0,-0.05996312024343889,0.15647258397919026,1.232418786780792
4.758107900619507,0.9113396148598301,[0.94654426],5.0,0.6,0.0,-0.15900979718597774,0.13457225483083435,1.2804399434872535
4.7686991691589355,0.9158337853447734,[0.94658748],5.0,0.6,0.0,-0.15852910189990016,0.11241188697152216,1.3276370163925049
4.7783896923065186,0.9197417596795069,[0.94662933],5.0,0.6,0.0,-0.12418957563770405,0.09311325921907246,1.3653670623175187
4.786277532577515,0.9230635378640303,[0.94666985],5.0,0.6,0.0,-0.3600201005621023,0.0767683599907262,1.3944381922199125
4.793642997741699,0.9257991198983436,[0.94670907],5.0,0.6,0.0,-0.35767898134755993,0.06277295725007366,1.4161738283571157
4.8026697635650635,0.9293162967996036,[0.94674695],5.0,0.6,0.0,-0.27479925759478774,0.04553112113535393,1.440987631755992
4.811661958694458,0.9326380749841271,[0.94678351],5.0,0.6,0.0,-0.4544740192813413,0.02929423756132918,1.4606177625189292
4.821657419204712,0.9361552518853872,[0.94681882],5.0,0.6,0.0,-0.679099432327373,0.012137164303664327,1.4771711308795112
4.8306896686553955,0.9394770300699106,[0.94685294],5.0,0.6,0.0,-0.8673709334446289,-0.004063007988121303,1.4886184451009188
4.838915109634399,0.9426034095376973,[0.94688592],5.0,0.6,0.0,-0.9977564385072248,-0.019302468577612197,1.4955982188419072
4.851478099822998,0.9469021813059041,[0.94691785],5.0,0.6,0.0,-1.3487946892948965,-0.03972848783189674,1.4986475347049748
4.86065411567688,0.949833162056954,[0.94694884],5.0,0.6,0.0,-1.9640386799634333,-0.05375888305851212,1.4954742588362457
4.869661808013916,0.9523733453745308,[0.9469789],5.0,0.6,0.0,-2.523892096487122,-0.0659790898553608,1.489477449752826
4.879682302474976,0.9551089274088441,[0.94700799],5.0,0.6,0.0,-3.4813276131961812,-0.07819706190596885,1.4780197571522784
4.890884637832642,0.9576491107264208,[0.94703614],5.0,0.6,0.0,-4.343095886631753,-0.0890238817706974,1.4638788826238365
4.901133060455322,0.959993895327261,[0.94706342],5.0,0.6,0.0,-4.958206185141048,-0.09916058548215048,1.4491441522621982
4.912243843078613,0.9627294773615743,[0.94708989],5.0,0.6,0.0,-5.0,-0.11060821095232773,1.4339900224963036
4.922705173492432,0.9644880658122044,[0.94711553],5.0,0.6,0.0,-5.0,-0.11760302526682954,1.423156705140935
4.933907747268677,0.966442052979571,[0.94714031],5.0,0.6,0.0,-5.0,-0.12500975508774603,1.4099288899787576
4.943719863891602,0.9678098439967278,[0.94716418],5.0,0.6,0.0,-5.0,-0.12957685018815246,1.4000159870184987
4.954717397689819,0.969373033730621,[0.94718714],5.0,0.6,0.0,-5.0,-0.13490271185315583,1.3879796294015831
4.9635841846466064,0.9701546285975677,[0.9472092],5.0,0.6,0.0,-5.0,-0.13640356295733203,1.3817878127747796
4.974744081497192,0.9709362234645145,[0.94723037],5.0,0.6,0.0,-5.0,-0.13789978907654188,1.3754245491657424
4.985448598861694,0.9719132170481978,[0.94725065],5.0,0.6,0.0,-5.0,-0.14011464840695917,1.3671916760229084
4.996722459793091,0.9723040144816711,[0.94727009],5.0,0.6,0.0,-5.0,-0.13935776160993163,1.3639293867979543
5.007675886154175,0.9723040144816711,[0.94728872],5.0,0.6,0.0,-5.0,-0.13680280895017846,1.3640939457780183
5.018682956695557,0.9724994131984078,[0.9473066],5.0,0.6,0.0,-5.0,-0.1351598863085747,1.3625224745883404
5.029660940170288,0.9723040144816711,[0.94732377],5.0,0.6,0.0,-4.621748226525144,-0.13195215694224552,1.3670205933668118
5.039667844772339,0.9721086157649345,[0.94734028],5.0,0.6,0.0,-4.041524461746835,-0.12868775977028865,1.3725219070712726
5.048700332641602,0.9717178183314611,[0.94735616],5.0,0.6,0.0,-3.1819715778570226,-0.12482098098761252,1.3805954378514707
5.060177564620972,0.9713270208979877,[0.94737145],5.0,0.6,0.0,-2.081567746939405,-0.12117011654800466,1.3883526475500183
5.069846153259277,0.9707408247477777,[0.94738615],5.0,0.6,0.0,-1.0877078259899085,-0.11670089852712258,1.3957714542821713
5.079349994659424,0.969959229880831,[0.94740031],5.0,0.6,0.0,-0.027897575439986166,-0.11146416547633162,1.4032268087036472
5.087686777114868,0.9695684324473578,[0.94741394],5.0,0.6,0.0,0.5760811448633649,-0.10829176523180709,1.4062529974104931
5.0972514152526855,0.9687868375804112,[0.94742704],5.0,0.6,0.0,1.1876515415100064,-0.10320098139001242,1.411742270643177
5.104827404022217,0.9682006414302011,[0.94743962],5.0,0.6,0.0,1.9472546237569177,-0.09925268445057571,1.4145923698513245
5.116456508636475,0.9670282491297811,[0.94745168],5.0,0.6,0.0,2.0347558702977473,-0.09234757240057122,1.4231429472979578
5.126715660095215,0.9660512555460977,[0.94746324],5.0,0.6,0.0,2.1408363781335664,-0.08630258842867522,1.4298305929962667
5.138334274291992,0.9646834645289409,[0.94747432],5.0,0.6,0.0,2.207054075079954,-0.07831907027729049,1.4388761646979935
5.148728609085083,0.9637064709452576,[0.94748493],5.0,0.6,0.0,2.4974082952778494,-0.07262371895441981,1.4441118304244194
5.1601293087005615,0.9623386799281008,[0.9474951],5.0,0.6,0.0,2.7747982745818085,-0.06495888433035227,1.4511916261669682
5.168673038482666,0.9613616863444175,[0.94750481],5.0,0.6,0.0,2.962012092955166,-0.05936058905617747,1.4558369020876323
5.179092884063721,0.9601892940439976,[0.9475141],5.0,0.6,0.0,3.049074416902485,-0.05272421976141178,1.461505732662108
5.188427209854126,0.9590169017435776,[0.94752298],5.0,0.6,0.0,3.0507572250918096,-0.046094248989001385,1.4670435159653241
5.19866943359375,0.9578445094431576,[0.94753149],5.0,0.6,0.0,3.264057368628661,-0.03967474470527288,1.4710846280363896
5.209704399108887,0.9566721171427376,[0.94753965],5.0,0.6,0.0,3.4658025784518607,-0.033331479890951365,1.4745958395727508
5.223042249679565,0.9553043261255808,[0.9475475],5.0,0.6,0.0,3.5839058788114446,-0.025952215291104957,1.478567923699573
5.233622074127197,0.9541319338251608,[0.94755509],5.0,0.6,0.0,3.88566834638836,-0.019947114583201874,1.480272454567575
5.243631362915039,0.9529595415247408,[0.94756245],5.0,0.6,0.0,4.142606176812985,-0.013937657848246169,1.481578228096923
5.253154039382935,0.9521779466577941,[0.94756958],5.0,0.6,0.0,4.286581012172139,-0.009981746533913082,1.4822687982215568
5.260610103607178,0.9512009530741107,[0.94757649],5.0,0.6,0.0,4.315387572255901,-0.005185081713716485,1.4837038572938828
5.270688772201538,0.9504193582071641,[0.94758318],5.0,0.6,0.0,4.249852050418012,-0.0011301210360753192,1.4851268647804212
5.280967950820923,0.9492469659067441,[0.94758967],5.0,0.6,0.0,4.391430262424208,0.004552700217008429,1.4852994344316413
5.290265321731567,0.9484653710397973,[0.94759597],5.0,0.6,0.0,4.244063713619251,0.008379731503260641,1.4866188239095663
5.298653841018677,0.9476837761728507,[0.94760208],5.0,0.6,0.0,4.25676619122129,0.01199756505370654,1.486690400873388
5.313143253326416,0.9469021813059041,[0.94760801],5.0,0.6,0.0,4.543554589966028,0.015619363039811979,1.4847667978300692
5.321633815765381,0.9463159851556939,[0.94761377],5.0,0.6,0.0,4.809586204477616,0.01793853911907469,1.482736783368454
5.332744359970093,0.945729789005484,[0.94761937],5.0,0.6,0.0,4.960673093255199,0.020218038044129926,1.4812992401539335
5.346647024154663,0.9453389915720106,[0.94762481],5.0,0.6,0.0,5.0,0.021232180849000967,1.4806876177057369
5.357468366622925,0.9451435928552739,[0.94763009],5.0,0.6,0.0,5.0,0.02101945135308012,1.4804962938706345
5.366812467575073,0.9449481941385374,[0.94763522],5.0,0.6,0.0,5.0,0.021025529091530815,1.480289084646945
5.3779847621917725,0.9449481941385374,[0.94764019],5.0,0.6,0.0,5.0,0.019913197953353876,1.4802837407057146
5.3868727684021,0.9447527954218007,[0.94764502],5.0,0.6,0.0,5.0,0.01979134688710328,1.4800604714488668
5.397555112838745,0.9447527954218007,[0.94764969],5.0,0.6,0.0,4.794830758129098,0.018873186071017796,1.4814985144838988
5.406662225723267,0.9447527954218007,[0.94765421],5.0,0.6,0.0,4.320142186274207,0.018033991678910052,1.4846158033533428
5.415698051452637,0.9447527954218007,[0.94765856],5.0,0.6,0.0,4.073055872260309,0.017126758073211228,1.4861145465093846
5.426538705825806,0.9447527954218007,[0.94766274],5.0,0.6,0.0,3.3452504951093616,0.016525435901105064,1.4900465283457598
5.435710668563843,0.9449481941385374,[0.94766675],5.0,0.6,0.0,2.5607935953456535,0.015113808980654696,1.4936652085833129
5.443628549575806,0.9449481941385374,[0.9476706],5.0,0.6,0.0,1.8764121931115916,0.014653555127163674,1.4959046798990223
5.455193758010864,0.9449481941385374,[0.9476743],5.0,0.6,0.0,1.3317706211892064,0.014312680247061104,1.4971962397761716
5.462637901306152,0.9449481941385374,[0.94767784],5.0,0.6,0.0,0.643587566159481,0.01412636993024536,1.4982026723757234
5.471251487731934,0.9449481941385374,[0.94768125],5.0,0.6,0.0,0.03221588323093194,0.014030216804458453,1.4985064251556224
5.480794191360474,0.9451435928552739,[0.94768452],5.0,0.6,0.0,-0.16261014904471194,0.012861185766907063,1.4986898931162795
5.490625858306885,0.9451435928552739,[0.94768765],5.0,0.6,0.0,-0.4603785735678865,0.012739681958705753,1.498548643848678
5.502695083618164,0.9451435928552739,[0.94769065],5.0,0.6,0.0,-0.729193904852548,0.012651277228103577,1.4983076816303136
5.515846490859985,0.9453389915720106,[0.94769352],5.0,0.6,0.0,-0.9288611003120988,0.011721824324867661,1.4982500058042856
5.527734994888306,0.9453389915720106,[0.94769628],5.0,0.6,0.0,-1.057179495694895,0.011642479875570511,1.4980579887939676
5.536858797073364,0.9455343902887473,[0.9476989],5.0,0.6,0.0,-1.1254569283819094,0.010691113182284415,1.4981214062409465
5.548721075057983,0.9455343902887473,[0.94770141],5.0,0.6,0.0,-1.1479229757297673,0.010674554920060378,1.4980812893002335
5.559694051742554,0.945729789005484,[0.9477038],5.0,0.6,0.0,-0.861555772614883,0.009537386653190335,1.4986687103506067
5.567637920379639,0.945729789005484,[0.94770608],5.0,0.6,0.0,-0.7958537218501274,0.00942340458631928,1.4987478927964988
5.577377557754517,0.945729789005484,[0.94770824],5.0,0.6,0.0,-0.8041389951252162,0.009423619328177316,1.4987363244829033
5.585892677307129,0.9459251877222207,[0.9477103],5.0,0.6,0.0,-0.825024316877369,0.008453812376948323,1.4988564446730632
5.594825983047485,0.9459251877222207,[0.94771227],5.0,0.6,0.0,-0.8360983513036939,0.008410986060223485,1.4988413586811324
5.605506896972656,0.9461205864389572,[0.94771416],5.0,0.6,0.0,-0.831875904454458,0.007473654943493639,1.4989773629681495
5.614838600158691,0.9461205864389572,[0.94771596],5.0,0.6,0.0,-0.8135477446823924,0.00744437347466576,1.4989986403700937
5.6235737800598145,0.9463159851556939,[0.94771769],5.0,0.6,0.0,-0.7843973227696801,0.00647000692404482,1.499149319925864
5.633632659912109,0.9463159851556939,[0.94771934],5.0,0.6,0.0,-0.7478879447378581,0.006491929375446613,1.499190000162337
5.644465923309326,0.9465113838724306,[0.94772093],5.0,0.6,0.0,-0.4309327496461947,0.005363697718927372,1.499569224665072
5.654325485229492,0.9465113838724306,[0.94772246],5.0,0.6,0.0,-0.3547626552116041,0.005275874729040052,1.4996130210116716
5.661673545837402,0.9465113838724306,[0.94772395],5.0,0.6,0.0,-0.3663405292686236,0.005206572610039846,1.499606087797463
5.670661211013794,0.9467067825891673,[0.94772538],5.0,0.6,0.0,-0.399577366757885,0.004220387609933935,1.4996736737888285
5.682680130004883,0.9467067825891673,[0.94772677],5.0,0.6,0.0,-0.4286784629482733,0.004223024228664537,1.499655171254234
5.694598436355591,0.9469021813059041,[0.94772811],5.0,0.6,0.0,-0.4457745006088719,0.003245193218005167,1.4997156757644619
5.707651138305664,0.9469021813059041,[0.94772942],5.0,0.6,0.0,-0.7264457279387393,0.003433515083915777,1.4994704624426836
5.715679883956909,0.9470975800226407,[0.94773068],5.0,0.6,0.0,-0.7539049247354901,0.002468757323840998,1.499496920992769
5.724606513977051,0.9470975800226407,[0.94773191],5.0,0.6,0.0,-0.6855657412123691,0.0025505843497370313,1.4995697825841583
5.73467493057251,0.9470975800226407,[0.94773309],5.0,0.6,0.0,-0.591137135201094,0.00256826873649713,1.499659171029323
5.7454047203063965,0.9470975800226407,[0.94773423],5.0,0.6,0.0,-0.499155524668362,0.0025967313108623885,1.4997335008093748
5.756715297698975,0.9472929787393772,[0.94773534],5.0,0.6,0.0,-0.41944848638492027,0.001642645812088507,1.499829913787269
5.7676286697387695,0.9472929787393772,[0.94773642],5.0,0.6,0.0,-0.3538048158029843,0.0016383014234857024,1.4998674994378567
5.7768213748931885,0.9472929787393772,[0.94773747],5.0,0.6,0.0,-0.3009161892418648,0.0016449624286340933,1.4998930851584018
5.785717248916626,0.9474883774561141,[0.94773849],5.0,0.6,0.0,-0.25857253163115984,0.000656048700344111,1.4999377205106814
5.795221567153931,0.9474883774561141,[0.94773949],5.0,0.6,0.0,-0.2245667785889471,0.0006534189861989657,1.4999498497863921
5.803620100021362,0.9474883774561141,[0.94774045],5.0,0.6,0.0,-0.19701212255274247,0.0006491149158219655,1.4999583993849452
5.813790798187256,0.9476837761728507,[0.94774139],5.0,0.6,0.0,-0.1744059589287191,-0.0003177743887563393,1.4999766939211274
5.823342323303223,0.9476837761728507,[0.94774229],5.0,0.6,0.0,-0.15559550944283682,-0.0003195881120790971,1.4999812936004606
5.8319251537323,0.9476837761728507,[0.94774317],5.0,0.6,0.0,-0.13971411919843996,-0.00032141960451321627,1.4999847640742752
5.840937852859497,0.9476837761728507,[0.94774401],5.0,0.6,0.0,-0.4021551404245369,-0.00018476657744805563,1.499878897994452
5.848628044128418,0.9476837761728507,[0.94774481],5.0,0.6,0.0,-0.42348796274739886,-6.771806574388504e-05,1.4998657704786016
5.858593463897705,0.9476837761728507,[0.94774558],5.0,0.6,0.0,-0.3580488532291065,-7.997810969614438e-06,1.4999038137772354
5.871740102767944,0.9476837761728507,[0.94774632],5.0,0.6,0.0,-0.5488443859063696,0.0001755986704643351,1.4997750320176353
5.884619235992432,0.9476837761728507,[0.94774703],5.0,0.6,0.0,-0.5032718298523641,0.000270185002832204,1.499810691614836
5.897725343704224,0.9478791748895873,[0.94774772],5.0,0.6,0.0,-0.38420827291892257,-0.0006345975407248081,1.499886670351659
5.909652233123779,0.9478791748895873,[0.94774837],5.0,0.6,0.0,-0.2594921902446301,-0.0006369451880070958,1.4999464554911845
5.921651363372803,0.9478791748895873,[0.947749],5.0,0.6,0.0,-0.1535381437069629,-0.0006256323701223333,1.4999790625976908
5.931596755981445,0.9476837761728507,[0.9477496],5.0,0.6,0.0,-0.07191428392296308,0.00037776928619317584,1.4999952837950628
5.943156480789185,0.9476837761728507,[0.94775017],5.0,0.6,0.0,-0.012770306225527966,0.00040200933446658956,1.499998996918867
5.954728603363037,0.9478791748895873,[0.94775073],5.0,0.6,0.0,0.028051037352226513,-0.000563343941691176,1.499996114842384
5.962583541870117,0.9476837761728507,[0.94775128],5.0,0.6,0.0,0.054879825015444215,0.00036820978594687267,1.4999968466556806
5.970797061920166,0.9476837761728507,[0.94775181],5.0,0.6,0.0,0.07144698211798427,0.0003534995570819955,1.4999952744711542
5.978602886199951,0.9476837761728507,[0.94775231],5.0,0.6,0.0,0.08070477054508761,0.0004008534219238728,1.4999942122031538
5.98803973197937,0.9478791748895873,[0.9477528],5.0,0.6,0.0,0.08488150521100965,-0.00055113604966903,1.4999914423594003
5.997901439666748,0.9476837761728507,[0.94775327],5.0,0.6,0.0,0.08560998291677394,0.00038781324660909397,1.4999935783497222
6.007223606109619,0.9476837761728507,[0.94775373],5.0,0.6,0.0,0.08406239132227117,0.00036346034369816343,1.4999937609217764
6.01558518409729,0.9476837761728507,[0.94775418],5.0,0.6,0.0,0.08106719912017057,0.00038691812467566073,1.4999941166600765
6.02946138381958,0.9478791748895873,[0.9477546],5.0,0.6,0.0,0.07720215965138044,-0.0005799111126108545,1.4999924595379572
6.039597511291504,0.9478791748895873,[0.94775501],5.0,0.6,0.0,0.07286496094597,-0.0006165490907529389,1.4999929642036873
6.04959511756897,0.9476837761728507,[0.94775539],5.0,0.6,0.0,0.0683254151890441,0.00038290906506160087,1.4999954991637936
6.061642408370972,0.9478791748895873,[0.94775576],5.0,0.6,0.0,0.06376332239307754,-0.0005765115477813388,1.4999939270193996
6.06961727142334,0.9476837761728507,[0.94775611],5.0,0.6,0.0,0.05929560721305671,0.00039492665967336105,1.4999963363492974
6.078058242797852,0.9478791748895873,[0.94775645],5.0,0.6,0.0,0.054995600223017624,-0.0005779481527599377,1.4999947361168815
6.088687419891357,0.9478791748895873,[0.94775678],5.0,0.6,0.0,0.05090664939558384,-0.0005448680328724209,1.499995074624473
6.100057363510132,0.9478791748895873,[0.9477571],5.0,0.6,0.0,0.04705167951697439,-0.0005502073806340581,1.499995371722584
6.108625411987305,0.9476837761728507,[0.94775743],5.0,0.6,0.0,0.04343987562661854,0.00041561231038421685,1.4999975102564806
6.117995023727417,0.9478791748895873,[0.94775777],5.0,0.6,0.0,0.04007133541612847,-0.0004233835136685357,1.4999958570945795
6.129633665084839,0.9476837761728507,[0.94775817],5.0,0.6,0.0,0.036940292725554824,0.0006723090845422413,1.4999978774408251
6.1386024951934814,0.9478791748895873,[0.94775868],5.0,0.6,0.0,0.03403733883489657,0.00010195470140018599,1.49999623394233
6.146966934204102,0.9476837761728507,[0.94775947],5.0,0.6,0.0,0.03135094271101735,0.0016246369191741867,1.4999981223205818
6.156770706176758,0.9476837761728507,[0.94776079],5.0,0.6,0.0,0.028868482139045838,0.0026121250099383066,1.4999981934417033
6.1661694049835205,0.9476837761728507,[0.94776302],5.0,0.6,0.0,0.02657693453779469,0.0038783383920377055,1.4999982183915868
6.173589468002319,0.9478791748895873,[0.94776657],5.0,0.6,0.0,0.024463331742899594,0.0031651934832137595,1.4999970186233156
6.181854724884033,0.9478791748895873,[0.94777189],5.0,0.6,0.0,0.022515051725766497,0.0052145313358051126,1.4999973206665045
6.190956115722656,0.9478791748895873,[0.9477797],5.0,0.6,0.0,0.02071999822561884,0.0077905631747921585,1.4999977014183024
6.1996009349823,0.9476837761728507,[0.9477908],5.0,0.6,0.0,0.019066703850261074,0.008918186352487693,1.4999974384170858
6.208691596984863,0.9476837761728507,[0.94780594],5.0,0.6,0.0,0.01754438139820057,0.0125511033663689,1.4999967859751386
6.2204270362854,0.9476837761728507,[0.9478267],5.0,0.6,0.0,0.016142940594554806,0.020939170978327724,1.4999957205085728
6.2286036014556885,0.9478791748895873,[0.94785508],5.0,0.6,0.0,0.014852982147256662,0.018961877214391003,1.4999997196343335
6.237313747406006,0.9476837761728507,[0.94789246],5.0,0.6,0.0,0.013665777337922019,0.025256694817804227,1.4999911515378357
6.245313405990601,0.9476837761728507,[0.94794053],5.0,0.6,0.0,0.012573238785730134,0.03110141416082519,1.4999866977141603
6.253587007522583,0.9478791748895873,[0.94800099],5.0,0.6,0.0,0.011567886227825914,0.028815145921979753,1.4999969325813427
6.262410640716553,0.9478791748895873,[0.94807505],5.0,0.6,0.0,0.010642809911350224,0.03664793870370607,1.4999922421262915
6.273256778717041,0.9478791748895873,[0.94816486],5.0,0.6,0.0,0.009791633325808697,0.04468836399714824,1.499983606109974
6.28246545791626,0.948074573606324,[0.94827342],5.0,0.6,0.0,0.009008476404971155,0.05184061187802916,1.4999920317256181
6.292623043060303,0.948074573606324,[0.9484039],5.0,0.6,0.0,0.28432627959294876,0.06002212593672843,1.4999181347446549
6.305452823638916,0.9482699723230607,[0.94856078],5.0,0.6,0.0,0.3167879342964528,0.08087323998865928,1.4999083883337956
6.3146045207977295,0.9484653710397973,[0.9487484],5.0,0.6,0.0,0.5371190992614139,0.07133554612460041,1.4997692677264443
6.322564363479614,0.948660769756534,[0.94896847],5.0,0.6,0.0,0.49359753631740366,0.08027464784671096,1.4997997329548747
6.331953525543213,0.9488561684732707,[0.94922288],5.0,0.6,0.0,0.6434996811889389,0.08914703910503657,1.4996649503151922
6.3395774364471436,0.9490515671900073,[0.94951329],5.0,0.6,0.0,0.8194808562772213,0.08040441699747819,1.4994577111898784
6.348569393157959,0.9494423646234808,[0.9498398],5.0,0.6,0.0,0.9605892855531954,0.09194629152446418,1.4992819994422915
6.357578754425049,0.949833162056954,[0.95020425],5.0,0.6,0.0,1.0521310176885326,0.10223024635446411,1.4991491016773253
6.366607189178467,0.9502239594904275,[0.95061006],5.0,0.6,0.0,1.097693772026608,0.11148033823528769,1.4990740383489538
6.374617099761963,0.9506147569239006,[0.95105838],5.0,0.6,0.0,1.1066220469254127,0.09938270578788888,1.49904986912827
6.384628534317017,0.9510055543573741,[0.95155034],5.0,0.6,0.0,1.3648165423295744,0.13321796663330499,1.4985559513174187
6.3926427364349365,0.9513963517908475,[0.95208879],5.0,0.6,0.0,1.3618016484230357,0.11709159203625291,1.4985255220257263
6.401578426361084,0.9519825479410575,[0.95267394],5.0,0.6,0.0,1.5349469008982957,0.12714615805044402,1.4981536181144304
6.409604549407959,0.9525687440912673,[0.95330377],5.0,0.6,0.0,1.4374604000487359,0.11305462149307532,1.4983561686408824
6.418621063232422,0.9533503389582141,[0.95397624],5.0,0.6,0.0,1.5301417446681,0.12549483355124866,1.498181795603536
6.428570508956909,0.9541319338251608,[0.95469169],5.0,0.6,0.0,1.6480859791147602,0.135337108373721,1.4979194888512173
6.437475204467773,0.9551089274088441,[0.95545237],5.0,0.6,0.0,1.731978427791565,0.1418610127835887,1.4977483736375512
6.446576356887817,0.9558905222757909,[0.95626002],5.0,0.6,0.0,1.7681828950683798,0.14818974331870713,1.4976507558027203
6.454837322235107,0.9568675158594742,[0.95711592],5.0,0.6,0.0,1.7609347888109892,0.15286487960737621,1.4976846743615155
6.463939189910889,0.9578445094431576,[0.95802094],5.0,0.6,0.0,1.7199408765987578,0.15686029403220042,1.4977965332959773
6.471948623657227,0.9586261043101042,[0.95897307],5.0,0.6,0.0,1.6552303676702045,0.13627840780500303,1.4979405782294655
6.482367277145386,0.959993895327261,[0.95996775],5.0,0.6,0.0,1.8513537065620602,0.1445672801890575,1.4974549213916717
6.492567777633667,0.9615570850611541,[0.9610034],5.0,0.6,0.0,2.0719858655838896,0.14982202822355944,1.4967530754590386
6.505752325057983,0.963511072228521,[0.96208368],5.0,0.6,0.0,2.233725924086415,0.17674824025962418,1.4958921450102993
6.517415761947632,0.9656604581126244,[0.96321417],5.0,0.6,0.0,2.318967404017202,0.16934593913409515,1.4948167338796543
6.531434774398804,0.9678098439967278,[0.96439944],5.0,0.6,0.0,2.33555285161284,0.18796967637441514,1.4936324163919241
6.5434181690216064,0.969959229880831,[0.96564316],5.0,0.6,0.0,2.29885318753404,0.17613150849719883,1.4923627240698236
6.552234649658203,0.9717178183314611,[0.96694527],5.0,0.6,0.0,1.948344055741944,0.1688560460714996,1.492637110287678
6.561298370361328,0.9736718054988278,[0.96830251],5.0,0.6,0.0,1.5400048817177647,0.1626976204169104,1.4924883961690036
6.571425914764404,0.9756257926661944,[0.96971161],5.0,0.6,0.0,1.4481871782575255,0.15784873161588667,1.4914701512476056
6.581381320953369,0.9773843811168246,[0.97116936],5.0,0.6,0.0,1.1823181461585337,0.1550157500769992,1.4912649635171984
6.591982841491699,0.9799245644344012,[0.97267542],5.0,0.6,0.0,1.172770244261456,0.17443722923890076,1.4885222386861914
6.6018898487091064,0.9820739503185046,[0.97423192],5.0,0.6,0.0,1.233498604718708,0.1632733559298491,1.4866444948897746
6.6120195388793945,0.9844187349193447,[0.97583418],5.0,0.6,0.0,1.014477190231866,0.12672225543657525,1.4846036427833655
6.6212451457977295,0.9863727220867115,[0.97747186],5.0,0.6,0.0,0.7348166906827519,0.12813407681900088,1.4838780067724278
6.630390405654907,0.9885221079708147,[0.97913862],5.0,0.6,0.0,0.7559864600483899,0.12767305837578308,1.4821189062188505
6.639343500137329,0.9904760951381815,[0.9808316],5.0,0.6,0.0,0.5848911226258434,0.12739480849343993,1.4813141132135528
6.651520013809204,0.9934070758892316,[0.98254799],5.0,0.6,0.0,0.10133748177762575,0.12196989482607157,1.4766843443368962
6.661681413650513,0.9959472592068082,[0.98428508],5.0,0.6,0.0,-0.11613023111517132,0.11816167593640241,1.4731553061682163
6.669540166854858,0.9979012463741749,[0.9860374],5.0,0.6,0.0,-0.48124420666198875,0.08986357600707862,1.4720700056654505
6.680501461029053,1.0006368284084883,[0.98780022],5.0,0.6,0.0,-0.8187536929495829,0.12065301352570439,1.4670826412020541
6.690682649612427,1.0029816130093283,[0.98957531],5.0,0.6,0.0,-1.073422686985646,0.11644371589952127,1.4638356186033625
6.699348449707031,1.0051309988934318,[0.99136426],5.0,0.6,0.0,-1.2401488614060172,0.11399161048629053,1.4616612216986824
6.712297201156616,1.0082573783612183,[0.9931686],5.0,0.6,0.0,-1.3319976884334128,0.13402474163083897,1.4541678983473938
6.721251964569092,1.0104067642453218,[0.9949928],5.0,0.6,0.0,-1.3663007602038624,0.12580134468613158,1.4522055251122499
6.7295427322387695,1.0125561501294251,[0.99683458],5.0,0.6,0.0,-1.6351992657014662,0.09200571114426814,1.4497819077925165
6.740046977996826,1.0152917321637385,[0.9986891],5.0,0.6,0.0,-1.9089243936261941,0.12119815409619385,1.4436573890063107
6.7475714683532715,1.0172457193311053,[1.00055545],5.0,0.6,0.0,-1.8332504672645413,0.08900421199797398,1.443314994819224
6.756560325622559,1.0193951052152086,[1.00242973],5.0,0.6,0.0,-1.9134874455029456,0.09376588116744175,1.4413425461743496
6.7659571170806885,1.0217398898160488,[1.0043088],5.0,0.6,0.0,-1.7296825001325442,0.096434486648403,1.4388188392168375
6.775550842285156,1.0240846744168886,[1.00619336],5.0,0.6,0.0,-1.7510611646575907,0.09811116798163237,1.4357090909368737
6.784684419631958,1.0266248577344654,[1.00808416],5.0,0.6,0.0,-1.8134342713333025,0.09825746307587856,1.4311166078098125
6.794125318527222,1.0289696423353054,[1.00998201],5.0,0.6,0.0,-1.8553954868571556,0.09895583089579887,1.4278761840508682
6.802933692932129,1.0313144269361456,[1.01188778],5.0,0.6,0.0,-1.8605466966382473,0.09947329058886126,1.42472909004484
6.811028957366943,1.033463812820249,[1.01380241],5.0,0.6,0.0,-1.8305397943521629,0.10090646302529278,1.4231108740450904
6.820529222488403,1.035808597421089,[1.0157269],5.0,0.6,0.0,-1.7729468138825273,0.10136855062621648,1.4201775330183157
6.829623460769653,1.0381533820219289,[1.0176623],5.0,0.6,0.0,-1.696138420760466,0.10190124908698354,1.417315545068517
6.837706804275513,1.0401073691892957,[1.0196062],5.0,0.6,0.0,-1.6073825984083845,0.07310086680750515,1.417456872121665
6.846031665802002,1.0418659576399256,[1.02155322],5.0,0.6,0.0,-1.5123547189102422,0.0858297424844681,1.419091974939819
6.857398271560669,1.044601539674239,[1.02350263],5.0,0.6,0.0,-1.4152142774887415,0.09109111619107126,1.4133268713618845
6.869662761688232,1.0479233178587624,[1.02545765],5.0,0.6,0.0,-1.3188677036681837,0.09139935273359198,1.402693011244848
6.879815101623535,1.0504635011763392,[1.02742134],5.0,0.6,0.0,-1.2252561917970224,0.09422704486420794,1.3981390412982324
6.890154838562012,1.053003684493916,[1.02939655],5.0,0.6,0.0,-1.1356084828274855,0.0961686628425149,1.393568655129412
6.900579929351807,1.0555438678114926,[1.03138596],5.0,0.6,0.0,-1.050642881302572,0.09756809284641908,1.3890124496051794
6.9096293449401855,1.0576932536955959,[1.03338817],5.0,0.6,0.0,-0.9707206680889531,0.06766359026315494,1.387864090627692
6.918566703796387,1.0598426395796994,[1.03539829],5.0,0.6,0.0,-0.8959589984050571,0.07985401593218962,1.3867621527259981
6.927647113800049,1.0621874241805394,[1.03741228],5.0,0.6,0.0,-0.8263122329968142,0.053716252365676447,1.3839665601259452
6.937562704086304,1.064727607498116,[1.03942295],5.0,0.6,0.0,-0.7616296053969508,0.03287273552634762,1.3793644499798023
6.948747634887695,1.067267790815693,[1.04142049],5.0,0.6,0.0,-0.9777339338292794,0.01748140667631749,1.374214299610248
6.959787845611572,1.0698079741332696,[1.04340491],5.0,0.6,0.0,-0.955420672817197,0.07937789211648376,1.3691797739784666
6.9687206745147705,1.071957360017373,[1.04538461],5.0,0.6,0.0,-1.125149779201222,0.053775797063054166,1.3673548141206973
6.98206639289856,1.074888340768423,[1.047363],5.0,0.6,0.0,-1.0349278406446856,0.06696924615738252,1.3585964101852486
6.991559982299805,1.0770377266525264,[1.04933928],5.0,0.6,0.0,-1.4178014192126454,0.043681654438840985,1.3562574607504252
7.001530408859253,1.07918711253663,[1.05131306],5.0,0.6,0.0,-1.587213797657569,0.06416566726172139,1.3542072035209212
7.010540962219238,1.0811410997039963,[1.05328857],5.0,0.6,0.0,-1.3606183925077757,0.07984189305638059,1.3549082595376327
7.020552158355713,1.0832904855880998,[1.05527405],5.0,0.6,0.0,-1.309272546987506,0.09066030401524117,1.3534432406040269
7.029764175415039,1.085439871472203,[1.05727689],5.0,0.6,0.0,-1.3084014997529256,0.09900820298901647,1.3520387435750807
7.038859844207764,1.08739385863957,[1.05930374],5.0,0.6,0.0,-1.3082480185439072,0.10680238511572303,1.3527387585302266
7.048662185668945,1.0895432445236732,[1.06136054],5.0,0.6,0.0,-1.0166174191236115,0.11249517876628935,1.3523530205557874
7.057733535766602,1.0913018329743032,[1.06345262],5.0,0.6,0.0,-0.9503799521783807,0.11962127120297422,1.3556441736814098
7.066551446914673,1.0934512188584067,[1.06557995],5.0,0.6,0.0,-0.6818612735048608,0.09018290978957587,1.3557596140551764
7.0765392780303955,1.09560060474251,[1.06773786],5.0,0.6,0.0,-0.3910442583207754,0.10517951684265,1.356073192490678
7.085338115692139,1.0975545919098768,[1.06992734],5.0,0.6,0.0,-0.14360988056536,0.11779044402808893,1.3584122196119057
7.0945024490356445,1.09970397779398,[1.07215419],5.0,0.6,0.0,0.04456607473125229,0.12678068403605017,1.3591602022145444
7.10332179069519,1.1016579649613467,[1.07442353],5.0,0.6,0.0,0.1773725935930048,0.13521202590262968,1.3621120214534181
7.111872673034668,1.1036119521287135,[1.07673983],5.0,0.6,0.0,0.264988444215866,0.1424774193170677,1.3654699688564653
7.122034072875977,1.1059567367295535,[1.0791069],5.0,0.6,0.0,0.31822602671688477,0.14715191290231663,1.3656541717464326
7.132177114486694,1.1084969200471304,[1.08152793],5.0,0.6,0.0,0.6224983135655555,0.15023952194016074,1.3643315666403972
7.142534017562866,1.1108417046479702,[1.08400548],5.0,0.6,0.0,0.9423220609501575,0.15389406896936111,1.3651955090656465
7.152364015579224,1.1131864892488104,[1.08654148],5.0,0.6,0.0,1.1950790018928417,0.1573403230274174,1.3665668142405234
7.161568641662598,1.1155312738496506,[1.08913729],5.0,0.6,0.0,1.0878373046807095,0.16082294976647962,1.3690620602479882
7.171725034713745,1.1180714571672272,[1.09179365],5.0,0.6,0.0,1.4240746401542224,0.16304074622975046,1.3695002239592269
7.18105411529541,1.1204162417680672,[1.09451079],5.0,0.6,0.0,1.2700615153733554,0.16642302549947585,1.3731996894251042
7.189714431762695,1.1227610263689072,[1.0972884],5.0,0.6,0.0,1.5242862172717855,0.16969333681997972,1.3765700226425635
7.199154376983643,1.1251058109697472,[1.10012574],5.0,0.6,0.0,1.567331011714341,0.17313111553835916,1.3808474273315485
7.20835280418396,1.1274505955705874,[1.10302164],5.0,0.6,0.0,1.7914277525500975,0.17648214805776766,1.3851096538689522
7.219015836715698,1.1303815763216374,[1.10598023],5.0,0.6,0.0,1.733709346656435,0.19344590731815106,1.3854997339657449
7.229528188705444,1.1331171583559507,[1.1090044],5.0,0.6,0.0,1.8514468081544448,0.17204288881789964,1.3876762199207682
7.240247488021851,1.1362435378237374,[1.11209033],5.0,0.6,0.0,1.9810935795701134,0.19248731254790338,1.3869609075493812
7.248547554016113,1.1389791198580508,[1.11523998],5.0,0.6,0.0,1.7901307795767631,0.191826836199347,1.3910304764307138
7.259004354476929,1.1421054993258377,[1.11845431],5.0,0.6,0.0,1.786771419912266,0.189815916244744,1.3917844894048872
7.270108461380005,1.1456226762270976,[1.12173361],5.0,0.6,0.0,1.823017389330905,0.1969694252561954,1.389667452353333
7.27753758430481,1.1479674608279375,[1.12507739],5.0,0.6,0.0,1.8432533318527966,0.1841085550596838,1.3979898463927791
7.28579306602478,1.1505076441455144,[1.12847295],5.0,0.6,0.0,1.5563318169738722,0.18915629810555146,1.4056603977870774
7.295738458633423,1.1540248210467743,[1.13190902],5.0,0.6,0.0,1.4823830665139153,0.18925118756782158,1.4051774250699895
7.304122447967529,1.1565650043643512,[1.1353814],5.0,0.6,0.0,1.4732732119860676,0.1940489207672452,1.4125474725643072
7.313581943511963,1.1596913838321379,[1.13888611],5.0,0.6,0.0,1.4690930757648144,0.19593888361933787,1.4154656183140966
7.325345993041992,1.1635993581668713,[1.1424252],5.0,0.6,0.0,1.7257037774898198,0.20709418226583173,1.412021789824794
7.336829900741577,1.1678981299350781,[1.1460116],5.0,0.6,0.0,1.4447479310185374,0.2033697723054211,1.4070906571871504
7.344515800476074,1.1706337119693915,[1.14964974],5.0,0.6,0.0,1.3027786513640371,0.19771412210135086,1.414439145633262
7.3539347648620605,1.1739554901539149,[1.1533309],5.0,0.6,0.0,1.2169038655425641,0.20917962917770133,1.4173425001633286
7.361833333969116,1.1766910721882282,[1.15704699],5.0,0.6,0.0,0.8747665099761612,0.19504281290063533,1.4251557722457135
7.3706324100494385,1.179817451656015,[1.16078483],5.0,0.6,0.0,0.7806598660684815,0.19852425304160684,1.4296605199744432
7.382057189941406,1.1837254259907481,[1.16453279],5.0,0.6,0.0,0.7749314552645814,0.1977865356867019,1.4285300522623658
7.390701770782471,1.1870472041752715,[1.16828649],5.0,0.6,0.0,0.5134116964309482,0.19965478665337874,1.431831374944685
7.400678396224976,1.190955178510005,[1.17204187],5.0,0.6,0.0,0.7651316567103492,0.19814844334672457,1.430520959481092
7.411632061004639,1.195253950278212,[1.17580084],5.0,0.6,0.0,0.8490680745318612,0.21025908125415443,1.4265721476664708
7.419528007507324,1.1983803297459985,[1.17956474],5.0,0.6,0.0,0.576803095722761,0.18967906062265444,1.4313956969596513
7.4324493408203125,1.2032652976644154,[1.18332871],5.0,0.6,0.0,0.5106883357023834,0.20401133882078432,1.4233898907319957
7.441530227661133,1.2071732719991486,[1.18709387],5.0,0.6,0.0,0.5173874905073941,0.19902955588971225,1.4223297953551772
7.449548721313477,1.2102996514669355,[1.19085547],5.0,0.6,0.0,0.26401287690841835,0.17391431562727072,1.4271210175360194
7.458569288253784,1.213621429651459,[1.19460373],5.0,0.6,0.0,-0.028132468055714843,0.2024438618127139,1.4302190488077944
7.467538595199585,1.2173340052694557,[1.19833589],5.0,0.6,0.0,-0.2769167833595576,0.1740996933318677,1.4303010680907928
7.476861476898193,1.2208511821707155,[1.20204961],5.0,0.6,0.0,-0.46114682580473854,0.2019320421952909,1.431583293980288
7.486534357070923,1.2249545552221854,[1.20574298],5.0,0.6,0.0,-0.5840529224151745,0.17092559799258294,1.428587828356517
7.496948003768921,1.2292533269903925,[1.20941444],5.0,0.6,0.0,-0.6568519150418732,0.19520925631207578,1.423981054756781
7.50848913192749,1.233552098758599,[1.21306284],5.0,0.6,0.0,-0.967840748284918,0.1626804144675869,1.418769467947437
7.519626140594482,1.2384370666770161,[1.21668205],5.0,0.6,0.0,-1.2848247429108577,0.1607112985976042,1.4084583506296875
7.5284833908081055,1.2415634461448029,[1.22026181],5.0,0.6,0.0,-1.528094323608193,0.1331754197521669,1.4115090336633942
7.537543058395386,1.2452760217627994,[1.22379392],5.0,0.6,0.0,-1.6830695108047553,0.1452130099819838,1.4097308183775668
7.546519756317139,1.2487931986640595,[1.22727732],5.0,0.6,0.0,-1.7599717835970767,0.15364666742459704,1.409269775628385
7.557492256164551,1.253091970432266,[1.23071707],5.0,0.6,0.0,-1.7760034847175055,0.15501640877221112,1.4023798570886243
7.567588567733765,1.2575861409172095,[1.23411801],5.0,0.6,0.0,-1.7480767967300452,0.1533009121446472,1.3934296335670986
7.577841520309448,1.2618849126854164,[1.2374847],5.0,0.6,0.0,-1.690324656606739,0.15117710248587413,1.3856196486549077
7.588824272155762,1.2659882857368865,[1.24082681],5.0,0.6,0.0,-1.613657731639861,0.1708982152755867,1.379133861850674
7.5996174812316895,1.2700916587883566,[1.2441582],5.0,0.6,0.0,-1.5261030689173807,0.16282570044424693,1.3724144647119623
7.608148813247681,1.2736088356896167,[1.24748545],5.0,0.6,0.0,-1.4333647037278654,0.15829024166582212,1.3708912499006032
7.618588924407959,1.2779076074578233,[1.25081422],5.0,0.6,0.0,-1.3393770992851564,0.16752864618825195,1.3621241486643036
7.626516342163086,1.2808385882088735,[1.25414937],5.0,0.6,0.0,-1.2467723594557174,0.14372434174108178,1.3660639863504391
7.637028217315674,1.2849419612603434,[1.25748425],5.0,0.6,0.0,-1.1572465342857834,0.14037077945254625,1.3590365343475048
7.6457929611206055,1.2884591381616035,[1.26081323],5.0,0.6,0.0,-1.0718350680071413,0.14011144931615713,1.3573960307702386
7.653732061386108,1.2919763150628636,[1.26413162],5.0,0.6,0.0,-0.9911145830683412,0.10884203729172069,1.3556284439358117
7.663524389266968,1.2956888906808604,[1.26743028],5.0,0.6,0.0,-0.9153481112624924,0.11719233273447661,1.3517677974776303
7.67203426361084,1.299401466298857,[1.27070714],5.0,0.6,0.0,-0.8445882839933789,0.12208142949800167,1.347640350475359
7.6806135177612305,1.3027232444833805,[1.27396613],5.0,0.6,0.0,-0.7787499040383983,0.1265991552497555,1.3471081352926526
7.690160512924194,1.3062404213846404,[1.27721086],5.0,0.6,0.0,-0.7176605234615367,0.12834605053144998,1.3445116387316427
7.702522039413452,1.311320788019794,[1.28044463],5.0,0.6,0.0,-0.9371337363911483,0.12172763730684336,1.3257540368749905
7.713386535644531,1.315619559788001,[1.28367045],5.0,0.6,0.0,-1.1940025891365247,0.11829609776565644,1.3142806941023122
7.724916458129883,1.3199183315562075,[1.28689118],5.0,0.6,0.0,-1.1237413651326507,0.11449916874274292,1.303058859295222
7.733524560928345,1.3234355084574676,[1.290104],5.0,0.6,0.0,-1.5000857119519886,0.08371984870959703,1.2990845802930957
7.744900226593018,1.3277342802256742,[1.29330136],5.0,0.6,0.0,-1.3786538787799532,0.08992607994360582,1.2874796563053124
7.754925012588501,1.331446855843671,[1.29648286],5.0,0.6,0.0,-1.3795046770867558,0.09563706854730501,1.2816843351704506
7.765531301498413,1.3353548301784044,[1.29964857],5.0,0.6,0.0,-1.4030147749263142,0.06441165617047588,1.2734630839866987
7.7787957191467285,1.3400443993800844,[1.30279353],5.0,0.6,0.0,-1.4125180713268781,0.07312655899754834,1.2561732120743518
7.787999391555786,1.3435615762813446,[1.30591982],5.0,0.6,0.0,-1.3987553344920691,0.08267048888531911,1.2517789670801307
7.801185846328735,1.3482511454830246,[1.30903565],5.0,0.6,0.0,-1.3633307909400394,0.08310921551427503,1.2338489663901273
7.80952262878418,1.3511821262340749,[1.31214283],5.0,0.6,0.0,-1.3113018394087792,0.05764447631950094,1.2359826096789976
7.818497180938721,1.3543085057018613,[1.31523776],5.0,0.6,0.0,-1.5241145069048945,0.07431206804288198,1.235172658077263
7.828600645065308,1.3578256826031216,[1.31832413],5.0,0.6,0.0,-1.4874440351420943,0.08396121799044177,1.2302827127682
7.83884859085083,1.3611474607876448,[1.32141194],5.0,0.6,0.0,-1.3595580537510328,0.09114509755502935,1.227844154473778
7.847551107406616,1.3644692389721682,[1.32450429],5.0,0.6,0.0,-1.486322677757731,0.06617374549644776,1.2249143829324873
7.857456207275391,1.3677910171566916,[1.32759828],5.0,0.6,0.0,-1.3771252863293486,0.08173370494378944,1.2224980213230454
7.870023965835571,1.3724805863583718,[1.33069871],5.0,0.6,0.0,-1.472208486545185,0.08521730386945754,1.2036800608852143
7.88279914855957,1.3761931619763685,[1.33381698],5.0,0.6,0.0,-1.3212993677120575,0.08939240303414601,1.1969729518717316
7.8909687995910645,1.3789287440106817,[1.33696355],5.0,0.6,0.0,-1.1039978623109508,0.09625650816376377,1.2022220766949219
7.898452520370483,1.3812735286115219,[1.34014103],5.0,0.6,0.0,-1.1693956797921174,0.08191467315728211,1.2119099216894935
7.909815073013306,1.3849861042295188,[1.34335242],5.0,0.6,0.0,-1.0233259860837975,0.10423695559093542,1.2062577383782118
7.920667886734009,1.3883078824140422,[1.34661498],5.0,0.6,0.0,-0.8246370837441076,0.10435227758650371,1.2058332541304382
7.931171417236328,1.3916296605985656,[1.34994372],5.0,0.6,0.0,-0.6368600426646032,0.10434878143968995,1.20611942102908
7.940505743026733,1.394169843916142,[1.35334449],5.0,0.6,0.0,-0.48063193820404193,0.10828995297907158,1.2163532624805948
7.949584007263184,1.3971008246671923,[1.35682231],5.0,0.6,0.0,-0.3584783479238665,0.1104101055770227,1.2228135299162877
7.95848822593689,1.3998364067015054,[1.36037361],5.0,0.6,0.0,0.009834166490769597,0.1118404602662025,1.2323750552481023
7.969497203826904,1.4033535836027657,[1.36398745],5.0,0.6,0.0,0.11127410706137701,0.11653572170514842,1.23348288618616
7.980363607406616,1.4068707605040258,[1.36767033],5.0,0.6,0.0,0.10617220086105464,0.0971932617916927,1.235396048221014
7.993062734603882,1.4111695322722326,[1.37145191],5.0,0.6,0.0,0.3424974754469374,0.03830960495321781,1.2293383011084913
8.001460313796997,1.4135143168730726,[1.37534923],5.0,0.6,0.0,0.6075505303692192,0.11300876391833992,1.247005746031867
8.009676456451416,1.416249898907386,[1.37935191],5.0,0.6,0.0,0.8242032437602007,0.11657796334024786,1.2611262136977253
8.0214684009552,1.4195716770919091,[1.38345091],5.0,0.6,0.0,0.6981782330299717,0.11655133654487398,1.2699629022269099
8.031898498535156,1.4226980565596958,[1.38765556],5.0,0.6,0.0,0.7534159680538011,0.05020879250352048,1.2818163876897353
8.040469884872437,1.425238239877273,[1.39197359],5.0,0.6,0.0,0.5714457862606137,0.13291199625096836,1.3012272918472032
8.049638986587524,1.4281692206283225,[1.39639354],5.0,0.6,0.0,0.6168500000365634,0.13325330873936658,1.3168617633136215
8.058172941207886,1.4307094039458996,[1.40090556],5.0,0.6,0.0,0.7194397685679277,0.13467184452873948,1.3368470332629412
8.066506624221802,1.433249587263476,[1.40550084],5.0,0.6,0.0,0.8123179524867432,0.1734895945697923,1.356782308901642
8.07611083984375,1.436375966731263,[1.41016254],5.0,0.6,0.0,0.5986359761071909,0.1720001984197751,1.3713298001560341
8.085422992706299,1.4389161500488394,[1.41488569],5.0,0.6,0.0,0.5956959315891345,0.16974385668498618,1.3906631091243615
8.097612857818604,1.4424333269500995,[1.41968529],5.0,0.6,0.0,0.6540250464098281,0.10483378112295731,1.401362545436429
8.106104612350464,1.4449735102676766,[1.42458392],5.0,0.6,0.0,0.7131519981647458,0.11286841447695682,1.419837311095597
8.113478422164917,1.4473182948685164,[1.42958092],5.0,0.6,0.0,1.0287822682797536,0.19571178524007318,1.4382286326819709
8.122497797012329,1.4502492756195666,[1.43465575],5.0,0.6,0.0,1.3546914683655045,0.18852331598447317,1.4511677189958436
8.132366418838501,1.4537664525208267,[1.43980062],5.0,0.6,0.0,1.6057314382651429,0.17871317123658126,1.4598264966781402
8.142379999160767,1.45708823070535,[1.44501871],5.0,0.6,0.0,1.4896587848260323,0.1718213519922128,1.469636491127208
8.152245998382568,1.4606054076066102,[1.45031251],5.0,0.6,0.0,1.8116304847647924,0.16617967507829662,1.476596991576538
8.161476135253906,1.4637317870743967,[1.45568389],5.0,0.6,0.0,1.639661558328282,0.17046757945103827,1.4851324855959485
8.17165231704712,1.46705356525892,[1.46114459],5.0,0.6,0.0,1.8737186268792834,0.21868057485201675,1.4904344946026606
8.180908679962158,1.4703753434434434,[1.46671458],5.0,0.6,0.0,1.8955222395903988,0.22270622617371383,1.4946558536843353
8.188470363616943,1.4729155267610203,[1.4723889],5.0,0.6,0.0,1.8220912862307843,0.23254159696831989,1.497479209303787
8.197456121444702,1.4760419062288068,[1.47814141],5.0,0.6,0.0,1.7100815883,0.22275195054487573,1.4969466258830713
8.207492113113403,1.4799498805635405,[1.48395991],5.0,0.6,0.0,1.5864103981646007,0.23315010830364186,1.4949191749670534
8.218490362167358,1.483857854898274,[1.48984411],5.0,0.6,0.0,1.7394831685656635,0.24689294723369143,1.4906112203783801
8.227502346038818,1.487375031799534,[1.49579323],5.0,0.6,0.0,1.9317098698604989,0.26184437079380674,1.4831567077293946
8.236327886581421,1.4906968099840574,[1.50180597],5.0,0.6,0.0,2.0768405452187704,0.2773487640286305,1.4724189313033675
8.24648141860962,1.494409385602054,[1.50788056],5.0,0.6,0.0,2.154309385364809,0.2906567407931313,1.4609133334742825
8.256209135055542,1.4983173599367874,[1.51401492],5.0,0.6,0.0,2.169420322320419,0.3030265102768672,1.4484208304104698
8.265074729919434,1.5018345368380475,[1.52020661],5.0,0.6,0.0,2.1355478925592397,0.3169806588250045,1.4313381484776908
8.27357530593872,1.5049609163058342,[1.52644205],5.0,0.6,0.0,2.066712005659179,0.36481886624326587,1.408673166499573
8.281774759292603,1.5082826944903576,[1.53269842],5.0,0.6,0.0,1.9748961600034596,0.3497169944554846,1.3847127049433912
8.290233135223389,1.5116044726748812,[1.53896698],5.0,0.6,0.0,1.5933886647043072,0.34550864782769364,1.359044229766338
8.29921007156372,1.5153170482928777,[1.54525105],5.0,0.6,0.0,1.171966218350469,0.36359037839285246,1.334909910106791
8.307831287384033,1.518834225194138,[1.55155327],5.0,0.6,0.0,0.803697827943923,0.3814609681343581,1.3067812173718385
8.319995164871216,1.5239145918292911,[1.55788667],5.0,0.6,0.0,0.5128716637942818,0.4265179571790956,1.2936862901750201
8.329967021942139,1.527627167447288,[1.56427287],5.0,0.6,0.0,0.2960844077223622,0.43165505687352335,1.2643978422252018
8.340722799301147,1.5319259392154947,[1.57071892],5.0,0.6,0.0,-0.13526411386618814,0.43663178878404446,1.2400795913250688
8.350787162780762,1.535833913550228,[1.57721944],5.0,0.6,0.0,-0.5521219744829292,0.4457518623256486,1.2097290567145824
8.36095929145813,1.5399372866016983,[1.58376946],5.0,0.6,0.0,-0.8784853850558572,0.4556018791698861,1.1803857330593497
8.369795083999634,1.5434544635029583,[1.59036451],5.0,0.6,0.0,-0.8271203504063405,0.46968179906714114,1.1434562757313058
8.378962993621826,1.5469716404042184,[1.59700066],5.0,0.6,0.0,-1.2060373881311854,0.4847217992451808,1.1050970805629983
8.38818883895874,1.5508796147389516,[1.60367447],5.0,0.6,0.0,-1.3610002076565424,0.49855554378182815,1.0712852257678322
8.397675514221191,1.554787589073685,[1.61038301],5.0,0.6,0.0,-1.1220364710412958,0.5130268880518422,1.037993435606872
8.407014608383179,1.5585001646916818,[1.61712394],5.0,0.6,0.0,-1.0642054153318616,0.5290049805283057,1.0020649754721667
8.41631269454956,1.5622127403096786,[1.6238955],5.0,0.6,0.0,-1.062916518474903,0.545460966555249,0.9663808278527117
8.425356149673462,1.5659253159276751,[1.63069648],5.0,0.6,0.0,-1.0673240889495637,0.5623326302047996,0.9312688666881956
8.433477401733398,1.5692470941121985,[1.63751461],5.0,0.6,0.0,-1.0599205944474204,0.5630685399732615,0.8928940939391826
8.441527605056763,1.5727642710134586,[1.64431657],5.0,0.6,0.0,-1.0374015538447638,0.6394029820913766,0.8583742743926501
8.452192783355713,1.5770630427816656,[1.65107484],5.0,0.6,0.0,-0.7258067467875429,0.6053667670740311,0.833963888818493
8.462822675704956,1.5811664158331356,[1.65779068],5.0,0.6,0.0,-0.6476612349899874,0.595584074597867,0.8087367652388335
8.471981287002563,1.584488194017659,[1.66446612],5.0,0.6,0.0,-0.9278004683662664,0.6654264473095755,0.7775933575124385
8.48249077796936,1.588591567069129,[1.67109213],5.0,0.6,0.0,-0.9829089700480313,0.6249691911307366,0.7556167097958635
8.495912313461304,1.5938673324210193,[1.67768644],5.0,0.6,0.0,-0.6672536934854583,0.6785193136320951,0.7450041623764914
8.505819082260132,1.5975799080390158,[1.68428933],5.0,0.6,0.0,-0.560218298231915,0.6927135716599855,0.7220714775092525
8.514777898788452,1.6012924836570126,[1.6909113],5.0,0.6,0.0,-0.810010969957863,0.6668035158666812,0.7001390809281614
8.52855396270752,1.6071544451591129,[1.69753738],5.0,0.6,0.0,-0.8414831803050986,0.6831129106488687,0.694656725615947
8.537989854812622,1.6108670207771094,[1.70416784],5.0,0.6,0.0,-0.7865786839588302,0.7074496107048297,0.6748831405271649
8.548451900482178,1.6149703938285795,[1.71081601],5.0,0.6,0.0,-0.7048537981555518,0.7278265504662951,0.6588808713111524
8.560328960418701,1.619464564313523,[1.71750666],5.0,0.6,0.0,-0.6215622296718526,0.787234436649175,0.6459606105284141
8.569851875305176,1.6233725386482565,[1.72427404],5.0,0.6,0.0,-0.5461328406208816,0.7947049009751421,0.6302988315553735
8.580641508102417,1.6278667091331998,[1.73113448],5.0,0.6,0.0,-0.4810130631794167,0.8021869965159991,0.6183272939152443
8.590449333190918,1.6317746834679334,[1.73808887],5.0,0.6,0.0,-0.42581358163206073,0.8151253615657778,0.6041590823457967
8.59889817237854,1.6352918603691935,[1.74513768],5.0,0.6,0.0,-0.37918657387697813,0.8319471378727985,0.5894194733970974
8.611014366149902,1.6397860308541365,[1.75229443],5.0,0.6,0.0,-0.33962879526991885,0.8897444743119967,0.5794435824822295
8.619949579238892,1.6434986064721333,[1.75958354],5.0,0.6,0.0,-0.30578774084063265,0.8958597180771897,0.5674631526442647
8.628466606140137,1.64662498593992,[1.76699793],5.0,0.6,0.0,-0.0005094593694228156,0.8642306960310127,0.5551372878917995
8.638234615325928,1.6505329602746535,[1.77451747],5.0,0.6,0.0,0.05813648956348007,0.935480757959761,0.5462133702115608
8.646459102630615,1.6540501371759135,[1.78213805],5.0,0.6,0.0,0.02552645924710794,0.9040494689815314,0.5375787947311927
8.656341314315796,1.6581535102273839,[1.78984179],5.0,0.6,0.0,-0.30661676781701175,0.9310790028179063,0.5310981143349686
8.66746211051941,1.6628430794290636,[1.79761345],5.0,0.6,0.0,-0.1163463505206664,0.9540087525838229,0.5264369831996629
8.678534746170044,1.6669464524805337,[1.80545398],5.0,0.6,0.0,-0.06865232249900519,0.9787419275710205,0.5215575422912445
8.688849449157715,1.6712452242487406,[1.81336428],5.0,0.6,0.0,-0.35114428895647654,1.0019613284781077,0.5175133484977992
8.697520971298218,1.6747624011500006,[1.8213308],5.0,0.6,0.0,-0.4060305808632647,0.9809917815376517,0.5134939830891742
8.706120252609253,1.6782795780512607,[1.82932783],5.0,0.6,0.0,-0.3723270831319806,1.0208180280058001,0.5103263386889022
8.715473890304565,1.681601356235784,[1.83733385],5.0,0.6,0.0,-0.31203341270866086,1.0094647633082967,0.5077518185548802
8.724432706832886,1.6853139318537809,[1.84533116],5.0,0.6,0.0,-0.2508891031064491,1.0548542038712996,0.505922582702666
8.732545614242554,1.6884403113215678,[1.85330549],5.0,0.6,0.0,-0.19807763727581684,1.048225361934338,0.5043272114453611
8.74886703491211,1.6948884689738777,[1.86127553],5.0,0.6,0.0,-0.15560659400005702,1.1819027258833226,0.5039205719714435
8.760675191879272,1.6995780381755579,[1.86930273],5.0,0.6,0.0,-0.12266738588140974,1.1907320455669328,0.5031358351646058
8.772345542907715,1.7040722086605014,[1.87742439],5.0,0.6,0.0,-0.09758386959526213,1.2033370030502548,0.5024465186855573
8.782342910766602,1.7081755817119713,[1.88564214],5.0,0.6,0.0,-0.07862474773843761,1.2208475092247517,0.5018337681753589
8.792433738708496,1.7120835560467045,[1.89394165],5.0,0.6,0.0,-0.06429641706781718,1.1904267596042293,0.5013377438547069
8.805444240570068,1.717750118832068,[1.90229503],5.0,0.6,0.0,-0.05341002698170526,1.2179121694013568,0.5010990657698304
8.817432403564453,1.7226350867504847,[1.9106939],5.0,0.6,0.0,-0.32109779523513227,1.2462466001832972,0.5007707522669861
8.82954716682434,1.7281062508191116,[1.91914645],5.0,0.6,0.0,-0.34773423328420494,1.2690290739166523,0.5005860270618109
8.840531587600708,1.7316234277203715,[1.92765906],5.0,0.6,0.0,-0.2875184089787214,1.2988984247162794,0.5003976808343997
8.853572368621826,1.736703794355525,[1.9362511],5.0,0.6,0.0,-0.20732694190542783,1.3694125299613031,0.5003158234317114
8.862892150878906,1.740220971256785,[1.94495232],5.0,0.6,0.0,-0.4094901329805666,1.3820779030336285,0.5001039189689311
8.871995687484741,1.7439335468747819,[1.95376998],5.0,0.6,0.0,-0.3832082764008109,1.3954413136514356,0.5000404894112688
8.883169412612915,1.7484277173597254,[1.96269135],5.0,0.6,0.0,-0.2837621679095498,1.4075007218048483,0.500042960846738
8.89169979095459,1.751554096827512,[1.97170214],5.0,0.6,0.0,-0.17624678490119222,1.4279442785419307,0.5000385892701257
8.900396585464478,1.755071273728772,[1.98078689],5.0,0.6,0.0,-0.08444605685109652,1.4474964471237843,0.5000322539762453
8.909493684768677,1.7583930519132955,[1.98991545],5.0,0.6,0.0,-0.014134233344829564,1.423348511996951,0.5000219382297109
8.919494867324829,1.7626918236815023,[1.99904577],5.0,0.6,0.0,0.03606852723221835,1.4538198569445029,0.5000130851058038
8.930200338363647,1.7671859941664456,[2.00815383],5.0,0.6,0.0,0.06982482270967211,1.4792991001458589,0.5000054174853852
8.93843126296997,1.770507772350969,[2.01721796],5.0,0.6,0.0,0.09103376241177422,1.4650947927270948,0.49999899826144656
8.9521963596344,1.7761743351363324,[2.0262171],5.0,0.6,0.0,0.10308034986190914,1.5318974326741328,0.49999580114180253
8.96243953704834,1.780082309471066,[2.03514433],5.0,0.6,0.0,0.10865084407304879,1.5096268200044138,0.49999344729555767
8.972641944885254,1.7841856825225362,[2.04397996],5.0,0.6,0.0,0.10977383223223204,1.5362053210240738,0.49999240269607537
8.982082843780518,1.7878982581405327,[2.0527049],5.0,0.6,0.0,0.10793406970564053,1.5611935760651017,0.4999921393792545
8.99002456665039,1.791220036325056,[2.06131329],5.0,0.6,0.0,0.10419464750186408,1.5848147844920162,0.49999237936802354
9.000326156616211,1.7953234093765262,[2.06979845],5.0,0.6,0.0,0.09930368933070602,1.6020601386146436,0.49999294534442856
9.009407043457031,1.798840586277786,[2.07814309],5.0,0.6,0.0,0.09377957435851599,1.6486301791827929,0.49999362088257465
9.017417669296265,1.801966965745573,[2.08632163],5.0,0.6,0.0,0.0879758098488942,1.6631422979460133,0.4999943333625548
9.028527736663818,1.806070338797043,[2.09432206],5.0,0.6,0.0,0.08212900372689409,1.6814671006886401,0.4999950395849979
9.037403345108032,1.8097829144150397,[2.10214372],5.0,0.6,0.0,0.07639368332405885,1.7079984678621065,0.49999569334985733
9.047456502914429,1.8136908887497734,[2.10978506],5.0,0.6,0.0,0.07086724799948804,1.7384627098778065,0.4999962857723642
9.057467460632324,1.8177942618012435,[2.11724371],5.0,0.6,0.0,0.06560768940582293,1.7672137411986109,0.4999968121049231
9.066452741622925,1.8213114387025033,[2.12451712],5.0,0.6,0.0,0.06064608897944923,1.7967087064188585,0.4999972724862228
9.075542449951172,1.8248286156037634,[2.1316028],5.0,0.6,0.0,0.05599538209615108,1.825080486084509,0.4999976726441949
9.084558486938477,1.8287365899384969,[2.13849088],5.0,0.6,0.0,0.05165647265644603,1.8560697245958084,0.4999980182875372
9.094108581542969,1.83264456427323,[2.14516586],5.0,0.6,0.0,0.04762247711515462,1.870193194105518,0.4999983150615976
9.103804349899292,1.8367479373247004,[2.15162241],5.0,0.6,0.0,0.3199200129554556,1.8815746080745177,0.499923819737284
9.111802577972412,1.839874316792487,[2.15785743],5.0,0.6,0.0,0.34958237025670025,1.8803166500451738,0.4999090383486097
9.120967626571655,1.8431960949770103,[2.16386276],5.0,0.6,0.0,0.2912853637380586,1.8968348631009757,0.49993684488658907
9.129777431488037,1.8467132718782704,[2.16963888],5.0,0.6,0.0,-0.06379191073558108,1.9083404532882644,0.49999697161531753
9.138391494750977,1.8502304487795302,[2.17518777],5.0,0.6,0.0,-0.17016388673323507,1.8906471770309212,0.49997844646297795
9.147440433502197,1.8537476256807905,[2.18050654],5.0,0.6,0.0,0.10183824513748113,1.9046605088926123,0.49999228039275617
9.158422946929932,1.8580463974489976,[2.18560449],5.0,0.6,0.0,0.16673601606602023,1.9313595316143295,0.49997930590342726
9.166839599609375,1.861368175633521,[2.19050074],5.0,0.6,0.0,-0.12542358557673944,1.9312003970288067,0.49998829030560393
9.175130605697632,1.8646899538180441,[2.19520653],5.0,0.6,0.0,-0.19950189416977568,1.9289254872039314,0.4999703733125449
9.185640335083008,1.8685979281527776,[2.19972677],5.0,0.6,0.0,-0.18688912503799682,1.9222971276769276,0.49997400089223326
9.194406270980835,1.8721151050540379,[2.20406596],5.0,0.6,0.0,-0.1465155855134661,1.9146240346901227,0.4999840206139631
9.203431606292725,1.8756322819552977,[2.20822812],5.0,0.6,0.0,-0.10311586340600522,1.9065859140448052,0.4999920851865699
9.213444232940674,1.879540256290031,[2.21221735],5.0,0.6,0.0,-0.06575026734629973,1.896845977478733,0.4999967821379241
9.224733591079712,1.8840344267749745,[2.21604162],5.0,0.6,0.0,-0.036638119917203206,1.907840235055986,0.49999900102005135
9.233778953552246,1.887942401109708,[2.21971175],5.0,0.6,0.0,-0.015275233519717943,1.8891300397605058,0.49999982658201914
9.245464563369751,1.8922411728779145,[2.22323371],5.0,0.6,0.0,-0.00028325478760723565,1.869236217986802,0.5000000002451209
9.255534887313843,1.8963445459293846,[2.22660957],5.0,0.6,0.0,0.009812214774526552,1.8512428562347012,0.49999992866508514
9.264842748641968,1.9000571215473812,[2.2298418],5.0,0.6,0.0,0.01629512258991133,1.8360287572571738,0.49999980269621286
9.27351999282837,1.9035742984486415,[2.23293063],5.0,0.6,0.0,0.02018749156676425,1.797730147062842,0.4999996970093393
9.282755613327026,1.9070914753499015,[2.23587712],5.0,0.6,0.0,0.29830226671193977,1.816167053291767,0.4999337648780274
9.291449069976807,1.9106086522511616,[2.238686],5.0,0.6,0.0,0.3322568624864254,1.7780836685863344,0.499917829384558
9.301953077316284,1.9147120253026317,[2.24136222],5.0,0.6,0.0,0.001115065277946442,1.791003365445142,0.4999999996141008
9.310354232788086,1.9180338034871551,[2.24391085],5.0,0.6,0.0,-0.10864585010611502,1.754540011325023,0.4999912138292762
9.318436861038208,1.9213555816716783,[2.24633271],5.0,0.6,0.0,-0.12496379741849564,1.7251329190972595,0.4999883762842831
9.328408479690552,1.9252635560064117,[2.24862727],5.0,0.6,0.0,-0.10659313345339744,1.721274528344465,0.4999915429484747
9.33748984336853,1.9285853341909356,[2.25079981],5.0,0.6,0.0,-0.07926404520882899,1.7170933532911887,0.4999953240701645
9.347414493560791,1.9322979098089321,[2.25285801],5.0,0.6,0.0,-0.053291702570299804,1.7081491095470878,0.49999788708991094
9.356621980667114,1.9358150867101922,[2.25480924],5.0,0.6,0.0,-0.03205147668732224,1.6983653304743251,0.499999236730393
9.366434812545776,1.939918459761662,[2.25666051],5.0,0.6,0.0,-0.015986017597213478,1.6844672065746236,0.4999998116976644
9.375659227371216,1.9434356366629222,[2.2584185],5.0,0.6,0.0,-0.004447438430309266,1.6722974523195486,0.49999998768790005
9.38608193397522,1.9477344084311288,[2.26008955],5.0,0.6,0.0,0.003494524620731679,1.6555430109694291,0.49999999426348596
9.394573450088501,1.9510561866156522,[2.26167963],5.0,0.6,0.0,0.008727470007261467,1.64303967274236,0.49999994746147847
9.40364694595337,1.9545733635169122,[2.26319439],5.0,0.6,0.0,0.011989122442394133,1.6293377042696287,0.49999989833338826
9.41199517250061,1.9578951417014356,[2.26463913],5.0,0.6,0.0,0.013852435115196312,1.6159957908257059,0.4999998638757084
9.420693397521973,1.9612169198859593,[2.26601879],5.0,0.6,0.0,0.014745223755223372,1.6025443386284755,0.4999998466713682
9.431132793426514,1.9653202929374292,[2.26733798],5.0,0.6,0.0,0.01497893113006233,1.584872779508461,0.49999984492527966
9.440422773361206,1.9694236659888995,[2.26860099],5.0,0.6,0.0,0.014776262762767223,1.567151637907219,0.49999985427708044
9.450122356414795,1.973136241606896,[2.26981181],5.0,0.6,0.0,0.014294273243154446,1.5511308805953867,0.4999998705455352
9.45741319656372,1.9758718236412094,[2.27097277],5.0,0.6,0.0,0.013642389042277311,1.525308821233339,0.49999988874148
9.466411352157593,1.9793890005424695,[2.27208483],5.0,0.6,0.0,0.012895948083669076,1.5148453425759598,0.4999999124034639
9.47458291053772,1.9823199812935197,[2.27315056],5.0,0.6,0.0,0.012106132254192962,1.5057444615162563,0.4999999359071401
9.48338508605957,1.9858371581947796,[2.27417256],5.0,0.6,0.0,0.011307141136854198,1.4790838886865691,0.4999999649150183
9.494795083999634,1.9911129235466698,[2.27515329],5.0,0.6,0.0,0.01052131819552573,1.474156255560547,0.5000000158427655
9.509449481964111,1.9959978914650867,[2.27609643],5.0,0.6,0.0,0.009762785947322064,1.4389009756827333,0.5000000823237054
9.52139925956726,2.0008828593835033,[2.27700413],5.0,0.6,0.0,0.009040008998132055,1.4203149117695064,0.5000001777390467
9.533418655395508,2.0055724285851833,[2.27787832],5.0,0.6,0.0,0.008357592767529676,1.40109214921754,0.5000003105553147
9.544123649597168,2.0102619977868637,[2.27872189],5.0,0.6,0.0,0.007717540659036515,1.3804042579079068,0.5000005052257626
