t_s,q_rad,q_des_rad,K,B,Kff,jerk,tau_Nm,reward
0.00730586051940918,0.0,[0.00394396],9.825212432529046,0.9790254919034855,1.9737818648793566,0.0,9.998999999999999,1.49689387522423
0.01657390594482422,0.0,[0.01905992],9.650424865058092,0.9580509838069711,1.9475637297587132,0.0,10.098989999999999,1.4299205477056334
0.026961088180541992,0.0,[0.04737158],9.475637297587138,0.9370764757104565,1.92134559463807,0.0,10.099989899999999,1.1383852651374613
0.04101252555847168,0.0,[0.08647534],9.300849730116184,0.9161019676139419,1.8951274595174268,0.0,10.099999898999998,0.7241147729972197
0.05290818214416504,0.0,[0.13419882],9.12606216264523,0.8951274595174274,1.8689093243967834,0.0,10.099999998989999,0.5272728166420971
0.0670015811920166,0.0,[0.18859329],8.951274595174274,0.8741529514209129,1.84269118927614,0.0,10.0999999999899,0.5008140526443478
0.07997918128967285,0.0,[0.24792438],8.77648702770332,0.8531784433243983,1.8164730541554968,0.0,-9.8980000000001,0.5000045823459842
0.09483480453491211,0.0,[0.3106615],8.601699460232366,0.8322039352278838,1.7902549190348536,0.0,-10.09798,0.5000000041418908
0.1068563461303711,0.0,[0.37546618],8.426911892761412,0.8112294271313693,1.7640367839142101,0.0,-10.099979799999998,0.500000000000569
0.1219027042388916,0.0,[0.44117978],8.252124325290458,0.7902549190348547,1.7378186487935667,0.0,-10.099999797999999,0.5
0.13384437561035156,0.0,[0.5068107],8.077336757819502,0.7692804109383402,1.7116005136729235,0.0,-5.100499997979999,0.5
0.14686155319213867,0.0,[0.57152149],7.902549190348549,0.7483059028418256,1.6853823785522803,0.0,-5.0505049999797995,0.5
0.15910601615905762,0.0,[0.63461587],7.727761622877595,0.727331394745311,1.659164243431637,0.0,-5.050005049999798,0.5
0.1723020076751709,0.0,[0.69552597],7.55297405540664,0.7063568866487966,1.6329461083109935,0.0,-5.050000050499998,0.5
0.18546485900878906,0.0,[0.75379986],7.378186487935686,0.685382378552282,1.6067279731903503,0.0,-5.050000000504999,0.5
0.19659948348999023,0.0,[0.80908952],7.203398920464732,0.6644078704557674,1.5805098380697071,0.0,-5.050000000005049,0.5
0.2087564468383789,0.0,[0.86113927],7.028611352993777,0.643433362359253,1.5542917029490637,0.0,-5.05000000000005,0.5
0.21927738189697266,0.0,[0.90977488],6.853823785522822,0.6224588542627384,1.5280735678284203,0.0,-5.05,0.5
0.23343825340270996,0.0,[0.95489323],6.679036218051868,0.6014843461662238,1.501855432707777,0.0,-5.05,0.5
0.24179959297180176,0.0,[0.99645265],6.504248650580913,0.6,1.475637297587134,0.0,-5.05,0.5
0.25681066513061523,0.0,[1.034464],6.329461083109958,0.6,1.4494191624664907,0.0,-5.05,0.5
0.2698032855987549,0.0,[1.06898239],6.154673515639004,0.6,1.4232010273458477,0.0,-5.05,0.5
0.28278326988220215,0.0,[1.10009964],5.97988594816805,0.6,1.3969828922252046,0.0,-5.05,0.5
0.29481029510498047,0.0,[1.12793746],5.805098380697095,0.6,1.3707647571045614,0.0,-5.05,0.5
0.30415773391723633,0.0,[1.15264124],5.63031081322614,0.6,1.3445466219839184,0.0,-5.05,0.5
0.31345391273498535,0.0,[1.17437456],5.455523245755186,0.6,1.3183284868632752,0.0,-5.05,0.5
0.33246660232543945,0.0,[1.19331417],5.280735678284231,0.6,1.292110351742632,0.0,-4.812275082479766,0.5
0.3418238162994385,0.0,[1.20964569],5.105948110813277,0.6,1.2658922166219888,0.0,-1.8488020959013618,0.5
0.3523545265197754,0.0,[1.22355991],5.0,0.6,1.2396740815013456,0.0,0.3586576713693376,0.5
0.36485719680786133,0.0,[1.23524951],5.0,0.6,1.2134559463807026,0.0,2.0451492755340497,0.5
0.3778195381164551,0.00019539871673667023,[1.24490622],5.0,0.6,1.1872378112600595,0.0,3.2588933503313493,0.5
0.390810489654541,0.002344784600840043,[1.25271846],5.0,0.6,1.1610196761394163,0.8281150790360429,4.137195745684579,0.49948976954649793
0.4020802974700928,0.005861961502100107,[1.25886945],5.0,0.6,1.1348015410187733,3.4118341256284967,4.74864900059313,0.4914093772954656
0.41374683380126953,0.010551530703780192,[1.26353569],5.0,0.6,1.10858340589813,5.0,5.1771785173980645,0.4817320621239355
0.4263899326324463,0.01563189733893362,[1.26688566],5.0,0.6,1.082365270777487,5.0,5.46943535901618,0.4817320621239355
0.4343738555908203,0.018562878089983675,[1.26907891],5.0,0.6,1.0561471356568437,5.0,5.690367247997267,0.4817320621239355
0.4519674777984619,0.0255972318925038,[1.27026537],5.0,0.6,1.0299290005362005,5.0,5.809538578516078,0.4817320621239355
0.46120142936706543,0.02950520622723721,[1.27058482],5.0,0.6,1.0037108654155575,5.0,5.905328467980229,0.4817320621239355
0.47281432151794434,0.033999376712180625,[1.27016672],5.0,0.6,0.9774927302949143,5.0,5.957321859786379,0.4817320621239355
0.48581552505493164,0.038884344630597374,[1.26913015],5.0,0.6,0.9512745951742712,5.0,5.984576724836136,0.4817320621239355
0.4988243579864502,0.04396471126575081,[1.26758375],5.0,0.6,0.9250564600536281,4.676963064046589,5.982735420981933,0.48397927641289284
0.5108282566070557,0.04884967918416756,[1.26562603],5.0,0.6,0.898838324932985,2.2347009461665337,5.979772889130945,0.4962963321468467
0.5248243808746338,0.05451624196953099,[1.26334559],5.0,0.6,0.8726201898123418,-0.4527382892506653,5.955471417701718,0.4998474420434921
0.5377979278564453,0.059401209887947753,[1.26082156],5.0,0.6,0.8464020546916986,-2.9791166019932427,5.927986133099098,0.493436800523811
0.5518267154693604,0.0650677726733112,[1.25812398],5.0,0.6,0.8201839195710555,-4.937872018989545,5.892121484291854,0.48217508125768205
0.5632510185241699,0.06936654444151794,[1.25531429],5.0,0.6,0.7939657844504124,-5.0,5.857653427765359,0.4817320621239355
0.5742988586425781,0.07386071492646136,[1.25244591],5.0,0.6,0.7677476493297692,-5.0,5.8244997491369395,0.4817320621239355
0.5828814506530762,0.07757329054445808,[1.24956479],5.0,0.6,0.741529514209126,-5.0,5.79442273302702,0.4817320621239355
0.5938172340393066,0.0820674610294015,[1.24670993],5.0,0.6,0.715311379088483,-5.0,5.753865239327066,0.4817320621239355
0.6057662963867188,0.08617083408087158,[1.24391382],5.0,0.6,0.6890932439678399,-5.0,5.705223508163378,0.4817320621239355
0.6187698841094971,0.09144659943276168,[1.24120297],5.0,0.6,0.6628751088471967,-5.0,5.643503877814014,0.4817320621239355
0.632803201675415,0.09691776350138845,[1.2385985],5.0,0.6,0.6366569737265535,-5.0,5.5689635299936455,0.4817320621239355
0.6467978954315186,0.10199813013654188,[1.23611666],5.0,0.6,0.6104388386059104,-5.0,5.487765713218797,0.4817320621239355
0.6618263721466064,0.10805549035537865,[1.23376931],5.0,0.6,0.5842207034852673,-5.0,5.399499131237629,0.4817320621239355
0.6747899055480957,0.1135266544240054,[1.23156445],5.0,0.6,0.5580025683646241,-5.0,5.316210505092515,0.4817320621239355
0.6877939701080322,0.11841162234242215,[1.22950663],5.0,0.6,0.531784433243981,-4.776188873813306,5.238287290580976,0.4833038756945184
0.6987931728363037,0.12290579282736558,[1.22759744],5.0,0.6,0.5055662981233379,-4.5337559846332764,5.166574637421429,0.4849306431458307
0.7113742828369141,0.1281815581792557,[1.22583595],5.0,0.6,0.4793481630026947,-4.276984064898052,5.104458628547358,0.4865667354960129
0.7257387638092041,0.13365272224788244,[1.22421911],5.0,0.6,0.4531300278820516,-4.013057833294935,5.037551205789149,0.4881542799804238
0.7393379211425781,0.1393192850332459,[1.22274193],5.0,0.6,0.42691189276140845,-3.7488172032753972,4.982328033260879,0.4896471543107866
0.7471871376037598,0.1424456645010326,[1.22139868],5.0,0.6,0.4006937576407653,-3.7657336099088123,5.0147931290071295,0.4895544948108997
0.7631921768188477,0.1485030247198694,[1.22018281],5.0,0.6,0.3744756225201221,-3.548741302086648,4.965787873260724,0.49071268112126565
0.7730841636657715,0.1524109990546028,[1.21908636],5.0,0.6,0.3482574873994789,-3.255074031070897,4.982278280553245,0.49217458267510533
0.7858150005340576,0.15729596697301954,[1.21810121],5.0,0.6,0.3220393522788358,-2.9534533150269207,4.996372320639529,0.49354865994659647
0.7967820167541504,0.1613993400244896,[1.21721917],5.0,0.6,0.2958212171581926,-2.671138085951943,5.015739783918739,0.4947168281667114
0.8097732067108154,0.16667510537637972,[1.21643138],5.0,0.6,0.2696030820375494,-2.416625460173818,4.9733880851641725,0.49567148722903204
0.8252527713775635,0.1735140604621632,[1.21572841],5.0,0.6,0.24338494691690624,-2.1904231660329674,4.95386536428638,0.49644112675068247
0.8430769443511963,0.17957142068099996,[1.21510001],5.0,0.6,0.21716681179626307,-2.266068516252435,4.880098132231803,0.49619202844044913
0.853050947189331,0.18406559116594334,[1.21453642],5.0,0.6,0.19094867667561988,-2.1213050095405035,4.8895737583419905,0.496661441865631
0.8665928840637207,0.18953675523457011,[1.21403001],5.0,0.6,0.16473054155497668,-1.9076192570574888,4.888089252676597,0.4972984429084457
0.8835887908935547,0.1961803116036169,[1.21357317],5.0,0.6,0.13851240643433352,-1.6894494033232221,4.8621189368617985,0.4978798107050097
0.8937680721282959,0.20008828593835032,[1.21315832],5.0,0.6,0.11229427131369034,-1.4910145483556716,4.8974137794058805,0.49834784068272353
0.9037926197052002,0.20399626027308376,[1.2127799],5.0,0.6,0.08607613619304716,-1.042706451175843,4.930112733197978,0.49919131506622133
0.9177777767181396,0.20946742434171048,[1.21243312],5.0,0.6,0.05985800107240398,-1.1386819504111245,4.915782164120551,0.4990357437989545
0.9318525791168213,0.21493858841033725,[1.2121128],5.0,0.6,0.0336398659517608,-1.101978879753771,4.894687982094608,0.49909684833256485
0.9427716732025146,0.21884656274507067,[1.21181415],5.0,0.6,0.0074217308311176206,-1.0163031464588013,4.8779897141828386,0.4992317203281445
0.9577987194061279,0.22509932168064412,[1.211533],5.0,0.6,0.0,-0.9189409673631245,4.845327447450269,0.4993717840939987
0.9717974662780762,0.23076588446600757,[1.21126581],5.0,0.6,0.0,-0.825287275139424,4.816759518293947,0.4994932464498628
0.9857628345489502,0.236432447251371,[1.21100959],5.0,0.6,0.0,-0.7407184699093041,4.788529462434475,0.4995917411025592
0.9968016147613525,0.24073121901957772,[1.21076189],5.0,0.6,0.0,-0.3902160899671879,4.767129600834388,0.4998866640223345
1.0090789794921875,0.24542078822125782,[1.21052077],5.0,0.6,0.0,-0.5680726774346375,4.744287661084602,0.4997598347574943
1.022552490234375,0.2508919522898846,[1.21028468],5.0,0.6,0.0,-0.5994128689812634,4.717639703359762,0.49973261154640747
1.0347557067871094,0.25577692020830134,[1.21005263],5.0,0.6,0.0,-0.5704271902197069,4.695167928397649,0.49975784027058023
1.0454902648925781,0.2596848945430347,[1.20982423],5.0,0.6,0.0,-0.5206787339010546,4.678273483939582,0.4997982290155916
1.0559868812561035,0.26359286887776817,[1.20959961],5.0,0.6,0.0,-0.4674487251026919,4.660597143217825,0.4998373687518095
1.0667550563812256,0.26750084321250156,[1.20937904],5.0,0.6,0.0,-0.4176019733762793,4.642052909788462,0.49987019979383973
1.077730417251587,0.271995013697445,[1.20916259],5.0,0.6,0.0,-0.3733042895745742,4.618506247736719,0.49989627401096615
1.0917611122131348,0.27785697519954505,[1.20895001],5.0,0.6,0.0,-0.33473031409210735,4.588654968713232,0.49991660105761726
1.1011171340942383,0.28176494953427844,[1.20874122],5.0,0.6,0.0,-0.3013116642609087,4.570504974419551,0.4999324213964612
1.113384485244751,0.28664991745269525,[1.20853645],5.0,0.6,0.0,-0.27228683278630855,4.546010404319771,0.49994481310149647
1.1239397525787354,0.2907532905041653,[1.20833603],5.0,0.6,0.0,-0.24692408680919492,4.526352662595988,0.4999546148393879
1.1353535652160645,0.29505206227237213,[1.20814026],5.0,0.6,0.0,-0.22459636505624958,4.504959284678807,0.49996245122145583
1.1467652320861816,0.29954623275731546,[1.20794939],5.0,0.6,0.0,-0.2047930318558313,4.481632776753763,0.49996878067795597
1.159764051437378,0.3048219981092056,[1.20776337],5.0,0.6,0.0,-0.1871076686951827,4.454155560657919,0.4999739397527071
1.172752857208252,0.309902364744359,[1.20758199],5.0,0.6,0.0,-0.17121921886348773,4.427767902791079,0.4999781776146443
1.1857333183288574,0.3147873326627758,[1.20740503],5.0,0.6,0.0,-0.15687354996538605,4.40243010153598,0.4999816811516053
1.1976566314697266,0.31967230058119256,[1.20723227],5.0,0.6,0.0,-0.14386785101903274,4.3774989610167925,0.49998459266601153
1.21097731590271,0.32475266721634594,[1.20706348],5.0,0.6,0.0,-0.1320382909845879,4.350727618236186,0.4999870222074387
1.2253515720367432,0.33022383128497274,[1.20689834],5.0,0.6,0.0,0.1547877550841296,4.322533357149254,0.499982165040278
1.2380962371826172,0.3353041979201261,[1.20673654],5.0,0.6,0.0,0.1977699081630804,4.295877725453555,0.4999708851568781
1.246302843093872,0.33862597610464956,[1.20657803],5.0,0.6,0.0,0.15169447971640207,4.281573380525049,0.4999828707325789
1.2631752490997314,0.34566032990716966,[1.20642281],5.0,0.6,0.0,0.0838765076667566,4.242366581889393,0.49999476296977774
1.2745580673217773,0.34956830424190305,[1.2062705],5.0,0.6,0.0,0.020936333174357225,4.223747965126727,0.49999967370698606
1.2872257232666016,0.3544532721603198,[1.20612081],5.0,0.6,0.0,-0.028725793349072055,4.197758537701111,0.4999993857424937
1.2974433898925781,0.3585566452117899,[1.20597366],5.0,0.6,0.0,-0.06433187486690244,4.178223787594681,0.49999691924079753
1.3148541450500488,0.36539560029757334,[1.20582876],5.0,0.6,0.0,0.1881635877724338,4.1397906385640795,0.499973644794932
1.3227837085723877,0.3685219797653601,[1.20568568],5.0,0.6,0.0,-0.0688810726815817,4.126417902329999,0.49999646812808773
1.3440008163452148,0.37711952330177356,[1.20554401],5.0,0.6,0.0,0.1117441249440684,4.077994928097279,0.4999907049434475
1.3534538745880127,0.38063670020303364,[1.20540319],5.0,0.6,0.0,0.12160094014453204,4.062900442280249,0.4999889928278134
1.363738775253296,0.3849354719712404,[1.20526329],5.0,0.6,0.0,0.0731383300342497,4.042175214805222,0.49999601805712107
1.3767802715301514,0.3900158386063938,[1.20512469],5.0,0.6,0.0,0.014227100934463256,4.015784930664293,0.4999998493256123
1.3907842636108398,0.3958778001084939,[1.20498734],5.0,0.6,0.0,0.23901218451651884,3.98560288375137,0.49995747656985856
1.4007816314697266,0.3995903757264907,[1.2048512],5.0,0.6,0.0,0.2335318090085955,3.966825427470402,0.499959404197475
1.414036512374878,0.4046707423616441,[1.20471627],5.0,0.6,0.0,-0.12389351436653853,3.9406840601713484,0.4999885738779784
1.4287421703338623,0.4103373051470075,[1.20458253],5.0,0.6,0.0,-0.24920921766262394,3.912325601967353,0.4999537709678457
1.441457748413086,0.4154176717821609,[1.20445006],5.0,0.6,0.0,0.003053230623705272,3.8867618629920426,0.4999999930605365
1.450317144393921,0.4185440512499477,[1.20431915],5.0,0.6,0.0,0.05289098009896835,3.872413885271401,0.49999791757676626
1.460221767425537,0.4226474243014178,[1.20419042],5.0,0.6,0.0,0.02744411239558068,3.8532217792464976,0.4999994393332382
1.4778902530670166,0.4298771768206745,[1.2040643],5.0,0.6,0.0,-0.01773882652438626,3.8148955164098006,0.49999976576254174
1.4889295101165771,0.43417594858888126,[1.20394089],5.0,0.6,0.0,-0.06047915606305842,3.7943084663071596,0.4999972771925046
1.4987266063690186,0.437888524206878,[1.20382049],5.0,0.6,0.0,-0.0935865528958026,3.776666081452805,0.4999934802529582
1.5181255340576172,0.4457044728763448,[1.20370353],5.0,0.6,0.0,-0.11617870136432012,3.736891750869958,0.4999899525617194
1.5287747383117676,0.45039404207802497,[1.20359029],5.0,0.6,0.0,-0.1296982872341567,3.714493723634221,0.4999874781147686
1.5377240180969238,0.4535204215458116,[1.20348121],5.0,0.6,0.0,-0.13617140718517562,3.699681647405902,0.49998619703039526
1.5528016090393066,0.4591869843311751,[1.20337683],5.0,0.6,0.0,-0.13751161543338636,3.67212170457141,0.4999859239976652
1.5657258033752441,0.4642673509663285,[1.20327765],5.0,0.6,0.0,-0.13529424716090216,3.647497546045667,0.4999863742813099
1.5797295570373535,0.4695431163182186,[1.20318416],5.0,0.6,0.0,-0.40676746793326857,3.622218109907226,0.4998768468260265
1.5953171253204346,0.47599127397052876,[1.20309689],5.0,0.6,0.0,-0.4338695771375081,3.59133128688022,0.49985989158598604
1.606816291809082,0.48068084317220877,[1.20301637],5.0,0.6,0.0,-0.37192835274233527,3.5685661610703083,0.49989703715632616
1.621732473373413,0.48673820339104557,[1.20294309],5.0,0.6,0.0,-0.2886208673302698,3.539607113961349,0.4999379937881325
1.6327400207519531,0.490646177725779,[1.20287752],5.0,0.6,0.0,-0.21079841769116076,3.520685962131237,0.49996692293223394
1.6467206478118896,0.49631274051114244,[1.20282004],5.0,0.6,0.0,-0.14699883399009378,3.49340845453487,0.49998391476280996
1.6597447395324707,0.5013931071462958,[1.202771],5.0,0.6,0.0,-0.09807254801631468,3.4688919050944933,0.49999284023968965
1.672746181488037,0.5064734737814492,[1.2027307],5.0,0.6,0.0,-0.06205458766961781,3.4443506480967754,0.49999713349159913
1.6857168674468994,0.5115538404166027,[1.20269936],5.0,0.6,0.0,-0.0362918655886684,3.419763819761746,0.49999901955138576
1.697709083557129,0.5162434096182827,[1.20267714],5.0,0.6,0.0,-0.01829074503758942,3.397073770660962,0.4999997509598558
1.7097883224487305,0.5207375801032261,[1.20266409],5.0,0.6,0.0,0.2700487755353771,3.3746352300531464,0.4999457165396806
1.723827838897705,0.5264041428885896,[1.2026602],5.0,0.6,0.0,0.31137380702129686,3.3476913325252045,0.4999278328615851
1.7387604713439941,0.5322661043906898,[1.2026655],5.0,0.6,0.0,0.26157193135463397,3.3190226224023194,0.49994907080234663
1.7498273849487305,0.5373464710258432,[1.20267988],5.0,0.6,0.0,0.188750684785273,3.2934795146190403,0.4999734800787886
1.761216402053833,0.5424268376609965,[1.20270299],5.0,0.6,0.0,-0.1559501302627111,3.268028545820164,0.4999818961769312
1.7757740020751953,0.5475072042961501,[1.20273448],5.0,0.6,0.0,-0.2447932502598093,3.2444785784408503,0.49995539472920475
1.7849202156066895,0.5510243811974102,[1.202774],5.0,0.6,0.0,-0.23143248064799915,3.2254104331823834,0.49996013075783646
1.7947492599487305,0.5545415580986702,[1.20282096],5.0,0.6,0.0,-0.1849234150405718,3.2084450840926557,0.4999745446290512
1.8087527751922607,0.5598173234505602,[1.20287488],5.0,0.6,0.0,-0.4103965992860933,3.1838565671930246,0.49987463978359575
1.8207368850708008,0.5648976900857137,[1.20293561],5.0,0.6,0.0,-0.39964504410759544,3.1599166806960404,0.4998811213388099
1.8337478637695312,0.5701734554376038,[1.20300306],5.0,0.6,0.0,-0.03403781811053372,3.1347420391251895,0.4999991375583393
1.845362663269043,0.5744722272058105,[1.20307709],5.0,0.6,0.0,0.100737655089367,3.113664723734452,0.4999924458245146
1.8540012836456299,0.5779894041070706,[1.20315727],5.0,0.6,0.0,-0.14166924755904145,3.095031049058339,0.4999850599737198
1.8652396202087402,0.582483574592014,[1.20324294],5.0,0.6,0.0,-0.18173317307813286,3.0736353866263206,0.4999754153280773
1.8758230209350586,0.5867823463602206,[1.2033337],5.0,0.6,0.0,0.12918864364260726,3.053572565210955,0.4999875763285735
1.891585350036621,0.5934259027292675,[1.2034296],5.0,0.6,0.0,-0.059574258893351745,3.023763337462669,0.4999973580607636
1.9038472175598145,0.5979200732142109,[1.20353099],5.0,0.6,0.0,-0.09661743876278889,3.003270199659508,0.4999930511218132
1.9147627353668213,0.6024142436991544,[1.20363832],5.0,0.6,0.0,0.199429105185397,2.983534031209946,0.4999703946023449
1.9287545680999756,0.6078854077677811,[1.20375217],5.0,0.6,0.0,0.26805018791181096,2.9592727729131614,0.4999465170099746
1.9427638053894043,0.6133565718364078,[1.2038733],5.0,0.6,0.0,-0.02885269552670594,2.9354806843491197,0.49999938030328805
1.9577975273132324,0.6194139320552446,[1.20400267],5.0,0.6,0.0,0.16538020348651444,2.908908173070744,0.4999796406045882
1.9730043411254883,0.6254712922740814,[1.2041415],5.0,0.6,0.0,0.2028316515162244,2.8841892950285857,0.4999693757946161
1.9827806949615479,0.6291838678920781,[1.20429117],5.0,0.6,0.0,0.18024971738543438,2.8681400813267577,0.4999758150409341
1.9957213401794434,0.6344596332439683,[1.20445294],5.0,0.6,0.0,0.14046460507510167,2.8468139935979058,0.49998531296594967
2.008323907852173,0.6393446011623851,[1.20462821],5.0,0.6,0.0,0.10101366546915808,2.827626685582803,0.4999924043728575
2.021312713623047,0.6444249677975383,[1.20481864],5.0,0.6,0.0,0.06795384401342058,2.807699965083573,0.49999656257492764
2.0299599170684814,0.6481375434155352,[1.20502492],5.0,0.6,0.0,0.04241788255052183,2.783042729598051,0.49999866061921494
2.0377793312072754,0.6512639228833219,[1.20524603],5.0,0.6,0.0,0.023647422092575053,2.767364777578164,0.49999958373096975
2.051711320877075,0.6571258843854221,[1.20548154],5.0,0.6,0.0,0.010338071380198412,2.7477052057600027,0.4999999204416635
2.0637731552124023,0.6616200548703655,[1.205733],5.0,0.6,0.0,0.0011919177847311679,2.733627212474601,0.499999998942454
2.076789379119873,0.6667004215055189,[1.20600273],5.0,0.6,0.0,-0.004890220169429202,2.715846817258581,0.4999999821982174
2.087779998779297,0.6711945919904623,[1.20629237],5.0,0.6,0.0,-0.008771456233768453,2.694806387548148,0.4999999427269842
2.1000332832336426,0.6760795599088789,[1.20660284],5.0,0.6,0.0,-0.011101309562548973,2.6772159927945167,0.49999990826077606
2.1148228645324707,0.6817461226942425,[1.20693575],5.0,0.6,0.0,-0.012355729803237396,2.6599945286385616,0.4999998863568061
2.1307215690612793,0.6878034829130792,[1.20729371],5.0,0.6,0.0,-0.01287725198622049,2.6381338827703016,0.4999998765608251
2.142346143722534,0.6924930521147594,[1.20767834],5.0,0.6,0.0,-0.012909164755981053,2.61279135525912,0.49999987594824613
2.1565866470336914,0.6981596149001227,[1.20809029],5.0,0.6,0.0,-0.0126224498914576,2.5965034876463466,0.49999988139747514
2.1717467308044434,0.704021576402223,[1.2085308],5.0,0.6,0.0,-0.012136143354143427,2.5707714588578767,0.4999998903602534
2.1829349994659424,0.7085157468871662,[1.20900019],5.0,0.6,0.0,-0.011532332820110538,2.5464962948915657,0.499999900998684
2.1964423656463623,0.7137915122390565,[1.20949789],5.0,0.6,0.0,-0.010867022006679217,2.530322858695131,0.49999991209213546
2.210635185241699,0.7196534737411566,[1.21002407],5.0,0.6,0.0,-0.010177912893796692,2.503982737238429,0.4999999228876211
2.224207878112793,0.7251246378097833,[1.21057854],5.0,0.6,0.0,-0.009489936505236322,2.4795307130820077,0.49999993296011513
2.2365505695343018,0.7300096057282001,[1.21116007],5.0,0.6,0.0,0.2672191985490384,2.455776123372716,0.4999468480863806
2.2494444847106934,0.7350899723633534,[1.2117666],5.0,0.6,0.0,0.3009874209720861,2.4286822940205717,0.4999325667518831
2.264098644256592,0.7409519338654537,[1.21239639],5.0,0.6,0.0,0.24650085821584117,2.4116342894708396,0.4999547702796151
2.2778239250183105,0.7462276992173437,[1.21304892],5.0,0.6,0.0,0.17099069125698063,2.386590584056797,0.4999782358275126
2.290151357650757,0.7509172684190237,[1.21372295],5.0,0.6,0.0,0.10100596717195406,2.36400508907618,0.499992405530537
2.301788806915283,0.7552160401872305,[1.21441568],5.0,0.6,0.0,0.04488546166235376,2.3390211557215594,0.4999985002550203
2.311629056930542,0.7593194132387007,[1.21512316],5.0,0.6,0.0,0.0033535050409831332,2.3139997671233243,0.4999999916284746
2.325084686279297,0.7647905773073274,[1.21584176],5.0,0.6,0.0,-0.02563010914086219,2.2951653704683386,0.4999995110016721
2.3356947898864746,0.7690893490755342,[1.21656926],5.0,0.6,0.0,-0.04475870905288612,2.2735348475876918,0.4999985087133447
2.346667528152466,0.7735835195604776,[1.21730402],5.0,0.6,0.0,-0.05654245587816832,2.2596424802788717,0.4999976201204488
2.3570406436920166,0.7776868926119475,[1.21804461],5.0,0.6,0.0,-0.06304373864212809,2.239106905827066,0.4999970413791717
2.367187976837158,0.7817902656634177,[1.21878894],5.0,0.6,0.0,0.21018606028919906,2.2175233241409673,0.49996711482079337
2.3850276470184326,0.7890200181826744,[1.21953663],5.0,0.6,0.0,0.24301501332732942,2.208689670132135,0.4999560403938249
2.39778733253479,0.794100384817828,[1.22029026],5.0,0.6,0.0,0.18928121275055448,2.1834728263150085,0.49997333079236905
2.4056897163391113,0.7972267642856145,[1.2210493],5.0,0.6,0.0,0.11561225306643724,2.154411479967734,0.4999900502977624
2.418826103210449,0.802307130920768,[1.22181054],5.0,0.6,0.0,0.04813392745299082,2.1408994420560314,0.49999827532001123
2.434253215789795,0.8083644911396048,[1.22257441],5.0,0.6,0.0,-0.0051077392526439405,2.128606084564488,0.4999999805793359
2.4462802410125732,0.8130540603412848,[1.22334353],5.0,0.6,0.0,-0.0435879922448377,2.1066297787646184,0.49999858570570244
2.4579389095306396,0.8175482308262284,[1.22411858],5.0,0.6,0.0,-0.06948076604585869,2.087157921053884,0.49999640636213877
2.4707324504852295,0.8228239961781183,[1.22489971],5.0,0.6,0.0,-0.08556697533261103,2.0704918114500406,0.499994549746923
2.485124111175537,0.8286859576802185,[1.22568863],5.0,0.6,0.0,-0.09441228737723459,2.0534982981989014,0.49999336469590033
2.497753381729126,0.8337663243153719,[1.22648798],5.0,0.6,0.0,-0.09811247377294066,2.036764954557972,0.4999928344090464
2.5107474327087402,0.8386512922337885,[1.22730032],5.0,0.6,0.0,-0.09827554460916592,2.0228230808482652,0.49999281056987943
2.5247483253479004,0.8439270575856788,[1.22812836],5.0,0.6,0.0,-0.09608937424108553,2.006944765139457,0.4999931268723294
2.537677764892578,0.8492028229375689,[1.22897497],5.0,0.6,0.0,-0.09240904808428763,1.9911106091855701,0.49999364328284884
2.5567030906677246,0.8572141703237723,[1.22984527],5.0,0.6,0.0,-0.08783795715628953,1.9838780067411121,0.4999942566065445
2.5667507648468018,0.8609267459417691,[1.23074454],5.0,0.6,0.0,-0.08279449176242579,1.952766712550742,0.4999948972154026
2.5787081718444824,0.8656163151434492,[1.23167325],5.0,0.6,0.0,-0.07756364631415835,1.9352553615868078,0.4999955216199924
2.5908203125,0.8701104856283925,[1.23263116],5.0,0.6,0.0,-0.07233556136783044,1.9257352342537548,0.49999610499277636
2.600034236907959,0.8742138586798627,[1.23361886],5.0,0.6,0.0,-0.34327203438519527,1.9004397858069977,0.4999122907497186
2.60902738571167,0.8777310355811228,[1.23463379],5.0,0.6,0.0,-0.37149794110231094,1.877669329645812,0.4998972753087457
2.6196701526641846,0.8824206047828028,[1.23567214],5.0,0.6,0.0,-0.31175014790119004,1.8611481729387975,0.49992765833415614
2.6306800842285156,0.8865239778342728,[1.23673334],5.0,0.6,0.0,-0.23128590225985896,1.8629023542839764,0.4999601812646538
2.645681142807007,0.8923859393363729,[1.23782074],5.0,0.6,0.0,-0.15666373477748158,1.8527037043853094,0.4999817301633225
2.6577565670013428,0.8970755085380532,[1.23893892],5.0,0.6,0.0,-0.09622096346658918,1.8458275703166889,0.4999931081052525
2.671694755554199,0.9023512738899433,[1.24009201],5.0,0.6,0.0,-0.05067343271043863,1.8344467879069457,0.4999980886579863
2.684757947921753,0.9076270392418332,[1.24128373],5.0,0.6,0.0,-0.017968119064038432,1.8218771539192353,0.49999975988182027
2.6976828575134277,0.91309820331046,[1.24251736],5.0,0.6,0.0,0.004603608509054606,1.8075209101759202,0.4999999845990245
2.71168851852417,0.9185693673790868,[1.24379572],5.0,0.6,0.0,0.019568449825446404,1.7925716517905894,0.49999971560082973
2.7257230281829834,0.9242359301644503,[1.24512117],5.0,0.6,0.0,0.029005732519197282,1.7762385920854846,0.49999937485061585
2.7377524375915527,0.9287301006493937,[1.24649563],5.0,0.6,0.0,0.03452198883437811,1.7654069322907768,0.4999991145442791
2.7485241889953613,0.9334196698510738,[1.24791879],5.0,0.6,0.0,0.03731332208985241,1.7374039245150128,0.49999896614749806
2.7576851844787598,0.9371322454690706,[1.24938535],5.0,0.6,0.0,0.038249116936382915,1.7060191158291387,0.4999989143438775
2.7708959579467773,0.9424080108209606,[1.25088928],5.0,0.6,0.0,-0.23808772168748027,1.70285056944406,0.49995781029377717
2.7836387157440186,0.9474883774561141,[1.25242966],5.0,0.6,0.0,-0.27230693661138344,1.6922073338722905,0.49994481332887314
2.800138235092163,0.9537411363916874,[1.25401061],5.0,0.6,0.0,-0.2187949426289378,1.70029178609424,0.49996438064817156
2.8136048316955566,0.9590169017435776,[1.25563877],5.0,0.6,0.0,-0.1445752389238621,1.6865418271202641,0.49998446357323656
2.8235135078430176,0.9631202747950476,[1.25731444],5.0,0.6,0.0,-0.07605449352489091,1.6450313524206295,0.4999957245559664
2.8381924629211426,0.9689822362971477,[1.25903258],5.0,0.6,0.0,-0.021475100404024353,1.645304495374112,0.4999997059729629
2.8526670932769775,0.9746487990825112,[1.26079411],5.0,0.6,0.0,0.018502793795165957,1.6391559546874817,0.4999998224322316
2.8712074756622314,0.9820739503185046,[1.26260819],5.0,0.6,0.0,-0.2300771877604079,1.6514848732500316,0.49996074229523885
2.8836262226104736,0.9871543169536582,[1.26448412],5.0,0.6,0.0,0.03049503679689093,1.618500059842722,0.4999995164481222
2.898395299911499,0.9932116771724948,[1.26642364],5.0,0.6,0.0,0.12910124893644886,1.605990457194702,0.4999879215574605
2.9122071266174316,0.9986828412411217,[1.26842614],5.0,0.6,0.0,0.15527000978376748,1.589257749835684,0.4999825323897494
2.9261109828948975,1.004349404026485,[1.27049161],5.0,0.6,0.0,0.15127860663655596,1.5707095538630271,0.4999836686304899
2.940683126449585,1.0100159668118485,[1.27261838],5.0,0.6,0.0,0.1365186540014672,1.553819544505206,0.49998715032828844
2.9537131786346436,1.0149009347302653,[1.27480464],5.0,0.6,0.0,0.1194573955839213,1.5420506662409112,0.49999073480098805
2.9664297103881836,1.0199813013654186,[1.27704877],5.0,0.6,0.0,0.10346326705677081,1.530274957450988,0.49999385140346386
2.9816391468048096,1.0264294590177288,[1.27934935],5.0,0.6,0.0,0.08961007956981831,1.51240286794201,0.4999968007604301
2.9946625232696533,1.031705224369619,[1.28170511],5.0,0.6,0.0,0.07800305976544947,1.5007827862890248,0.49999919742744786
3.0086584091186523,1.0373717871549823,[1.28411495],5.0,0.6,0.0,0.06838860300051385,1.487687492247418,0.5000016688416684
3.023653507232666,1.0432337486570824,[1.28657791],5.0,0.6,0.0,0.060421835083607364,1.4739299816421727,0.5000044690673138
3.03765606880188,1.048704912725709,[1.28909317],5.0,0.6,0.0,0.053774246859015176,1.4623664444919366,0.5000074133771492
3.052671194076538,1.0549576716612825,[1.29166116],5.0,0.6,0.0,0.048169185295685854,1.4535965898668881,0.5000118691602543
3.0738372802734375,1.062969019047486,[1.29429234],5.0,0.6,0.0,0.04338674879072093,1.4608335482004875,0.5000210964659128
3.0850322246551514,1.0670723920989562,[1.29699984],5.0,0.6,0.0,0.03925721950512058,1.4363314783713135,0.5000244423411517
3.1011545658111572,1.0739113471847397,[1.29978501],5.0,0.6,0.0,0.03565145027428497,1.428737995526371,0.5000360838394654
3.1142163276672363,1.07918711253663,[1.30264574],5.0,0.6,0.0,0.03247161053166093,1.4069887723416388,0.5000452205078368
3.128006935119629,1.084853675321993,[1.30557904],5.0,0.6,0.0,0.029643430308909695,1.396826786658176,0.5000579950270229
3.139329433441162,1.0895432445236732,[1.30857713],5.0,0.6,0.0,0.02711011753020997,1.3701712852040393,0.5000675096429886
3.1476781368255615,1.09266962399146,[1.31162426],5.0,0.6,0.0,0.3008661197648616,1.342588938191668,0.5000011519351502
3.1625008583068848,1.0983361867768233,[1.31470516],5.0,0.6,0.0,0.05588652821456412,1.3513440767562457,0.5000835080434101
3.1819393634796143,1.106347534163027,[1.31782581],5.0,0.6,0.0,-0.034212080799802126,1.3626983018241627,0.500129566713234
3.193607807159424,1.111037103364707,[1.32100003],5.0,0.6,0.0,0.21912862692347176,1.3408877895273847,0.5001124662506519
3.2080562114715576,1.1165082674333338,[1.32422729],5.0,0.6,0.0,-0.019784202711664103,1.3361081606716438,0.5001784737005761
3.222660541534424,1.1223702289354338,[1.32750595],5.0,0.6,0.0,-0.09553346363431237,1.3281279544147733,0.5002144748734468
3.2376558780670166,1.1282321904375339,[1.33083851],5.0,0.6,0.0,0.1728330653861284,1.3133896638737517,0.5002497218837897
3.2536659240722656,1.1344849493731075,[1.33422266],5.0,0.6,0.0,0.2229028817909235,1.2974600356648975,0.5003055866463936
3.2723588943481445,1.1424962967593109,[1.33765982],5.0,0.6,0.0,0.19049305703516844,1.2836842851769035,0.5004646300937267
3.2838330268859863,1.1469904672442544,[1.34115363],5.0,0.6,0.0,0.13539673784487435,1.2711226978907029,0.5005178218856047
3.2990827560424805,1.1528524287463542,[1.34469993],5.0,0.6,0.0,0.08183890723866617,1.2639667072234586,0.5006305177161019
3.3093395233154297,1.1567604030810879,[1.34828971],5.0,0.6,0.0,0.03797039088490241,1.2464375815568818,0.5006501260741375
3.3196356296539307,1.1610591748492947,[1.35190951],5.0,0.6,0.0,0.0051012071369520955,1.23947857416377,0.5006858866794796
3.3336336612701416,1.1663349402011847,[1.35554801],5.0,0.6,0.0,-0.018042261085462426,1.234346137743515,0.5007765660539444
3.346630573272705,1.171610705553075,[1.35920105],5.0,0.6,0.0,-0.03344028281337011,1.2282737526027945,0.5008770240739999
3.3616220951080322,1.1776680657719116,[1.36286626],5.0,0.6,0.0,0.2330209964308093,1.2176221245986683,0.5010088376159774
3.3746237754821777,1.1829438311238019,[1.36654149],5.0,0.6,0.0,0.26077871589565726,1.2105369632014684,0.501130111637868
3.3949179649353027,1.191541374660215,[1.37023285],5.0,0.6,0.0,0.20327057782251806,1.2011329313096735,0.5016540088676799
3.4056179523468018,1.1960355451451585,[1.3739494],5.0,0.6,0.0,0.1267941329220834,1.1886737048180112,0.5017688764230651
3.4222347736358643,1.2024837027974689,[1.37769088],5.0,0.6,0.0,0.05721888815940705,1.1824272173072439,0.5021535407712786
3.433894157409668,1.2069778732824121,[1.38145493],5.0,0.6,0.0,0.0023984996879845843,1.1723066313415813,0.5022689225439811
3.4446327686309814,1.211081246333882,[1.38523331],5.0,0.6,0.0,0.2387546264343568,1.1560234360046817,0.5022784964051137
3.4622645378112793,1.2177248027029288,[1.38901948],5.0,0.6,0.0,0.24505851180321583,1.1621366438580036,0.5027827668327108
3.4722979068756104,1.2218281757543992,[1.3928156],5.0,0.6,0.0,-0.10289122459191564,1.146216135403031,0.5028796906687156
3.4839441776275635,1.2267131436728156,[1.39661462],5.0,0.6,0.0,-0.22152712290622095,1.1361587935536162,0.5030729430552621
3.5017452239990234,1.2339428961920726,[1.4004143],5.0,0.6,0.0,0.03491354047477871,1.1391460903527286,0.5039156364435571
3.5200304985046387,1.2409772499945926,[1.40423385],5.0,0.6,0.0,0.0869478085149028,1.1186332854476813,0.5048358117532075
3.533594846725464,1.2464484140632193,[1.408093],5.0,0.6,0.0,0.06223333262550264,1.1137494022638794,0.5053732047752076
3.5496392250061035,1.253091970432266,[1.41199651],5.0,0.6,0.0,0.01675471161821568,1.1012431907549627,0.5064082866139549
3.5637149810791016,1.2587585332176296,[1.41594252],5.0,0.6,0.0,-0.30300844234364144,1.0930298375672116,0.5070765237902244
3.5787668228149414,1.26462049471973,[1.41993103],5.0,0.6,0.0,-0.0946233959987272,1.082682823823869,0.508025728341257
3.5930004119873047,1.26989626007162,[1.42396422],5.0,0.6,0.0,-0.3067090265658713,1.0758867908014331,0.5086043105350824
3.6036221981048584,1.2743904305565632,[1.42804221],5.0,0.6,0.0,-0.33417107729355044,1.075418388012181,0.508816257413881
3.6197564601898193,1.2812293856423467,[1.43216285],5.0,0.6,0.0,-0.29295649274708696,1.0607618158389862,0.5104381961105434
3.6328022480010986,1.286505150994237,[1.43632694],5.0,0.6,0.0,-0.2339433247931959,1.0533071486820307,0.5111876107382499
3.6436033248901367,1.2904131253289703,[1.44053601],5.0,0.6,0.0,-0.1776041949959174,1.055914827527603,0.511003876150437
3.6586697101593018,1.2966658842645435,[1.44478931],5.0,0.6,0.0,-0.13069928980654677,1.044613678040749,0.5124114713538419
3.6695973873138428,1.3009646560327504,[1.44908694],5.0,0.6,0.0,-0.09417574544922763,1.0429047402822567,0.5124184282880823
3.683608293533325,1.306435820101377,[1.45343019],5.0,0.6,0.0,-0.06680436376235231,1.0356479208135863,0.5132770366991188
3.696610927581787,1.3115161867365306,[1.45782013],5.0,0.6,0.0,-0.04677888861067801,1.0305174774817425,0.513827626198639
3.709181308746338,1.3164011546549474,[1.46225752],5.0,0.6,0.0,-0.03236228897882176,1.0266973370383912,0.5141949254721618
3.72035551071167,1.3210907238566276,[1.46673849],5.0,0.6,0.0,-0.022102553726700377,1.0341920001141434,0.5143690372528641
3.734600305557251,1.326757286641991,[1.47125766],5.0,0.6,0.0,-0.014865447858019624,1.0193397504801383,0.5153585563376945
3.7490177154541016,1.3324238494273544,[1.4758187],5.0,0.6,0.0,-0.009798293391596503,1.0046589130036732,0.5163680993589066
3.7636208534240723,1.3384812096461913,[1.48042791],5.0,0.6,0.0,-0.006275043104528312,0.9984150573984583,0.5177783303322202
3.776108503341675,1.343952373714818,[1.4850846],5.0,0.6,0.0,-0.2798814066793007,1.000123749988873,0.5185590448147028
3.786893844604492,1.3478603480495512,[1.48977903],5.0,0.6,0.0,-0.3113413602794477,1.0162382406216293,0.5177345141823819
3.7962732315063477,1.3517683223842847,[1.49449208],5.0,0.6,0.0,-0.2551166823604706,1.0199845408680632,0.5169605252502076
3.8083419799804688,1.3564578915859649,[1.49920549],5.0,0.6,0.0,-0.17827884170855557,1.0207721384626536,0.5169621766719226
3.8206193447113037,1.3609520620709084,[1.50391166],5.0,0.6,0.0,-0.1072634062799325,1.022547578434769,0.5167727485877265
3.830667495727539,1.365250833839115,[1.50861147],5.0,0.6,0.0,-0.050328557189368475,1.023306184074801,0.5163984309454789
3.844616174697876,1.3709173966244785,[1.51330932],5.0,0.6,0.0,-0.008141335540580982,1.016050423740708,0.5173338384888387
3.858590602874756,1.3761931619763685,[1.51801004],5.0,0.6,0.0,0.02137927398514855,1.010647987228372,0.5179094912112154
3.8736143112182617,1.3820551234784686,[1.52271763],5.0,0.6,0.0,0.0409557673095496,1.002797607623518,0.5191155479842573
3.8876230716705322,1.3879170849805686,[1.52743529],5.0,0.6,0.0,0.053119252277792156,0.9954412586866468,0.5203806624615177
3.9006197452545166,1.3933882490491956,[1.53216557],5.0,0.6,0.0,0.05994725538404538,0.9904892644511702,0.5212381735011665
3.9244139194488525,1.4031581848860288,[1.53692679],5.0,0.6,0.0,0.06304054567597474,0.8900644967066313,0.5279059870924607
3.934891700744629,1.4074569566542359,[1.54174372],5.0,0.6,0.0,0.06358704673800022,0.9413538126180675,0.5271413218346925
3.9490506649017334,1.4129281207228626,[1.54661552],5.0,0.6,0.0,0.062446601905435856,0.9352047629559551,0.5280275352862404
3.9619381427764893,1.418008487358016,[1.55153242],5.0,0.6,0.0,0.060230285790175433,0.9467870321178461,0.5282736845967281
3.972425699234009,1.4223072591262227,[1.55648384],5.0,0.6,0.0,0.057365875754274306,0.975192965396407,0.5273029482048197
3.9857935905456543,1.427583024478113,[1.5614532],5.0,0.6,0.0,0.0541486268736702,0.971141086289301,0.5277554393938051
3.995607614517212,1.4312956000961095,[1.5664282],5.0,0.6,0.0,0.050779257649942365,0.9830942549162707,0.5259330296579112
4.007612466812134,1.436375966731263,[1.57139969],5.0,0.6,0.0,0.04739173473638108,0.9804733592291559,0.5260862996103214
4.022623062133789,1.4422379282333628,[1.57636501],5.0,0.6,0.0,0.04407329487144346,0.9729095991536729,0.5273765660360903
4.03661847114563,1.4479044910187262,[1.58132709],5.0,0.6,0.0,0.04087872378406686,0.9662593977231548,0.5284285417646147
4.049610614776611,1.4531802563706164,[1.58628859],5.0,0.6,0.0,0.037840462264334226,0.9618946011307701,0.5289089976849883
4.0636210441589355,1.4590422178727167,[1.59125196],5.0,0.6,0.0,0.03497571656682358,0.9550830669982504,0.5303210384354201
4.0766072273254395,1.4639271857911336,[1.59621944],5.0,0.6,0.0,0.03229143604790348,0.9535043696578612,0.5301891092663789
4.0875749588012695,1.4684213562760768,[1.60119301],5.0,0.6,0.0,0.02978778138244289,0.9542912575314378,0.5294316498455415
4.100900411605835,1.4738925203447035,[1.60617438],5.0,0.6,0.0,0.027460529251641122,0.9505992506938085,0.5302059327324526
4.109652042388916,1.477214298529227,[1.61115571],5.0,0.6,0.0,0.3013410899695752,0.9769991504965264,0.5275843250325788
4.1189117431640625,1.4811222728639604,[1.61611481],5.0,0.6,0.0,0.05643044745136032,0.9790087973490501,0.5261295652234306
4.131983518600464,1.4877658292330072,[1.62103578],5.0,0.6,0.0,-0.03363674612120354,0.9740644694973085,0.5286613614089244
4.144619703292847,1.4908922087007939,[1.62592002],5.0,0.6,0.0,-0.05632794140103952,0.982056054855461,0.526079842194816
4.157693147659302,1.496167974052684,[1.63077546],5.0,0.6,0.0,-0.05233680283057253,0.9767885211655554,0.526678114342478
4.170584201812744,1.5012483406878376,[1.63561044],5.0,0.6,0.0,-0.039884227454743154,0.9716553328172124,0.5270334985441649
4.186007261276245,1.5075010996234108,[1.64043347],5.0,0.6,0.0,-0.02659444801954777,0.958806129906013,0.5291814838859403
4.197595119476318,1.512190668825091,[1.64525184],5.0,0.6,0.0,0.2607973460850173,0.9595131983857834,0.5289321040159325
4.213311672210693,1.5184434277606642,[1.65007167],5.0,0.6,0.0,0.026639260522809086,0.9448837059783267,0.5312662538096683
4.230984449386597,1.525868578996658,[1.65490538],5.0,0.6,0.0,0.2207891981958852,0.8912350310666165,0.535753262334808
4.24844765663147,1.5325121353657045,[1.65977784],5.0,0.6,0.0,0.237278001135798,0.8540997977111431,0.5391489390632717
4.257413625717163,1.5360293122669648,[1.66470128],5.0,0.6,0.0,-0.08545864955931054,0.9322131328783446,0.5364634840761572
4.273492336273193,1.5428682673527483,[1.66966595],5.0,0.6,0.0,-0.17904206921945715,0.8864929862951652,0.5401101819519867
4.287188768386841,1.5479486339879014,[1.67467006],5.0,0.6,0.0,0.09712956575851839,0.8961415993322871,0.540282488342533
4.2984397411346436,1.5522474057561084,[1.67971073],5.0,0.6,0.0,-0.1133525564624811,0.9338645165419205,0.5387886988810846
4.30952787399292,1.5563507788075785,[1.68476896],5.0,0.6,0.0,-0.16314699492322118,0.9481246326317952,0.5369281126330402
4.322936058044434,1.5620173415929417,[1.68982819],5.0,0.6,0.0,0.1262570677121979,0.9430422538479277,0.5381040809061749
4.333595275878906,1.5665115120778854,[1.69487897],5.0,0.6,0.0,0.19234283130852792,0.949305460082951,0.5370167634793045
4.345553159713745,1.5712010812795654,[1.69991313],5.0,0.6,0.0,0.17165569355528948,0.9498181248749402,0.5363718153320013
4.356668472290039,1.5754998530477722,[1.70492723],5.0,0.6,0.0,0.12489836941792187,0.9526341931505014,0.5350625983112124
4.36525559425354,1.5788216312322956,[1.70991307],5.0,0.6,0.0,0.07713155641797284,0.9570322238606666,0.5321568141921236
4.373565912246704,1.5823388081335557,[1.71484918],5.0,0.6,0.0,0.03718980379723384,0.9546101303549305,0.5298421191761205
4.387572526931763,1.588200769635656,[1.71972079],5.0,0.6,0.0,0.006910375970997324,0.9611184852554431,0.5314453539376413
4.401560306549072,1.5938673324210193,[1.72453118],5.0,0.6,0.0,-0.014587616496043022,0.9604799101330599,0.5328891304394549
4.417283296585083,1.599924692639856,[1.72929353],5.0,0.6,0.0,-0.028998316810775308,0.9503713331292618,0.5351800144792981
4.429224014282227,1.604614261841536,[1.73402042],5.0,0.6,0.0,-0.038040896190949344,0.9536009137503464,0.5351116722692422
4.440564393997192,1.608913033609743,[1.73871576],5.0,0.6,0.0,-0.04318035979368112,0.9559236943701624,0.5343968574647602
4.453573942184448,1.6141887989616328,[1.74338069],5.0,0.6,0.0,-0.045568357714013324,0.9521187585206161,0.5355024852408525
4.466589450836182,1.619464564313523,[1.74801976],5.0,0.6,0.0,-0.04606984378714826,0.948254698981601,0.5366870812096538
4.479409694671631,1.6249357283821497,[1.75263747],5.0,0.6,0.0,-0.045315752566250825,0.9443576749254574,0.5383275220439587
4.492029190063477,1.6298206963005666,[1.7572377],5.0,0.6,0.0,0.2322815059208793,0.9414374341134838,0.5388498137511035
4.504891633987427,1.6349010629357197,[1.76182485],5.0,0.6,0.0,0.26745304740549786,0.9389062646331005,0.5398248016270241
4.518522024154663,1.64017682828761,[1.76640258],5.0,0.6,0.0,0.21467147856430746,0.9354803259772326,0.5412782776143932
4.532649278640747,1.6458433910729737,[1.77097339],5.0,0.6,0.0,0.1410214485352712,0.9301458381321375,0.5436373234873974
4.5476202964782715,1.6519007512918102,[1.77553926],5.0,0.6,0.0,0.07295302232687893,0.9228726898458485,0.5470106846401283
4.561580419540405,1.6575673140771736,[1.78010176],5.0,0.6,0.0,0.018739437260382567,0.9175184572262777,0.5496407446977319
4.57457709312439,1.6626476807123272,[1.78466208],5.0,0.6,0.0,-0.020937181042833593,0.9150836486721773,0.5509195058030674
4.587574481964111,1.6675326486307438,[1.78922108],5.0,0.6,0.0,-0.04814309239823515,0.9136420675762957,0.5517335685556051
4.601580619812012,1.6733946101328439,[1.79377933],5.0,0.6,0.0,-0.34162495552877825,0.9074742450046362,0.5550191568447777
4.613312721252441,1.6782795780512607,[1.79833712],5.0,0.6,0.0,-0.3849482619910721,0.9060424049195523,0.555869589808679
4.626439571380615,1.6839461408366243,[1.80289398],5.0,0.6,0.0,-0.3348697058345043,0.9013609435374387,0.558946046555406
4.637768983840942,1.688049513888094,[1.8074455],5.0,0.6,0.0,-0.26021223911440683,0.9040874508875899,0.5577314528057087
4.6468422412872314,1.6921528869395643,[1.81197756],5.0,0.6,0.0,-0.1887027350002585,0.8923118191647844,0.5565823168346101
4.657535791397095,1.695865462557561,[1.81647126],5.0,0.6,0.0,-0.12952924780693417,0.8948218484525,0.554509482084252
4.668560028076172,1.7003596330425044,[1.82091853],5.0,0.6,0.0,-0.08401656965521687,0.9035458737554831,0.5546401819188288
4.683534860610962,1.706026195827868,[1.82532373],5.0,0.6,0.0,-0.32658024170652716,0.9014680102833829,0.5579746833740646
4.6965296268463135,1.7113019611797582,[1.82969401],5.0,0.6,0.0,-0.3358600782542654,0.89867461630963,0.5605235996930013
4.709652423858643,1.7169685239651216,[1.83403552],5.0,0.6,0.0,0.011809329792014545,0.8926437458042973,0.5645098026738987
4.722684860229492,1.7218534918835382,[1.83835345],5.0,0.6,0.0,0.13217913543249452,0.8899639046646791,0.5662284879181751
4.734861612319946,1.7269338585186915,[1.84265157],5.0,0.6,0.0,0.1549020564014824,0.8859040981061169,0.568674475962068
4.745162487030029,1.7310372315701616,[1.84692824],5.0,0.6,0.0,0.14000650084531102,0.8811052992222331,0.5681285378700117
4.753548860549927,1.7345544084714217,[1.85116913],5.0,0.6,0.0,0.11414787339353721,0.853748857716651,0.5658783194366317
4.766526937484741,1.7400255725400484,[1.8553582],5.0,0.6,0.0,-0.18773585815221905,0.8663916836475898,0.5698993859572444
4.779571056365967,1.745105939175202,[1.85949559],5.0,0.6,0.0,-0.24285057424598758,0.8680469900915099,0.572977827619289
4.790616512298584,1.7496001096601452,[1.86358983],5.0,0.6,0.0,-0.20511966441542828,0.870644306602205,0.5743365553074453
4.804538011550903,1.7548758750120355,[1.86764821],5.0,0.6,0.0,-0.1421998999320865,0.8669161008180518,0.5785742285233137
4.817569732666016,1.7599562416471888,[1.87167734],5.0,0.6,0.0,-0.0814176807031786,0.8627734574381262,0.5823826361228096
4.831542730331421,1.7658182031492888,[1.87568265],5.0,0.6,0.0,-0.03189536053127617,0.8540071202388521,0.5894524659440027
4.846566200256348,1.7716801646513891,[1.87966854],5.0,0.6,0.0,0.0049747756380376165,0.8447261945527885,0.5970724156419969
4.859549522399902,1.7767605312865427,[1.88363844],5.0,0.6,0.0,-0.24533247430011118,0.8391050919441878,0.6017722515358211
4.872560977935791,1.7818408979216962,[1.88759498],5.0,0.6,0.0,-0.26157011570618044,0.8332179405897554,0.6067503934853006
4.886546850204468,1.787702859423796,[1.89154001],5.0,0.6,0.0,-0.19621334990935915,0.8232358554046985,0.6157088000870541
4.900549411773682,1.793564820925896,[1.89547482],5.0,0.6,0.0,-0.1146464102957542,0.8130394825904874,0.6252795359573919
4.91352391242981,1.798840586277786,[1.89940014],5.0,0.6,0.0,-0.04198175631606098,0.8056048792949424,0.632330250589797
4.924355745315552,1.8031393580459931,[1.90331628],5.0,0.6,0.0,0.01451385850910037,0.8029240704577197,0.6343799390934587
4.935412883758545,1.8074381298141997,[1.90721915],5.0,0.6,0.0,0.3309330692862892,0.786717479053845,0.636443100274486
4.950824737548828,1.8133000913163,[1.91110509],5.0,0.6,0.0,0.3909184714022663,0.7921030795609327,0.6474988964741141
4.96455979347229,1.8189666541016634,[1.91497902],5.0,0.6,0.0,0.35224393907048035,0.7818016911155574,0.6581424929980697
4.977798223495483,1.8242424194535536,[1.91884492],5.0,0.6,0.0,0.28492214172066166,0.7733951136129144,0.6669119679547726
4.987110137939453,1.8283457925050235,[1.92269619],5.0,0.6,0.0,0.21774800083085072,0.7485562545032339,0.6685354748668821
4.997674226760864,1.8324491655564934,[1.92651751],5.0,0.6,0.0,-0.11526684359835704,0.7330667942122233,0.670362164137459
5.008557081222534,1.836943336041437,[1.93029573],5.0,0.6,0.0,0.08285034735482877,0.728869908466054,0.6750010949659103
5.0245866775512695,1.843391493693747,[1.93403027],5.0,0.6,0.0,0.137317223573019,0.7393050015735482,0.6933699306076796
5.035552263259888,1.8474948667452171,[1.9377272],5.0,0.6,0.0,0.13353218528227495,0.7283010440905361,0.6962349758372056
5.047524690628052,1.8527706320971074,[1.94138892],5.0,0.6,0.0,0.1101068015715447,0.7258373286217612,0.7079030443917096
5.062532663345337,1.8588279923159439,[1.94501773],5.0,0.6,0.0,0.08348676792167586,0.7172722262626813,0.7263308860846713
5.0765135288238525,1.8639083589510974,[1.94861852],5.0,0.6,0.0,0.05989402216986267,0.712024298403926,0.7380740460697846
5.08639669418335,1.867620934569094,[1.95219562],5.0,0.6,0.0,0.041039956547999565,0.7126338158277661,0.7391699936663345
5.099242687225342,1.8730920986377209,[1.95575203],5.0,0.6,0.0,0.026801538917581705,0.7005574902040335,0.7549889947445185
5.111159801483154,1.8781724652728744,[1.95928701],5.0,0.6,0.0,0.016433040823234248,0.6828318935224577,0.7682288894794107
5.1206817626953125,1.8820804396076078,[1.96279412],5.0,0.6,0.0,0.009083474967488717,0.6626929000870222,0.7717317234909798
5.129562854766846,1.8855976165088677,[1.96626351],5.0,0.6,0.0,0.003993421105518161,0.650387400842119,0.7721512130955741
5.143552780151367,1.891264179294231,[1.96969026],5.0,0.6,0.0,0.0005501192860879645,0.6549215418343958,0.7922545836123698
5.155521869659424,1.8959537484959115,[1.97307879],5.0,0.6,0.0,-0.001715302461348923,0.6581573529954264,0.804326371267988
5.1673583984375,1.9012295138478013,[1.97643626],5.0,0.6,0.0,-0.003150433064131367,0.650439535095347,0.8226423350965182
5.178935527801514,1.9057236843327447,[1.97976643],5.0,0.6,0.0,-0.00400772990697356,0.6412500017398569,0.834049679731471
5.187211751937866,1.9088500638005315,[1.98306597],5.0,0.6,0.0,-0.00446798512007464,0.6132239544319095,0.8323388078970708
5.195504426956177,1.9123672407017918,[1.98632606],5.0,0.6,0.0,-0.004659328616515605,0.6092972621442178,0.8348805069244657
5.2079243659973145,1.9168614111867353,[1.98954428],5.0,0.6,0.0,-0.004671815332526665,0.6205342265990588,0.8476496627620386
5.2215046882629395,1.922332575255362,[1.99272789],5.0,0.6,0.0,-0.0045682759050769805,0.6200446454780942,0.8711681795275983
5.234176158905029,1.927608340607252,[1.99588583],5.0,0.6,0.0,0.271646130438819,0.6138568622727298,0.8935675558268301
5.249529838562012,1.933470302109352,[1.99902583],5.0,0.6,0.0,0.028951025801815147,0.6072160256054232,0.9233708222634502
5.261133193969727,1.938159871311032,[2.0021553],5.0,0.6,0.0,-0.05902992412088643,0.6017351328668566,0.9408331560464964
5.273350715637207,1.9434356366629222,[2.00527879],5.0,0.6,0.0,0.19627018302786764,0.5843427834773871,0.9653447014501075
5.281902313232422,1.9467574148474456,[2.00839143],5.0,0.6,0.0,0.23520616832031302,0.5472009394751097,0.9677420453942687
5.295606851577759,1.9520331801993358,[2.01148453],5.0,0.6,0.0,0.19425259514965532,0.5544369713813441,0.9931462581369743
5.306903123855591,1.9561365532508057,[2.01455704],5.0,0.6,0.0,0.13302473191449415,0.5434754249325566,1.0052930672684375
5.317496299743652,1.9608261224524859,[2.01761105],5.0,0.6,0.0,0.07530554451019623,0.5410770587491801,1.0247078521155868
5.329387664794922,1.9653202929374292,[2.02064918],5.0,0.6,0.0,0.028779129796213894,0.5398133351763331,1.0421252065590112
5.344526290893555,1.9713776531562661,[2.02367688],5.0,0.6,0.0,-0.005648542873434744,0.5328425724196738,1.0786590109747798
5.358502626419067,1.9772396146583662,[2.02670028],5.0,0.6,0.0,-0.029571380282990223,0.5215790999934162,1.1130722673996138
5.3734965324401855,1.9832969748772031,[2.02972435],5.0,0.6,0.0,-0.045211465067717505,0.5080785571473193,1.1497922572236428
5.385595798492432,1.9881819427956196,[2.03275266],5.0,0.6,0.0,-0.05467034981730599,0.4995603409170146,1.1721235310187015
5.400491237640381,1.9946301004479299,[2.03578792],5.0,0.6,0.0,0.21635270382333605,0.4826929121868151,1.2125949602707902
5.418043375015259,2.0012736568169767,[2.03883672],5.0,0.6,0.0,0.24756196930934063,0.4835143994274651,1.2540797129032066
5.428512334823608,2.00518163115171,[2.04190498],5.0,0.6,0.0,-0.08338766874310084,0.4568784724255492,1.2635874139200456
5.442439079284668,2.0106527952203366,[2.04498905],5.0,0.6,0.0,-0.19103303080140108,0.4471198124904707,1.2899148588929843
5.454492807388306,2.0155377631387537,[2.04808383],5.0,0.6,0.0,0.07200895884976245,0.43128006726020224,1.3090827246699628
5.467578887939453,2.0204227310571703,[2.05118697],5.0,0.6,0.0,-0.14850652914587448,0.4234090164654592,1.3275320094700453
5.479527473449707,2.025307698975587,[2.05429687],5.0,0.6,0.0,-0.20500914419615648,0.4149444627698006,1.3452596568027146
5.491601467132568,2.0303880656107403,[2.057413],5.0,0.6,0.0,0.08053435211041303,0.40491662347035484,1.3640928866805178
5.502930164337158,2.0356638309626307,[2.06053233],5.0,0.6,0.0,0.14495866007177585,0.38067159095187436,1.3836394357406259
5.515120983123779,2.0397672040141006,[2.06364868],5.0,0.6,0.0,0.12420246695236839,0.3720864221625941,1.3921885340421554
5.524977684020996,2.043675178348834,[2.06675405],5.0,0.6,0.0,0.07847139957429543,0.3474830549241523,1.3989463321613973
5.535467863082886,2.047973950117041,[2.06983836],5.0,0.6,0.0,0.03244566869181766,0.3307793890837183,1.4088171423349056
5.548519849777222,2.0534451141856676,[2.07289503],5.0,0.6,0.0,-0.005319402995702813,0.3327150879081275,1.4271314812236475
5.562482118606567,2.0589162782542942,[2.07592526],5.0,0.6,0.0,-0.03318534596585303,0.32942712986043926,1.4437802360080019
5.575493574142456,2.0639966448894476,[2.07893308],5.0,0.6,0.0,-0.05217101617309125,0.3245603216198767,1.4563593721006023
5.588489532470703,2.0690770115246013,[2.08192194],5.0,0.6,0.0,-0.06406390901717943,0.3174104348149433,1.467537032312359
5.600478887557983,2.073961979443018,[2.08489472],5.0,0.6,0.0,-0.07064451100183036,0.3096842109260985,1.4763747696737006
5.615696668624878,2.080410137095328,[2.08785382],5.0,0.6,0.0,-0.34945486649918334,0.2933155370360615,1.4888885969077938
5.627479076385498,2.0849043075802713,[2.09080115],5.0,0.6,0.0,-0.1066790573279395,0.2855884744795227,1.4930611039886097
5.63936185836792,2.089398478065215,[2.09373823],5.0,0.6,0.0,-0.2928764775452349,0.277608412865975,1.4961765551968116
5.6515278816223145,2.0942834459836317,[2.09666446],5.0,0.6,0.0,-0.3022728903752311,0.25604497744083715,1.498798785845251
5.66122579574585,2.098386819035102,[2.09957341],5.0,0.6,0.0,-0.24932678570425826,0.22274307821876524,1.4996721693419783
5.6695239543914795,2.101708597219625,[2.10245381],5.0,0.6,0.0,-0.18337422885707708,0.20456839164443175,1.4998639077332836
5.6804728507995605,2.1062027677045685,[2.10529877],5.0,0.6,0.0,-0.12356408946377637,0.21241862273299247,1.4998252059308217
5.694463014602661,2.1112831343397223,[2.10811026],5.0,0.6,0.0,-0.07561296590177699,0.2114723321082876,1.4979843454993198
5.706260919570923,2.1163635009748756,[2.11089221],5.0,0.6,0.0,-0.039683803323451866,0.19657276853173786,1.4940296993665345
5.720064878463745,2.1216392663267656,[2.11364803],5.0,0.6,0.0,-0.013976047431846833,0.2004723048027194,1.487309106885413
5.727787017822266,2.124570247077816,[2.11637744],5.0,0.6,0.0,0.003723654456391514,0.15516783203760862,1.4866652891781575
5.740928888320923,2.129846012429706,[2.11907403],5.0,0.6,0.0,0.01543713574334044,0.15485938078539638,1.4770599105011102
5.754009008407593,2.135512575215069,[2.12173656],5.0,0.6,0.0,0.022812246923183815,0.14817023200859517,1.462755207612851
5.765789747238159,2.1400067457000125,[2.12436856],5.0,0.6,0.0,-0.24892297483737896,0.13402554172704065,1.4522201814444686
5.777488708496094,2.1446963149016924,[2.12697153],5.0,0.6,0.0,-0.5559149559722304,0.12753744189719854,1.438869732965483
5.791543483734131,2.149972080253583,[2.12954818],5.0,0.6,0.0,-0.8092601577381711,0.12142109646182205,1.4194708385395831
5.807967901229858,2.1558340417556825,[2.13210537],5.0,0.6,0.0,-1.2635227459977685,0.12548845275759982,1.3923120982201804
5.819876432418823,2.160328212240626,[2.13465017],5.0,0.6,0.0,-1.4049702083082902,0.10267177868110186,1.3749856454418334
5.830528259277344,2.1640407878586227,[2.13718401],5.0,0.6,0.0,-1.6779948994031777,0.09374297635189262,1.3635734202486298
5.843494176864624,2.168534958343566,[2.13970672],5.0,0.6,0.0,-1.6453384683871008,0.086100428138519,1.3448542751239225
5.8536083698272705,2.1720521352448263,[2.14221838],5.0,0.6,0.0,-1.77675173600232,0.0682820795851063,1.3345891651745574
5.862673044204712,2.1749831159958766,[2.14471411],5.0,0.6,0.0,-2.1907442645766917,0.041200040486381054,1.3290062715457076
5.872488498687744,2.177914096746927,[2.14718518],5.0,0.6,0.0,-2.038703084218495,0.028044947141321386,1.324823540729203
5.884498119354248,2.1814312736481867,[2.14962713],5.0,0.6,0.0,-2.260899156198735,0.03887743294803841,1.313058588665953
5.895319223403931,2.18533924798292,[2.15204097],5.0,0.6,0.0,-2.258213220202642,0.027029910204322893,1.2973298720499284
5.903525352478027,2.187879431300497,[2.15442384],5.0,0.6,0.0,-2.1565270468350963,-0.004167379863251674,1.295980777758507
5.915628910064697,2.1913966082017566,[2.1567708],5.0,0.6,0.0,-2.568481564768919,0.014227981898874458,1.2819067727973257
5.926468133926392,2.19413219023607,[2.15908305],5.0,0.6,0.0,-2.760696888438601,0.01048340102272881,1.276524498352098
5.938485622406006,2.19706317098712,[2.16136444],5.0,0.6,0.0,-3.0885452770754465,0.020989271870589476,1.2679588578812517
5.951537370681763,2.1999941517381703,[2.16361978],5.0,0.6,0.0,-3.912790494823108,0.02698688494870224,1.2562304821396157
5.963207721710205,2.2023389363390105,[2.16585399],5.0,0.6,0.0,-4.69331541423449,0.02567568667474888,1.2501315543807676
5.977493524551392,2.2052699170900603,[2.16807111],5.0,0.6,0.0,-5.0,0.03506660577419682,1.239975922477662
5.992477655410767,2.207810100407637,[2.17027603],5.0,0.6,0.0,-5.0,0.03530619560938484,1.2361857664562348
6.00546669960022,2.20995948629174,[2.17247257],5.0,0.6,0.0,-5.0,0.036276514832451104,1.2367197636954024
6.017482757568359,2.211913473459107,[2.17466278],5.0,0.6,0.0,-4.58295014715582,0.03728046567944803,1.2422651755854084
6.032490968704224,2.2144536567766835,[2.17684797],5.0,0.6,0.0,-4.2491054406428095,0.03488925759052352,1.2403811882247946
6.046482801437378,2.2164076439440503,[2.17902884],5.0,0.6,0.0,-3.6784556605195924,0.034826251225116234,1.2462391631886829
6.055448055267334,2.2175800362444704,[2.18120301],5.0,0.6,0.0,-2.5437599176336287,0.016624750839054427,1.2626750491537104
6.06437611579895,2.2187524285448905,[2.18336313],5.0,0.6,0.0,-1.4125084468748177,0.0037334565602804297,1.276943677960721
6.07447624206543,2.2201202195620473,[2.18550111],5.0,0.6,0.0,-0.7563920695013279,0.001384945102023061,1.286440851336447
6.086461782455444,2.221488010579204,[2.18761332],5.0,0.6,0.0,-0.09281623938612632,0.015918360272989006,1.2949254036513411
6.099487543106079,2.2228558015963604,[2.18970083],5.0,0.6,0.0,0.17215756198392781,0.0262745335320559,1.3026168270790577
6.112476825714111,2.2240281938967805,[2.1917661],5.0,0.6,0.0,0.25637059709396676,0.034578444771404496,1.3120212814401508
6.126449346542358,2.225005187480464,[2.19381099],5.0,0.6,0.0,-0.012736618046517129,0.041921234401812967,1.323150888158736
6.139490127563477,2.2259821810641474,[2.19583682],5.0,0.6,0.0,-0.0682913837956328,0.0477213656526233,1.3338075146128017
6.149493932723999,2.226763775931094,[2.1978423],5.0,0.6,0.0,-0.04370735874292569,0.03344970872997601,1.3459525657613605
6.1576759815216064,2.227349972081304,[2.19982096],5.0,0.6,0.0,0.0025348804929060977,0.01673261895839265,1.359358293934153
6.169541597366333,2.227936168231514,[2.20176584],5.0,0.6,0.0,0.3229729803536508,0.02932721743446602,1.3719124704764012
6.1824867725372314,2.228717763098461,[2.20367579],5.0,0.6,0.0,0.39090487291915554,0.044642521523372086,1.3820124813188353
6.194473743438721,2.229303959248671,[2.20555351],5.0,0.6,0.0,0.9120085680304835,0.05668129173303678,1.3926955311755902
6.209474563598633,2.229890155398881,[2.2074019],5.0,0.6,0.0,1.1930414189953424,0.06597155665197767,1.4027441909349405
6.22016167640686,2.230280952832354,[2.20922294],5.0,0.6,0.0,1.3290587194337946,0.07063331590160038,1.4138179183134847
6.228964567184448,2.2306717502658273,[2.2110157],5.0,0.6,0.0,1.6526273805649079,0.058233581508840955,1.4236090106067825
6.239701271057129,2.231062547699301,[2.21277612],5.0,0.6,0.0,1.679239645978675,0.056499473074891476,1.4332139691295005
6.250497817993164,2.231453345132774,[2.21450078],5.0,0.6,0.0,1.861063105469804,0.06045765812484258,1.441571130711081
6.264448404312134,2.2318441425662474,[2.21618948],5.0,0.6,0.0,2.0359853548848768,0.07560923309153846,1.4490918745527273
6.277505397796631,2.232234939999721,[2.21784486],5.0,0.6,0.0,1.8749800033292816,0.08744507074236486,1.4568208466455026
6.300255060195923,2.232821136149931,[2.21947518],5.0,0.6,0.0,1.889935580695438,0.14043445935380078,1.4623523005149126
6.313155651092529,2.233211933583404,[2.22109151],5.0,0.6,0.0,1.93602979050649,0.12869221878685658,1.4682640728958891
6.327442646026611,2.2336027310168776,[2.22269819],5.0,0.6,0.0,2.2361987422933005,0.13389678442508252,1.4727901477869247
6.336989879608154,2.2337981297336142,[2.22429317],5.0,0.6,0.0,2.5343132752492927,0.11195858144268103,1.4773350956883007
6.3454296588897705,2.2341889271670876,[2.22587006],5.0,0.6,0.0,2.744712764777126,0.09462728479339028,1.4806780545443912
6.358531951904297,2.234579724600561,[2.22742277],5.0,0.6,0.0,2.853955554133467,0.1080894062776641,1.4837813072329935
6.374433994293213,2.2349705220340343,[2.22895156],5.0,0.6,0.0,2.8756222894072914,0.12424592539777471,1.486662730139234
6.3854804039001465,2.2353613194675077,[2.23045932],5.0,0.6,0.0,3.1065037477703052,0.12677504097914524,1.4880732306012994
6.3984534740448,2.235752116900981,[2.23194772],5.0,0.6,0.0,3.0475684652271484,0.13512656579792262,1.4902433260493664
6.410466194152832,2.2361429143344544,[2.2334184],5.0,0.6,0.0,2.869939074212678,0.14264924055252062,1.4924226582726696
6.422627925872803,2.2365337117679274,[2.23487355],5.0,0.6,0.0,2.653400495672641,0.14957545161735075,1.4942353159452695
6.433419466018677,2.236924509201401,[2.23631401],5.0,0.6,0.0,2.433634682723906,0.14417394929848457,1.4955360707860277
6.449043273925781,2.2373153066348745,[2.23774078],5.0,0.6,0.0,2.2253815885631454,0.16578306718769809,1.496290839392864
6.463490009307861,2.237901502785084,[2.23915738],5.0,0.6,0.0,2.0336990986798966,0.17001451377118668,1.4966152762232958
6.479485511779785,2.238487698935294,[2.24056696],5.0,0.6,0.0,1.859367627267674,0.17429416959440694,1.4965687420452483
6.492456436157227,2.2388784963687676,[2.24197121],5.0,0.6,0.0,1.7014337518442235,0.17970102509070635,1.4959385428859142
6.503880739212036,2.239269293802241,[2.24337169],5.0,0.6,0.0,1.5583701336374882,0.18522651308842605,1.4948351958283181
6.511847257614136,2.2396600912357143,[2.24476705],5.0,0.6,0.0,1.7046147437888475,0.16251120193475269,1.492639031244095
6.522151470184326,2.239855489952451,[2.24615202],5.0,0.6,0.0,1.6197363909386067,0.1627783301238428,1.4901529458964669
6.532489776611328,2.240441686102661,[2.2475232],5.0,0.6,0.0,1.4571264943521252,0.17205116184030683,1.4884425297224029
6.545503377914429,2.2408324835361344,[2.24888169],5.0,0.6,0.0,1.5589357627804676,0.18602806391920648,1.4853198086765305
6.558479309082031,2.2414186796863445,[2.25023058],5.0,0.6,0.0,1.43179865251015,0.19639527236758947,1.4830663144562408
6.573502779006958,2.2420048758365545,[2.25157319],5.0,0.6,0.0,1.2379152754200917,0.20482105986590188,1.4807166431812742
6.58647608757019,2.2425910719867646,[2.25291244],5.0,0.6,0.0,1.0445224587561621,0.21186865932129845,1.4781077283226567
6.601433753967285,2.243177268136974,[2.25425087],5.0,0.6,0.0,1.1515363278891906,0.21776081127797325,1.4747872260489845
6.614465713500977,2.243763464287184,[2.25559063],5.0,0.6,0.0,1.0450917191002254,0.22301095515596447,1.471598963811311
6.628405809402466,2.244545059154131,[2.2569335],5.0,0.6,0.0,0.8775968554610631,0.22679718096247992,1.4691985971965067
6.640405178070068,2.2449358565876043,[2.25828093],5.0,0.6,0.0,0.9877750312647335,0.2319489884898507,1.4642828690283747
6.651132345199585,2.2455220527378144,[2.25963331],5.0,0.6,0.0,0.8785384123124392,0.22899666407472039,1.4603828930871652
6.659864902496338,2.246108248888025,[2.26098781],5.0,0.6,0.0,0.984901085780592,0.21175004866414876,1.4559642100298622
6.672691106796265,2.2466944450382345,[2.2623402],5.0,0.6,0.0,0.8526206507411382,0.22169196661908386,1.4516803449266344
6.681403398513794,2.2472806411884445,[2.26368806],5.0,0.6,0.0,0.9344373292895133,0.21542433487036255,1.4469334893602714
6.69311261177063,2.2480622360553912,[2.26503021],5.0,0.6,0.0,0.7823965018588175,0.22658421809570722,1.4435886202198192
6.705814361572266,2.2488438309223375,[2.26636728],5.0,0.6,0.0,0.8505909163710794,0.2345838323658522,1.4398952921266384
6.717918634414673,2.249430027072548,[2.26770058],5.0,0.6,0.0,0.69049868935651,0.23460725101281782,1.435062461328686
6.729288339614868,2.2500162232227576,[2.26902914],5.0,0.6,0.0,0.4790297026307827,0.23007229136327886,1.4300826472653583
6.73844051361084,2.250602419372968,[2.27034936],5.0,0.6,0.0,0.2854481503243784,0.21729993747063145,1.4249145419210927
6.750436782836914,2.2511886155231777,[2.27165726],5.0,0.6,0.0,0.1309814690353318,0.2255603540159119,1.4196087522818268
6.76344108581543,2.2519702103901245,[2.27295215],5.0,0.6,0.0,0.016886668030357183,0.23547470466191364,1.415716347404067
6.774425745010376,2.2525564065403345,[2.27423588],5.0,0.6,0.0,-0.0627330153485561,0.24289421320332524,1.4102799102386907
6.790442943572998,2.2533380014072812,[2.27551015],5.0,0.6,0.0,-0.11537117482570246,0.2468003651771675,1.4063481419216666
6.8044211864471436,2.2541195962742275,[2.27677603],5.0,0.6,0.0,-0.14793557920791836,0.24881107594686308,1.402414948868471
6.825056791305542,2.2554873872913843,[2.2780369],5.0,0.6,0.0,-0.16607377066644508,0.2756955485016151,1.4032835115392914
6.842519998550415,2.2562689821583315,[2.27929854],5.0,0.6,0.0,-0.17412757993843453,0.27187219417688663,1.3993372428101305
6.8554301261901855,2.2570505770252782,[2.28056261],5.0,0.6,0.0,-0.17531446342540422,0.2615447531915746,1.3953069183427806
6.871577739715576,2.258027570608961,[2.2818261],5.0,0.6,0.0,-0.1719609153859843,0.25217567599400975,1.3928839976230833
6.885432243347168,2.258809165475908,[2.28308514],5.0,0.6,0.0,0.11031936814075866,0.2450147584200123,1.3888073438732245
6.898424386978149,2.2595907603428547,[2.28433588],5.0,0.6,0.0,0.15141861452797478,0.2389296695394931,1.3847204983577701
6.910422086715698,2.2603723552098014,[2.28557451],5.0,0.6,0.0,0.3812700464470353,0.23339859077981057,1.3805993043943028
6.923449993133545,2.261349348793485,[2.2867973],5.0,0.6,0.0,0.34761430980667396,0.22747013226788457,1.3784273874942428
6.937413930892944,2.262130943660431,[2.28800068],5.0,0.6,0.0,0.5073708428128714,0.22270533688314625,1.3745308968048933
6.950443267822266,2.2631079372441145,[2.28918123],5.0,0.6,0.0,0.41692557558162835,0.21731446452898626,1.372745249323125
6.965449333190918,2.263694133394325,[2.29033578],5.0,0.6,0.0,0.25809682254089283,0.21406110606849438,1.3676102840600513
6.979490041732788,2.264671126978008,[2.29146138],5.0,0.6,0.0,0.10432888827674516,0.20903277946683946,1.3662749947419397
6.992427825927734,2.2652573231282185,[2.29255534],5.0,0.6,0.0,-0.019845501490473788,0.2060160935578012,1.3615375323906127
7.004458427429199,2.265843519278428,[2.29361526],5.0,0.6,0.0,-0.3866978495347049,0.20325712142980007,1.356943111614172
7.01943302154541,2.2664297154286377,[2.29463903],5.0,0.6,0.0,-0.7573501798213135,0.2006362264874677,1.3524390421540557
7.0334532260894775,2.267211310295585,[2.29562484],5.0,0.6,0.0,-1.3257523191563305,0.19730036310319438,1.3495890495499852
7.048449277877808,2.267602107729058,[2.29657127],5.0,0.6,0.0,-1.833924462701415,0.19697958473595673,1.3429896071382845
7.0631468296051025,2.2677975064457945,[2.2974774],5.0,0.6,0.0,-1.9281043870974788,0.19754036229216404,1.3357079810685
7.080434560775757,2.2681883038792683,[2.29834299],5.0,0.6,0.0,-2.123985738325799,0.2005651723220101,1.330370230021934
7.096900939941406,2.268383702596005,[2.29916844],5.0,0.6,0.0,-2.289909663400838,0.20096628855740395,1.3234513902507337
7.11195182800293,2.2681883038792683,[2.29995382],5.0,0.6,0.0,-2.6632211952081284,0.2000631253279628,1.3119984631672086
7.125399589538574,2.268383702596005,[2.30069853],5.0,0.6,0.0,-2.724385331318633,0.19805446728534837,1.306022567945579
7.139390468597412,2.268383702596005,[2.30140198],5.0,0.6,0.0,-2.640724196177953,0.19759486993578176,1.2989280934922915
7.151618719100952,2.2681883038792683,[2.3020639],5.0,0.6,0.0,-2.218597889338308,0.19835633654716034,1.2912713459559146
7.165209770202637,2.268383702596005,[2.30268435],5.0,0.6,0.0,-1.7410666208390655,0.19738580389347501,1.2880767944218228
7.1804399490356445,2.2681883038792683,[2.30326364],5.0,0.6,0.0,-1.0394947365715446,0.19829972168084495,1.2810748141426287
7.1933910846710205,2.268383702596005,[2.30380232],5.0,0.6,0.0,-0.3866064951986034,0.19730574205855164,1.2779922275285496
7.207423686981201,2.268383702596005,[2.30430117],5.0,0.6,0.0,0.1311961252438036,0.19727571058364182,1.2725724463184773
7.221417188644409,2.2681883038792683,[2.30476114],5.0,0.6,0.0,0.5055443243596007,0.1982348187152807,1.265089038463619
7.235401391983032,2.268383702596005,[2.30518335],5.0,0.6,0.0,0.7565075100839068,0.19727489535388404,1.26231049240985
7.2505292892456055,2.2681883038792683,[2.30556908],5.0,0.6,0.0,0.910979626087534,0.1982950610949123,1.2555712204176945
7.272026538848877,2.2681883038792683,[2.3059198],5.0,0.6,0.0,0.9941001600873571,0.19940022358322287,1.2514798306223043
7.287390232086182,2.268383702596005,[2.30623716],5.0,0.6,0.0,1.0265233813009405,0.1977429176991565,1.250045629710975
7.301405906677246,2.268383702596005,[2.30652265],5.0,0.6,0.0,1.024143375191167,0.19717189789733466,1.2467984472673515
7.3164098262786865,2.2681883038792683,[2.3067777],5.0,0.6,0.0,0.9987192105418334,0.19769168893575664,1.2416869084239492
7.330445766448975,2.2681883038792683,[2.30700378],5.0,0.6,0.0,0.9587207875996332,0.19730195876605702,1.2391511643829733
7.347858667373657,2.2681883038792683,[2.30720238],5.0,0.6,0.0,0.9101245043949504,0.1966641019762848,1.236935106384247
7.363213300704956,2.2681883038792683,[2.30737494],5.0,0.6,0.0,0.8570715099419006,0.19598104925619803,1.2350169587048294
7.380199909210205,2.2681883038792683,[2.30752282],5.0,0.6,0.0,0.8023786652936542,0.19489006591468316,1.2333781236054187
7.389721870422363,2.2681883038792683,[2.30764744],5.0,0.6,0.0,0.747920885382195,0.19524288478208285,1.2320012380758305
7.407215118408203,2.2681883038792683,[2.30775015],5.0,0.6,0.0,0.6949107238745744,0.19317562849435338,1.2308701036011136
7.42104959487915,2.268383702596005,[2.30783215],5.0,0.6,0.0,0.6440996974929414,0.1914901410048,1.2322322431301418
7.435429096221924,2.2681883038792683,[2.30789456],5.0,0.6,0.0,0.5959216912644717,0.19158122298921434,1.2292930441903238
7.446008920669556,2.268383702596005,[2.30793865],5.0,0.6,0.0,0.5505942784135567,0.1907461240016644,1.2310837188964534
7.461758613586426,2.2681883038792683,[2.30796558],5.0,0.6,0.0,0.5081898337309243,0.18904774131471647,1.22854191717955
7.4755284786224365,2.2681883038792683,[2.30797619],5.0,0.6,0.0,0.46868515128340926,0.18781808708585282,1.2284476253570367
7.489057540893555,2.2681883038792683,[2.30797122],5.0,0.6,0.0,0.4319958601252286,0.18641534759117495,1.228529760636826
7.5019989013671875,2.2681883038792683,[2.30795146],5.0,0.6,0.0,0.3980001399607651,0.18484546732701754,1.2287799402190656
7.511631488800049,2.2681883038792683,[2.30791786],5.0,0.6,0.0,0.3665549348079969,0.18655945663100876,1.2291873083355886
7.5268683433532715,2.268383702596005,[2.30787139],5.0,0.6,0.0,0.3375069252503248,0.1809570049674076,1.2320025653494588
7.541084289550781,2.2681883038792683,[2.3078123],5.0,0.6,0.0,0.31069985138722805,0.1790651242748105,1.2304382988572387
7.550955772399902,2.2681883038792683,[2.30774088],5.0,0.6,0.0,0.2859793046351259,0.1806521426695526,1.2312758166300704
7.562495708465576,2.2681883038792683,[2.3076581],5.0,0.6,0.0,0.2631957718400418,0.1794889813035407,1.232242610042864
7.574904203414917,2.2681883038792683,[2.3075647],5.0,0.6,0.0,0.2422064795081031,0.1769046091033092,1.2333299057074092
7.5854363441467285,2.2681883038792683,[2.30746092],5.0,0.6,0.0,0.22287642039426783,0.17438350039415446,1.2345347153070039
7.599438190460205,2.2681883038792683,[2.30734677],5.0,0.6,0.0,0.20507882856356008,0.17120094505829514,1.2358568541176547
7.61438775062561,2.2681883038792683,[2.30722206],5.0,0.6,0.0,0.18869528770309074,0.1681364036912965,1.2372982061857971
7.628954648971558,2.2681883038792683,[2.30708643],5.0,0.6,0.0,0.17361560056609032,0.16434463458197465,1.2388626606380235
7.650604486465454,2.2681883038792683,[2.30693842],5.0,0.6,0.0,0.1597375076772839,0.15080563220654913,1.2405664202029139
7.664104461669922,2.2681883038792683,[2.30677577],5.0,0.6,0.0,0.14696631569314184,0.15039346215533905,1.242434870820805
7.674881219863892,2.2681883038792683,[2.30659789],5.0,0.6,0.0,0.13521447648897117,0.15404702458016345,1.2444738875171004
7.691470146179199,2.2681883038792683,[2.30640515],5.0,0.6,0.0,0.12440114461087581,0.14583237024789253,1.2466782523287325
7.704858779907227,2.2681883038792683,[2.3061969],5.0,0.6,0.0,0.11445173141328437,0.14368605869841927,1.2490543559540317
7.719443321228027,2.2681883038792683,[2.3059725],5.0,0.6,0.0,0.10529746776139802,0.14098324571510845,1.2516082509849977
7.733370780944824,2.2681883038792683,[2.30573173],5.0,0.6,0.0,0.09687498274395054,0.13775724034291792,1.2543407478037345
7.747397422790527,2.2681883038792683,[2.30547432],5.0,0.6,0.0,0.08912590280717994,0.13407493278846572,1.2572534874035382
7.7603538036346436,2.2681883038792683,[2.30519987],5.0,0.6,0.0,0.08199647366068744,0.12998230095577729,1.2603489726634673
7.776480197906494,2.2681883038792683,[2.30490789],5.0,0.6,0.0,0.07543720592256997,0.12551198229715532,1.263630571750539
7.7958714962005615,2.2681883038792683,[2.30459656],5.0,0.6,0.0,0.06940254455712055,0.10731511881237021,1.2671163137747576
7.809664487838745,2.2681883038792683,[2.30426276],5.0,0.6,0.0,0.06385056156842024,0.10439015327036631,1.2708379042588718
7.8258655071258545,2.2679929051625316,[2.30390396],5.0,0.6,0.0,0.05874267104606527,0.0942123224133588,1.2726539142549127
7.838108539581299,2.2679929051625316,[2.30351892],5.0,0.6,0.0,0.05404336544456817,0.0986415232708825,1.2769165443278336
7.853666067123413,2.2677975064457945,[2.30310719],5.0,0.6,0.0,-0.22631838781214417,0.08764158312152803,1.2792652979526422
7.866841554641724,2.267602107729058,[2.30266771],5.0,0.6,0.0,-0.2634205357626338,0.08457528720466366,1.28193372725599
7.880756378173828,2.2674067090123216,[2.30219939],5.0,0.6,0.0,-0.4880209959434559,0.08073822552443649,1.2847955714550237
7.895495176315308,2.2668205128621115,[2.30170183],5.0,0.6,0.0,-0.7244655732767673,0.07816583927440261,1.2836133756394215
7.9094016551971436,2.2664297154286377,[2.30117451],5.0,0.6,0.0,-1.187144259439211,0.07429975397005256,1.284447773823962
7.923455476760864,2.265843519278428,[2.30061689],5.0,0.6,0.0,-1.6205156471605007,0.07108763098565818,1.283232763329672
7.937343120574951,2.265061924411482,[2.30002837],5.0,0.6,0.0,-2.218701693029448,0.0687717128914122,1.2794211650809262
7.955522060394287,2.2642803295445346,[2.29940706],5.0,0.6,0.0,-2.453639930111809,0.05291147278433294,1.276852994273785
7.965402841567993,2.263694133394325,[2.29875133],5.0,0.6,0.0,-2.2214920688792152,0.06612522579473283,1.278417315372475
7.978365182876587,2.263303335960851,[2.29806231],5.0,0.6,0.0,-2.1324310324755302,0.06012971567079725,1.281967495817155
7.9983015060424805,2.262130943660431,[2.29733852],5.0,0.6,0.0,-1.8047380185150665,0.03356501330108617,1.2780078079897959
8.009143590927124,2.261740146226958,[2.29657647],5.0,0.6,0.0,-1.1647719645329466,0.0486805691759225,1.2834870714768705
8.02164912223816,2.260958551360011,[2.29577715],5.0,0.6,0.0,-0.53187027834606,0.046880776199052364,1.2844791838894098
8.03236174583435,2.260567753926538,[2.2949435],5.0,0.6,0.0,-0.01511219562459426,0.050170811164378,1.2895133020973395
8.04538869857788,2.2597861590595913,[2.29407745],5.0,0.6,0.0,0.36624495741141594,0.04358931974526721,1.2903299059206332
8.06872034072876,2.258809165475908,[2.29317537],5.0,0.6,0.0,0.6271502125229409,-0.003457826916276534,1.2893243474898133
8.084431409835815,2.2578321718922245,[2.29222907],5.0,0.6,0.0,0.7921721554813084,0.003517751585533118,1.2888168921621739
8.099359035491943,2.2570505770252782,[2.29123598],5.0,0.6,0.0,0.8854594368985006,0.006985737462945392,1.2909934794763915
8.11142086982727,2.2564643808750677,[2.29019845],5.0,0.6,0.0,0.9272980605873811,0.007243043938241277,1.2958050448663359
8.126410245895386,2.2554873872913843,[2.28911876],5.0,0.6,0.0,0.6574549415811329,0.007993539592669458,1.297225863053294
8.140366077423096,2.2545103937077013,[2.28799912],5.0,0.6,0.0,0.3306310347392587,0.007709926859655753,1.2989948872126813
8.156278848648071,2.2533380014072812,[2.28684114],5.0,0.6,0.0,0.043588284097407726,0.00252179621486952,1.2989205268054291
8.170546054840088,2.252361007823598,[2.28564522],5.0,0.6,0.0,-0.17662987103525488,-0.004512522593494952,1.3012383932842613
8.18577766418457,2.2511886155231777,[2.28441086],5.0,0.6,0.0,-0.05533113880765274,-0.01141163483116835,1.3019200317745796
8.204216957092285,2.2500162232227576,[2.28313549],5.0,0.6,0.0,-0.1224851139862751,-0.03376688627962771,1.30300763024382
8.219327688217163,2.2488438309223375,[2.28181605],5.0,0.6,0.0,-0.23609178429793945,-0.025594796162879355,1.3045396180660607
8.23166036605835,2.2480622360553912,[2.28045408],5.0,0.6,0.0,-0.06419949399295695,-0.020714925386396736,1.3107057274480531
8.243085622787476,2.246889843754971,[2.27905485],5.0,0.6,0.0,-0.10830403927812651,-0.011339520560173021,1.31307801411026
8.25843071937561,2.2455220527378144,[2.27762268],5.0,0.6,0.0,-0.21228005354782142,-0.020728042616110387,1.3137262545023591
8.266828298568726,2.2443496604373943,[2.27616283],5.0,0.6,0.0,-0.31323187747670456,0.011441604294518626,1.3166823971332453
8.280458211898804,2.2427864707035012,[2.27468317],5.0,0.6,0.0,-0.6663086427183174,0.002100926413986774,1.3155562224849744
8.291155576705933,2.2414186796863445,[2.27318928],5.0,0.6,0.0,-1.3015277096327915,0.009527907834798077,1.315938301899428
8.303470849990845,2.2400508886691877,[2.27168476],5.0,0.6,0.0,-2.1673250021352524,0.0069888303318899935,1.3151314142988748
8.317440271377563,2.2382923002185575,[2.27017177],5.0,0.6,0.0,-2.3647823783185977,-0.001385754385147985,1.3119204337430883
8.33306336402893,2.2363383130511907,[2.26864924],5.0,0.6,0.0,-2.281140011432542,-0.010338473453484745,1.3076996282639937
8.350061178207397,2.2341889271670876,[2.2671122],5.0,0.6,0.0,-1.8194635371705987,-0.03641711731488358,1.3026421240641457
8.361735582351685,2.232625737433194,[2.26555526],5.0,0.6,0.0,-1.3019450479973562,-0.02196770098051318,1.3037738211741607
8.37807035446167,2.230280952832354,[2.26397642],5.0,0.6,0.0,-0.8491506023896207,-0.0348686840520921,1.2963229891684152
8.386434555053711,2.2291085605319343,[2.26237797],5.0,0.6,0.0,-0.49303843624677357,0.005408482094817228,1.3012386447326825
8.405166864395142,2.226177579780884,[2.26076262],5.0,0.6,0.0,-0.5058411741024673,-0.03352546747979317,1.2870472415961365
8.421422004699707,2.2236373964633076,[2.2591255],5.0,0.6,0.0,-0.6289318967639014,-0.03225769756560734,1.2770427949300858
8.435338973999023,2.2212926118624674,[2.25746159],5.0,0.6,0.0,-0.7566009304659449,-0.023565829426472576,1.2693629728877551
8.4503915309906,2.2187524285448905,[2.25577173],5.0,0.6,0.0,-1.1284462124327266,-0.015578969264861494,1.2593199172276015
8.464354038238525,2.2160168465105774,[2.25405766],5.0,0.6,0.0,-1.2186859285392289,-0.008025090239379721,1.2475928592270629
8.478345394134521,2.213085865759527,[2.252321],5.0,0.6,0.0,-1.4625172349146718,-0.0002600158397449867,1.233414469513913
8.491322994232178,2.2105456824419503,[2.2505633],5.0,0.6,0.0,-1.9679652380051225,0.005246664730375771,1.2230696393240064
8.507239580154419,2.207223904257427,[2.24878517],5.0,0.6,0.0,-2.161964754315849,0.006236480497593478,1.2044218187335285
8.527009963989258,2.2033159299226934,[2.24698214],5.0,0.6,0.0,-1.640797653375337,-0.01565033204340028,1.1809403631214712
8.538506984710693,2.2011665440385904,[2.24514898],5.0,0.6,0.0,-0.9686790790180813,0.011509372233059026,1.17846710784116
8.54855751991272,2.1992125568712235,[2.24329102],5.0,0.6,0.0,0.18804420895702767,0.039751881713065144,1.1779911572012107
8.568382501602173,2.1956953799699637,[2.2414135],5.0,0.6,0.0,1.278776259494352,0.0035110353039540087,1.1571271578275144
8.583403587341309,2.1933505953691235,[2.23951233],5.0,0.6,0.0,2.40171308653937,0.01616271870717791,1.1487225965150218
8.597347497940063,2.190810412051547,[2.23758706],5.0,0.6,0.0,3.2928412974428385,0.02746620086819499,1.1375703001566393
8.611307144165039,2.1886610261674435,[2.23564281],5.0,0.6,0.0,3.900498678307759,0.034812163393186074,1.131900445835205
8.623235702514648,2.18651164028334,[2.23368441],5.0,0.6,0.0,4.254617565396211,0.04070687811842826,1.1274945784072894
8.638333320617676,2.1841668556825,[2.23171645],5.0,0.6,0.0,4.408759058157099,0.04657210335803588,1.1219698389190902
8.650335311889648,2.1822128685151334,[2.2297432],5.0,0.6,0.0,4.416315837622079,0.049818286556804765,1.1221546904192738
8.665342330932617,2.18006348263103,[2.22776867],5.0,0.6,0.0,4.046202401577235,0.05368226013335211,1.1223085887018254
8.678408145904541,2.1785002928971364,[2.22579655],5.0,0.6,0.0,3.5762462801678603,0.05437956266179837,1.1298658960818808
8.692304849624634,2.1767417044465067,[2.22383022],5.0,0.6,0.0,3.1205175217768426,0.05578600853855049,1.134611924117765
8.70533800125122,2.1749831159958766,[2.22187272],5.0,0.6,0.0,2.9945505877894276,0.05684634068713478,1.1375813448994734
8.72034764289856,2.1730291288285097,[2.21992677],5.0,0.6,0.0,2.962766071664084,0.058624833679880264,1.13762333438902
8.739418506622314,2.170879742944406,[2.21799281],5.0,0.6,0.0,2.931794159294174,0.04352149747050035,1.1351537939664496
8.757883071899414,2.1687303570603027,[2.21606614],5.0,0.6,0.0,2.595748679093587,0.022738149314237177,1.1338276854265912
8.771004676818848,2.1671671673264097,[2.2141416],5.0,0.6,0.0,2.1941691671405166,0.034069305260447026,1.1396161685801771
8.780811786651611,2.1659947750259896,[2.21222244],5.0,0.6,0.0,1.8214577742285285,0.061188656770139904,1.1497394447568858
8.790761470794678,2.1648223827255695,[2.21031915],5.0,0.6,0.0,1.230961227331636,0.08074419637878376,1.159880085004455
8.811431884765625,2.1622821994079926,[2.20843607],5.0,0.6,0.0,0.6677606700340465,0.03684878005580607,1.1527610787137914
8.825840950012207,2.1607190096740996,[2.20656775],5.0,0.6,0.0,0.4883827589122388,0.04373045411434694,1.1565924461497048
8.83400011062622,2.159742016090416,[2.2047147],5.0,0.6,0.0,0.18477859018654574,0.07411008177773475,1.1672793299595519
8.852428197860718,2.1577880289230493,[2.20288167],5.0,0.6,0.0,0.17267937516669668,0.043323531687046814,1.165830153562088
8.864821195602417,2.1566156366226297,[2.20106755],5.0,0.6,0.0,0.25467145359193755,0.054139513088554844,1.1735006979488805
8.876786947250366,2.155247845605473,[2.19927284],5.0,0.6,0.0,0.3483263761625835,0.060573905482990596,1.1785663160246211
8.886090755462646,2.1544662507385257,[2.19750266],5.0,0.6,0.0,0.4237623827456739,0.07608804006816564,1.1903061596468887
8.904246091842651,2.1529030610046327,[2.19575886],5.0,0.6,0.0,0.19787554885835895,0.04158480874733233,1.192556107094023
8.919442892074585,2.1511444725540025,[2.19403593],5.0,0.6,0.0,0.1915451118705683,0.033826801942078585,1.192134541567347
8.93315577507019,2.149972080253583,[2.19232836],5.0,0.6,0.0,-0.021222283309058745,0.035979859901840355,1.1985061140857503
8.94717788696289,2.1484088905196894,[2.19063507],5.0,0.6,0.0,0.01625645313607476,0.038537254665858604,1.2000452663837646
8.956207275390625,2.1476272956527427,[2.18895913],5.0,0.6,0.0,-0.42507831275518887,0.06698802873883458,1.2104523784955799
8.973998546600342,2.1458687072021125,[2.18730285],5.0,0.6,0.0,-0.6555981214476769,0.0297703616053987,1.209064622203364
8.986016511917114,2.1445009161849558,[2.18566271],5.0,0.6,0.0,-0.766569572813238,0.04209774830890617,1.21214587860553
9.00093126296997,2.1431331251677994,[2.18403546],5.0,0.6,0.0,-0.8087630424863,0.02936916103755231,1.2151375065164889
9.01534390449524,2.1413745367171693,[2.18241896],5.0,0.6,0.0,-0.8110880863066616,0.03220820916198201,1.2134700866225379
9.029546022415161,2.1400067457000125,[2.18081121],5.0,0.6,0.0,-0.7904006816409042,0.032395978376986906,1.2163047981633706
9.043012619018555,2.138443555966119,[2.17921137],5.0,0.6,0.0,-0.7567490672694244,0.032891032529811126,1.216772119375504
9.055764198303223,2.1368803662322255,[2.17761856],5.0,0.6,0.0,-0.7162357952960372,0.03291201378834496,1.2171629074723649
9.070386409759521,2.135512575215069,[2.17603178],5.0,0.6,0.0,-0.9486541213849148,0.03174209098985692,1.2194333996679647
9.084318161010742,2.1335585880477024,[2.17444996],5.0,0.6,0.0,-0.9373747309576627,0.033051530731014495,1.215098824421632
9.098314046859741,2.1319953983138094,[2.17287195],5.0,0.6,0.0,-1.114557622900581,0.032268069312737964,1.2150020804466588
9.11231517791748,2.130236809863179,[2.17129652],5.0,0.6,0.0,-1.305385928822718,0.03219272146682218,1.2125134844328782
9.126314163208008,2.1286736201292857,[2.16972234],5.0,0.6,0.0,-1.4486860487751039,0.030885524899415595,1.2123494043524674
9.141669750213623,2.126719632961919,[2.16814715],5.0,0.6,0.0,-1.5320708374689689,0.023564579044343666,1.207718088295426
9.156954050064087,2.1249610445112888,[2.16656687],5.0,0.6,0.0,-1.2858965699174478,0.014985949920213851,1.2061353444790612
9.166313171386719,2.1237886522108687,[2.16497935],5.0,0.6,0.0,-1.240984997929365,0.032569414488564256,1.211098917810018
9.180292129516602,2.1220300637602385,[2.16338626],5.0,0.6,0.0,-0.9784830329366239,0.02886097808455345,1.2095884407420707
9.19229793548584,2.120662272743082,[2.16178781],5.0,0.6,0.0,-0.684050538349755,0.023323540256907048,1.2126603253960155
9.206321239471436,2.118903684292452,[2.1601819],5.0,0.6,0.0,-0.42706998074489094,0.01988138012078167,1.2110808350991977
9.222500085830688,2.116754298408349,[2.15856571],5.0,0.6,0.0,-0.22585041302421588,0.01226259091893187,1.2049047206414778
9.23580002784729,2.1153865073911917,[2.15693575],5.0,0.6,0.0,-0.3541457566355724,0.008922996149476036,1.2079372997895124
9.24739933013916,2.1138233176572987,[2.15529016],5.0,0.6,0.0,-0.28388067765136615,0.012381233671736581,1.2089399545455197
9.265769720077515,2.1112831343397223,[2.15362555],5.0,0.6,0.0,-0.4356612991452612,-0.012782698822728651,1.198529201423717
9.276558637619019,2.1101107420393017,[2.15193713],5.0,0.6,0.0,-0.6248743825195233,0.004468257301973094,1.20447544270056
9.297777891159058,2.1073751600049886,[2.15021902],5.0,0.6,0.0,-0.5066533805092421,-0.04019155280037845,1.192535915235785
9.30598497390747,2.1062027677045685,[2.14846563],5.0,0.6,0.0,-0.3058207528209588,0.0012026611828033044,1.1995420628902032
9.31707239151001,2.1048349766874117,[2.14668198],5.0,0.6,0.0,-0.3889138915699999,0.009359832239858054,1.2044104241382694
9.328257083892822,2.1032717869535182,[2.14487649],5.0,0.6,0.0,-0.26693810437195664,0.010123347838714712,1.2073248309504296
9.343637704849243,2.1009270023526785,[2.14305068],5.0,0.6,0.0,-0.37494062501285874,-0.0023385307381076676,1.2011523734643959
9.359529972076416,2.098777616468575,[2.14120059],5.0,0.6,0.0,-0.2559380346772766,-0.02025166184206208,1.1976681715079822
9.371338367462158,2.097019028017945,[2.13932221],5.0,0.6,0.0,-0.35941739403359274,-0.008682258693838582,1.1990386121034657
9.38229250907898,2.095455838284052,[2.13741761],5.0,0.6,0.0,-0.5105618541845631,-0.0013284021062147642,1.2029749308259876
9.39429235458374,2.0936972498334216,[2.13549069],5.0,0.6,0.0,-0.36617192743383936,-0.007291504886075541,1.205054687720712
9.408349514007568,2.091547863949318,[2.13354229],5.0,0.6,0.0,-0.14965995105422905,-0.010009143687998696,1.2027668802821876
9.423277616500854,2.0895938767819517,[2.13157204],5.0,0.6,0.0,0.050733969206419996,-0.01261228312401313,1.2029736182483646
9.436351537704468,2.0880306870480583,[2.12957994],5.0,0.6,0.0,0.2072542229167775,-0.01638181164586969,1.2079985515208822
9.449299097061157,2.0860766998806914,[2.12756633],5.0,0.6,0.0,0.31742125711795627,-0.01766603792878078,1.2086569302918777
9.462291955947876,2.084513510146798,[2.12553187],5.0,0.6,0.0,0.6639601227322199,-0.020602227673584845,1.2139369991227558
9.474031448364258,2.0829503204129045,[2.12347748],5.0,0.6,0.0,0.7367624524433112,-0.023174531945392134,1.2196060742402866
9.489339113235474,2.080996333245538,[2.12140436],5.0,0.6,0.0,0.9747863851978591,-0.02370397698534744,1.2206930468754391
9.50329041481018,2.079237744794908,[2.11931388],5.0,0.6,0.0,1.2090896902866575,-0.025077754499200133,1.2241771392831051
9.517282247543335,2.077283757627541,[2.11720761],5.0,0.6,0.0,1.3831682490167512,-0.02540662915111547,1.2256113339827792
9.53124737739563,2.0755251691769114,[2.11508725],5.0,0.6,0.0,1.4881814942724447,-0.026626399110922568,1.2295809139460019
9.546717166900635,2.0737665807262813,[2.11295357],5.0,0.6,0.0,1.5331450140595067,-0.03607246386144008,1.2338127360138795
9.568711996078491,2.071421796125441,[2.11080075],5.0,0.6,0.0,1.8078700729961275,-0.07445908927868573,1.230916905417264
9.582432508468628,2.069663207674811,[2.10861957],5.0,0.6,0.0,1.8066477857862888,-0.06286064498503016,1.2357915850358425
9.594670295715332,2.068100017940918,[2.10641043],5.0,0.6,0.0,1.4190845545790614,-0.0492312298469357,1.2441244086447962
9.608341455459595,2.066146030773551,[2.10418005],5.0,0.6,0.0,0.6876891790004134,-0.04926299877916715,1.248422593491521
9.621854543685913,2.0636058474559746,[2.10193308],5.0,0.6,0.0,-0.5757840152112704,-0.04031992296709654,1.2451822941614634
9.635170698165894,2.0610656641383978,[2.09967454],5.0,0.6,0.0,-2.315693671297378,-0.026428230437225624,1.238229688139004
9.646009922027588,2.0589162782542942,[2.09741216],5.0,0.6,0.0,-3.8506447093951244,-0.008580498473480733,1.2325833516776412
9.659514427185059,2.0559852975032444,[2.09515339],5.0,0.6,0.0,-5.0,-0.008131210912512805,1.2175092299920518
9.668993949890137,2.0536405129024042,[2.0929046],5.0,0.6,0.0,-5.0,0.016727277365038224,1.2164021848851576
9.681618690490723,2.0505141334346177,[2.09067304],5.0,0.6,0.0,-5.0,0.021809575662852947,1.2060335470012316
9.695020914077759,2.047387753966831,[2.08846306],5.0,0.6,0.0,-5.0,0.02084618314453996,1.1953296509985312
9.70854377746582,2.044261374499044,[2.08627477],5.0,0.6,0.0,-4.706552181570787,0.021944197803886546,1.186338875809609
9.722797393798828,2.0411349950312574,[2.08410692],5.0,0.6,0.0,-3.633428133141141,0.02026759307699775,1.1814745932662916
9.735272884368896,2.038204014280207,[2.08195855],5.0,0.6,0.0,-2.4695407702552927,0.030430837994556943,1.1773672925478427
9.748278856277466,2.0356638309626307,[2.07983061],5.0,0.6,0.0,-1.191893370141135,0.037168523246105804,1.1759051107520162
9.761887788772583,2.0327328502115805,[2.07772375],5.0,0.6,0.0,0.446011195737938,0.033916254547245395,1.166938055926032
9.777472734451294,2.0294110720270573,[2.0756351],5.0,0.6,0.0,1.6073262074487138,0.02710095832122655,1.1503274107382222
9.788866996765137,2.0272616861429538,[2.07356193],5.0,0.6,0.0,2.3752416160029,0.042964089270410184,1.1471454934002994
9.801243782043457,2.024330705391904,[2.07150557],5.0,0.6,0.0,2.842075525323285,0.050516251210815745,1.1347874720941786
9.81597352027893,2.0213997246408537,[2.06946712],5.0,0.6,0.0,3.3651962024943707,0.049085306628313646,1.1216031698672404
9.83100938796997,2.0184687438898035,[2.06744402],5.0,0.6,0.0,3.4906275761422516,0.04398864864314424,1.1099710994992937
9.842961072921753,2.0165147567224366,[2.06543408],5.0,0.6,0.0,3.4222835021488773,0.05719007260715235,1.1109949969929884
9.856364488601685,2.01397457340486,[2.06343822],5.0,0.6,0.0,3.2634617060479285,0.059920232690991275,1.1051712512629592
9.867260217666626,2.0124113836709667,[2.06145766],5.0,0.6,0.0,3.3425590438936568,0.06202985030508035,1.1098503208627784
9.879225969314575,2.0100665990701265,[2.05949278],5.0,0.6,0.0,3.16708878047408,0.06325119371718001,1.1060799489394488
9.895290613174438,2.0073310170358134,[2.05754345],5.0,0.6,0.0,3.1810203938098,0.06692423243603174,1.0964776772054672
9.9107084274292,2.004790833718237,[2.0556085],5.0,0.6,0.0,2.939081800522552,0.06440166139551154,1.090223647765667
9.924729824066162,2.0026414478341334,[2.0536861],5.0,0.6,0.0,2.625452351821016,0.0658852204552823,1.088755329495419
9.937934160232544,2.0006874606667666,[2.05177538],5.0,0.6,0.0,2.3168226147074975,0.0705177502841418,1.089355846473995
9.950651407241821,1.9985380747826633,[2.04987711],5.0,0.6,0.0,2.3166789230791522,0.07690515890586437,1.0863119148267952
9.963355541229248,1.9967794863320332,[2.04799255],5.0,0.6,0.0,2.388094892429425,0.07804178711123849,1.087590947036716
9.977858066558838,1.9946301004479299,[2.04612187],5.0,0.6,0.0,2.1642885400503915,0.07503357335872529,1.0849651296301364
9.993550300598145,1.99228531584709,[2.04426284],5.0,0.6,0.0,1.8619723445459373,0.06697038079083718,1.0799803332977886
10.003260135650635,1.9907221261131967,[2.0424141],5.0,0.6,0.0,1.569472388566448,0.08464810399746013,1.0841834341246854
10.015270471572876,1.9889635376625665,[2.04057774],5.0,0.6,0.0,1.3168745846872498,0.08258282253318305,1.0856668919560932
10.028265237808228,1.9872049492119364,[2.03875494],5.0,0.6,0.0,1.1093163615051749,0.08081390620208434,1.0868190381162672
10.04146146774292,1.9854463607613064,[2.03694487],5.0,0.6,0.0,0.9423851493741129,0.07934785367575363,1.0876975413096899
10.05478024482727,1.9834923735939396,[2.03514661],5.0,0.6,0.0,0.8089441433138854,0.0790232485519774,1.0859841674334465
10.06926965713501,1.9817337851433097,[2.03335915],5.0,0.6,0.0,0.7019334450401105,0.07783280158705924,1.0864541797067964
10.084266185760498,1.9799751966926797,[2.03158145],5.0,0.6,0.0,1.167418856562497,0.07635572546339131,1.0860389242331132
10.107191324234009,1.9770442159416295,[2.02980668],5.0,0.6,0.0,1.1627200416138963,0.03168112942477605,1.0720485625272833
10.122357368469238,1.9752856274909993,[2.02802317],5.0,0.6,0.0,0.9935620400824714,0.04380441621739414,1.0726209366919432
10.138277053833008,1.973331640323633,[2.02622678],5.0,0.6,0.0,0.5156270966026888,0.05386251580581799,1.0712516481738388
10.152318477630615,1.9715730518730028,[2.02441974],5.0,0.6,0.0,0.022886091917466433,0.06020758050476959,1.0720350088531811
10.168423652648926,1.969619064705636,[2.02260275],5.0,0.6,0.0,-0.38127630668872214,0.05430462918288563,1.0702708671231345
10.186777353286743,1.9674696788215327,[2.0207718],5.0,0.6,0.0,-0.6755502227220187,0.033754276653701336,1.066191586727192
10.202517986297607,1.9655156916541656,[2.01892049],5.0,0.6,0.0,-0.5943830409691863,0.03798223628614752,1.0650281541813122
10.217231512069702,1.9637571032035361,[2.0170474],5.0,0.6,0.0,-0.6766513534493015,0.04935422892904397,1.0663332407167663
10.231241941452026,1.9621939134696424,[2.01515621],5.0,0.6,0.0,-0.7877950994598139,0.056801662711490765,1.0701758264356926
10.244248628616333,1.9604353250190127,[2.01325147],5.0,0.6,0.0,-0.877665882131585,0.06296778179246489,1.071831617274088
10.258252620697021,1.9586767365683826,[2.01133739],5.0,0.6,0.0,-0.9330793313150708,0.06755408954071158,1.0736376873677953
10.271231651306152,1.9571135468344893,[2.00941784],5.0,0.6,0.0,-0.9556720117946951,0.07005884754009402,1.0779183773674101
10.285226583480835,1.9553549583838592,[2.00749636],5.0,0.6,0.0,-1.2279740909976953,0.07289500165224787,1.0794486164954966
10.297494649887085,1.9539871673667024,[2.00557619],5.0,0.6,0.0,-1.2381711527703954,0.07315279674688342,1.0861213342335778
10.31224536895752,1.9522285789160723,[2.00366024],5.0,0.6,0.0,-1.1471749033604977,0.07483256587557852,1.0881897913647007
10.326269149780273,1.950665389182179,[2.00175106],5.0,0.6,0.0,-1.0271175962973267,0.07514845326264231,1.0925781378964816
10.339209794998169,1.9491021994482856,[1.99985087],5.0,0.6,0.0,-0.632149746177558,0.07489903863900088,1.097152129529041
10.35093879699707,1.9477344084311288,[1.99796187],5.0,0.6,0.0,-0.492157155440878,0.07707596200553464,1.1035911175489614
10.359193086624146,1.9469528135641823,[1.99608899],5.0,0.6,0.0,-0.17892094492155178,0.09788059580742955,1.1169845223269261
10.37321162223816,1.9453896238302888,[1.99423791],5.0,0.6,0.0,-0.14330647717050754,0.0820942460362396,1.1204839350473994
10.38319444656372,1.9444126302466056,[1.99241211],5.0,0.6,0.0,0.07390507794114973,0.10042973563328424,1.1307810649050896
10.395301580429077,1.943044839229449,[1.99061471],5.0,0.6,0.0,0.03139547909777947,0.08633582497502115,1.1359853840263445
10.409842491149902,1.9414816494955554,[1.98884537],5.0,0.6,0.0,0.1889941063906188,0.07397616544321625,1.1384537156554753
10.422290325164795,1.939918459761662,[1.98710036],5.0,0.6,0.0,0.10277755435831434,0.06836215927968037,1.1406713689704793
10.436837911605835,1.9385506687445055,[1.98537583],5.0,0.6,0.0,0.22923868849581341,0.056247005855930475,1.1449516779694688
10.456988334655762,1.9364012828604023,[1.98366279],5.0,0.6,0.0,0.39740355783194653,0.01316894824697673,1.1395990472504076
10.473199129104614,1.934642694409772,[1.98194755],5.0,0.6,0.0,0.2662385023554815,0.012269652608867464,1.1391395702891698
10.48711609840393,1.9330795046758789,[1.98022197],5.0,0.6,0.0,0.060415709601632145,0.01724524615492686,1.1411533300672756
10.499910593032837,1.9317117136587219,[1.97848414],5.0,0.6,0.0,-0.1310655324475194,0.018340905441225186,1.1456151433182842
10.509889364242554,1.9307347200750387,[1.97673533],5.0,0.6,0.0,-0.2799745727910337,0.03670506823513645,1.1548819090755997
10.51787543296814,1.9297577264913552,[1.97498238],5.0,0.6,0.0,-0.3835229516465908,0.06045827778700618,1.164168932148109
10.5282461643219,1.928780732907672,[1.97323247],5.0,0.6,0.0,-0.4481887301007251,0.04529933118825212,1.1734016596637586
10.543230533599854,1.927022144457042,[1.97148557],5.0,0.6,0.0,-0.48266954855808863,0.03129466386891692,1.1732377280309516
10.55721664428711,1.9256543534398853,[1.9697369],5.0,0.6,0.0,-0.771125779485579,0.01848509355110084,1.177526203622084
10.570199489593506,1.9240911637059919,[1.96798127],5.0,0.6,0.0,-0.8012635403197309,0.008536873473521544,1.179790409831269
10.584317445755005,1.9225279739720984,[1.96621369],5.0,0.6,0.0,-1.0089197764201483,3.2461043116406726e-05,1.1819505928958878
10.597238540649414,1.9209647842382052,[1.96442941],5.0,0.6,0.0,-1.2221752393802139,-0.007545740517102956,1.1842330205598521
10.611295461654663,1.919206195787575,[1.96262393],5.0,0.6,0.0,-1.3820490125540887,-0.013558693246118393,1.184482578854741
10.628288745880127,1.9170568099034717,[1.96079062],5.0,0.6,0.0,-1.201734916884455,-0.03531220235713792,1.181060018938151
10.640901803970337,1.9156890188863152,[1.95892175],5.0,0.6,0.0,-0.9317191866218428,-0.03346734740740697,1.187459260166728
10.651214122772217,1.9145166265858953,[1.95701526],5.0,0.6,0.0,-0.6729418885306983,-0.025503856457333333,1.1964839366731614
10.664188623428345,1.9129534368520016,[1.9550729],5.0,0.6,0.0,-0.7349141092524176,-0.034170879625437155,1.2009049052675285
10.676302671432495,1.9111948484013719,[1.95309355],5.0,0.6,0.0,-0.6035356241050378,-0.04122247078248315,1.2036420784371749
10.68934440612793,1.9090454625172686,[1.95107432],5.0,0.6,0.0,-0.979694415713915,-0.0454536444804202,1.2016630671749646
10.700828552246094,1.9070914753499015,[1.9490143],5.0,0.6,0.0,-1.7120920667227308,-0.03804618113013686,1.2014512788296334
10.712737560272217,1.9045512920323246,[1.94691538],5.0,0.6,0.0,-2.3994979719659857,-0.03541304305340451,1.1941463507571095
10.725428819656372,1.9020111087147482,[1.9447792],5.0,0.6,0.0,-3.4650921567702797,-0.03576885680093043,1.1847678094853729
10.737293481826782,1.899080127963698,[1.9426069],5.0,0.6,0.0,-4.132380606920482,-0.026502800759591546,1.1720515693765314
10.746197938919067,1.8971261407963316,[1.94040366],5.0,0.6,0.0,-4.49504123770047,-0.004871063046005473,1.1727550360386882
10.761100053787231,1.8936089638950713,[1.93817497],5.0,0.6,0.0,-5.0,-0.01986091791724481,1.1539142494585413
10.776399612426758,1.8900917869938112,[1.93591683],5.0,0.6,0.0,-5.0,-0.03745559366454526,1.138787540499254
10.792705535888672,1.885988413942341,[1.93361708],5.0,0.6,0.0,-4.548959879804821,-0.04915393331983529,1.1201055505370616
10.806047201156616,1.8828620344745544,[1.93126559],5.0,0.6,0.0,-3.955594177095859,-0.039847912140716334,1.114377095629218
10.816749572753906,1.880126452440241,[1.9288641],5.0,0.6,0.0,-2.8295952708496515,-0.009345121208617933,1.1159157734084144
10.838205814361572,1.8738736935046676,[1.92641338],5.0,0.6,0.0,-1.9881114816796672,-0.04062358744973012,1.0728151345151529
10.852175235748291,1.8695749217364608,[1.92390162],5.0,0.6,0.0,-1.3742661423704177,-0.0250726595143666,1.0527692411183076
10.865209817886353,1.8660577448352007,[1.92132347],5.0,0.6,0.0,-1.2098981643552833,-0.014494817701357314,1.041795254358636
10.881203413009644,1.8615635743502574,[1.91868349],5.0,0.6,0.0,-1.759049753884867,-0.0003310230571762281,1.018424966193389
10.89419436454773,1.8576556000155238,[1.91598635],5.0,0.6,0.0,-1.8604305257492126,0.009605541253106482,1.0037962226346056
10.908198595046997,1.853552226964054,[1.91323675],5.0,0.6,0.0,-2.0520799410408577,0.0195661085161559,0.9873169569932478
10.923807382583618,1.8484718603289005,[1.91043795],5.0,0.6,0.0,-1.3836424322821146,0.02562619545030957,0.96253579215663
10.939486980438232,1.8439776898439573,[1.90758906],5.0,0.6,0.0,-0.27261799177726176,0.02388691346838817,0.9451226282027907
10.955598831176758,1.8396789180757502,[1.90468605],5.0,0.6,0.0,1.049134572633951,0.02608995600125932,0.9286590577298133
10.967525720596313,1.8361617411744904,[1.90173059],5.0,0.6,0.0,2.175018990833268,0.047778953679930534,0.9197143967572822
10.983721733093262,1.832253766839757,[1.89872873],5.0,0.6,0.0,3.5498923179618425,0.035602177763404456,0.9039229569104957
10.993159055709839,1.829908982238917,[1.89568692],5.0,0.6,0.0,4.149038714438287,0.06306013968562497,0.9082535648952654
11.001277923583984,1.8275641976380768,[1.89262084],5.0,0.6,0.0,4.610813119019661,0.0807527183286265,0.9133471508379876
11.015224695205688,1.8240470207368165,[1.8895469],5.0,0.6,0.0,5.0,0.0729370904403355,0.9057214404804341
11.036085844039917,1.8191620528184,[1.8864643],5.0,0.6,0.0,5.0,0.040021666089966074,0.8859024972033634
11.045824766159058,1.8168172682175598,[1.88336667],5.0,0.6,0.0,5.0,0.06432618959812467,0.8941307820163529
11.06467604637146,1.8125184964493533,[1.88025385],5.0,0.6,0.0,5.0,0.03840502339567078,0.881202457479416
11.079881191253662,1.8099783131317762,[1.87712051],5.0,0.6,0.0,4.980785168434603,0.0333032008467763,0.8877832099358202
11.095188856124878,1.8070473323807266,[1.87396213],5.0,0.6,0.0,4.964042388946668,0.037943684012687356,0.8903850642566598
11.108109951019287,1.8045071490631495,[1.87078289],5.0,0.6,0.0,4.891708229663052,0.039362736110182386,0.8979086852156739
11.12217664718628,1.8017715670288363,[1.86758854],5.0,0.6,0.0,4.480478277914435,0.04067549744198914,0.9057505763745941
11.136157989501953,1.7992313837112597,[1.86438434],5.0,0.6,0.0,4.536568551846745,0.03991840269815474,0.9127626497265637
11.152336359024048,1.7963004029602097,[1.86117438],5.0,0.6,0.0,3.5738865250642915,0.03712809262518372,0.921547610478137
11.165834188461304,1.7939556183593695,[1.85796174],5.0,0.6,0.0,2.9752594835968806,0.035759507527428104,0.934168705710064
11.180181741714478,1.791220036325056,[1.85474935],5.0,0.6,0.0,2.5718941714766252,0.03190922027202804,0.941208019398644
11.192842245101929,1.7892660491576893,[1.85154063],5.0,0.6,0.0,2.001141455772557,0.03268690361241177,0.9574439652403546
11.209845066070557,1.7861396696899028,[1.84833665],5.0,0.6,0.0,1.7369576743077197,0.015245913595559235,0.959065496308322
11.22017526626587,1.7845764799560093,[1.84513813],5.0,0.6,0.0,1.3248021563758479,0.030488824187412326,0.9788999103990446
11.232175350189209,1.782427094071906,[1.84195258],5.0,0.6,0.0,0.927411661832103,0.03161425009616358,0.9916652500756873
11.246150970458984,1.7802777081878027,[1.83878762],5.0,0.6,0.0,0.5991507588407259,0.0242740665141541,1.0039834358306616
11.260384798049927,1.778128322303699,[1.83564469],5.0,0.6,0.0,0.07229098711276283,0.01335493452823152,1.0160074905822682
11.276632308959961,1.7755881389861226,[1.83252018],5.0,0.6,0.0,-0.14324339588670698,-0.005555115883672249,1.0229441433423783
11.291969537734985,1.7734387531020193,[1.82940644],5.0,0.6,0.0,0.060177809483604405,-0.01767895290294845,1.0344690618901495
11.301761150360107,1.7718755633681256,[1.82630207],5.0,0.6,0.0,-0.19294616778257795,0.0038287600560877842,1.0529437822216599
11.314743757247925,1.7701169749174959,[1.82321474],5.0,0.6,0.0,0.009407935193627343,-0.004683924675386172,1.06900008689904
11.326216459274292,1.768749183900339,[1.82014966],5.0,0.6,0.0,0.04382744554141625,-0.010901012141754797,1.0895449930041852
11.339194536209106,1.766990595449709,[1.81710697],5.0,0.6,0.0,0.017106380750297794,-0.023564469110190046,1.1051187492276573
11.354783535003662,1.7648412095656056,[1.81408377],5.0,0.6,0.0,-0.024430223494242957,-0.03759808667597072,1.1157177102715092
11.367150783538818,1.763473418548449,[1.81107566],5.0,0.6,0.0,0.2134860457242565,-0.04494869385871421,1.135560434857822
11.382750511169434,1.7613240326643456,[1.80807801],5.0,0.6,0.0,0.21758185681899214,-0.06192863176020269,1.1458154256832476
11.394181966781616,1.759760842930452,[1.8050861],5.0,0.6,0.0,-0.13304006567065113,-0.06253179222792617,1.1630560961605778
11.41157054901123,1.7570252608961388,[1.80209393],5.0,0.6,0.0,-0.8057048119920408,-0.0841519850764969,1.1656693221836214
11.421181678771973,1.7554620711622455,[1.79909575],5.0,0.6,0.0,-1.7206309477209962,-0.0731239658575818,1.1811294528053244
11.437417268753052,1.7525310904111955,[1.79608932],5.0,0.6,0.0,-2.7951200733567227,-0.08893116097316066,1.1784460443099498
11.45033311843872,1.7499909070936184,[1.79307054],5.0,0.6,0.0,-3.959332466670009,-0.08773205939462027,1.1783916147460194
11.46738076210022,1.7462783314756218,[1.79003223],5.0,0.6,0.0,-5.0,-0.09573986040828955,1.1636262848827243
11.486196517944336,1.741588762273942,[1.7869598],5.0,0.6,0.0,-5.0,-0.09691797488895239,1.1442509452483005
11.500138521194458,1.7378761866559451,[1.78383599],5.0,0.6,0.0,-5.0,-0.09130325308092188,1.1371640683548678
11.511460781097412,1.7345544084714217,[1.78065728],5.0,0.6,0.0,-5.0,-0.08458112302416158,1.1354397286348696
11.524942874908447,1.730255636703215,[1.77742817],5.0,0.6,0.0,-5.0,-0.07892834497171239,1.1225245904479602
11.540128707885742,1.7259568649350083,[1.77415006],5.0,0.6,0.0,-5.0,-0.07235774858784039,1.1101707905547649
11.552832841873169,1.7218534918835382,[1.77082351],5.0,0.6,0.0,-5.0,-0.06635853372014802,1.1007552526144357
11.567209243774414,1.7173593213985947,[1.76745058],5.0,0.6,0.0,-5.0,-0.05905968380533265,1.0871556698160965
11.58215594291687,1.7120835560467045,[1.76403373],5.0,0.6,0.0,-4.932370148845475,-0.04852168470172468,1.0650998510625302
11.595224857330322,1.707589385561761,[1.76057529],5.0,0.6,0.0,-4.548715396061108,-0.04228930811259362,1.0551847188191212
11.608123064041138,1.7030952150768177,[1.75707756],5.0,0.6,0.0,-3.805572083549607,-0.03656902053966299,1.0476570398919751
11.622156858444214,1.6984056458751378,[1.75354276],5.0,0.6,0.0,-3.0422038191805303,-0.03020402404021503,1.0375853910485713
11.635160684585571,1.6937160766734578,[1.74997308],5.0,0.6,0.0,-2.1048182850345913,-0.024181294269532378,1.0277252474481966
11.645732402801514,1.6901988997721975,[1.74637345],5.0,0.6,0.0,-1.2642446220878614,-0.015637799071849808,1.0308094222045223
11.65727710723877,1.6855093305705175,[1.74275245],5.0,0.6,0.0,-0.5993824421619993,-0.00790697573564214,1.0189903100438593
11.66707444190979,1.682773748536204,[1.73912128],5.0,0.6,0.0,0.16580777502981947,0.006619368957690794,1.0299103845311843
11.679981708526611,1.6776933819010509,[1.73549176],5.0,0.6,0.0,0.815927785654394,0.009744284810044593,1.0121708330943089
11.691150903701782,1.6735900088495805,[1.73187066],5.0,0.6,0.0,1.5717196139965321,0.011551449305073319,1.0051226610270967
11.708281755447388,1.6677280473474807,[1.7282553],5.0,0.6,0.0,2.4751150445694683,0.0006213203557987765,0.9760652857464399
11.723013162612915,1.6636246742960106,[1.72463419],5.0,0.6,0.0,3.7767690420743287,-0.0032145908856362924,0.9644978164523821
11.741105079650879,1.658544307660857,[1.7209908],5.0,0.6,0.0,5.0,0.0014058340562985822,0.9401779984985126
11.753210306167603,1.6552225294763336,[1.71731433],5.0,0.6,0.0,5.0,0.00011092069012084715,0.9442461332341467
11.761556386947632,1.6530731435922303,[1.71361537],5.0,0.6,0.0,5.0,0.01704195928678554,0.9621627838989313
11.773778438568115,1.6499467641244434,[1.70991426],5.0,0.6,0.0,5.0,0.0074487762419090525,0.9688640879933736
11.793671131134033,1.6452571949227635,[1.70620968],5.0,0.6,0.0,5.0,-0.01088215318482477,0.9573972609528056
11.80860686302185,1.64193541673824,[1.70248261],5.0,0.6,0.0,5.0,-0.014301097443053131,0.9621050552075943
11.823876142501831,1.6391998347039267,[1.69872345],5.0,0.6,0.0,5.0,-0.020198299265240374,0.9740590648113228
11.836830377578735,1.6368550501030865,[1.69493476],5.0,0.6,0.0,5.0,-0.02708076911877364,0.9910664252259758
11.850133657455444,1.634705664218983,[1.69112158],5.0,0.6,0.0,5.0,-0.034754041394854704,1.0108462502970004
11.862578868865967,1.6327516770516164,[1.6872909],5.0,0.6,0.0,5.0,-0.039340151228560064,1.0333468565031279
11.877134561538696,1.630602291167513,[1.68344906],5.0,0.6,0.0,5.0,-0.0530226048159998,1.0537664809335916
11.889869451522827,1.62845290528341,[1.67959946],5.0,0.6,0.0,4.967756177992017,-0.05782406848506437,1.0745872445828861
11.90102219581604,1.6263035193993067,[1.67574869],5.0,0.6,0.0,4.123721236239383,-0.05966800109212876,1.1007610809693786
11.910758972167969,1.624740329665413,[1.67191025],5.0,0.6,0.0,2.577094818669755,-0.049853092383702155,1.1359045797961107
11.921883344650269,1.622395545064573,[1.66809933],5.0,0.6,0.0,1.0671678274012157,-0.05647686824014991,1.1576684925777019
11.93548583984375,1.6196599630302595,[1.66432302],5.0,0.6,0.0,-0.7089385535434564,-0.07263859046928513,1.1706450128517671
11.947137355804443,1.6173151784294195,[1.66058009],5.0,0.6,0.0,-2.2247872229419112,-0.08257588641356492,1.184051028832103
11.960102558135986,1.6145795963951064,[1.65686744],5.0,0.6,0.0,-3.6181625750400968,-0.09316480871254268,1.1896654959551918
11.969210386276245,1.6126256092277396,[1.65318489],5.0,0.6,0.0,-4.111865531811124,-0.08805915838321049,1.2072062462668485
11.977518081665039,1.610671622060373,[1.64954066],5.0,0.6,0.0,-4.448766388797258,-0.07389729231741249,1.2247016108747353
11.993600130081177,1.6069590464423762,[1.64593805],5.0,0.6,0.0,-4.893818969838407,-0.11239838093758756,1.220441033378263
12.00582242012024,1.6038326669745895,[1.64236605],5.0,0.6,0.0,-5.0,-0.11165395818987768,1.2248026101895928
12.014138221740723,1.6018786798072226,[1.63882009],5.0,0.6,0.0,-5.0,-0.10217679449157402,1.2428754322191116
12.02474856376648,1.599338496489646,[1.63530479],5.0,0.6,0.0,-4.78029448603991,-0.11274580145795245,1.255318730934994
12.033939123153687,1.596798313172069,[1.63182235],5.0,0.6,0.0,-4.7411714586681075,-0.10470160530481537,1.265984818924229
12.043498992919922,1.594453528571229,[1.6283777],5.0,0.6,0.0,-4.4346969499957,-0.09414598190390477,1.2799710694211812
12.055143594741821,1.5911317503867057,[1.62497462],5.0,0.6,0.0,-4.323187417270957,-0.11255643426877139,1.2815534980617833
12.067095756530762,1.5872237760519723,[1.62160552],5.0,0.6,0.0,-3.967726809333091,-0.1256156317434994,1.2778656203302998
12.079779148101807,1.5837065991507122,[1.6182561],5.0,0.6,0.0,-3.8296771086515404,-0.1335469955801228,1.276825366117171
12.092541694641113,1.5796032260992423,[1.61491226],5.0,0.6,0.0,-3.741907037932153,-0.13454391661204113,1.2689954539041743
12.102634191513062,1.5764768466314556,[1.61156652],5.0,0.6,0.0,-3.6421004370421235,-0.12370504039302001,1.2719437001624518
12.112557649612427,1.5733504671636689,[1.60822285],5.0,0.6,0.0,-3.23763776268306,-0.11085268725734308,1.2763592146798843
12.125237464904785,1.569051695395462,[1.60488569],5.0,0.6,0.0,-3.325148807000314,-0.11717837398115773,1.2653481489923653
12.137104511260986,1.5647529236272555,[1.60155047],5.0,0.6,0.0,-2.9624697852696986,-0.11547373713256509,1.2562694145905005
12.149117469787598,1.5606495505757851,[1.59820807],5.0,0.6,0.0,-2.764227298655949,-0.11982737014802136,1.248521063348377
12.161396503448486,1.5557645826573687,[1.59484704],5.0,0.6,0.0,-2.6234287212225826,-0.11585775675542206,1.231666917106249
12.173587322235107,1.5514658108891617,[1.59145625],5.0,0.6,0.0,-2.4963976676029933,-0.11142492822304727,1.2216425082287792
12.183817386627197,1.547753235271165,[1.58803159],5.0,0.6,0.0,-2.3679788848278998,-0.10443221560517532,1.2187542929903952
12.192444562911987,1.544822254520115,[1.58458064],5.0,0.6,0.0,-1.683020356016688,-0.08856925609327367,1.226848993137381
12.206000328063965,1.539546489168225,[1.58111199],5.0,0.6,0.0,-1.756916984219849,-0.09419537525837816,1.205546769138112
12.21947717666626,1.5344661225330716,[1.57762042],5.0,0.6,0.0,-1.7640032501337286,-0.09227207720748266,1.1867270818337787
12.237687110900879,1.5272363700138143,[1.57408482],5.0,0.6,0.0,-1.174985430507825,-0.059662437734798825,1.1436828321521342
12.246202945709229,1.524109990546028,[1.57048792],5.0,0.6,0.0,-0.4918356559009409,-0.07628571184583445,1.150210347762601
12.260132312774658,1.5186388264774013,[1.56683211],5.0,0.6,0.0,-0.17831018077333904,-0.06776424791484044,1.1284138991533879
12.275437116622925,1.5123860675418277,[1.56311447],5.0,0.6,0.0,0.5108428711742801,-0.04574482390008516,1.0975010642596421
12.291600942611694,1.506328707322991,[1.55931665],5.0,0.6,0.0,1.1838788085338545,-0.013131393236583402,1.069285322295292
12.307409524917603,1.5002713471041542,[1.5554203],5.0,0.6,0.0,1.7096416611953178,0.011982885357095338,1.04211446607677
12.320165872573853,1.4955817779024738,[1.55141686],5.0,0.6,0.0,2.0675719386439817,-0.0042622736167414275,1.0328867586272978
12.335415840148926,1.4899152151171104,[1.54730698],5.0,0.6,0.0,2.554680870573831,0.01388906803252403,1.0126564176949737
12.350107908248901,1.4852256459154307,[1.5430921],5.0,0.6,0.0,3.2362168214117624,0.006202209710210512,1.0041236996147556
12.363501071929932,1.4811222728639604,[1.53877741],5.0,0.6,0.0,4.364108559179324,-0.004332836413701591,1.0003862071283036
12.378090620040894,1.4770188998124902,[1.5343719],5.0,0.6,0.0,5.0,-0.007879342820601314,0.9996837535981066
12.393100023269653,1.4729155267610203,[1.52988361],5.0,0.6,0.0,5.0,-0.014205535915042833,1.0042623017542818
12.40510869026184,1.469593748576497,[1.52532095],5.0,0.6,0.0,5.0,-0.024025891257253733,1.0190828344967184
12.419121742248535,1.4662719703919733,[1.52069319],5.0,0.6,0.0,5.0,-0.03400436124536522,1.0347671980698094
12.433107852935791,1.46295019220745,[1.51600964],5.0,0.6,0.0,5.0,-0.043693385780188033,1.0511953631760922
12.445118427276611,1.4604100088898735,[1.51127959],5.0,0.6,0.0,5.0,-0.057100203482433144,1.077715202487917
12.457091093063354,1.4572836294220868,[1.50651275],5.0,0.6,0.0,5.0,-0.06841859006174443,1.0976132349153014
12.470659017562866,1.4541572499542998,[1.50171849],5.0,0.6,0.0,4.533617949081323,-0.07723210149432244,1.1210221755953886
12.478402853012085,1.4518124653534599,[1.49691369],5.0,0.6,0.0,3.4476479364797323,-0.08413118734540283,1.1569909748473566
12.488089799880981,1.4492722820358832,[1.49212759],5.0,0.6,0.0,2.051094767694118,-0.0851198790831038,1.1894691845383116
12.500139951705933,1.4457551051346231,[1.48738187],5.0,0.6,0.0,0.2431890681168396,-0.10134221272002963,1.2070741653918369
12.515090942382812,1.4414563333664165,[1.48268049],5.0,0.6,0.0,-1.3565883322730894,-0.10785117266015018,1.2104832707650928
12.528124570846558,1.4377437577484196,[1.47802154],5.0,0.6,0.0,-2.845150013942027,-0.11416872546968845,1.2169280002934535
12.542077779769897,1.433249587263476,[1.47340345],5.0,0.6,0.0,-4.256970074177067,-0.1150329605854071,1.2110506887022594
12.55683970451355,1.4285600180617963,[1.46882343],5.0,0.6,0.0,-5.0,-0.11512021900979852,1.2048171039399276
12.5690758228302,1.424456645010326,[1.46427921],5.0,0.6,0.0,-5.0,-0.11515369766110246,1.2099409336695193
12.582124948501587,1.4199624745253827,[1.45977198],5.0,0.6,0.0,-5.0,-0.11452880507111521,1.2100924837726006
12.594098329544067,1.4154683040404392,[1.45530281],5.0,0.6,0.0,-5.0,-0.11354726134031377,1.2098024305328086
12.604780673980713,1.4117557284224425,[1.45087362],5.0,0.6,0.0,-5.0,-0.11165338213426623,1.218087859584341
12.612259149551392,1.4090201463881293,[1.44649556],5.0,0.6,0.0,-5.0,-0.09388669942497734,1.2368499662377697
12.629348039627075,1.402571988735819,[1.44217743],5.0,0.6,0.0,-4.925003290946471,-0.10932399429922672,1.2129910953538232
12.639324426651001,1.398468615684349,[1.43791628],5.0,0.6,0.0,-4.647361043395635,-0.09514973350360746,1.2167282532353654
12.651743650436401,1.3933882490491956,[1.4337135],5.0,0.6,0.0,-4.577488986641268,-0.0891929273401744,1.2070077239836212
12.663137674331665,1.388894078564252,[1.42957422],5.0,0.6,0.0,-3.980788034909656,-0.0818784772400726,1.2065651197391805
12.676145553588867,1.3834229144956252,[1.42549861],5.0,0.6,0.0,-3.2800519034054405,-0.08017269176825934,1.1938788050957907
12.690157175064087,1.377756351710262,[1.42148281],5.0,0.6,0.0,-2.639595686159363,-0.07465988728699015,1.1770618491296285
12.703155994415283,1.3724805863583718,[1.41752095],5.0,0.6,0.0,-2.1085611343472754,-0.06926746520795869,1.1631934336086784
12.714188814163208,1.368181814590165,[1.41360828],5.0,0.6,0.0,-1.1362774706797167,-0.06629472540442764,1.1608922121115042
12.729209661483765,1.3617336569378549,[1.40974056],5.0,0.6,0.0,-0.7450868788006922,-0.05527179487457091,1.1302821814258304
12.746520757675171,1.3545039044185982,[1.40591097],5.0,0.6,0.0,-0.3303550662703207,-0.04399039468221239,1.0893852715166648
12.758100748062134,1.350400531367128,[1.40211363],5.0,0.6,0.0,0.29316059540295014,-0.033197393543618,1.0856938369284748
12.767427206039429,1.3466879557491311,[1.39835076],5.0,0.6,0.0,0.8619187536374683,-0.022734238445144626,1.0858144953741689
12.783114194869995,1.3402397980968213,[1.39462408],5.0,0.6,0.0,1.2946379206564629,-0.0223656019398353,1.0522336674337889
12.79709005355835,1.3345732353114577,[1.39092746],5.0,0.6,0.0,1.8618385954012977,-0.01172627574960177,1.027277017915381
12.810101985931396,1.3292974699595674,[1.3872555],5.0,0.6,0.0,2.0661937646087805,-0.0029226231158649184,1.0076068089512935
12.822368621826172,1.3246079007578877,[1.38360598],5.0,0.6,0.0,2.366129233387284,0.0027928282795192994,0.9943482015175981
12.833823919296265,1.3203091289896807,[1.37997894],5.0,0.6,0.0,2.611460268759058,0.01508931478319412,0.9855632432398145
12.844803810119629,1.3162057559382108,[1.37637964],5.0,0.6,0.0,2.761258256628082,0.03168414116835902,0.9790785731319313
12.85598087310791,1.3117115854532673,[1.37281516],5.0,0.6,0.0,3.0947362461053047,0.03762459749141837,0.9668352274076673
12.865095138549805,1.3091714021356906,[1.3692914],5.0,0.6,0.0,3.1108231834676494,0.04902215626478724,0.9781989520996868
12.877092123031616,1.3052634278009572,[1.36581195],5.0,0.6,0.0,3.536400525106048,0.036272180565935716,0.9711340049804312
12.892115354537964,1.3007692573160137,[1.36237322],5.0,0.6,0.0,4.798652354744691,0.031143548945367572,0.951278995544999
12.906135082244873,1.2966658842645435,[1.35896725],5.0,0.6,0.0,5.0,0.027541198998760282,0.9418409520368134
12.918174982070923,1.2931487073632837,[1.3555868],5.0,0.6,0.0,5.0,0.02317181631488128,0.9402741656913591
12.927035093307495,1.290608524045707,[1.35222959],5.0,0.6,0.0,5.0,0.03626577468732936,0.9496645426210237
12.93816328048706,1.2878729420113935,[1.34889978],5.0,0.6,0.0,5.0,0.03463259128448155,0.9565351783857898
12.956031799316406,1.28337877152645,[1.34559184],5.0,0.6,0.0,5.0,0.004150033283102978,0.9428537768391946
12.969871997833252,1.2802523920586635,[1.34228872],5.0,0.6,0.0,5.0,0.0060408351727250535,0.9448834873673599
12.983707666397095,1.27693061387414,[1.33898029],5.0,0.6,0.0,5.0,0.0029389331140178714,0.944730079774302
12.996597051620483,1.27399963312309,[1.33566378],5.0,0.6,0.0,4.9845985425224875,0.00395408038534058,0.9492781045163174
13.010397672653198,1.2712640510887767,[1.33233713],5.0,0.6,0.0,4.668098592310464,-0.002394327136405075,0.958306294179156
13.020792961120605,1.2693100639214097,[1.32900236],5.0,0.6,0.0,3.9827243751918697,0.008225268784798631,0.9786814878750287
13.036834239959717,1.2665744818870965,[1.32566162],5.0,0.6,0.0,3.537039412558223,-0.015359260408432924,0.9882243742178451
13.048490762710571,1.26462049471973,[1.32231335],5.0,0.6,0.0,3.2107700598184765,-0.006671515185722718,1.0063017383084438
13.05711841583252,1.2630573049858367,[1.3189658],5.0,0.6,0.0,2.3943377504098793,0.010199050204073468,1.0309307104064303
13.068061113357544,1.261494115251943,[1.31563418],5.0,0.6,0.0,2.098539774093982,0.0016569776531905312,1.0531539406153532
13.082051992416382,1.2593447293678397,[1.31232446],5.0,0.6,0.0,2.0014051912448787,-0.016036458532260715,1.0674539141346606
13.099172592163086,1.2569999447669995,[1.30903018],5.0,0.6,0.0,1.4106022101810736,-0.047441348782683246,1.0804370041158817
