t_s,q_rad,q_des_rad,K,B,Kff,jerk,tau_Nm,reward
0.006269693374633789,-0.042401521531857445,[0.00155991],9.825212432529046,0.9790254919034855,1.9737818648793566,0.0,9.998999999999999,1.179416172529848
0.016210556030273438,-0.042401521531857445,[0.00753853],9.650424865058092,0.9580509838069711,1.9475637297587132,0.0,10.098989999999999,1.107257863610438
0.029043912887573242,-0.042401521531857445,[0.01873624],9.475637297587138,0.9370764757104565,1.92134559463807,0.0,10.099989899999999,0.9735181334066149
0.04105234146118164,-0.042401521531857445,[0.0342023],9.300849730116184,0.9161019676139419,1.8951274595174268,0.0,10.099999898999998,0.809242636362925
0.05210256576538086,-0.042401521531857445,[0.05307745],9.12606216264523,0.8951274595174274,1.8689093243967834,0.0,10.099999998989999,0.6615005132971568
0.06415224075317383,-0.042401521531857445,[0.07459091],8.951274595174274,0.8741529514209129,1.84269118927614,0.0,7.683500506646924,0.5647354704024289
0.07928609848022461,-0.04220612281512077,[0.09805669],8.77648702770332,0.8531784433243983,1.8164730541554968,0.0,-9.92216499493353,0.5195509493300858
0.0940713882446289,-0.0381027497636507,[0.12286939],8.601699460232366,0.8322039352278838,1.7902549190348536,1.6562301580720857,-10.098221649949334,0.5035766835181585
0.1080942153930664,-0.03321778184523394,[0.1484996],8.426911892761412,0.8112294271313693,1.7640367839142101,5.0,-10.099982216499493,0.4830866724953572
0.12201428413391113,-0.02872361136029053,[0.17448908],8.252124325290458,0.7902549190348547,1.7378186487935667,5.0,-10.099999822164994,0.48199095938366726
0.13605356216430664,-0.024815637025557124,[0.20044564],8.077336757819502,0.7692804109383402,1.7116005136729235,5.0,-5.1004999982216495,0.48177119575568095
0.15105319023132324,-0.021103061407560384,[0.22603807],7.902549190348549,0.7483059028418256,1.6853823785522803,5.0,-5.050504999982216,0.4817370139800538
0.17133474349975586,-0.01660889092261697,[0.25099101],7.727761622877595,0.727331394745311,1.659164243431637,5.0,-5.050005049999822,0.4817326647663955
0.18227410316467285,-0.014654903755250269,[0.27507988],7.55297405540664,0.7063568866487966,1.6329461083109935,4.172883596230307,-5.050000050499998,0.4872044127070527
0.19378280639648438,-0.012896315304620235,[0.29812595],7.378186487935686,0.685382378552282,1.6067279731903503,0.2915709726383735,-5.050000000504999,0.4999367237718978
0.20689630508422852,-0.011137726853990204,[0.31999164],7.203398920464732,0.6644078704557674,1.5805098380697071,-4.391319006282864,-5.050000000005049,0.48584931860747965
0.2191767692565918,-0.009574537120096843,[0.34057585],7.028611352993777,0.643433362359253,1.5542917029490637,-5.0,-5.05000000000005,0.48173206214635567
0.2310478687286377,-0.008597543536413491,[0.35980974],6.853823785522822,0.6224588542627384,1.5280735678284203,-5.0,-5.05,0.4817320621255617
0.24716663360595703,-0.007425151235993469,[0.37765256],6.679036218051868,0.6014843461662238,1.501855432707777,-5.0,-5.05,0.4817320621240674
0.26050567626953125,-0.006643556369046789,[0.39408791],6.504248650580913,0.6,1.475637297587134,-5.0,-5.05,0.48173206212394676
0.2764871120452881,-0.0062527589355734475,[0.40912017],6.329461083109958,0.6,1.4494191624664907,-5.0,-5.05,0.48173206212393654
0.2912721633911133,-0.005861961502100107,[0.42277125],6.154673515639004,0.6,1.4232010273458477,-5.0,-5.05,0.4817320621239356
0.30005931854248047,-0.005861961502100107,[0.4350776],5.97988594816805,0.6,1.3969828922252046,-5.0,-5.05,0.4817320621239355
0.31301307678222656,-0.005861961502100107,[0.44608745],5.805098380697095,0.6,1.3707647571045614,-5.0,-5.05,0.4817320621239355
0.33046984672546387,-0.005861961502100107,[0.45585845],5.63031081322614,0.6,1.3445466219839184,-5.0,-5.720797464307323,0.4817320621239355
0.34116625785827637,-0.005861961502100107,[0.46445544],5.455523245755186,0.6,1.3183284868632752,-5.0,-3.4481973741476994,0.4817320621239355
0.3568916320800781,-0.005861961502100107,[0.4719485],5.280735678284231,0.6,1.292110351742632,-4.689919724180389,-1.7771601224550337,0.4838918359687854
0.3758504390716553,-0.005861961502100107,[0.47841127],5.105948110813277,0.6,1.2658922166219888,-3.8423715886049052,-0.5625531959071085,0.48912970921889465
0.3852870464324951,-0.005861961502100107,[0.48391945],5.0,0.6,1.2396740815013456,-2.384607769526754,0.31012142669697745,0.4957849420916476
0.3976609706878662,-0.005861961502100107,[0.48854932],5.0,0.6,1.2134559463807026,-0.9787143327512657,0.9708716427224962,0.4992874605138738
0.4102339744567871,-0.005471164068626767,[0.49237677],5.0,0.6,1.1872378112600595,0.1551016599284456,1.4509420341071655,0.4999820926307173
0.42096471786499023,-0.004689569201680086,[0.49547639],5.0,0.6,1.1610196761394163,1.5360991764383818,1.7805286752751674,0.49824659363700013
0.4320805072784424,-0.002540183317576713,[0.49792072],5.0,0.6,1.1348015410187733,3.543981504403553,1.9962079364563425,0.49073734585021367
0.4449799060821533,0.0017585884506300322,[0.49977962],5.0,0.6,1.10858340589813,5.0,2.1514047488998367,0.4817320621239355
0.4579145908355713,0.007034353802520129,[0.50111984],5.0,0.6,1.082365270777487,5.0,2.249169725733096,0.4817320621239355
0.4708395004272461,0.012114720437673556,[0.50200452],5.0,0.6,1.0561471356568437,5.0,2.3046414204630903,0.4817320621239355
0.4808351993560791,0.0164134922058803,[0.50249292],5.0,0.6,1.0299290005362005,5.0,2.3324128227505465,0.4817320621239355
0.49464893341064453,0.0216892575577704,[0.5026403],5.0,0.6,1.0037108654155575,5.0,2.3406795005843164,0.4817320621239355
0.5068023204803467,0.026965022909660494,[0.50249783],5.0,0.6,0.9774927302949143,5.0,2.328793229866884,0.4817320621239355
0.5184319019317627,0.03126379467786724,[0.50211256],5.0,0.6,0.9512745951742712,5.0,2.3107217500326054,0.4817320621239355
0.5289359092712402,0.03556256644607399,[0.50152736],5.0,0.6,0.9250564600536281,5.0,2.2855908764759194,0.4817320621239355
0.5419833660125732,0.040642933081227406,[0.5007811],5.0,0.6,0.898838324932985,4.612725142270899,2.2664031421408612,0.4844094552033114
0.5549724102020264,0.046309495866590854,[0.49990878],5.0,0.6,0.8726201898123418,2.354893024279252,2.2371286680138622,0.49588890541298075
0.5679759979248047,0.05138986250174427,[0.49894168],5.0,0.6,0.8464020546916986,-0.38056750506854975,2.211642077598632,0.4998921988832427
0.5829634666442871,0.05725182400384438,[0.49790748],5.0,0.6,0.8201839195710555,-2.745520072236134,2.18247355232161,0.4944201659024242
0.5949721336364746,0.06194139320552447,[0.49683046],5.0,0.6,0.7939657844504124,-4.5088818469530025,2.1604853029260838,0.4850930604094027
0.6079652309417725,0.06741255727415124,[0.49573168],5.0,0.6,0.7677476493297692,-5.0,2.1274401596996384,0.4817320621239356
0.62196946144104,0.07327451877625135,[0.49462925],5.0,0.6,0.741529514209126,-5.0,2.088630077959155,0.4817320621239359
0.6369810104370117,0.07972267642856146,[0.49353851],5.0,0.6,0.715311379088483,-5.0,2.0452506208487087,0.4817320621239368
0.6489708423614502,0.0840214481967682,[0.49247226],5.0,0.6,0.6890932439678399,-5.0,2.012088604748159,0.4817320621239387
0.6629900932312012,0.08949261226539497,[0.49144102],5.0,0.6,0.6628751088471967,-5.0,1.9735522117843225,0.48173206212394476
0.6769680976867676,0.09515917505075841,[0.49045318],5.0,0.6,0.6366569737265535,-5.0,1.9347128403589464,0.48173206212396225
0.6909382343292236,0.10063033911938518,[0.48951529],5.0,0.6,0.6104388386059104,-5.0,1.8979620404108144,0.48173206212400865
0.7053983211517334,0.10649230062148528,[0.48863223],5.0,0.6,0.5842207034852673,-5.0,1.8614199337224784,0.4817320621241425
0.7179486751556396,0.11215886340684872,[0.48780739],5.0,0.6,0.5580025683646241,-4.88315764515642,1.8252795807990552,0.48256098022965876
0.7342417240142822,0.11841162234242215,[0.4870429],5.0,0.6,0.531784433243981,-4.698500630653117,1.792391069917594,0.4838338016882626
0.7449648380279541,0.12271039411062891,[0.48633979],5.0,0.6,0.5055662981233379,-4.4707101209271425,1.764915400163162,0.48534067199247644
0.7595818042755127,0.128572355612729,[0.48569809],5.0,0.6,0.4793481630026947,-4.218662301136293,1.7349723182707175,0.48692579494922134
0.771953821182251,0.13404351968135578,[0.48511708],5.0,0.6,0.4531300278820516,-4.232107125329781,1.7080030048478276,0.48684343538462427
0.7881062030792236,0.14068707605040257,[0.48459547],5.0,0.6,0.42691189276140845,-4.001662419106935,1.684409796604795,0.4882206607268058
0.7989745140075684,0.14479044910187266,[0.48413149],5.0,0.6,0.4006937576407653,-3.6884498292430163,1.665752537018889,0.48997455595192174
0.8158891201019287,0.15123860675418274,[0.48372299],5.0,0.6,0.3744756225201221,-3.3638349749699112,1.6510212299362585,0.4916473742799814
0.8283774852752686,0.1563189733893362,[0.4833676],5.0,0.6,0.3482574873994789,-3.056859394169332,1.6356511488644192,0.49309219399257803
0.8404021263122559,0.1613993400244896,[0.48306271],5.0,0.6,0.3220393522788358,-2.777206707048899,1.6193150018970224,0.4942913698723642
0.8542180061340332,0.16667510537637972,[0.48280553],5.0,0.6,0.2958212171581926,-2.5261595217618327,1.6002790287247524,0.49527211833864687
0.8673157691955566,0.17214626944500647,[0.48259334],5.0,0.6,0.2696030820375494,-2.301708359008493,1.5839602641013344,0.4960717856288623
0.8779869079589844,0.17644504121321322,[0.48242345],5.0,0.6,0.24338494691690624,-2.3768846958048124,1.5645730171782848,0.4958120935541125
0.8919322490692139,0.18211160399857668,[0.48229319],5.0,0.6,0.21716681179626307,-1.9536582477576685,1.5409930257144202,0.4971668586522564
0.9059371948242188,0.18816896421741344,[0.48220004],5.0,0.6,0.19094867667561988,-1.7029535888255865,1.514219660377925,0.4978458852117423
0.9189107418060303,0.19324933085256688,[0.48214161],5.0,0.6,0.16473054155497668,-1.8110377477983632,1.4883392439891752,0.4975644798760614
0.933934211730957,0.1993066910714036,[0.48211562],5.0,0.6,0.13851240643433352,-1.4403067436007664,1.4537321678180288,0.4984582485761241
0.9483537673950195,0.2055594500069771,[0.48211995],5.0,0.6,0.11229427131369034,-1.2445908264152676,1.4176871362264962,0.49884847470724025
0.967595100402832,0.21259380380949724,[0.48215305],5.0,0.6,0.08607613619304716,-1.1274807015960286,1.3850080121167576,0.4990550917175983
0.9828341007232666,0.21923736017854403,[0.48221383],5.0,0.6,0.05985800107240398,-1.0444027972151493,1.3406285978210406,0.4991896681257263
0.9933269023895264,0.22334073323001408,[0.48230056],5.0,0.6,0.0336398659517608,-0.9755352360811965,1.2982726214234241,0.49929357573194766
1.0073399543762207,0.22939809344885087,[0.48241085],5.0,0.6,0.0074217308311176206,-0.9126218192553003,1.2525181635985274,0.49938314122403027
1.0216352939605713,0.23486925751747764,[0.48254273],5.0,0.6,0.0,-0.8526277242623785,1.2221847953843064,0.49946383062373956
1.031313419342041,0.2389726305689477,[0.48269414],5.0,0.6,0.0,-0.7947409962572346,1.198651218245017,0.49953697509488
1.0440773963928223,0.24385759848736446,[0.48286258],5.0,0.6,0.0,-1.0150327864667152,1.1762190660915341,0.4992445609255416
1.0646998882293701,0.25245514202377795,[0.48304662],5.0,0.6,0.0,-0.7187855066064734,1.1418494491855369,0.49963962279915286
1.0806961059570312,0.25831710352587806,[0.48324586],5.0,0.6,0.0,-0.5799125629567097,1.1127608452036435,0.49979004481180367
1.0949838161468506,0.2639836663112415,[0.48345918],5.0,0.6,0.0,-0.5111410641047175,1.0838305052178867,0.49987102307861103
1.1110191345214844,0.27062722268028827,[0.48368476],5.0,0.6,0.0,-0.47187512249011937,1.0509494330959803,0.4999483441691423
1.1276719570159912,0.2780523739162818,[0.48392096],5.0,0.6,0.0,-0.44390799774291456,1.0157791801520324,0.5000616667730661
1.1489901542663574,0.28645451873595856,[0.48416668],5.0,0.6,0.0,-0.4195659497560811,0.9773409230955699,0.5002713939183988
1.164604902267456,0.292707277671532,[0.48442092],5.0,0.6,0.0,-0.39598137420651247,0.9444291230810502,0.5005253536317111
1.1779770851135254,0.29837384045689547,[0.48468199],5.0,0.6,0.0,-0.3723699976457131,0.9145017699271846,0.50086298724044
1.191509485244751,0.3038450045255222,[0.48494777],5.0,0.6,0.0,-0.34876771273402385,0.8860910655788977,0.5013258518678464
1.2059049606323242,0.309316168594149,[0.4852163],5.0,0.6,0.0,-0.3254675769137808,0.8584549120430316,0.5019747313824524
1.2192003726959229,0.3143965352293024,[0.48548576],5.0,0.6,0.0,-0.30278614798392756,0.8324676423501726,0.5027992882410259
1.2310376167297363,0.31928150314771914,[0.48575437],5.0,0.6,0.0,-0.004941620714961875,0.8068153163147768,0.5039161434661438
1.2471587657928467,0.32572966080002924,[0.48602053],5.0,0.6,0.0,-0.22710245587055533,0.7757618971015203,0.5058273148837793
1.265451192855835,0.33335021075275945,[0.48628312],5.0,0.6,0.0,-0.29573086989825126,0.7398310245490352,0.5092353273843421
1.280838966369629,0.33960296968833287,[0.48654138],5.0,0.6,0.0,-0.02229531554015296,0.708029817481901,0.5133237521797951
1.2946741580963135,0.34487873504022304,[0.4867943],5.0,0.6,0.0,-0.24247709426053196,0.6808367162589385,0.5177660490541844
1.3081412315368652,0.3501545003921131,[0.48704073],5.0,0.6,0.0,-0.30082103146565914,0.6539976655963498,0.5235076579652338
1.3214013576507568,0.3558210631774765,[0.4872796],5.0,0.6,0.0,-0.016319623577609993,0.6252968490102814,0.531547041056711
1.3348939418792725,0.36109682852936664,[0.48751004],5.0,0.6,0.0,0.04868019373598745,0.5987879047120773,0.5409213548282957
1.3489093780517578,0.36676339131473,[0.48773137],5.0,0.6,0.0,0.030066371270219314,0.570566704769838,0.5535755251080983
1.364990472793579,0.37340694768377686,[0.48794306],5.0,0.6,0.0,-0.012295213391254625,0.5376511242270504,0.5725335722843892
1.3806707859039307,0.37965970661935033,[0.48814478],5.0,0.6,0.0,-0.054107333833460614,0.5069398375422272,0.595005066991674
1.40177583694458,0.38864804758923716,[0.48833657],5.0,0.6,0.0,-0.08714893590695166,0.46489726961267486,0.6370236616502418
1.416309118270874,0.3943146103746005,[0.48851882],5.0,0.6,0.0,0.16599562023785677,0.43629087871181355,0.6694821777949518
1.4279770851135254,0.39900417957628065,[0.48869171],5.0,0.6,0.0,0.18516434653985975,0.41249092471064497,0.7001079902286832
1.4429516792297363,0.40486614107838076,[0.48885539],5.0,0.6,0.0,0.12312882547655057,0.38471478798859154,0.7439272718576244
1.4579358100891113,0.41072810258048087,[0.4890103],5.0,0.6,0.0,0.04525473985802782,0.3563050468842642,0.7935739391262134
1.471714735031128,0.41600386793237093,[0.48915701],5.0,0.6,0.0,-0.023466344158097584,0.33103469189047535,0.842913296827327
1.4852683544158936,0.4216704307177344,[0.48929617],5.0,0.6,0.0,-0.07590155956535316,0.3040693596512865,0.9006533188698491
1.4979076385498047,0.42714159478636116,[0.48942855],5.0,0.6,0.0,-0.11221921563831677,0.2782359531726836,0.9602647398792435
1.512927532196045,0.43300355628846127,[0.48955506],5.0,0.6,0.0,-0.13510003236411866,0.2506386419468477,1.0274820840946401
1.5254755020141602,0.43808392292361464,[0.48967669],5.0,0.6,0.0,-0.14768563125382606,0.22702969106940638,1.0871996280871201
1.5374808311462402,0.4431642895587681,[0.4897944],5.0,0.6,0.0,-0.1527926786363039,0.2022591897189878,1.1473292583914143
1.5539565086364746,0.4498078459278149,[0.48990921],5.0,0.6,0.0,-0.15268778128707092,0.17284727308268108,1.2249534265683713
1.5697011947631836,0.45586520614665166,[0.49002253],5.0,0.6,0.0,-0.42513067453396614,0.14521014481130348,1.291746195352306
1.5819897651672363,0.4611409714985418,[0.49013571],5.0,0.6,0.0,-0.45242987886264385,0.12024929689086085,1.345084046834741
1.5959277153015137,0.4662213381336952,[0.49024987],5.0,0.6,0.0,-0.39017680799094834,0.09698282417545463,1.3908303327346068
1.610243797302246,0.47188790091905863,[0.49036618],5.0,0.6,0.0,-0.3062338662744568,0.07139976652617981,1.433920347080763
1.6204922199249268,0.4761866726872654,[0.49048579],5.0,0.6,0.0,-0.5036194983553773,0.05126282725141953,1.4597431373339371
1.6310667991638184,0.4800946470219988,[0.49060934],5.0,0.6,0.0,-0.7480462271234551,0.0306839614016122,1.4777145550648794
1.646089792251587,0.4851750136571522,[0.49073747],5.0,0.6,0.0,-1.2282409155121274,0.011985647674280082,1.4927092078814401
1.6597144603729248,0.490059981575569,[0.4908714],5.0,0.6,0.0,-1.9544153647972915,-0.010132375990104818,1.4970329816421488
1.6705915927886963,0.49396795591030235,[0.49101198],5.0,0.6,0.0,-2.3223308076706006,-0.029985346307238817,1.494255323195396
1.6844902038574219,0.4982667276785091,[0.49115945],5.0,0.6,0.0,-3.0291916659988196,-0.04718250976668858,1.483164013704331
1.6976573467254639,0.5017839045797692,[0.49131424],5.0,0.6,0.0,-3.9505774447078577,-0.06290216175095184,1.4668318075889262
1.7062997817993164,0.5041286891806092,[0.49147623],5.0,0.6,0.0,-4.442531660809519,-0.07628523346240514,1.4540123492268042
1.7158939838409424,0.5062780750647126,[0.4916446],5.0,0.6,0.0,-4.9254655924413235,-0.08511630530961652,1.4403393642815172
1.728924036026001,0.5090136570990259,[0.49181889],5.0,0.6,0.0,-5.0,-0.0936199209868275,1.4243144020513818
1.7429018020629883,0.511358441699866,[0.49199931],5.0,0.6,0.0,-5.0,-0.09978141688420908,1.4095170979776235
1.7559616565704346,0.5135078275839694,[0.49218618],5.0,0.6,0.0,-5.0,-0.10593333195791824,1.3948204939327644
1.7709622383117676,0.5150710173178628,[0.49237968],5.0,0.6,0.0,-5.0,-0.10894550240035512,1.3838776803967199
1.7838702201843262,0.5162434096182827,[0.49257986],5.0,0.6,0.0,-5.0,-0.11014302562666624,1.375782822407348
1.7978923320770264,0.5172204032019662,[0.49278658],5.0,0.6,0.0,-5.0,-0.11086321891538763,1.369182733008964
1.810926914215088,0.5178065993521761,[0.4929996],5.0,0.6,0.0,-5.0,-0.1089852412473833,1.365927262596928
1.824906826019287,0.5178065993521761,[0.49321863],5.0,0.6,0.0,-5.0,-0.10496973936149182,1.3678425696178262
1.8356175422668457,0.5180019980689128,[0.49344316],5.0,0.6,0.0,-5.0,-0.10373954995773138,1.3680962896090363
1.849916934967041,0.5178065993521761,[0.49367255],5.0,0.6,0.0,-5.0,-0.09774078444889134,1.371770630016249
1.863874912261963,0.5174158019187027,[0.49390635],5.0,0.6,0.0,-5.0,-0.09247773354283993,1.3770836190960005
1.878882884979248,0.5166342070517561,[0.49414403],5.0,0.6,0.0,-4.964518075135047,-0.0855943435238871,1.385772666091993
1.8950889110565186,0.5156572134680728,[0.49438495],5.0,0.6,0.0,-3.8942166576277346,-0.07712371579253213,1.4023103267868988
1.9106619358062744,0.5146802198843894,[0.49462872],5.0,0.6,0.0,-2.6473300329244047,-0.06803905479921714,1.4175456943705094
1.9204504489898682,0.5138986250174427,[0.49487471],5.0,0.6,0.0,-0.7206083907664942,-0.06644680245004005,1.4297892230024498
1.9318878650665283,0.5129216314337594,[0.4951216],5.0,0.6,0.0,0.5155135963336681,-0.06037716741599853,1.438400027331026
1.945887565612793,0.5117492391333394,[0.49536815],5.0,0.6,0.0,1.564251513478835,-0.052880031965438876,1.4459285670922106
1.9579503536224365,0.510772245549656,[0.49561351],5.0,0.6,0.0,2.33462053767919,-0.04651595342183338,1.4510416809362785
1.969937801361084,0.5095998532492361,[0.49585683],5.0,0.6,0.0,3.1170075769797587,-0.04008742608454082,1.45575005559932
1.9835424423217773,0.5082320622320793,[0.49609731],5.0,0.6,0.0,3.717206788751743,-0.03156631825428536,1.4607982160714612
1.997955560684204,0.5066688724981859,[0.49633432],5.0,0.6,0.0,4.100097188357813,-0.022500798521252884,1.4665072437829092
2.0119826793670654,0.5053010814810293,[0.49656731],5.0,0.6,0.0,4.291063808261038,-0.014631286944792037,1.4713393951367892
2.0213305950164795,0.5045194866140825,[0.49679556],5.0,0.6,0.0,4.60849290729786,-0.012131045821533225,1.4725766977976922
2.032870292663574,0.5033470943136626,[0.49701806],5.0,0.6,0.0,4.851029480911142,-0.006247903165610025,1.4748063926865562
2.0449471473693848,0.5019793032965058,[0.49723401],5.0,0.6,0.0,5.0,0.0015131501630267306,1.4772386266688953
2.052952527999878,0.5013931071462958,[0.49744264],5.0,0.6,0.0,5.0,0.005633494707031476,1.4786156843411717
2.0756003856658936,0.49943911997892915,[0.49764371],5.0,0.6,0.0,5.0,0.0228128733825961,1.481087569983582
2.088151216506958,0.49865752511198247,[0.49783831],5.0,0.6,0.0,5.0,0.02739738630576889,1.481597849581251
2.1058802604675293,0.49768053152829916,[0.49802779],5.0,0.6,0.0,5.0,0.03468722050283181,1.4817079449238852
2.119978904724121,0.4970943353780891,[0.49821308],5.0,0.6,0.0,5.0,0.036702173131490726,1.481481774898778
2.133204936981201,0.49689893666135243,[0.49839483],5.0,0.6,0.0,5.0,0.03721213076920662,1.4812846255870267
2.1459434032440186,0.4967035379446158,[0.4985735],5.0,0.6,0.0,5.0,0.03816661742830776,1.481032955038795
2.1619362831115723,0.49650813922787906,[0.49874974],5.0,0.6,0.0,5.0,0.03919285365823711,1.4807276132666778
2.1780200004577637,0.49650813922787906,[0.49892446],5.0,0.6,0.0,5.0,0.04132488416976918,1.4805650199824787
2.1972482204437256,0.49650813922787906,[0.49909942],5.0,0.6,0.0,5.0,0.04853044948694488,1.4803900150785494
2.2111220359802246,0.4967035379446158,[0.49927686],5.0,0.6,0.0,5.0,0.04811762413496062,1.4804085396673115
2.226051092147827,0.4967035379446158,[0.49945844],5.0,0.6,0.0,5.0,0.050143623972053165,1.4802153172133123
2.236769199371338,0.49689893666135243,[0.49964496],5.0,0.6,0.0,4.195215254818413,0.046728616264224455,1.4855618368809635
2.2522270679473877,0.4970943353780891,[0.49983709],5.0,0.6,0.0,3.4225953572347056,0.05174866392357074,1.4898521635263977
2.266873598098755,0.49728973409482574,[0.50003616],5.0,0.6,0.0,3.042097536510286,0.05372935204741993,1.4916508568058755
2.2818682193756104,0.49768053152829916,[0.50024364],5.0,0.6,0.0,2.271575720676711,0.054035381737859385,1.4948605304787257
2.2968881130218506,0.4980713289617725,[0.50046053],5.0,0.6,0.0,2.0466831341356073,0.05439390514020633,1.4957504715394312
2.310943841934204,0.49846212639524584,[0.50068774],5.0,0.6,0.0,1.7396141935811822,0.05504095391991409,1.496762139892593
2.328930616378784,0.49904832254545584,[0.50092679],5.0,0.6,0.0,1.4435521954168333,0.062047694416884895,1.4977457080955503
2.3434994220733643,0.49963451869566583,[0.50117994],5.0,0.6,0.0,1.1899635860083149,0.062335114541739955,1.4984694755365686
2.357825517654419,0.5002207148458758,[0.50144878],5.0,0.6,0.0,1.2599920402133722,0.06082245256805552,1.49851801926769
2.372668981552124,0.5010023097128224,[0.50173433],5.0,0.6,0.0,1.1297615184418002,0.0633667094199439,1.4989436131394573
2.3838140964508057,0.5013931071462958,[0.50203723],5.0,0.6,0.0,0.9462342673210491,0.05680051204938909,1.4992509623512273
2.3985848426818848,0.5021747020132425,[0.5023575],5.0,0.6,0.0,0.769060835854952,0.06110655431064417,1.4995532319872025
2.41326904296875,0.5031516955969259,[0.50269606],5.0,0.6,0.0,0.8944059159446326,0.06223108589683153,1.4993633420433268
2.4246926307678223,0.5039332904638726,[0.50305388],5.0,0.6,0.0,0.8065751608682228,0.056768510029652344,1.4993612946418018
2.44116473197937,0.5049102840475559,[0.50343149],5.0,0.6,0.0,0.9331490880811075,0.06332449450472526,1.4989149501275785
2.4569149017333984,0.5056918789145026,[0.50383066],5.0,0.6,0.0,0.817476128085045,0.06711228445136604,1.4988101986806965
2.4707138538360596,0.5068642712149226,[0.50425304],5.0,0.6,0.0,0.6359678192699318,0.06193160776387542,1.4983362383187508
2.4848806858062744,0.5078412647986059,[0.50469951],5.0,0.6,0.0,0.4601154929787151,0.06716973436085037,1.4978702486888222
2.4963667392730713,0.5088182583822893,[0.50517092],5.0,0.6,0.0,0.31397494913978735,0.06216841068533728,1.4972695389448316
2.5058999061584473,0.5097952519659726,[0.5056666],5.0,0.6,0.0,0.20140060319020262,0.05320849844199128,1.4965664546240878
2.522709846496582,0.5111630429831293,[0.50618643],5.0,0.6,0.0,0.3946452511318118,0.06949508612611627,1.494942997043473
2.538874864578247,0.5123354352835494,[0.50673312],5.0,0.6,0.0,0.3688730293052182,0.06783046795888026,1.493641200482089
2.55194091796875,0.5135078275839694,[0.50730865],5.0,0.6,0.0,0.273047621208656,0.06687147924782114,1.4922879933096764
2.567143678665161,0.5148756186011261,[0.50791343],5.0,0.6,0.0,0.16959534321700537,0.0656556105266743,1.4903310083958914
2.580953598022461,0.5162434096182827,[0.50854793],5.0,0.6,0.0,0.08130800181894457,0.06502796631573741,1.488220864648507
2.5929105281829834,0.5176112006354395,[0.50921266],5.0,0.6,0.0,0.013702668847816277,0.06492601547641953,1.4859918083556873
2.6059069633483887,0.5187835929358594,[0.50990819],5.0,0.6,0.0,-0.3106008358501659,0.06643415602202873,1.4842970793640289
2.618271827697754,0.5201513839530162,[0.51063514],5.0,0.6,0.0,-0.376177916242713,0.06733534657019395,1.4819459234017924
2.633995771408081,0.5219099724036462,[0.51139422],5.0,0.6,0.0,-0.06543294806071653,0.06647314574808515,1.478123389607619
2.6478476524353027,0.5234731621375396,[0.51218621],5.0,0.6,0.0,-0.2438453481729284,0.06712979102326623,1.4747985399642758
2.660862922668457,0.5250363518714329,[0.51301193],5.0,0.6,0.0,-0.26690356099781143,0.0680379837610983,1.4714437480018416
2.673811435699463,0.5265995416053263,[0.51387226],5.0,0.6,0.0,0.04368453733122035,0.06899024165036083,1.4681209961945358
2.6878557205200195,0.5283581300559563,[0.51476809],5.0,0.6,0.0,0.12613243504262783,0.06922236138627746,1.4637241804589616
2.7019102573394775,0.530312117223323,[0.51570029],5.0,0.6,0.0,0.39397885804816896,0.06846942499655799,1.4580822479247988
2.7172963619232178,0.5322661043906898,[0.51667009],5.0,0.6,0.0,0.11382832017342995,0.07158275261525429,1.452507539841652
2.7387032508850098,0.5350016864250031,[0.51768338],5.0,0.6,0.0,-0.014876217071965056,0.1083092385020282,1.4417787547245866
2.753880023956299,0.5373464710258432,[0.51874954],5.0,0.6,0.0,-0.07018276543321289,0.09593287517007397,1.4331651068156024
2.767871856689453,0.5391050594764732,[0.51987183],5.0,0.6,0.0,-0.3665430836786247,0.08738500786017891,1.4285870708839252
2.7819132804870605,0.5412544453605765,[0.52104817],5.0,0.6,0.0,-0.12773901899857518,0.07933561127761879,1.4215743196515738
2.7968802452087402,0.54340383124468,[0.5222763],5.0,0.6,0.0,-0.312528646435168,0.0733701701741163,1.4145217768520268
2.8137402534484863,0.5459440145622566,[0.52355581],5.0,0.6,0.0,0.23326000927294777,0.08333120546859117,1.4045740663448552
2.8272128105163574,0.5478980017296233,[0.52488791],5.0,0.6,0.0,0.35571918810046854,0.07580923383808426,1.399426814939593
2.8391876220703125,0.5496565901802534,[0.52627038],5.0,0.6,0.0,0.3143304011380083,0.06155847006388178,1.3963134870783058
2.8576035499572754,0.5525875709313035,[0.52770131],5.0,0.6,0.0,0.22427447390036578,0.08426469829356358,1.3834615044018315
2.8691349029541016,0.5543461593819334,[0.52918154],5.0,0.6,0.0,-0.14307129969621785,0.06326541947261106,1.381025303468284
2.878887176513672,0.5557139503990901,[0.53070558],5.0,0.6,0.0,-0.2521534915619821,0.04339879756977131,1.3823756986153133
2.893333911895752,0.5584495324334036,[0.53226508],5.0,0.6,0.0,-0.25432335175718934,0.04806511892104385,1.3718130103871145
2.9084694385528564,0.5607943170342435,[0.53385806],5.0,0.6,0.0,-0.49464164717498077,0.05879175696964739,1.3647430133576264
2.927501916885376,0.5637252977852937,[0.53548981],5.0,0.6,0.0,-0.7600475628389638,0.08845831216834245,1.352183963399334
2.9410955905914307,0.5658746836693971,[0.53716734],5.0,0.6,0.0,-0.6979456378133143,0.07806078737127281,1.347681904739788
2.9559266567230225,0.5680240695535003,[0.53889129],5.0,0.6,0.0,-0.8098485658654071,0.07084564378036595,1.3433930801783172
2.971907138824463,0.570564252871077,[0.54065796],5.0,0.6,0.0,-0.9468013174882289,0.06446956566915167,1.335541623640248
2.983891010284424,0.5725182400384438,[0.54246414],5.0,0.6,0.0,-1.054437473682652,0.06311135398908459,1.3339006987721174
2.998932361602783,0.5748630246392838,[0.5443072],5.0,0.6,0.0,-1.1195295667879943,0.06151766477099773,1.3287342381126812
3.01200008392334,0.5770124105233871,[0.54618504],5.0,0.6,0.0,-1.1451206190871686,0.062211288686332765,1.3259298811951923
3.0274741649627686,0.5797479925577007,[0.54809664],5.0,0.6,0.0,-0.8633502292021971,0.065416485267102,1.3178801379383047
3.0449609756469727,0.5828743720254873,[0.55004539],5.0,0.6,0.0,-0.5257856262616514,0.0876303599983206,1.3058935262469467
3.061767101287842,0.5858053527765374,[0.55204043],5.0,0.6,0.0,-0.5041214934394438,0.09990047545762734,1.2959239470690465
3.0779802799224854,0.5887363335275874,[0.55409001],5.0,0.6,0.0,-0.5822440393102964,0.09593455084448546,1.2863177248783395
3.090792179107666,0.5908857194116909,[0.55619414],5.0,0.6,0.0,-0.670667683533125,0.07658588649047612,1.2857417606497603
3.103114128112793,0.5930351052957942,[0.55834945],5.0,0.6,0.0,-0.7375597768205681,0.09514308963240588,1.2857364058126888
3.116783380508423,0.5953798898966343,[0.56055712],5.0,0.6,0.0,-0.7759584956603451,0.0946428378800991,1.2841960186282355
3.1265413761138916,0.597333877064001,[0.56281406],5.0,0.6,0.0,-0.5125367297218091,0.0663281247551529,1.287752186470867
3.1399049758911133,0.599678661664841,[0.5651121],5.0,0.6,0.0,0.08020989722236976,0.08313352111396383,1.2874341257105462
3.1489055156707764,0.601437250115471,[0.56744481],5.0,0.6,0.0,0.11333803216692115,0.05755868109967299,1.2936527924004815
3.159836769104004,0.6033912372828377,[0.56980523],5.0,0.6,0.0,0.23465297034084026,0.07337155061109782,1.2979930978240124
3.172840118408203,0.6057360218836778,[0.57219161],5.0,0.6,0.0,0.35849838525743594,0.09008753947769342,1.29838424682238
3.18487286567688,0.6078854077677811,[0.5746082],5.0,0.6,0.0,0.17928764454926976,0.09899709485318152,1.3013124007993708
3.1986238956451416,0.6106209898020944,[0.57706008],5.0,0.6,0.0,-0.06560858927010524,0.11381878358726552,1.2982999262466144
3.2138097286224365,0.6133565718364078,[0.57955386],5.0,0.6,0.0,-0.008299604695663473,0.11999969642582863,1.2957066355843019
3.2288243770599365,0.6162875525874579,[0.58209572],5.0,0.6,0.0,0.13553034838877515,0.12407321632277205,1.2914935256670237
3.241809129714966,0.6190231346217714,[0.5846906],5.0,0.6,0.0,0.2782659980666936,0.1283705239410176,1.2899248344952725
3.2558722496032715,0.6217587166560847,[0.58734312],5.0,0.6,0.0,0.39019031663211945,0.13216634098820132,1.2889673923812406
3.2670671939849854,0.6241035012569247,[0.59005702],5.0,0.6,0.0,0.46624548225232976,0.13587778186285296,1.2929170558918976
3.2792820930480957,0.6268390832912382,[0.59283569],5.0,0.6,0.0,0.510705353369332,0.1411421949222642,1.293350047095442
3.2928857803344727,0.6299654627590249,[0.59568307],5.0,0.6,0.0,0.8064540595822668,0.1419408606189558,1.2900422758543348
3.3078908920288086,0.633482639660285,[0.59860247],5.0,0.6,0.0,1.1172480678006866,0.14065843964484226,1.2830880996864815
3.321805000305176,0.6368044178448083,[0.60159616],5.0,0.6,0.0,1.3604288248897398,0.1402917556302064,1.27904319232127
3.33590030670166,0.6401261960293317,[0.60466587],5.0,0.6,0.0,1.5193086253695687,0.13996285054345767,1.2759282669454688
3.3498778343200684,0.6438387716473285,[0.60781277],5.0,0.6,0.0,1.8786630119042325,0.13766268614524108,1.2687593463901983
3.363867998123169,0.6473559485485886,[0.61103747],5.0,0.6,0.0,1.6596722062068507,0.13662467995204766,1.2660760252959657
3.375849962234497,0.6508731254498485,[0.61434003],5.0,0.6,0.0,1.5521847948973617,0.13574804632902235,1.2639338130721
3.3908519744873047,0.6547810997845819,[0.61771998],5.0,0.6,0.0,1.7584362268695428,0.13302565786682038,1.2574995421562694
3.408721685409546,0.6596660677029987,[0.62118254],5.0,0.6,0.0,1.7293841999025954,0.12054432065469232,1.2414200274282396
3.4178264141082764,0.6620108523038388,[0.62473146],5.0,0.6,0.0,1.6093317338821498,0.1296746637022375,1.2554100192932383
3.4308159351348877,0.6655280292050988,[0.62835686],5.0,0.6,0.0,1.1874367545450475,0.13098835531833009,1.2575070700670523
3.444868803024292,0.6696314022565689,[0.63204974],5.0,0.6,0.0,0.7342592909395242,0.12923132429594508,1.253513341692035
3.4578840732574463,0.673148579157829,[0.63580816],5.0,0.6,0.0,0.6243398336720458,0.13030278013784893,1.2563547370236847
3.471889019012451,0.6772519522092991,[0.63963],5.0,0.6,0.0,0.36230371364343683,0.12871586718855177,1.253360054472418
3.4879353046417236,0.6821369201277159,[0.64351616],5.0,0.6,0.0,0.0967252464474826,0.12045003233264054,1.24206230438071
3.4987778663635254,0.6848725021620292,[0.64746693],5.0,0.6,0.0,-0.12069465072646313,0.1291755963144251,1.2558973563429032
3.509854793548584,0.6881942803465526,[0.65147566],5.0,0.6,0.0,-0.27984937208161825,0.13241741892624517,1.2635873336290875
3.522860050201416,0.6921022546812859,[0.65553625],5.0,0.6,0.0,-0.6626834769793081,0.13293688961688568,1.2650289490055273
3.536863327026367,0.6964010264494928,[0.65964635],5.0,0.6,0.0,-0.7608133020447074,0.13162418142294524,1.2628104943334293
3.5472190380096436,0.6995274059172796,[0.66379921],5.0,0.6,0.0,-0.7394939226170917,0.13510816341112175,1.2742765428153309
3.5638065338134766,0.7048031712691696,[0.66798873],5.0,0.6,0.0,-0.3988502946839812,0.1287649977380994,1.2624518079462022
3.5787761211395264,0.7092973417541131,[0.67221808],5.0,0.6,0.0,-0.291358704181795,0.12743081152297123,1.2595284630751795
3.591796398162842,0.7134007148055831,[0.67648952],5.0,0.6,0.0,-0.27586916747762785,0.128209838537148,1.2614265306648016
3.6047983169555664,0.7175040878570531,[0.68080006],5.0,0.6,0.0,-0.289636874060512,0.12916784005363408,1.26374680707334
3.6178667545318604,0.7216074609085232,[0.68514659],5.0,0.6,0.0,-0.3067339062423321,0.1302965819699181,1.2664618214953638
3.633820056915283,0.7268832262604134,[0.68952595],5.0,0.6,0.0,-0.3179737382774926,0.12579195602479581,1.256378988646719
3.6523897647857666,0.7327451877625135,[0.69394242],5.0,0.6,0.0,-0.3213762989195006,0.09456036608343858,1.2399039755886103
3.66464900970459,0.7368485608139834,[0.69840378],5.0,0.6,0.0,-0.5937906157425645,0.11555759360220763,1.2438224748780398
3.6758177280426025,0.7403657377152436,[0.70290233],5.0,0.6,0.0,-0.6179041507919409,0.12603148828457664,1.2549697435908804
3.693844795227051,0.7458369017838703,[0.70742965],5.0,0.6,0.0,-0.8261067723199559,0.10624906693010491,1.2440063775673642
3.7106564044952393,0.7513080658524971,[0.71199653],5.0,0.6,0.0,-0.7680759406572752,0.08205637729709753,1.2336835130465424
3.7258975505828857,0.7561930337709138,[0.7166133],5.0,0.6,0.0,-0.9021652434738886,0.09766572766679796,1.2304170233237883
3.739837169647217,0.7608826029725938,[0.72127496],5.0,0.6,0.0,-1.0618142791360035,0.10630536493781649,1.2298609113815464
3.7538504600524902,0.7653767734575373,[0.72597057],5.0,0.6,0.0,-1.1866184606489252,0.11176029270482173,1.2319820969628035
3.768780469894409,0.7702617413759542,[0.73069016],5.0,0.6,0.0,-1.5382887427892387,0.11331833533421841,1.229358372352926
3.783795118331909,0.7747559118608975,[0.7354263],5.0,0.6,0.0,-1.6016947311328056,0.11359907181306335,1.2320077087999752
3.7957799434661865,0.7786638861956309,[0.74017231],5.0,0.6,0.0,-1.8170505019936198,0.120762617830443,1.2410975086827485
3.8121256828308105,0.783939651547521,[0.7449228],5.0,0.6,0.0,-1.7425735406588179,0.11435855910692476,1.2352640670412602
3.822861433029175,0.787456828448781,[0.7496731],5.0,0.6,0.0,-1.5680101797227182,0.12436152553081502,1.249794850895361
3.8368418216705322,0.7917556002169878,[0.75441361],5.0,0.6,0.0,-1.3755699145361888,0.12673168860572245,1.2552204827475157
3.849794387817383,0.7956635745517212,[0.75913648],5.0,0.6,0.0,-1.1974300975920145,0.13084672046661722,1.2647250457869552
3.8638179302215576,0.799962346319928,[0.76383907],5.0,0.6,0.0,-1.0433724290301956,0.13292807007149762,1.269488005614119
3.8758676052093506,0.8038703206546614,[0.76851967],5.0,0.6,0.0,-0.6377813404471446,0.13668570380368553,1.2785497417185616
3.8930225372314453,0.8095368834400247,[0.77318012],5.0,0.6,0.0,-0.49664378104138135,0.12975292067534774,1.2675113917470717
3.9100375175476074,0.8152034462253882,[0.77783229],5.0,0.6,0.0,-0.18547830926667985,0.10414913386701709,1.256271772538007
3.9256486892700195,0.8204792115772783,[0.78249452],5.0,0.6,0.0,0.12354045036488845,0.0951439467094612,1.2493249344291604
3.939690351486206,0.8251687807789585,[0.78717605],5.0,0.6,0.0,0.3716719189519464,0.1084460989029352,1.2491419239960848
3.95363450050354,0.8296629512639019,[0.79187612],5.0,0.6,0.0,0.27255427808506044,0.10801667139017156,1.2515312389704516
3.9627742767333984,0.8325939320149518,[0.79658399],5.0,0.6,0.0,0.07718412440168579,0.13042205185793204,1.2715537896290616
3.975022315979004,0.8363065076329487,[0.8012793],5.0,0.6,0.0,-0.11298521870155702,0.1365797822072761,1.2823968445314724
3.9868016242980957,0.840214481967682,[0.80594822],5.0,0.6,0.0,-0.26399190298400305,0.13753885359446688,1.2906491616612412
4.008787631988525,0.8476396332036755,[0.81060227],5.0,0.6,0.0,-0.6465673979553003,0.07265696005509276,1.2597524702148026
4.024839401245117,0.8529153985555658,[0.81527296],5.0,0.6,0.0,-0.7472215374697619,0.08694355728943803,1.252810024349888
4.047925710678101,0.8605359485082957,[0.81999217],5.0,0.6,0.0,-0.7290060555697491,0.030597041170718133,1.2194206347629457
4.062825918197632,0.8650301189932391,[0.82478774],5.0,0.6,0.0,-0.6672274244684107,0.012961660299580005,1.222998693949601
4.075108528137207,0.8691334920447094,[0.829667],5.0,0.6,0.0,-0.5951526701398855,0.035163278518861425,1.2320687267998238
4.089782476425171,0.8740184599631259,[0.83461965],5.0,0.6,0.0,-0.8023532950916308,0.058307786762152876,1.2326355531646347
4.103326082229614,0.878121833014596,[0.83963663],5.0,0.6,0.0,-1.0504842338896867,0.075522157077643,1.2428014517210795
4.117755889892578,0.8820298073493293,[0.84471004],5.0,0.6,0.0,-1.804120763925344,0.08851530007070568,1.2544611007081465
4.132841110229492,0.8863285791175362,[0.84983301],5.0,0.6,0.0,-2.555689704465587,0.0966291092935035,1.2613053089943633
4.146762847900391,0.8902365534522696,[0.85499965],5.0,0.6,0.0,-2.8570881463534348,0.10481696824348057,1.2740643900760342
4.159860134124756,0.8939491290702664,[0.86020498],5.0,0.6,0.0,-2.921980925960237,0.11284872101648867,1.2900209635027708
4.1717917919158936,0.8970755085380532,[0.86544481],5.0,0.6,0.0,-2.5872871233970596,0.12298079053762657,1.3136904039606312
4.184733152389526,0.9007880841560499,[0.8707157],5.0,0.6,0.0,-1.8804324587027221,0.1296464079703597,1.331918799053931
4.200727939605713,0.9054776533577299,[0.87601483],5.0,0.6,0.0,-1.4415175528682798,0.13116157716687796,1.3390788838201932
4.213773727416992,0.9095810264092,[0.88133996],5.0,0.6,0.0,-0.6028981515035297,0.13520141148776732,1.3522896449131923
4.227771997451782,0.9136843994606699,[0.88668935],5.0,0.6,0.0,-0.06371517069794574,0.13917542034089428,1.3643737034048073
4.240837574005127,0.9173969750786667,[0.89206164],5.0,0.6,0.0,0.5534074580615628,0.14497475760792078,1.3792947876313812
4.255978345870972,0.9220865442803469,[0.89745719],5.0,0.6,0.0,1.0717324645012003,0.1355307670009237,1.3848953100403238
4.26777458190918,0.9256037211816069,[0.90287645],5.0,0.6,0.0,1.4469020957563057,0.15555877577341357,1.4002951995995756
4.28174901008606,0.930293290383287,[0.90831719],5.0,0.6,0.0,1.6873306411144338,0.15591466470855614,1.4058134632949462
4.2948338985443115,0.9343966634347571,[0.91377764],5.0,0.6,0.0,1.542404805823647,0.15932602007473837,1.4167180300897337
4.3078293800354,0.9386954352029638,[0.91925782],5.0,0.6,0.0,1.5584602706779513,0.16199273964125954,1.4254155026237438
4.323474168777466,0.9435804031213805,[0.92475924],5.0,0.6,0.0,1.8806380122872033,0.1497922602105172,1.428978337047695
4.335850715637207,0.9476837761728507,[0.9302833],5.0,0.6,0.0,1.9415673402796232,0.1691122270549768,1.4384433919336914
4.35010552406311,0.9519825479410575,[0.93582918],5.0,0.6,0.0,2.1595376583642385,0.16525168054263598,1.4456925057521999
4.371936082839966,0.9596030978937875,[0.94141532],5.0,0.6,0.0,2.360746362922125,0.16800901910100702,1.4318505040393452
4.385173559188843,0.9640972683787309,[0.94707482],5.0,0.6,0.0,2.2139608580245844,0.1519317315492818,1.4400590230890018
4.399708032608032,0.9689822362971477,[0.95281625],5.0,0.6,0.0,1.9564429333166857,0.15033346122297733,1.4462334498911944
4.413516521453857,0.9738672042155644,[0.95863079],5.0,0.6,0.0,1.9647586196032216,0.14646656779878756,1.4517663562377412
4.429815292358398,0.980119963151138,[0.96451035],5.0,0.6,0.0,2.0335156448002687,0.13886132814080634,1.449367561464133
4.44180703163147,0.9844187349193447,[0.97044616],5.0,0.6,0.0,1.8082303989228001,0.14311947001739803,1.4592778598373815
4.456791639328003,0.9900852977047081,[0.97643037],5.0,0.6,0.0,1.50936897368896,0.1422997025522974,1.4617023342496756
4.470842599868774,0.9951656643398614,[0.982456],5.0,0.6,0.0,1.2254872618125092,0.1454390970979274,1.4670924628918507
4.483786106109619,0.9998552335415416,[0.98851683],5.0,0.6,0.0,0.9856606957519866,0.15132636807984168,1.4738931788311675
4.497868776321411,1.0049356001766951,[0.99460737],5.0,0.6,0.0,0.7937590058466146,0.15749634076693658,1.4784227225245876
4.510787010192871,1.0094297706616386,[1.00072275],5.0,0.6,0.0,0.36818697939639283,0.16622673611780805,1.4848510289643015
4.523707389831543,1.0141193398633186,[1.00685865],5.0,0.6,0.0,0.21985190553015518,0.17363583129115576,1.4894758769254648
4.539493083953857,1.0201767000821553,[1.0130127],5.0,0.6,0.0,0.1863325715642309,0.17604953658865521,1.4897620705656618
4.55301570892334,1.0258432628675187,[1.01918419],5.0,0.6,0.0,0.19391658844099757,0.17705620670753835,1.4911425648123997
4.562728643417358,1.0293604397687788,[1.0253694],5.0,0.6,0.0,-0.0650704376574513,0.1976055095202247,1.4968162392386772
4.576735973358154,1.034636205120669,[1.03156211],5.0,0.6,0.0,0.19217175997395583,0.19974193903359483,1.498084280883793
4.589742183685303,1.0397165717558223,[1.03775842],5.0,0.6,0.0,0.28841932929812464,0.20340904437197777,1.4991714991989018
4.603706121444702,1.045187735824449,[1.04395645],5.0,0.6,0.0,0.3110785581841269,0.20567816537111064,1.4996248018446843
4.6157684326171875,1.0506588998930757,[1.05015461],5.0,0.6,0.0,0.30200414526248387,0.20827713856319277,1.499881249084165
4.63074803352356,1.0561300639617026,[1.05635154],5.0,0.6,0.0,0.5568499480694966,0.21103297480716324,1.499759417678868
4.6438539028167725,1.0614058293135928,[1.06254616],5.0,0.6,0.0,0.5655367987521853,0.21488327245011704,1.4995019352308478
4.6577465534210205,1.0668769933822195,[1.06873761],5.0,0.6,0.0,0.7625618833148823,0.21775681239708325,1.4988751812670595
4.6727495193481445,1.0733251510345296,[1.07492524],5.0,0.6,0.0,0.6976080108415075,0.21577514742335135,1.4991259386726739
4.692131996154785,1.0815318971374697,[1.08111966],5.0,0.6,0.0,0.27622849416377004,0.240658812876882,1.499909215836816
4.7021379470825195,1.085439871472203,[1.08733276],5.0,0.6,0.0,-0.18317271370903243,0.21998237736741974,1.4992586766558307
4.716228246688843,1.0911064342575667,[1.09355686],5.0,0.6,0.0,-0.5653326040863622,0.2229545325224276,1.4985619535642811
4.735443592071533,1.09911778164377,[1.09979723],5.0,0.6,0.0,-0.8432264198093392,0.25713128389487333,1.4993786618562117
4.751831293106079,1.105761338012817,[1.10608039],5.0,0.6,0.0,-0.748589657789944,0.24929654271854054,1.4995626637252002
4.766799449920654,1.111623299514917,[1.11241577],5.0,0.6,0.0,-0.8190343183063247,0.23984584541657988,1.4993752978932524
4.780794858932495,1.1170944635835438,[1.1187953],5.0,0.6,0.0,-0.9194222995614495,0.23608371893692093,1.4987927233105438
4.794812202453613,1.1227610263689072,[1.12520939],5.0,0.6,0.0,-0.9993452460611791,0.23403431845935546,1.4980589486303264
4.8095903396606445,1.1286229878710075,[1.13165096],5.0,0.6,0.0,-1.0455009485820443,0.23773263310693304,1.4973549399089217
4.821789026260376,1.1338987532228972,[1.13811362],5.0,0.6,0.0,-1.0594680036797706,0.23441999485222798,1.4956184066608875
4.834793567657471,1.1393699172915244,[1.14458869],5.0,0.6,0.0,-0.7716645981158583,0.23763989762465024,1.4941246140929954
4.848779678344727,1.144841081360151,[1.15106855],5.0,0.6,0.0,-0.9841904954559799,0.24141936043405557,1.491553206617169
4.865668773651123,1.1514846377291978,[1.1575539],5.0,0.6,0.0,-1.029593862212427,0.2590694722616349,1.4918713854721946
4.8847856521606445,1.1591051876819278,[1.16406493],5.0,0.6,0.0,-0.7241636484119697,0.29294886610422,1.4947020525962245
4.899624586105347,1.1653579466175013,[1.17062619],5.0,0.6,0.0,-0.6311451581920353,0.27613491436845405,1.4941680534817317
4.911430835723877,1.1702429145359179,[1.17723491],5.0,0.6,0.0,-0.6166230142084997,0.26169082968717106,1.4899870830528323
4.9241015911102295,1.1753232811710714,[1.18386823],5.0,0.6,0.0,-0.6227364248994272,0.25320208827768936,1.4852142957224066
4.934191703796387,1.1792312555058049,[1.19050057],5.0,0.6,0.0,-0.6268600990654628,0.31018007474166054,1.4746279260384818
4.951585292816162,1.186851805458535,[1.19711827],5.0,0.6,0.0,-0.6220372587901966,0.27228687505401833,1.4788526255350294
4.961356163024902,1.190955178510005,[1.20371862],5.0,0.6,0.0,-0.6077855334116672,0.31828256466374677,1.4676690479066077
4.973412275314331,1.1956447477116852,[1.21028643],5.0,0.6,0.0,-0.5859121084507806,0.3391760623866479,1.457774905698669
4.991406440734863,1.202874500230942,[1.21681797],5.0,0.6,0.0,-0.5587095016656034,0.29899445959641363,1.461629905900789
5.006666898727417,1.2087364617330423,[1.22333598],5.0,0.6,0.0,-0.5282548796021922,0.3041917160615297,1.4580589575974034
5.01995587348938,1.2140122270849323,[1.22985411],5.0,0.6,0.0,-0.22016206857724413,0.30242855906856486,1.4510097425522224
5.03418493270874,1.2196787898702957,[1.23636865],5.0,0.6,0.0,-0.15460380965729095,0.29869310428286067,1.4457953407799846
5.042598485946655,1.2245637577887123,[1.24286275],5.0,0.6,0.0,-0.17774249999401687,0.36788264035750484,1.4351991816485528
5.055341720581055,1.2288625295569193,[1.24931228],5.0,0.6,0.0,-0.22291234682749722,0.3685890583477851,1.4197267644166995
5.064719200134277,1.232379706458179,[1.25569965],5.0,0.6,0.0,-0.2639190069925713,0.4130862980514787,1.396890302473419
5.07771635055542,1.2376554718100692,[1.26201376],5.0,0.6,0.0,-0.29262682753523006,0.40241535804370004,1.3880413311583981
5.0907063484191895,1.2429312371619592,[1.26825503],5.0,0.6,0.0,-0.3084084138859231,0.3905157576925768,1.379554825580163
5.10168719291687,1.2476208063636394,[1.27443289],5.0,0.6,0.0,-0.31332835045353724,0.38329929949136204,1.3660072960522598
5.113178730010986,1.2523103755653198,[1.28055185],5.0,0.6,0.0,-0.31005610763765074,0.4123643251310793,1.352484662925118
5.1214599609375,1.2558275524665796,[1.28660115],5.0,0.6,0.0,-0.3010470359037039,0.45828609865592546,1.327385676978968
5.132685422897339,1.2599309255180497,[1.29256166],5.0,0.6,0.0,-0.28828986445672355,0.46714228052481266,1.3081323320891034
5.144695520401001,1.26462049471973,[1.29842943],5.0,0.6,0.0,-0.27329018910365205,0.45883646250945026,1.2955840883467682
5.155715465545654,1.2693100639214097,[1.30421787],5.0,0.6,0.0,-0.5331772432193054,0.4464043588363304,1.2835025649377876
5.16740608215332,1.2743904305565632,[1.30994013],5.0,0.6,0.0,-0.549762797344576,0.45715215221124433,1.2764322079012689
5.1800453662872314,1.2796661959084534,[1.3156039],5.0,0.6,0.0,-0.47825685962105013,0.44655089529021524,1.2721904322692625
5.188056468963623,1.2827925753762401,[1.32120685],5.0,0.6,0.0,-0.38623250737417925,0.4977210185700494,1.2443227796070109
5.203338861465454,1.2888499355950767,[1.32674347],5.0,0.6,0.0,-0.30045106248923986,0.46520585216152316,1.2503064438142226
5.211735725402832,1.2919763150628636,[1.33222034],5.0,0.6,0.0,-0.2293728955530768,0.4956997204081065,1.2232716531402552
5.223698377609253,1.2970566816980171,[1.33764605],5.0,0.6,0.0,-0.17378156108770704,0.4795773043501606,1.2192612530645046
5.236226320266724,1.3019416496164338,[1.34303083],5.0,0.6,0.0,-0.13165396149321054,0.46923998890115054,1.2134219811653277
5.244187355041504,1.3052634278009572,[1.34837719],5.0,0.6,0.0,-0.10028608091228094,0.5208775469386246,1.189512684910679
5.253693580627441,1.3089760034189541,[1.35366926],5.0,0.6,0.0,-0.07713929419302595,0.5302944757292912,1.1706525286254472
5.265681266784668,1.3138609713373708,[1.35890101],5.0,0.6,0.0,-0.06011191764366888,0.5213704257252287,1.1664933968484565
5.277516841888428,1.3185505405390507,[1.3640874],5.0,0.6,0.0,-0.04756884970163945,0.5056438085725986,1.160522808252016
5.2907493114471436,1.3238263058909407,[1.36924687],5.0,0.6,0.0,-0.038282085843738774,0.49694951573328505,1.161922231605028
5.30566930770874,1.3302744635432509,[1.37439537],5.0,0.6,0.0,-0.03134895200384711,0.4606013895590011,1.1775093450331036
5.318686008453369,1.335550228895141,[1.37954946],5.0,0.6,0.0,-0.026114795035234332,0.4482348931687074,1.1789640290425258
5.332680702209473,1.3414121903972414,[1.38472303],5.0,0.6,0.0,-0.2981471805815266,0.4363099426386543,1.1871091457225456
5.344488143920898,1.3461017595989213,[1.38992608],5.0,0.6,0.0,-0.3281571137181182,0.43271560235912726,1.180973484506204
5.358082294464111,1.3513775249508115,[1.39516659],5.0,0.6,0.0,-0.2705960445182096,0.42834791891459323,1.1814200320720807
5.3665611743927,1.3548947018520714,[1.40043968],5.0,0.6,0.0,-0.19252656317968542,0.5178307075401133,1.160399192722279
5.379412889480591,1.3601704672039616,[1.40572671],5.0,0.6,0.0,-0.120376255828757,0.5164664812024522,1.1602804374690485
5.3901002407073975,1.364664637688905,[1.41101611],5.0,0.6,0.0,-0.06239596582848577,0.5220541863387961,1.1507066733453186
5.401652097702026,1.3687680107403752,[1.41630613],5.0,0.6,0.0,-0.2952842846039323,0.5225879123338236,1.1363054317195722
5.413735866546631,1.3736529786587917,[1.42159962],5.0,0.6,0.0,-0.29800174374389826,0.5070079817338053,1.1313589331145466
5.428666353225708,1.3797103388776286,[1.42690473],5.0,0.6,0.0,-0.22251184791976225,0.48773179473455525,1.1404913696208347
5.442675828933716,1.3857676990964651,[1.4322303],5.0,0.6,0.0,-0.1335121218287342,0.47180046921909746,1.1493554179520062
5.45465874671936,1.3906526670148822,[1.4375834],5.0,0.6,0.0,-0.055470032887080946,0.46503460667222507,1.143712990525489
5.46425986289978,1.3945606413496152,[1.44296514],5.0,0.6,0.0,0.004881340388114792,0.5037322534332325,1.1258784860928788
5.479441404342651,1.4008134002851889,[1.44837591],5.0,0.6,0.0,0.3240493258905296,0.4449304290478443,1.1359970412567073
5.4937424659729,1.4066753617872891,[1.4538243],5.0,0.6,0.0,0.38598739169523727,0.4429948819661835,1.1409668890036007
5.505920648574829,1.4115603297057058,[1.45931473],5.0,0.6,0.0,0.34869734215402937,0.4699313310857776,1.133662197695435
5.51718544960022,1.416054500190649,[1.46484003],5.0,0.6,0.0,0.28235658077847103,0.5017926083084012,1.1212006376849488
5.526030540466309,1.4197670758086463,[1.470382],5.0,0.6,0.0,0.4919163155629894,0.5539307512805982,1.0988915777100539
5.5383381843566895,1.4248474424437991,[1.47591836],5.0,0.6,0.0,0.46855830503653173,0.5512703921937998,1.093378352949281
5.549677133560181,1.4293416129287426,[1.48144038],5.0,0.6,0.0,0.09297774318078189,0.5485498502235985,1.0810796356633885
5.562659978866577,1.4346173782806328,[1.48695156],5.0,0.6,0.0,-0.0497355466898205,0.534861409127668,1.078234121579687
5.574689626693726,1.4395023461990497,[1.49245839],5.0,0.6,0.0,-0.08975322334554313,0.5250456933490409,1.070707216904073
5.586030721664429,1.4441919154007297,[1.4979641],5.0,0.6,0.0,-0.08802251530135062,0.544294962385829,1.0608510770287574
5.594403028488159,1.447513693585253,[1.50345768],5.0,0.6,0.0,-0.07212139172855249,0.5845577186938885,1.0347514224972492
5.603685140609741,1.4516170666367234,[1.50891771],5.0,0.6,0.0,-0.05381315113370232,0.593186251985023,1.0185717770290452
5.615674018859863,1.4565020345551398,[1.51433421],5.0,0.6,0.0,-0.03756262675707523,0.5867652552974125,1.012264571063601
5.62870192527771,1.4613870024735567,[1.51971484],5.0,0.6,0.0,-0.02461153511324684,0.5759161900350701,1.0064000513704192
5.641390800476074,1.4664673691087102,[1.52507206],5.0,0.6,0.0,-0.01488822980027812,0.5646788762153917,1.0031322601254702
5.652486324310303,1.4711569383103904,[1.5304115],5.0,0.6,0.0,-0.007873040937800191,0.5860962890503524,0.9954837125540406
5.66474175453186,1.4760419062288068,[1.53573095],5.0,0.6,0.0,-0.0029682749648742655,0.5868468601132265,0.9903889672191806
5.675217390060425,1.4803406779970136,[1.54102508],5.0,0.6,0.0,0.0003606486022152398,0.6053599602635229,0.9787774918835255
5.686827182769775,1.484834848481957,[1.54628607],5.0,0.6,0.0,0.0025453276537117904,0.6108752554173416,0.9698928408513056
5.700672626495361,1.4905014112673207,[1.55151248],5.0,0.6,0.0,0.003915927019545193,0.5953392492975731,0.9749859045480012
5.709869146347046,1.4940185881685808,[1.55671244],5.0,0.6,0.0,0.004716987722838852,0.6026892234582739,0.9556164960646245
5.720079183578491,1.4983173599367874,[1.56188812],5.0,0.6,0.0,0.005125851590504846,0.6204218875883931,0.9456380235680453
5.735697984695435,1.504570118872361,[1.56704281],5.0,0.6,0.0,0.0052692337232060965,0.5688080803628912,0.9581459923771862
5.749117374420166,1.5100412829409877,[1.5721925],5.0,0.6,0.0,0.005236657327333671,0.5739991629841351,0.9618316494461425
5.762622117996216,1.5155124470096146,[1.57735053],5.0,0.6,0.0,0.005090771912481662,0.5571160798694988,0.9654317407035812
5.773699522018433,1.5203974149280313,[1.5825168],5.0,0.6,0.0,0.28091338963815005,0.60377419631157,0.9621384517068567
5.782106161117554,1.5235237943958178,[1.58767518],5.0,0.6,0.0,0.31378224765279483,0.6272916174883222,0.9390038953570062
5.792720317840576,1.5278225661640248,[1.59280719],5.0,0.6,0.0,0.25840952504592385,0.6304915528948231,0.929679443628862
5.805733680725098,1.5330983315159148,[1.59791034],5.0,0.6,0.0,0.18204291647369258,0.6220700486516951,0.9316343706819963
5.820634365081787,1.5391556917347513,[1.6029936],5.0,0.6,0.0,0.11124141725154499,0.6081402280163739,0.9426054455174491
5.834641456604004,1.544626855803378,[1.60806726],5.0,0.6,0.0,0.05434927108540042,0.598140828501364,0.9471138500484826
5.847678184509277,1.5497072224385315,[1.61313988],5.0,0.6,0.0,0.012093253121798198,0.5919925633585408,0.9472038653221018
5.8607447147369385,1.554787589073685,[1.61821842],5.0,0.6,0.0,-0.017566407184935864,0.5877695975252204,0.9472244926550211
5.871640205383301,1.5594771582753653,[1.62330841],5.0,0.6,0.0,-0.03732390798165969,0.5871151882956511,0.9426888422553259
5.8846142292022705,1.5651437210607286,[1.62840947],5.0,0.6,0.0,-0.04969110136896944,0.6079243655518272,0.9490976190245037
5.8996405601501465,1.5710056825628287,[1.63352082],5.0,0.6,0.0,-0.05673255581047469,0.5688307742488062,0.9576577001026352
5.914656639099121,1.5770630427816656,[1.63865069],5.0,0.6,0.0,-0.06004045529781586,0.5671699810035391,0.9683153777518698
5.93781042098999,1.5866375799017622,[1.6438231],5.0,0.6,0.0,-0.0607971637237443,0.5309924505834422,1.0199399133914144
5.951474189758301,1.5921087439703892,[1.64907045],5.0,0.6,0.0,-0.0598590480622965,0.5106956620080622,1.0226034744546606
5.964972257614136,1.5971891106055427,[1.65440109],5.0,0.6,0.0,-0.05783513244364102,0.498304521337931,1.0196255355811128
5.974080324172974,1.6009016862235392,[1.6597927],5.0,0.6,0.0,-0.055152111616982205,0.5857384326823496,0.9997562585877857
5.985434293746948,1.6055912554252194,[1.66521185],5.0,0.6,0.0,-0.052104807531031055,0.5976458093900594,0.9911885667974816
6.0010926723480225,1.6120394130775293,[1.67064128],5.0,0.6,0.0,-0.04889393432152607,0.5654172163885756,1.003163884676118
6.009647369384766,1.6153611912620527,[1.67607572],5.0,0.6,0.0,-0.045653730552177745,0.608135222333087,0.9784258464525386
6.022662401199341,1.6208323553306796,[1.68150081],5.0,0.6,0.0,0.23356648338661642,0.6037121710728697,0.9789222784282738
6.038779258728027,1.6274759116997264,[1.68691122],5.0,0.6,0.0,0.2697592624721789,0.5794055968273071,0.9933082937050818
6.049654483795166,1.6317746834679334,[1.69231066],5.0,0.6,0.0,0.21758346835913112,0.5981886377989143,0.980468220031011
6.063647747039795,1.63724584753656,[1.69769576],5.0,0.6,0.0,0.14425539293729012,0.594717288138024,0.9814895922132316
6.075703859329224,1.6423262141717134,[1.70306357],5.0,0.6,0.0,0.07631755254898684,0.593922863570048,0.9781578522056273
6.090665340423584,1.6485789731072868,[1.70841463],5.0,0.6,0.0,0.022107746884572455,0.5881784125746446,0.9886728722046563
6.103655815124512,1.6538547384591769,[1.71374932],5.0,0.6,0.0,-0.2936854211637856,0.5879365806990036,0.9879200191069086
6.119381904602051,1.6601074973947505,[1.71906968],5.0,0.6,0.0,-0.07810678555918378,0.5740168415774447,0.9989162846389625
6.13620138168335,1.666751053763797,[1.72438525],5.0,0.6,0.0,-0.28352580787394266,0.5278858351696368,1.0145531883256251
6.147222518920898,1.671636021682214,[1.72970317],5.0,0.6,0.0,-0.3060357924257244,0.5780112982234131,1.0094132838056196
6.168678283691406,1.680428963935364,[1.73502958],5.0,0.6,0.0,-0.26169974024387693,0.48833892688779396,1.0508250674830348
6.182666301727295,1.685704729287254,[1.74038119],5.0,0.6,0.0,-0.20112271726544534,0.4988661361080901,1.0499335310105455
6.196629762649536,1.6913712920726174,[1.74576297],5.0,0.6,0.0,-0.4204506231279068,0.5252163168681188,1.053259157415952
6.210669994354248,1.696842456141244,[1.75116506],5.0,0.6,0.0,-0.4071518468070634,0.5413743670718856,1.0540990879238485
6.225665092468262,1.7028998163600813,[1.75657853],5.0,0.6,0.0,-0.3165882241624814,0.5483116212728848,1.0619099205084708
6.246647596359253,1.711888157329968,[1.76200824],5.0,0.6,0.0,0.06148500906460003,0.4668838292493891,1.105071139700148
6.261618614196777,1.7179455175488048,[1.76747346],5.0,0.6,0.0,0.18352624279853924,0.45656982807248664,1.1122317469407486
6.276689767837524,1.7240028777676415,[1.77297957],5.0,0.6,0.0,0.19773502337269241,0.48678202050849784,1.1189131219166606
6.290670156478882,1.7298648392697418,[1.77851438],5.0,0.6,0.0,0.17214926543985298,0.5098902803592775,1.1228864330806458
6.306657552719116,1.7363129969220519,[1.78406396],5.0,0.6,0.0,-0.1394931907489832,0.5196411401447353,1.133779809635981
6.323233127593994,1.7429565532910987,[1.78962052],5.0,0.6,0.0,-0.2063215591327205,0.49663939885393277,1.1469061222140797
6.3336341381073,1.7472553250593055,[1.79517707],5.0,0.6,0.0,-0.17914654254063667,0.5382606803396149,1.1317026534520354
6.348834037780762,1.7531172865614053,[1.80071939],5.0,0.6,0.0,-0.4007542903070266,0.5354744131094089,1.1354765221788083
6.362608194351196,1.7587838493467687,[1.80623699],5.0,0.6,0.0,-0.3795172049589333,0.535594729753425,1.1372914006192498
6.3757452964782715,1.7644504121321325,[1.81172492],5.0,0.6,0.0,-0.27956492310460707,0.5371181272179115,1.1395011473872758
6.387616872787476,1.768749183900339,[1.81717572],5.0,0.6,0.0,-0.16990250245028382,0.5475516512857943,1.1255899076292286
6.403156042098999,1.7750019428359125,[1.82258318],5.0,0.6,0.0,-0.35194880667602274,0.539319475961686,1.1357564088578858
6.421760320663452,1.7826224927886425,[1.8279554],5.0,0.6,0.0,-0.3130747771514524,0.4861972122250192,1.162904400576536
6.430278301239014,1.7863350684066395,[1.83329879],5.0,0.6,0.0,0.06934479123558965,0.5417375638157094,1.1433130977619537
6.443777799606323,1.7920016311920028,[1.83859861],5.0,0.6,0.0,0.21285580796928266,0.5399373690869345,1.1477128310143603
6.453724384307861,1.7959096055267365,[1.8438405],5.0,0.6,0.0,0.24961690819555765,0.5468711794275809,1.1315693528213437
6.465249300003052,1.8005991747284162,[1.84901873],5.0,0.6,0.0,0.24202452336506503,0.5495983893189388,1.1256523755431995
6.478811502456665,1.806070338797043,[1.85413114],5.0,0.6,0.0,0.21868857518372942,0.5478795441398563,1.1300067879130715
6.492477178573608,1.8111507054321965,[1.85917911],5.0,0.6,0.0,0.1920927668557013,0.5476867858984052,1.1304073860525237
6.505547523498535,1.8168172682175598,[1.86416427],5.0,0.6,0.0,0.16719537394046854,0.5443037652376397,1.138661717713512
6.5170300006866455,1.8217022361359765,[1.86908487],5.0,0.6,0.0,0.4216073906334542,0.5416042387243688,1.1381193047282239
6.526903390884399,1.8260010079041833,[1.87393106],5.0,0.6,0.0,0.436521105682361,0.5337539149569142,1.1314841408781955
6.536602258682251,1.8297135835221803,[1.87868852],5.0,0.6,0.0,0.3662445084743472,0.52706905779825,1.1188637322538322
6.54963493347168,1.835184747590807,[1.88334974],5.0,0.6,0.0,0.2774942500874887,0.5349581811249419,1.1287230856548178
6.564352512359619,1.8408513103761703,[1.88792072],5.0,0.6,0.0,0.19632809089347547,0.5379135557336281,1.142010483676898
6.574681043624878,1.8449546834276405,[1.89241261],5.0,0.6,0.0,-0.14536871488299385,0.5400126133402313,1.1373249727979295
6.587612867355347,1.8506212462130038,[1.89683342],5.0,0.6,0.0,-0.2282512115041892,0.5356698272410074,1.1523510100192724
6.5980329513549805,1.8545292205477373,[1.90118703],5.0,0.6,0.0,-0.2093088116813522,0.5311818952966993,1.1469794745506172
6.608628034591675,1.8586325935992072,[1.90547076],5.0,0.6,0.0,-0.15866614542965968,0.5231206805713988,1.1448149487406651
6.6200761795043945,1.8631267640841507,[1.90967952],5.0,0.6,0.0,-0.10553410623049135,0.5180616722718382,1.1482722552834113
6.6365966796875,1.8703565166034077,[1.91381966],5.0,0.6,0.0,0.2156091925631913,0.5235551593430128,1.1853268074801844
6.646096706390381,1.8740690922214043,[1.9179032],5.0,0.6,0.0,0.2834092201861864,0.509381066009529,1.1808770389909198
6.656639575958252,1.8785632627063478,[1.92192987],5.0,0.6,0.0,0.2533497986016568,0.5062084592606785,1.18646361464809
6.669615745544434,1.8838390280582376,[1.9258989],5.0,0.6,0.0,0.1944507268901316,0.5058971211328754,1.2019826233051691
6.6802074909210205,1.887942401109708,[1.92981652],5.0,0.6,0.0,0.13512270274014215,0.5023424512582934,1.2041895932523152
6.69376015663147,1.8936089638950713,[1.93368981],5.0,0.6,0.0,0.08530740806064678,0.5014837510487801,1.2252040086870348
6.705846548080444,1.8984939318134881,[1.93752646],5.0,0.6,0.0,-0.22904193031562295,0.4923483612670752,1.23729981757642
6.716545343399048,1.9029881022984314,[1.94132745],5.0,0.6,0.0,-0.2900579936283222,0.4759790450440359,1.245227893914582
6.726392030715942,1.9070914753499015,[1.94508477],5.0,0.6,0.0,0.021611365261057502,0.4568594055077878,1.2492380691265546
6.738637924194336,1.911585645834845,[1.94879199],5.0,0.6,0.0,0.11777055584868863,0.4622605533621445,1.2581484399280922
6.748790502548218,1.9156890188863152,[1.95245266],5.0,0.6,0.0,0.12485197936137585,0.4698320445706123,1.2631289673196662
6.761242866516113,1.9207693855214683,[1.95607572],5.0,0.6,0.0,0.1004066676561008,0.4664416059484722,1.2793327990382384
6.769013404846191,1.9238957649892552,[1.95966109],5.0,0.6,0.0,0.06924947642287418,0.4312017348893861,1.2742687444903096
6.779617071151733,1.9279991380407253,[1.96319735],5.0,0.6,0.0,0.041019932598885735,0.4248846254666961,1.280528238281419
6.792638063430786,1.933470302109352,[1.96668039],5.0,0.6,0.0,0.018604465375936585,0.4347091552494425,1.302051617834698
6.803256511688232,1.9379644725942955,[1.9701192],5.0,0.6,0.0,0.0020968160064710716,0.44082428593834716,1.313194181575307
6.815753221511841,1.943044839229449,[1.97352487],5.0,0.6,0.0,-0.009397224426101821,0.43715223233432815,1.330434192254685
6.827383518218994,1.9473436109976556,[1.97690418],5.0,0.6,0.0,-0.016980248405649958,0.4273049846432619,1.3396537051004012
6.836271286010742,1.9508607878989157,[1.98025484],5.0,0.6,0.0,-0.021659387550418782,0.39904040241145844,1.3413037740510372
6.846598386764526,1.9551595596671225,[1.98356836],5.0,0.6,0.0,-0.024254526690230947,0.3917874676250245,1.3509410074026422
6.859619855880737,1.9604353250190127,[1.98684321],5.0,0.6,0.0,-0.025394487071530025,0.3988925806814123,1.3698140599618212
6.871569871902466,1.9653202929374292,[1.99008773],5.0,0.6,0.0,-0.025544553575405922,0.4007939517535048,1.3845416248711127
6.883650302886963,1.970205260855846,[1.99331216],5.0,0.6,0.0,-0.025040826971987052,0.39842583571018025,1.3987177567291464
6.896791696548462,1.9754810262077362,[1.99652509],5.0,0.6,0.0,-0.024121797119134897,0.3915890121957135,1.4152381312464304
6.906204462051392,1.9793890005424695,[1.99972844],5.0,0.6,0.0,-0.022954193726450953,0.364439353080192,1.4205913869130504
6.915323734283447,1.9831015761604662,[2.00291292],5.0,0.6,0.0,-0.0216529439739336,0.33745655212677406,1.4245036769820674
6.927590370178223,1.9883773415123565,[2.00606943],5.0,0.6,0.0,-0.020296062218797716,0.34048988236115074,1.439316945197264
6.938081502914429,1.992676113280563,[2.00920032],5.0,0.6,0.0,0.2571028379329975,0.34795923425176356,1.4468052543033014
6.95007848739624,1.9973656824822434,[2.01231238],5.0,0.6,0.0,0.2915578832458336,0.338916673850375,1.4562394775243623
6.960302352905273,2.0014690555337133,[2.01540666],5.0,0.6,0.0,0.2377398540920859,0.3196802493892897,1.461851615205956
6.971264123916626,2.00576782730192,[2.01847859],5.0,0.6,0.0,0.16287044225025205,0.30512537295056624,1.4681840576418588
6.980599641799927,2.0090896054864436,[2.02152396],5.0,0.6,0.0,0.09349322812574645,0.30300943912333933,1.4695440918430795
6.992604970932007,2.01397457340486,[2.0245439],5.0,0.6,0.0,0.03794425361242428,0.30905243146360534,1.4779045238230155
7.005887508392334,2.01925033875675,[2.0275452],5.0,0.6,0.0,-0.0030530536319579894,0.3069512109025271,1.4863333036712616
7.0167999267578125,2.024135306675167,[2.0305339],5.0,0.6,0.0,-0.03153859899568219,0.2914757659457099,1.4918442970465426
7.024927854537964,2.0272616861429538,[2.03350647],5.0,0.6,0.0,-0.05020464022680534,0.2551493171855002,1.4922289911898845
7.035611152648926,2.031755856627897,[2.03645303],5.0,0.6,0.0,-0.06155979761062584,0.24956259648160836,1.4955942043270694
7.048609256744385,2.0364454258295774,[2.03937132],5.0,0.6,0.0,-0.0676646529212816,0.2586637784497038,1.498285883792645
7.060605525970459,2.0417211911814674,[2.04226822],5.0,0.6,0.0,-0.07010701262038486,0.2576483105074901,1.4999364954834444
7.070703029632568,2.0458245642329373,[2.04514944],5.0,0.6,0.0,-0.0700647162382474,0.24333811440718253,1.499905192186121
7.081902027130127,2.0507095321513544,[2.04801497],5.0,0.6,0.0,-0.06838962031568754,0.22659249567495565,1.4985454427241018
7.091606855392456,2.0542267090526143,[2.05086043],5.0,0.6,0.0,-0.0656863557226498,0.20373205888502896,1.4977329918004587
7.102566480636597,2.058525480820821,[2.05368095],5.0,0.6,0.0,-0.06237740482170359,0.2016748307793984,1.495314203255453
7.114564418792725,2.0630196513057646,[2.0564773],5.0,0.6,0.0,-0.05875359474296345,0.20688711777353974,1.4914734860894254
7.126720428466797,2.0682954166576546,[2.05925567],5.0,0.6,0.0,-0.05501188078698212,0.20262492186240733,1.4837871658361865
7.1399805545806885,2.0735711820095446,[2.06202251],5.0,0.6,0.0,-0.051282984864695166,0.1946834504983223,1.473676307789531
7.148613691329956,2.077479156344278,[2.06477791],5.0,0.6,0.0,-0.047651310756182536,0.15625018878728794,1.4682489158801593
7.1591269969940186,2.081582529395748,[2.06751344],5.0,0.6,0.0,-0.04416914442316854,0.13723590081124412,1.461184041991359
7.16958212852478,2.0854905037304814,[2.07022228],5.0,0.6,0.0,-0.3169050611428095,0.13637028682771654,1.4543717267823273
7.185689687728882,2.0919386613827915,[2.07290646],5.0,0.6,0.0,-0.3469221560162467,0.13864595713175001,1.430027367065402
7.197643518447876,2.096823629301208,[2.07557209],5.0,0.6,0.0,-0.288917476357065,0.12574045622483582,1.413571542548515
7.209580898284912,2.1013177997861514,[2.0782234],5.0,0.6,0.0,-0.4861620243959495,0.12167107409725356,1.3986460537869667
7.220605373382568,2.1056165715543584,[2.08086258],5.0,0.6,0.0,-0.7222864153335984,0.10910600904755337,1.3842716845224283
7.234427213668823,2.110696938189512,[2.08349215],5.0,0.6,0.0,-0.9173990444224399,0.10690932711849865,1.3617876306504098
7.244001626968384,2.114214115090772,[2.0861116],5.0,0.6,0.0,-1.051225698136006,0.07069201676501394,1.3530702825161143
7.256086587905884,2.1185128868589786,[2.08871538],5.0,0.6,0.0,-1.1272764951955434,0.06575811461599418,1.3363503674111277
7.269730806350708,2.1237886522108687,[2.09130113],5.0,0.6,0.0,-1.708823216386155,0.05938386811739699,1.307533959845946
7.282659530639648,2.1280874239790757,[2.09387114],5.0,0.6,0.0,-2.0461015098454567,0.05240595016522323,1.2881357040754586
7.291561841964722,2.131213803446862,[2.09642402],5.0,0.6,0.0,-2.216089275699875,0.025556892454677526,1.2813620774616035
7.30554461479187,2.1359033726485426,[2.09895534],5.0,0.6,0.0,-2.825395464202165,0.02476386761111555,1.2551615456759901
7.322582006454468,2.1413745367171693,[2.10146748],5.0,0.6,0.0,-3.426489263411207,0.036515245878890636,1.2185645503580507
7.335697650909424,2.1452825110519025,[2.10396765],5.0,0.6,0.0,-3.593574620578429,0.02261883343795709,1.2012649912250983
7.346550703048706,2.1482134918029527,[2.10645624],5.0,0.6,0.0,-3.5460401460995254,0.0032860923363708765,1.1963076899998077
7.359586477279663,2.1515352699874764,[2.10892918],5.0,0.6,0.0,-3.671915513906953,0.002320983772199904,1.185611006834336
7.372590780258179,2.1548570481719995,[2.11138538],5.0,0.6,0.0,-3.7856495448804504,-0.00022438634971958535,1.1747047083905573
7.3816142082214355,2.157006434056103,[2.11382398],5.0,0.6,0.0,-3.5523984452911446,-0.01176957435316289,1.1793969088569147
7.390571355819702,2.1595466173736795,[2.1162389],5.0,0.6,0.0,-3.4851454209177515,-0.0389557566625696,1.1782521506144332
7.407423734664917,2.1630637942749393,[2.11862621],5.0,0.6,0.0,-3.7183384660224776,-0.005785401984564795,1.1635337359131628
7.416719913482666,2.1648223827255695,[2.12098744],5.0,0.6,0.0,-3.683310045658296,-0.03226302032143728,1.1709289710008266
7.426566123962402,2.166385572459463,[2.12331886],5.0,0.6,0.0,-3.5243699927344614,-0.03687954855115576,1.1809182608925946
7.439570903778076,2.168144160910093,[2.12561574],5.0,0.6,0.0,-4.141551643305156,-0.023805972091674503,1.1838614383775345
7.451606035232544,2.169316553210513,[2.12787927],5.0,0.6,0.0,-4.841681349072981,-0.01145104640580424,1.1921983494321504
7.465597867965698,2.170879742944406,[2.1301122],5.0,0.6,0.0,-5.0,-0.0035235897454858034,1.1989335379182615
7.478588581085205,2.171661337811353,[2.13231677],5.0,0.6,0.0,-5.0,0.006447986804182484,1.2154731589720782
7.4893717765808105,2.1722475339615634,[2.1344933],5.0,0.6,0.0,-5.0,0.003573974087938591,1.2336888822750252
7.499289274215698,2.1726383313950364,[2.13663829],5.0,0.6,0.0,-5.0,-0.0043726871962346025,1.2534002406986127
7.5085389614105225,2.172833730111773,[2.13874535],5.0,0.6,0.0,-4.581537073260121,-0.009323760310847987,1.2772424805468305
7.519544363021851,2.1730291288285097,[2.14081048],5.0,0.6,0.0,-4.173506531713333,0.013698375598659105,1.2997258412717034
7.532609939575195,2.1730291288285097,[2.14283532],5.0,0.6,0.0,-3.7962789427120276,0.032987778464960996,1.3227098071299555
7.544984340667725,2.172833730111773,[2.14482368],5.0,0.6,0.0,-3.455087799028117,0.04785441122462914,1.3459708951639255
7.557210683822632,2.1730291288285097,[2.14677817],5.0,0.6,0.0,-2.5967889350907187,0.05685205335966549,1.366258697664052
7.56535792350769,2.172833730111773,[2.14869728],5.0,0.6,0.0,-1.4278583424798916,0.036611199452096066,1.3885026204598887
7.574542760848999,2.172833730111773,[2.15057547],5.0,0.6,0.0,-0.08782848604392757,0.04413900030767689,1.4056590196898195
7.585882902145386,2.1730291288285097,[2.15241091],5.0,0.6,0.0,1.0537436024534443,0.06513317406707729,1.4176660256962133
7.594144582748413,2.1730291288285097,[2.1542044],5.0,0.6,0.0,2.177907029309309,0.0522153234208347,1.4280606988272568
7.60481071472168,2.1730291288285097,[2.15595365],5.0,0.6,0.0,3.33277729134097,0.05917101937249572,1.4351529555031255
7.616551637649536,2.1730291288285097,[2.1576578],5.0,0.6,0.0,4.238116477017156,0.07433605653293703,1.4406501283814936
7.628578186035156,2.1730291288285097,[2.15932042],5.0,0.6,0.0,4.840234813104169,0.09485009472161204,1.4459727478528241
7.641592502593994,2.1730291288285097,[2.16094737],5.0,0.6,0.0,5.0,0.11105554118352953,1.452960307606694
7.6515889167785645,2.1730291288285097,[2.16254352],5.0,0.6,0.0,5.0,0.11283090076082443,1.45998248970017
7.66320538520813,2.1730291288285097,[2.16411149],5.0,0.6,0.0,5.0,0.12183750446353497,1.4659530365067495
7.6740899085998535,2.1730291288285097,[2.1656528],5.0,0.6,0.0,4.98770963743532,0.12062334841703987,1.4709970521923192
7.68786096572876,2.1732245275452464,[2.16716882],5.0,0.6,0.0,4.842243959165147,0.13248742889175694,1.4755394515770708
7.703782796859741,2.173419926261983,[2.16866481],5.0,0.6,0.0,4.8994657402778525,0.16515464582594977,1.4779343643159588
7.71720552444458,2.17361532497872,[2.17014902],5.0,0.6,0.0,4.952287156017087,0.1675137220838657,1.4796725772056294
7.729294538497925,2.1740061224121927,[2.17162622],5.0,0.6,0.0,4.934228139243418,0.16981758960355636,1.4810687635444855
7.740030288696289,2.1743969198456665,[2.17309623],5.0,0.6,0.0,5.0,0.15364629376196534,1.4813937603825011
7.75572395324707,2.17478771727914,[2.1745594],5.0,0.6,0.0,5.0,0.1855741441268456,1.4817216365786852
7.765559911727905,2.1753739134293495,[2.17601856],5.0,0.6,0.0,4.900600745203501,0.16713511454714827,1.4823552767737418
7.778538227081299,2.17596010957956,[2.1774742],5.0,0.6,0.0,4.8737376052986505,0.17790294895219427,1.4821686290040699
7.791576385498047,2.1767417044465067,[2.17892721],5.0,0.6,0.0,5.0,0.1856828322566116,1.480777229330581
7.807208776473999,2.177523299313453,[2.18038126],5.0,0.6,0.0,4.689981773499139,0.19601873988696203,1.4822591652820059
7.82555079460144,2.178695691613873,[2.1818435],5.0,0.6,0.0,4.458322970398481,0.23122290974972992,1.4834408172899012
7.833540201187134,2.17947728648082,[2.18331916],5.0,0.6,0.0,4.242411198577031,0.18872106674090197,1.483832503460461
7.848071813583374,2.18064967878124,[2.18480564],5.0,0.6,0.0,3.7456459134119546,0.20610436911867644,1.4862160325220386
7.859535455703735,2.1814312736481867,[2.18630109],5.0,0.6,0.0,3.483921809849332,0.19812718501861626,1.4863140339717527
7.871536016464233,2.1826036659486063,[2.18780547],5.0,0.6,0.0,3.0297631250427344,0.20303054068209367,1.4878161519288309
7.891003847122192,2.1841668556825,[2.18932111],5.0,0.6,0.0,2.8396118573669886,0.2273598055747122,1.4887343185339046
7.903435707092285,2.185143849266183,[2.19085291],5.0,0.6,0.0,2.4604860168986886,0.21956122528321373,1.4890161788543912
7.920467853546143,2.1867070390000767,[2.19240397],5.0,0.6,0.0,1.7869800817987016,0.23728325344928905,1.4911585622548262
7.932549238204956,2.187879431300497,[2.19397618],5.0,0.6,0.0,1.401244482593388,0.22444425433805065,1.4911340113693594
7.946650981903076,2.189247222317653,[2.19556891],5.0,0.6,0.0,0.888607401925388,0.22716191259505097,1.4914516696005253
7.954642295837402,2.189638019751127,[2.1971766],5.0,0.6,0.0,0.42184580073020056,0.1928328811004868,1.4885658686353165
7.967527627944946,2.190810412051547,[2.19879062],5.0,0.6,0.0,0.05347865854359199,0.20186848837841534,1.4873418816741153
7.979553699493408,2.1917874056352304,[2.20040658],5.0,0.6,0.0,-0.21385745472932138,0.2093157935357426,1.4852177730788392
7.992541551589966,2.1925690005021767,[2.20202416],5.0,0.6,0.0,-0.39530142571341303,0.21548461761510523,1.4821625850993954
8.007610321044922,2.19354599408586,[2.2036427],5.0,0.6,0.0,-0.7859085149636607,0.21910860924318779,1.4793581649911103
8.018538475036621,2.19413219023607,[2.20526115],5.0,0.6,0.0,-1.4362582388371754,0.22348581386693198,1.4740002996121935
8.033513307571411,2.1947183863862803,[2.20687805],5.0,0.6,0.0,-2.0294435446573584,0.2268004543296824,1.4678049356365392
8.046510696411133,2.1951091838197536,[2.20849155],5.0,0.6,0.0,-2.467163377222662,0.23006626928883253,1.4603056843259636
8.056984663009644,2.1953045825364903,[2.21009878],5.0,0.6,0.0,-3.018088958364486,0.22732866941585284,1.450435690464473
8.07171630859375,2.1953045825364903,[2.21169658],5.0,0.6,0.0,-3.4645738626306257,0.23881742634600903,1.4388230259826176
8.084702253341675,2.195499981253227,[2.21328276],5.0,0.6,0.0,-3.7510218507806705,0.24002697801158576,1.4283481620755665
8.099527835845947,2.1953045825364903,[2.21485461],5.0,0.6,0.0,-4.162538931662137,0.2424920072444485,1.4136747470448214
8.113521575927734,2.195499981253227,[2.21640835],5.0,0.6,0.0,-4.210151188177003,0.24216461352884078,1.4032589914083928
8.125722169876099,2.195499981253227,[2.21793987],5.0,0.6,0.0,-3.804979588571211,0.24176135030554757,1.3935334687577305
8.139100074768066,2.1953045825364903,[2.21944476],5.0,0.6,0.0,-3.0092960764781242,0.2412513045881536,1.3832899923409543
8.152552127838135,2.195499981253227,[2.22091838],5.0,0.6,0.0,-1.926897683265394,0.23772895854218873,1.3760252062770084
8.166155576705933,2.1953045825364903,[2.22235591],5.0,0.6,0.0,-0.9347100208433767,0.23523650680896052,1.3632011720844357
8.180545091629028,2.1953045825364903,[2.22375239],5.0,0.6,0.0,-0.14886934934603135,0.23105952892458426,1.350547534784177
8.194560527801514,2.195499981253227,[2.22510283],5.0,0.6,0.0,0.42300429568122855,0.22529520161292008,1.3391007598900309
8.209535121917725,2.1953045825364903,[2.22640225],5.0,0.6,0.0,0.8122485140817676,0.22096145522532068,1.323650647034742
8.222544431686401,2.1953045825364903,[2.22764577],5.0,0.6,0.0,1.0589826734434176,0.21529663971037266,1.3104066367115899
8.236545324325562,2.1953045825364903,[2.22882866],5.0,0.6,0.0,1.2002413114345092,0.20934385626364713,1.2976264450912907
8.25051760673523,2.1953045825364903,[2.22994648],5.0,0.6,0.0,1.2662947945887604,0.20320830281808933,1.2854260246873193
8.262595891952515,2.1953045825364903,[2.23099506],5.0,0.6,0.0,1.2803865185511731,0.19697470794122418,1.2738820306876666
8.275549173355103,2.1953045825364903,[2.23197062],5.0,0.6,0.0,1.2597044902783456,0.19071481559861006,1.2630553609856159
8.290500402450562,2.1953045825364903,[2.23286979],5.0,0.6,0.0,1.2166384452742678,0.18448643011836843,1.253000389395478
8.304537296295166,2.1953045825364903,[2.23368965],5.0,0.6,0.0,1.1599476340902095,0.17833283690782414,1.2437672817876178
8.318489074707031,2.1953045825364903,[2.23442779],5.0,0.6,0.0,1.095721530712085,0.1722827998906262,1.2354015397859317
8.338646173477173,2.195499981253227,[2.23508108],5.0,0.6,0.0,1.0281233645207715,0.1520997451799911,1.2302204147043543
8.354961156845093,2.1953045825364903,[2.23564525],5.0,0.6,0.0,0.9599455653057112,0.14415008974470508,1.2214995404321622
8.36849331855774,2.1953045825364903,[2.23611744],5.0,0.6,0.0,0.8930155593241991,0.14135847808584925,1.216078122746131
8.382573366165161,2.1953045825364903,[2.23649717],5.0,0.6,0.0,0.828487857188484,0.13790405862479954,1.2117110926616301
8.397514343261719,2.1953045825364903,[2.23678505],5.0,0.6,0.0,0.7670521060106391,0.13391835141663985,1.2084019100842553
8.412509679794312,2.1953045825364903,[2.23698214],5.0,0.6,0.0,0.7090801304928922,0.12952141998804992,1.2061458871061022
8.426485300064087,2.1953045825364903,[2.23708992],5.0,0.6,0.0,0.6547292045201539,0.12478455787985579,1.2049310079540971
8.44127368927002,2.1953045825364903,[2.23710994],5.0,0.6,0.0,0.6040141819814877,0.11638179074712766,1.2047425259754105
8.453479528427124,2.1951091838197536,[2.23704408],5.0,0.6,0.0,0.556857604447161,0.11635799320703953,1.2032553272796804
8.466502904891968,2.1951091838197536,[2.23689517],5.0,0.6,0.0,0.5131243046823875,0.11049977164580325,1.2050464177877926
8.488876342773438,2.1949137851030165,[2.23666311],5.0,0.6,0.0,0.1966067759798481,0.07406367036509195,1.2056457177469722
8.497852802276611,2.1947183863862803,[2.2363467],5.0,0.6,0.0,0.12607013437975237,0.09507112886043687,1.2070880819574152
8.50906252861023,2.1945229876695436,[2.23595108],5.0,0.6,0.0,-0.12940990096057592,0.10033954485589745,1.2094431319784236
8.52319884300232,2.19413219023607,[2.23548307],5.0,0.6,0.0,-0.39434758355906846,0.09115202762730491,1.2102473400747435
8.536295652389526,2.1939367915193335,[2.23494634],5.0,0.6,0.0,-0.8832986575569504,0.08781806522520755,1.2137878918070146
8.547473907470703,2.1933505953691235,[2.23434463],5.0,0.6,0.0,-1.0648433959564736,0.0886219141610928,1.2137067800335837
8.56050729751587,2.1927643992189134,[2.23368208],5.0,0.6,0.0,-1.3761700329246183,0.08232077132201308,1.2140366898348884
8.572511434555054,2.1921782030687034,[2.23296174],5.0,0.6,0.0,-1.3775819801341354,0.07647502615034045,1.2156036811061144
8.585516691207886,2.1915920069184933,[2.23218599],5.0,0.6,0.0,-1.5384405031886375,0.07119164484067433,1.2174710947050356
8.598536491394043,2.190810412051547,[2.23135717],5.0,0.6,0.0,-1.7016164182466071,0.06726167465913743,1.2176305406829093
8.612513780593872,2.189833418467863,[2.23047759],5.0,0.6,0.0,-1.814115712649718,0.06458860594187757,1.2161997791362615
8.627479791641235,2.18885642488418,[2.22954957],5.0,0.6,0.0,-1.8671528807135749,0.06214138301194874,1.2154829023129925
8.640501737594604,2.187879431300497,[2.2285754],5.0,0.6,0.0,-1.592521987916819,0.05970466263085811,1.216153962750647
8.653523445129395,2.1869024377168134,[2.22755739],5.0,0.6,0.0,-1.2454515852993282,0.05733299142439989,1.2173642517097574
8.666481256484985,2.1861208428498666,[2.22649785],5.0,0.6,0.0,-0.9260536179932858,0.054081708550207434,1.2211235041587007
8.68248438835144,2.18475305183271,[2.22539908],5.0,0.6,0.0,-0.6651391452297649,0.05381481555222913,1.2182926393313145
8.6964750289917,2.1835806595322897,[2.22426341],5.0,0.6,0.0,-0.46464843779124987,0.052696907718662214,1.2180321553520193
8.708487749099731,2.1826036659486063,[2.22309313],5.0,0.6,0.0,-0.3161316359472012,0.05067844222758697,1.2203755663985674
8.721487760543823,2.1814312736481867,[2.22189056],5.0,0.6,0.0,0.0672633152551016,0.049514040332549455,1.2207986463569047
8.734527826309204,2.1802588813477666,[2.22065799],5.0,0.6,0.0,-0.0994398893180948,0.04865011952707756,1.2214964885057435
8.749479532241821,2.178695691613873,[2.21939767],5.0,0.6,0.0,-0.1343694528315978,0.049713663591020696,1.2179545843487902
8.76151156425476,2.177523299313453,[2.21811183],5.0,0.6,0.0,-0.11861885342233355,0.04886325448142181,1.2192830061634665
8.77449083328247,2.176350907013033,[2.21680264],5.0,0.6,0.0,-0.08811842919863443,0.048001838371147354,1.2208842963694766
8.789469957351685,2.17478771727914,[2.21547222],5.0,0.6,0.0,-0.3336445805154818,0.049255887407778635,1.2180894661627195
8.80248212814331,2.17361532497872,[2.21412261],5.0,0.6,0.0,-0.3413592257613184,0.04854401581659822,1.2201552663045874
8.817490100860596,2.1720521352448263,[2.2127558],5.0,0.6,0.0,-0.26693647274646287,0.04975271279858687,1.2178952481427348
8.831474304199219,2.170488945510933,[2.21137373],5.0,0.6,0.0,-0.17700256289151253,0.05102767629288546,1.2158062519011599
8.853755235671997,2.168144160910093,[2.20997371],5.0,0.6,0.0,0.17900088702688932,0.013146256000477039,1.2047049838351167
8.867571592330933,2.1667763698929363,[2.20854922],5.0,0.6,0.0,0.2748517030382188,0.025796483202563537,1.2053409631036178
8.881525754928589,2.165213180159043,[2.20709981],5.0,0.6,0.0,0.5414618551315413,0.036329802356375125,1.203837388947952
8.896494150161743,2.163454591708413,[2.20563012],5.0,0.6,0.0,0.5298646826052824,0.04541493804915218,1.2004352204852113
8.91148042678833,2.1615006045410463,[2.20414453],5.0,0.6,0.0,0.4245298381402264,0.053753441598262154,1.194964967683325
8.924468278884888,2.159937414807153,[2.20264711],5.0,0.6,0.0,0.027892366022882253,0.059135429517653534,1.1943185703309938
8.947833776473999,2.156811035339366,[2.2011376],5.0,0.6,0.0,-0.11147978120979629,0.03259138757964537,1.175040537095094
8.961599588394165,2.155052446888736,[2.19961229],5.0,0.6,0.0,-0.14019402848088564,0.0501610288135247,1.1722414882651022
8.975741147994995,2.153293858438106,[2.19807251],5.0,0.6,0.0,0.14989996303762684,0.05949142783952805,1.1696162211945142
8.988109827041626,2.1517306687042126,[2.19652394],5.0,0.6,0.0,0.4857335495014112,0.07325723579263461,1.1692819760353632
8.996712923049927,2.1505582764037925,[2.19497454],5.0,0.6,0.0,0.766658101515429,0.0996514867251203,1.1735386249448274
9.009504556655884,2.1491904853866357,[2.19343358],5.0,0.6,0.0,0.9673263823357878,0.09953261951682947,1.1753526119137616
9.023533582687378,2.147431896936006,[2.19190625],5.0,0.6,0.0,1.0924172538878816,0.09540797685399066,1.1723927262423635
9.042790412902832,2.1452825110519025,[2.19039148],5.0,0.6,0.0,1.1562959270140492,0.07224344429665294,1.1646739881366788
9.056882619857788,2.1433285238845357,[2.18888576],5.0,0.6,0.0,1.1744517732289121,0.08214571996136422,1.159253546967146
9.070090055465698,2.1421561315841156,[2.18738905],5.0,0.6,0.0,1.1603418371187804,0.08643546814424354,1.1631778851450227
9.083728551864624,2.140397543133486,[2.18590389],5.0,0.6,0.0,1.1245991049154898,0.09206226660037659,1.1599509728919526
9.097088098526001,2.139029752116329,[2.18443234],5.0,0.6,0.0,1.351224901908532,0.09450463834279477,1.1607821735449615
9.11067247390747,2.137271163665699,[2.18297601],5.0,0.6,0.0,1.6030597650512166,0.09795939521565808,1.1565933806763389
9.125464916229248,2.135707973931806,[2.18153607],5.0,0.6,0.0,1.7959266063163426,0.09980756544118255,1.154623465902374
9.141437292098999,2.1339493854811757,[2.18011327],5.0,0.6,0.0,1.9116099254207572,0.10210985396732074,1.1502593148362417
9.15544080734253,2.1323861957472823,[2.17870798],5.0,0.6,0.0,1.9575210006544914,0.10304639281947857,1.14822338026546
9.168463230133057,2.131213803446862,[2.17732023],5.0,0.6,0.0,1.9487520570596306,0.10168850692974422,1.1508458546502558
9.182465076446533,2.129455214996232,[2.17594967],5.0,0.6,0.0,1.9006572220002846,0.10289830583387279,1.1463022431913368
9.204652786254883,2.1275012278288656,[2.17459162],5.0,0.6,0.0,1.8262295818866057,0.06506779976731666,1.1393090942165358
9.21880316734314,2.126133436811709,[2.1732378],5.0,0.6,0.0,1.4595109155057315,0.07609677149891961,1.140033546933089
9.22881293296814,2.1251564432280254,[2.17188671],5.0,0.6,0.0,1.0508369542931146,0.09728091038115413,1.1453157353982366
9.238661527633667,2.124179449644342,[2.17054378],5.0,0.6,0.0,0.9697297570022522,0.10858790221702973,1.149854931389255
9.256608963012695,2.1226162599104486,[2.1692106],5.0,0.6,0.0,0.7218343084167421,0.08174170668195016,1.1473907164378176
9.265072107315063,2.1218346650435023,[2.1678854],5.0,0.6,0.0,0.7347095261232923,0.10637779188879601,1.153934475801939
9.278875350952148,2.120662272743082,[2.16656954],5.0,0.6,0.0,0.5442517330194463,0.09720763074013142,1.1558445045819796
9.299476385116577,2.1187082855757153,[2.16525963],5.0,0.6,0.0,0.31797667032816695,0.05940955093683049,1.1482222192130012
9.313861608505249,2.117731291992032,[2.16394638],5.0,0.6,0.0,0.3953833483758343,0.06343135523060382,1.1522383316584022
9.325337409973145,2.116754298408349,[2.16262634],5.0,0.6,0.0,0.5511236779318689,0.0738134260170018,1.1562632974178149
9.339970827102661,2.1153865073911917,[2.16130031],5.0,0.6,0.0,0.41984493684408164,0.06735474981138918,1.1558550336521558
9.350720167160034,2.1146049125242454,[2.1599691],5.0,0.6,0.0,0.21605087657355032,0.0832306037239091,1.1625664644317784
9.363548040390015,2.1134325202238253,[2.15863509],5.0,0.6,0.0,0.3010735041373396,0.08005496542661059,1.1644763642109026
9.378285884857178,2.1120647292066685,[2.15729867],5.0,0.6,0.0,0.18328956421835457,0.06973516686637408,1.164141826318435
9.389593839645386,2.1114785330564585,[2.15595862],5.0,0.6,0.0,0.02038138338391071,0.07564279646161194,1.173211316844705
9.404631614685059,2.109915343322565,[2.15461457],5.0,0.6,0.0,-0.4023871849460444,0.06486443185317349,1.1704648963596667
9.418705224990845,2.1087429510221454,[2.1532647],5.0,0.6,0.0,-0.5476377641688532,0.06065509158809607,1.1724893128401894
9.434181213378906,2.107179761288252,[2.15190594],5.0,0.6,0.0,-0.5693582876767904,0.0526833399933325,1.1700210372837383
9.449485778808594,2.105811970271095,[2.15053581],5.0,0.6,0.0,-0.8163812940046107,0.05487327580842496,1.1697944077750098
9.463554859161377,2.104639577970675,[2.14915361],5.0,0.6,0.0,-0.8031823933913973,0.05713471995458242,1.1723250152845925
9.476244449615479,2.1034671856702554,[2.14776063],5.0,0.6,0.0,-0.9751000008176649,0.06362984450736345,1.174738849935156
9.490394592285156,2.1020993946530986,[2.14635833],5.0,0.6,0.0,-0.8862212187331419,0.0587283701753181,1.1752748092092065
9.504549741744995,2.100731603635942,[2.14494702],5.0,0.6,0.0,-0.9956566728761229,0.06038206589112007,1.1756423193029677
9.518466472625732,2.0991684139020483,[2.14352713],5.0,0.6,0.0,-0.8601703350439702,0.062493747252431994,1.1741144113386666
9.531508684158325,2.0979960216016282,[2.14209968],5.0,0.6,0.0,-0.9372779000421194,0.06245432119815162,1.177062739395875
9.545464038848877,2.096432831867735,[2.14066567],5.0,0.6,0.0,-0.7809045699227617,0.06397955719529866,1.175717594256481
9.559555530548096,2.0950650408505784,[2.13922606],5.0,0.6,0.0,-0.8457288291378479,0.06448238853868926,1.1764982502321706
9.572520017623901,2.093501851116685,[2.13778177],5.0,0.6,0.0,-0.683274997239443,0.06568658355397992,1.1752606058761037
9.58902907371521,2.0917432626660553,[2.13633315],5.0,0.6,0.0,-0.7463429077749957,0.06282482512623766,1.1714816025629375
9.601694822311401,2.090375471648898,[2.13488039],5.0,0.6,0.0,-0.5850514418005387,0.06760299489805843,1.1726593845078541
9.611722230911255,2.089203079348478,[2.13342474],5.0,0.6,0.0,-0.6511793775021024,0.06834215081550557,1.1759894793719652
9.62544560432434,2.087639889614585,[2.13196761],5.0,0.6,0.0,-0.49411954055131824,0.06850432054057884,1.1748541847580216
9.64049506187439,2.0858813011639548,[2.13050966],5.0,0.6,0.0,-0.5651435350191959,0.0697019350263328,1.1711973038125691
9.655507326126099,2.0843181114300617,[2.1290512],5.0,0.6,0.0,-0.41329588215608204,0.06973310948209659,1.1700522582923452
9.669532060623169,2.0829503204129045,[2.12759206],5.0,0.6,0.0,-0.21357506231049597,0.06514168349220367,1.1712406863732725
9.682448625564575,2.081582529395748,[2.12613195],5.0,0.6,0.0,-0.03382313771950114,0.06816281917406256,1.1723801566432022
9.699256658554077,2.0796285422283813,[2.12466936],5.0,0.6,0.0,0.10575181457986763,0.051772500455614955,1.1664783529355698
9.718693017959595,2.077283757627541,[2.12319786],5.0,0.6,0.0,0.20460151908950813,0.03015274898319428,1.1559514943529299
9.731784343719482,2.075720567893648,[2.12171057],5.0,0.6,0.0,-0.006937327953759273,0.044937574692008764,1.1550681121368502
9.745534181594849,2.0737665807262813,[2.12020634],5.0,0.6,0.0,-0.0021073000447087084,0.046181237685029346,1.149644368934865
9.760412693023682,2.072007992275651,[2.11868592],5.0,0.6,0.0,-0.20453727178185602,0.05081068250136137,1.1467380490565908
9.773451328277588,2.0702494038250214,[2.11714966],5.0,0.6,0.0,-0.4327888215136599,0.05319254928017473,1.1439441658240026
9.787441968917847,2.0684908153743913,[2.11559805],5.0,0.6,0.0,-0.6207936590525387,0.053785801003886594,1.1412951199952803
9.803483247756958,2.066146030773551,[2.11403112],5.0,0.6,0.0,-0.7526686122242574,0.055893821294167395,1.1317488738290657
9.8174467086792,2.064387442322921,[2.11244839],5.0,0.6,0.0,-0.5563431185017595,0.053895210895886024,1.129810324502293
9.840431690216064,2.0618472590053445,[2.11084267],5.0,0.6,0.0,-0.28496280726458006,0.0019376035057897787,1.1186548897073534
9.855598211288452,2.059697873121241,[2.10920093],5.0,0.6,0.0,-0.03755755023557511,0.0135396283049728,1.112557649785707
9.86841082572937,2.058134683387348,[2.10751784],5.0,0.6,0.0,-0.12046692857296437,0.018706422733590838,1.1140021114009824
9.882446527481079,2.056180696219981,[2.10579486],5.0,0.6,0.0,-0.016500874792666126,0.022478054930165265,1.111210816101903
9.897486448287964,2.0542267090526143,[2.10403302],5.0,0.6,0.0,-0.14795483126988995,0.0241092067110859,1.1088638840732679
9.911452054977417,2.0522727218852475,[2.10223309],5.0,0.6,0.0,-0.3284623213441317,0.024272647660533223,1.1069310595947353
9.924450635910034,2.0503187347178806,[2.10039563],5.0,0.6,0.0,-0.4865270782663652,0.02350572554524175,1.1054216999259763
9.938482284545898,2.0483647475505142,[2.09852109],5.0,0.6,0.0,-0.601494646359232,0.02221636383370443,1.1043649274117042
9.96104621887207,2.044847570649254,[2.09660239],5.0,0.6,0.0,-0.6735231459551139,-0.023749454744801456,1.0849147172884843
9.974451541900635,2.0426981847651504,[2.09462681],5.0,0.6,0.0,-0.4339192131415834,-0.007364658795852339,1.0830065696904771
9.988948822021484,2.0403534001643107,[2.09259189],5.0,0.6,0.0,-0.41032571344779656,0.0009373718612201651,1.0792690533031417
10.005475521087646,2.037617818129997,[2.09050263],5.0,0.6,0.0,-0.7318847892776681,0.009402673594701356,1.0711757453369464
10.02775502204895,2.033709843795264,[2.08835662],5.0,0.6,0.0,-1.0947041525471577,-0.018740180567739528,1.0494294165095086
10.042117357254028,2.0311696604776874,[2.08614588],5.0,0.6,0.0,-1.38873719952044,-0.004680420334960867,1.044926495243501
10.056413412094116,2.0286294771601106,[2.08387152],5.0,0.6,0.0,-1.588089927327159,0.01093514425434541,1.041294054127233
10.07246470451355,2.0260892938425337,[2.08154312],5.0,0.6,0.0,-1.4239831352723864,0.02358820213537243,1.0391199699803675
10.088710308074951,2.0229629143747467,[2.07916934],5.0,0.6,0.0,-0.880896511010672,0.028868149611711077,1.0310394783145973
10.099420547485352,2.0210089272073803,[2.07675842],5.0,0.6,0.0,-0.3083940812559119,0.04389611146439082,1.0370130037725938
10.113436937332153,2.0184687438898035,[2.07432027],5.0,0.6,0.0,0.16850550518927962,0.04966931402125356,1.0358408799204133
10.127423763275146,2.015928560572227,[2.07186394],5.0,0.6,0.0,0.24594962892324818,0.05453698166481471,1.0348132930239193
10.139466762542725,2.0137791746881235,[2.06939658],5.0,0.6,0.0,0.4531416742863631,0.056635026113225614,1.0385133962884838
10.15238618850708,2.0116297888040204,[2.06692463],5.0,0.6,0.0,0.6573083617036118,0.058069931184119655,1.042212843166436
10.165460109710693,2.0094804029199165,[2.06445382],5.0,0.6,0.0,0.813821512912599,0.058988738877117475,1.0459009684893816
10.179478168487549,2.0071356183190767,[2.06198918],5.0,0.6,0.0,0.9154868685778346,0.060444882225220556,1.0472106080404515
10.192418813705444,2.004790833718237,[2.05953501],5.0,0.6,0.0,0.9691889740786697,0.06153977400350307,1.0484505596187743
10.205479145050049,2.0026414478341334,[2.05709488],5.0,0.6,0.0,1.2616516049711675,0.061180937201491786,1.0514637930921837
10.219432353973389,2.0002966632332932,[2.0546717],5.0,0.6,0.0,1.2842490462318432,0.06155620082211509,1.052364907856125
10.230764150619507,1.9983426760659266,[2.05226867],5.0,0.6,0.0,1.2002453940367843,0.06827107223259274,1.057930638862441
10.240965366363525,1.9967794863320332,[2.04989115],5.0,0.6,0.0,1.083473938937581,0.07944338159370457,1.067959124760486
10.256018161773682,1.9942393030144565,[2.04754277],5.0,0.6,0.0,0.9653361405048384,0.06008937822739446,1.0658216404540086
10.26688265800476,1.992676113280563,[2.04522364],5.0,0.6,0.0,1.133658887213545,0.07205232397209783,1.0746981833143172
10.284976482391357,1.9895497338127766,[2.04293125],5.0,0.6,0.0,1.0725983412578985,0.03945239581643774,1.0647165647675052
10.298369407653809,1.9872049492119364,[2.0406588],5.0,0.6,0.0,1.2124450583794937,0.04258924385146722,1.063605651382768
10.309878587722778,1.9848601646110962,[2.03840356],5.0,0.6,0.0,1.0998253375796283,0.062042094095145085,1.0627180499504152
10.321771383285522,1.9823199812935197,[2.03616905],5.0,0.6,0.0,0.9141112666700476,0.06568051816048563,1.0593078070903947
10.33924674987793,1.9799751966926797,[2.03395338],5.0,0.6,0.0,0.729177153297937,0.03587320343883724,1.0579769429595594
10.348489046096802,1.9782166082420496,[2.03175224],5.0,0.6,0.0,0.5708815419540033,0.06675165148447017,1.063468912545596
10.36206340789795,1.976067222357946,[2.02956728],5.0,0.6,0.0,0.44438911591504926,0.05756903233682667,1.063993861259891
10.377858400344849,1.973331640323633,[2.0273961],5.0,0.6,0.0,0.34683820710077784,0.03451102118657406,1.057242961982565
10.39325737953186,1.9707914570060558,[2.02522838],5.0,0.6,0.0,0.27297908102225993,0.024127381273432745,1.0527905934970432
10.404015064239502,1.9690328685554261,[2.0230578],5.0,0.6,0.0,0.21750619396735743,0.041260486611711944,1.0577737493463863
10.414247751235962,1.9670788813880593,[2.02088722],5.0,0.6,0.0,0.17588345009089063,0.056698187585495684,1.0603977601051142
10.424456596374512,1.9653202929374292,[2.01872303],5.0,0.6,0.0,0.14451817225330973,0.06622783862103854,1.0653004543654783
10.437405586242676,1.9631709070533259,[2.01656782],5.0,0.6,0.0,0.12068098320232257,0.04995252758816026,1.0653754287117758
10.451375484466553,1.9608261224524859,[2.01441777],5.0,0.6,0.0,-0.17368962681675829,0.03877659221968646,1.063012877558526
10.463396549224854,1.958872135285119,[2.01226626],5.0,0.6,0.0,-0.22111894728349735,0.028472532776736507,1.0653835441635018
10.476498365402222,1.956527350684279,[2.01010715],5.0,0.6,0.0,-0.1773681742582782,0.021983351604781896,1.0631548718585928
10.489423036575317,1.9543779648001756,[2.00793475],5.0,0.6,0.0,-0.11044163991237428,0.01583721198566817,1.0634469858277984
10.5044846534729,1.951446984049126,[2.00574387],5.0,0.6,0.0,-0.04744325226795968,0.014422696665943348,1.054530532985826
10.518395900726318,1.9492975981650225,[2.0035298],5.0,0.6,0.0,-0.2731484621652829,0.009904993636993122,1.055255759835105
10.531443119049072,1.9469528135641823,[2.00128834],5.0,0.6,0.0,-0.26961609936596104,0.006613408533311166,1.0540127833252706
10.552887201309204,1.943044839229449,[1.99900835],5.0,0.6,0.0,-0.46574335357644847,-0.02668767604444598,1.034360257304272
10.561596870422363,1.9416770482122923,[1.99667828],5.0,0.6,0.0,-0.407269546242485,0.0037026690108258402,1.0459361518356605
10.572514295578003,1.939527662328189,[1.99430325],5.0,0.6,0.0,-0.549075345608473,0.013682382126313173,1.048547146576139
10.59189510345459,1.9348380931265086,[1.99188608],5.0,0.6,0.0,-0.7218391723049662,-0.01409498152173927,1.021191221322004
10.608821630477905,1.9321025110921954,[1.98941177],5.0,0.6,0.0,-0.8630842866619385,-0.02546190923180158,1.0179172727389207
10.622769355773926,1.9291715303411452,[1.98686729],5.0,0.6,0.0,-0.956986792477797,-0.017918611613956928,1.0132015199112274
10.63645076751709,1.9264359483068318,[1.9842518],5.0,0.6,0.0,-1.2823580204073182,-0.012907718891699524,1.0112364101004054
10.651480197906494,1.9233095688390454,[1.98156909],5.0,0.6,0.0,-1.0529766279486266,-0.007969167288693067,1.0063831456187862
10.664052963256836,1.9205739868047318,[1.9788228],5.0,0.6,0.0,-0.951949996435346,-0.006390481388003257,1.0066603497677507
10.676867961883545,1.9174476073369449,[1.97601638],5.0,0.6,0.0,-1.4521019773341575,-0.00373601005901468,1.0019889181587687
10.691385984420776,1.913930430435685,[1.97315317],5.0,0.6,0.0,-2.0333793713308967,0.0001924193704133521,0.9927892263448743
10.704170227050781,1.910804050967898,[1.97023639],5.0,0.6,0.0,-2.505935891029801,0.0016929338035897828,0.9887444428866283
10.718384742736816,1.9076776715001116,[1.96726919],5.0,0.6,0.0,-2.5475889600909367,0.002672628302409845,0.9867231658811823
10.732381343841553,1.9045512920323246,[1.96425467],5.0,0.6,0.0,-2.135967607725373,0.003198828519534788,0.986836471947942
10.747386693954468,1.9010341151310648,[1.9611959],5.0,0.6,0.0,-1.078891617959778,0.005121021926901854,0.9839976774178295
10.760376691818237,1.8981031343800145,[1.95809597],5.0,0.6,0.0,-0.0018769735913590768,0.003860188087682014,0.9868359260980046
10.77542233467102,1.8945859574787545,[1.95495798],5.0,0.6,0.0,0.8769476588123113,0.0052923501611031026,0.9818400788520278
10.7913978099823,1.8910687805774946,[1.95178303],5.0,0.6,0.0,1.2384166956221871,-0.001271195225329204,0.9772903293366916
10.802372455596924,1.8887239959766546,[1.94857252],5.0,0.6,0.0,1.625795472988242,0.004831494644385079,0.986559101647335
10.816897630691528,1.8855976165088677,[1.94533134],5.0,0.6,0.0,1.9284056734379216,-0.0002873282718016569,0.9871053417284953
10.829373121261597,1.8830574331912913,[1.94206404],5.0,0.6,0.0,2.123083585953803,-0.00021142765154427966,0.9950540828644681
10.841346502304077,1.8805172498737142,[1.93877437],5.0,0.6,0.0,1.9445031356669433,-0.004860428448406541,1.0044295333819075
10.854440927505493,1.8775862691226646,[1.93546575],5.0,0.6,0.0,1.9323681001627049,-0.007635820034138361,1.008933158137753
10.867366552352905,1.8748506870883508,[1.93214043],5.0,0.6,0.0,1.6769073680836823,-0.011291430337485612,1.0166146243536267
10.881353378295898,1.871724307620564,[1.92880037],5.0,0.6,0.0,1.6475487720643116,-0.013200431711512545,1.019228340677666
10.893499374389648,1.8691841243029876,[1.92544724],5.0,0.6,0.0,1.6768026118350008,-0.01817128424769898,1.0288505819348681
10.90943193435669,1.8658623461184642,[1.92208238],5.0,0.6,0.0,1.9752881547103283,-0.019619061194474686,1.0285579942025433
10.925933837890625,1.8625405679339408,[1.91870509],5.0,0.6,0.0,1.7279738756251666,-0.027282153013257995,1.029899826198704
10.937355756759644,1.860586580766574,[1.91531459],5.0,0.6,0.0,1.8832427997447259,-0.027577050705287924,1.0467106165500581
10.95331358909607,1.8578509987322607,[1.91191074],5.0,0.6,0.0,1.5639667867592326,-0.041797365052851955,1.0555719520057458
10.964372158050537,1.8558970115648938,[1.90849317],5.0,0.6,0.0,1.6858588644094115,-0.03930285910076068,1.0729543994876134
10.97922396659851,1.852966030813844,[1.90506336],5.0,0.6,0.0,1.3543405467604503,-0.04929206234791534,1.0797400352853783
10.99136996269226,1.8502304487795302,[1.90162218],5.0,0.6,0.0,0.6475221159386784,-0.04898906281742156,1.089340464378278
11.008281469345093,1.8457362782945872,[1.89816598],5.0,0.6,0.0,-0.6056944342172518,-0.05668758450620391,1.0768067698422688
11.026021718978882,1.8412421078096437,[1.89468128],5.0,0.6,0.0,-2.3415484204159136,-0.05406831683773282,1.0608111356669119
11.0406973361969,1.8371387347581736,[1.89115072],5.0,0.6,0.0,-3.8749008225975583,-0.049964333961368394,1.0469119658644377
11.051985740661621,1.8336215578569135,[1.88757117],5.0,0.6,0.0,-5.0,-0.045849389336235925,1.040449109472489
11.06071662902832,1.8310813745393368,[1.88395894],5.0,0.6,0.0,-5.0,-0.028530018962149767,1.0533940406138464
11.071365118026733,1.8275641976380768,[1.88033439],5.0,0.6,0.0,-5.0,-0.028465221010923386,1.0546925243009193
11.092931985855103,1.8201390464020832,[1.87669584],5.0,0.6,0.0,-5.0,-0.03336087843908507,1.009164647014343
11.108473062515259,1.8146678823334566,[1.87301978],5.0,0.6,0.0,-5.0,-0.020757465339660865,0.9878483400769146
11.122411251068115,1.8097829144150397,[1.86929024],5.0,0.6,0.0,-5.0,-0.016078601781257675,0.9742499946408686
11.137416124343872,1.8045071490631495,[1.86550675],5.0,0.6,0.0,-4.92918125129464,-0.008355969083274068,0.9573555625814736
11.15134072303772,1.799622181144733,[1.86167241],5.0,0.6,0.0,-4.0305442347755545,-0.002528271302377425,0.951043761711418
11.16435718536377,1.7945418145095795,[1.85778996],5.0,0.6,0.0,-3.2637625980204463,0.004127387363920769,0.941432608648124
11.17837119102478,1.7894614478744262,[1.85386176],5.0,0.6,0.0,-2.3699233936779134,0.01046307514431138,0.9321125283666523
11.193410634994507,1.7839902838057995,[1.84988989],5.0,0.6,0.0,-1.5765620206731803,0.01845206181207373,0.9177120014789752
11.207392930984497,1.7785191197371728,[1.84587612],5.0,0.6,0.0,-0.3952977066246489,0.026010211152380162,0.9034585916434615
11.221891403198242,1.7734387531020193,[1.84182096],5.0,0.6,0.0,0.9672130669289258,0.031755570236460556,0.8918015568385422
11.243248462677002,1.7667951967329725,[1.83771027],5.0,0.6,0.0,2.669678316022168,0.10442192479615128,0.8604783099438769
11.258406639099121,1.762105627531292,[1.8335198],5.0,0.6,0.0,4.1261043691191714,0.07928893904084627,0.8480821179336231
11.272394895553589,1.7576114570463488,[1.82924397],5.0,0.6,0.0,5.0,0.06587429531618107,0.8400826985930903
11.285417318344116,1.7540942801450887,[1.82489212],5.0,0.6,0.0,5.0,0.05400280773808453,0.8487051695394587
11.298124074935913,1.7507725019605653,[1.82047269],5.0,0.6,0.0,5.0,0.04412268555724887,0.8602002326036059
11.307544946670532,1.7484277173597254,[1.81600114],5.0,0.6,0.0,5.0,0.025101880443322445,0.8829567945182444
11.317608833312988,1.7458875340421487,[1.81150376],5.0,0.6,0.0,5.0,0.020098170305580067,0.9044298063919658
11.3367440700531,1.7410025661237318,[1.80698982],5.0,0.6,0.0,5.0,0.029087168037240353,0.9003219544476968
11.346012592315674,1.7388531802396283,[1.80245128],5.0,0.6,0.0,5.0,0.0017484171748879994,0.927060242308888
11.355412244796753,1.7365083956387886,[1.79789896],5.0,0.6,0.0,5.0,-0.00656709198723521,0.9523257157667575
11.37044906616211,1.7327958200207916,[1.79334861],5.0,0.6,0.0,4.938256620452625,-0.015204509032786358,0.9624802008071389
11.386853694915771,1.7288878456860584,[1.78879418],5.0,0.6,0.0,4.404485312609111,-0.006313279116192645,0.9736124023105546
11.399044275283813,1.7265430610852182,[1.78422441],5.0,0.6,0.0,4.043322096271858,-0.02778437325549591,1.002030766069041
11.41859245300293,1.7224396880337483,[1.77962815],5.0,0.6,0.0,3.7578398313484644,0.0323593031424071,1.0095054341305851
11.4268479347229,1.720681099583118,[1.77499523],5.0,0.6,0.0,3.229836025460889,-0.04358303349951709,1.0466190921933254
11.440891742706299,1.717750118832068,[1.77033251],5.0,0.6,0.0,2.6853029741959675,-0.04734451215594877,1.0698931313294093
11.45761227607727,1.7144283406475447,[1.76564027],5.0,0.6,0.0,1.930646790290865,-0.016189312734177192,1.089065126457309
11.469830513000488,1.7116927586132313,[1.76090737],5.0,0.6,0.0,1.228547871134043,-0.054199174057675395,1.1149348659337013
11.480934381484985,1.7093479740123914,[1.75614026],5.0,0.6,0.0,0.3859902517337107,-0.08352829284506454,1.145277117339217
11.501356363296509,1.7042676073772378,[1.75134198],5.0,0.6,0.0,-1.174456083515792,-0.012805741077687163,1.1409535549571794
11.516346216201782,1.7003596330425044,[1.74649627],5.0,0.6,0.0,-2.931522668247819,-0.035494572030304865,1.1469442014326927
11.529361248016357,1.6970378548579812,[1.74159585],5.0,0.6,0.0,-3.830803330837812,-0.05439688637070267,1.1614726032314304
11.54433560371399,1.6931298805232475,[1.7366461],5.0,0.6,0.0,-5.0,-0.06598147107398415,1.1664610241807085
11.559630393981934,1.6886357100383043,[1.73165021],5.0,0.6,0.0,-5.0,-0.060419644833981226,1.1724321897811347
11.570408344268799,1.685704729287254,[1.72661146],5.0,0.6,0.0,-4.92883206160065,-0.08826769524026593,1.1978117506397836
11.584408521652222,1.681601356235784,[1.72153688],5.0,0.6,0.0,-5.0,-0.09377761736823405,1.2086300414338549
11.598325490951538,1.6776933819010509,[1.71643296],5.0,0.6,0.0,-4.953004741757262,-0.10020299116697007,1.2227740239866587
11.612340211868286,1.6728084139826338,[1.71130392],5.0,0.6,0.0,-4.800257018073884,-0.1019313076992782,1.2266423279690193
11.623299837112427,1.6690958383646373,[1.70615389],5.0,0.6,0.0,-4.308837624122915,-0.1097028970126975,1.2461992330170204
11.636638164520264,1.6646016678796938,[1.70098698],5.0,0.6,0.0,-4.026067945385664,-0.11385298377219197,1.2554544053771854
11.650314807891846,1.6601074973947505,[1.69580732],5.0,0.6,0.0,-3.5398585388839887,-0.11825734972987284,1.2657561601206364
11.664288520812988,1.655027130759597,[1.69061907],5.0,0.6,0.0,-3.5901197441682853,-0.11981019759143215,1.2666874812643305
11.674952507019043,1.6511191564248633,[1.68542936],5.0,0.6,0.0,-3.4844550608349234,-0.13632795241360532,1.2812677516231015
11.684592008590698,1.6474065808068667,[1.68025596],5.0,0.6,0.0,-3.3068450704699908,-0.14563633416637484,1.297809046347535
11.695672750473022,1.6429124103219235,[1.67512115],5.0,0.6,0.0,-3.376170808243269,-0.1493048358418038,1.3042154916676398
11.712320327758789,1.6364642526696132,[1.67002928],5.0,0.6,0.0,-3.195285550922531,-0.13691407859353746,1.2907162572703497
11.72032642364502,1.6331424744850898,[1.66497695],5.0,0.6,0.0,-2.9298571254613592,-0.14858979595824529,1.3101846650107936
11.734288692474365,1.627671310416463,[1.65997286],5.0,0.6,0.0,-3.204555634548436,-0.14757329729779028,1.3040702675450957
11.7517831325531,1.6202461591804695,[1.65501498],5.0,0.6,0.0,-2.734412553182881,-0.12320885022989826,1.2796984378556497
11.761346101760864,1.616338184845736,[1.65009372],5.0,0.6,0.0,-2.3569830741915245,-0.13877430229884127,1.2920956426043755
11.774312019348145,1.6108670207771094,[1.64521446],5.0,0.6,0.0,-1.7767968196040225,-0.1357277212863875,1.2874761104040844
11.786311864852905,1.605786654141956,[1.6403819],5.0,0.6,0.0,-0.9441983501323146,-0.1340750689852343,1.2864634294026516
11.80131196975708,1.5997292939231191,[1.63559343],5.0,0.6,0.0,-0.17718647646587693,-0.12744367628906486,1.2731536650288127
11.813288450241089,1.5950397247214392,[1.63084691],5.0,0.6,0.0,0.7011388547509196,-0.1275107672003215,1.273442640201569
11.827317714691162,1.589373161936076,[1.62614054],5.0,0.6,0.0,1.4400116401107574,-0.12270621417275374,1.2615574241833443
11.847910404205322,1.5801894222494521,[1.62146349],5.0,0.6,0.0,1.700276377126154,-0.07763289305525033,1.2091179096339566
11.864370584487915,1.573741264597142,[1.61679288],5.0,0.6,0.0,2.2886524253737277,-0.06003610948122424,1.18637504508834
11.876207113265991,1.5688562966787254,[1.61211744],5.0,0.6,0.0,2.5673866778877037,-0.08531761507118968,1.1828842096249732
11.890755653381348,1.5626035377431517,[1.60744287],5.0,0.6,0.0,2.38660976438453,-0.07674147393736082,1.1646828939584628
11.904996395111084,1.556546177524315,[1.60277265],5.0,0.6,0.0,2.339616911495513,-0.07136100094450226,1.1481592981818112
11.917912006378174,1.5508796147389516,[1.59810967],5.0,0.6,0.0,2.316555765235207,-0.07007729782614405,1.1361181246303422
11.931901454925537,1.545408450670325,[1.59345935],5.0,0.6,0.0,2.277783577115958,-0.06510790200470602,1.1263150700529556
11.945664167404175,1.540132685318435,[1.58882297],5.0,0.6,0.0,2.2139857463354966,-0.06253361478294507,1.118779052445255
11.96030879020691,1.5338799263828615,[1.58420131],5.0,0.6,0.0,2.4037217771890087,-0.05475053793023696,1.0983494850835032
11.973299503326416,1.5286041610309713,[1.5795967],5.0,0.6,0.0,2.3341628446214835,-0.051452732520476434,1.0904527670749147
11.989288091659546,1.5219606046619245,[1.57501069],5.0,0.6,0.0,2.442355536563574,-0.04137336117973299,1.0651556400943314
12.003379583358765,1.5160986431598242,[1.57044412],5.0,0.6,0.0,2.2818810140111934,-0.03492519572061336,1.0500859258937156
12.025661706924438,1.5073057009066742,[1.56588467],5.0,0.6,0.0,2.3140415951871436,0.026673304383196858,0.9994655596097464
12.034675598144531,1.503788524005414,[1.56131682],5.0,0.6,0.0,2.3743516701979406,-0.01861546244111628,1.01169068069867
12.049371480941772,1.4971449676363673,[1.55674503],5.0,0.6,0.0,2.403774747929122,-0.006308784056001994,0.9871482724101286
12.062153816223145,1.4930415945848974,[1.55217592],5.0,0.6,0.0,2.664854890470876,-0.011122842048981134,0.9916379000755485
12.080318212509155,1.486593436932587,[1.54760264],5.0,0.6,0.0,3.1949834817917306,0.019805468284454154,0.9674662453091551
12.09248685836792,1.482490063881117,[1.54301596],5.0,0.6,0.0,3.672681439486969,-0.00214473472397655,0.9706799106647815
12.103615760803223,1.4787774882631204,[1.5384214],5.0,0.6,0.0,3.72262358424019,-0.010733940625703958,0.9807073543608567
12.112878561019897,1.4756511087953337,[1.53383849],5.0,0.6,0.0,3.5806678667119938,-0.008376453599922099,0.9986071450808062
12.123264789581299,1.4725247293275467,[1.52928518],5.0,0.6,0.0,3.6369629691377776,-0.019705243388483805,1.015253552693476
12.138285160064697,1.467835160125867,[1.52476711],5.0,0.6,0.0,4.806908649212893,-0.024057993454533487,1.006052583814623
12.153424978256226,1.46353638835766,[1.52027949],5.0,0.6,0.0,4.951323793571538,-0.02817958183537371,1.0072902069573648
12.167001962661743,1.4598238127396632,[1.51581583],5.0,0.6,0.0,5.0,-0.0330353236629502,1.0159126658165003
12.1792893409729,1.456697433271877,[1.51137265],5.0,0.6,0.0,5.0,-0.0406573441829854,1.0317107342998764
12.197142601013184,1.4518124653534599,[1.50694279],5.0,0.6,0.0,4.917082602126621,-0.029846077582414476,1.0268313668114855
12.207444190979004,1.4486860858856732,[1.50251827],5.0,0.6,0.0,4.102783297244092,-0.04638124421907033,1.0477585154587092
12.22409176826477,1.443410320533783,[1.49809904],5.0,0.6,0.0,2.606385767307927,-0.039268903657356496,1.0447848339789019
12.234694957733154,1.4404793397827331,[1.493686],5.0,0.6,0.0,0.8673531507059261,-0.049837551240322166,1.0671246122727416
12.246301412582397,1.4369621628814728,[1.48928436],5.0,0.6,0.0,-0.6298000044564951,-0.05311631968791991,1.078085763639729
12.258305072784424,1.4334449859802127,[1.48490091],5.0,0.6,0.0,-1.757051273501057,-0.05774301725504854,1.0865815272066133
12.273277759552002,1.428755416778533,[1.48053645],5.0,0.6,0.0,-3.0820084981725606,-0.055931931463963365,1.0779135574853307
12.287290096282959,1.4240658475768528,[1.47619035],5.0,0.6,0.0,-3.629824346532911,-0.053920587599270375,1.0710621583660054
12.300303220748901,1.4197670758086463,[1.4718622],5.0,0.6,0.0,-4.0557961280528705,-0.053607429717403045,1.069033898541235
12.314302682876587,1.4152729053237025,[1.46755178],5.0,0.6,0.0,-4.588968287703527,-0.0520653071474326,1.0634725690098894
12.326294660568237,1.4111695322722326,[1.46325887],5.0,0.6,0.0,-4.724250279647451,-0.05238606318275416,1.0648593935198711
12.341321229934692,1.4058937669203424,[1.45898321],5.0,0.6,0.0,-4.925055415443414,-0.046750917576877694,1.0513665487750659
12.355528354644775,1.4008134002851889,[1.45472394],5.0,0.6,0.0,-4.497628643415822,-0.04262177867878152,1.044354390931708
12.367280721664429,1.3967100272337187,[1.45048008],5.0,0.6,0.0,-4.171189099711946,-0.042189655674506735,1.04809714906299
12.381284713745117,1.3916296605985656,[1.4462515],5.0,0.6,0.0,-4.165275047314196,-0.03747925361707347,1.0378710507624767
12.404032230377197,1.3826413196286786,[1.4420248],5.0,0.6,0.0,-3.937672212826179,0.014829962029255307,0.9825605626843186
12.418427467346191,1.376974756843315,[1.43777442],5.0,0.6,0.0,-3.634678062503861,0.007339924745380589,0.9677004860374376
12.431611061096191,1.3720897889248986,[1.43349167],5.0,0.6,0.0,-3.045322300615444,0.0009837711534872518,0.9636067547045497
12.446305274963379,1.3675956184399551,[1.4291828],5.0,0.6,0.0,-2.1631534672754515,-0.00014394964744222243,0.9648523228356997
12.46030592918396,1.3629060492382747,[1.42485269],5.0,0.6,0.0,-1.052314701976672,7.355315822511163e-05,0.9633589711055559
12.472637176513672,1.358802676186805,[1.42050609],5.0,0.6,0.0,0.2097625521084857,-0.002087229944486275,0.966950285363577
12.487365484237671,1.3541131069851247,[1.4161476],5.0,0.6,0.0,1.8303034900387083,-0.0010055933450310876,0.9606849384280869
12.501325130462646,1.3500097339336545,[1.41178015],5.0,0.6,0.0,3.236403314079855,-0.0030883511414625565,0.9584743920776417
12.516239881515503,1.3461017595989213,[1.40740631],5.0,0.6,0.0,4.819534012469356,-0.006440974046345509,0.954592736610766
12.531386375427246,1.3421937852641879,[1.40302782],5.0,0.6,0.0,5.0,-0.009658753467743112,0.9587716283019274
12.552633047103882,1.3365272224788243,[1.39863269],5.0,0.6,0.0,5.0,0.03903222893269647,0.9440891283778966
12.568283796310425,1.3326192481440908,[1.3941996],5.0,0.6,0.0,5.0,0.011539535811810343,0.9501342228697481
12.583236455917358,1.3291020712428308,[1.38972497],5.0,0.6,0.0,5.0,-0.005591152532644911,0.9612245331526753
12.597286701202393,1.3257802930583074,[1.38521924],5.0,0.6,0.0,5.0,-0.017664651098469035,0.975051833378215
12.618163585662842,1.321286122573364,[1.38068226],5.0,0.6,0.0,5.0,0.013406291545729783,0.975554007091711
12.62831711769104,1.3195275341227342,[1.37611034],5.0,0.6,0.0,4.546998653524229,-0.03532981978767528,1.0119660523460623
12.646894693374634,1.316010357221474,[1.37150886],5.0,0.6,0.0,3.919024811206602,-0.02566707626832286,1.028788157210803
12.65787148475647,1.3140563700541072,[1.36688391],5.0,0.6,0.0,3.3069965575337514,-0.056567208115853904,1.064191923797946
12.674317836761475,1.3111253893030574,[1.36224301],5.0,0.6,0.0,2.7767041929119456,-0.06196151453682231,1.0872688900528384
12.690279006958008,1.3076082124017971,[1.35759257],5.0,0.6,0.0,1.7880891641704957,-0.07177244324038425,1.10434600232259
12.703268766403198,1.304872630367484,[1.35293966],5.0,0.6,0.0,0.26619730371589445,-0.08201327416436155,1.1299142618190654
12.71727466583252,1.3015508521829606,[1.34829558],5.0,0.6,0.0,-1.4174829703871894,-0.08761163920691535,1.1444689974131466
12.73024868965149,1.2984244727151737,[1.34367037],5.0,0.6,0.0,-3.0923884256395606,-0.09316064678357318,1.1569550373922897
12.744269132614136,1.2947118970971772,[1.33907284],5.0,0.6,0.0,-4.685166051295032,-0.09516422323039388,1.158562192783069
12.756619453430176,1.2911947201959169,[1.33451067],5.0,0.6,0.0,-5.0,-0.09770264062028997,1.1688465349824935
12.77124309539795,1.28689594842771,[1.32999046],5.0,0.6,0.0,-5.0,-0.09595630195758816,1.1714811230006061
12.7842698097229,1.2829879740929768,[1.32551778],5.0,0.6,0.0,-5.0,-0.09590537983128883,1.1781836853207608
12.797274827957153,1.2788846010415067,[1.32109726],5.0,0.6,0.0,-5.0,-0.09469241946800494,1.1819373516440486
12.810021162033081,1.2747812279900368,[1.31673261],5.0,0.6,0.0,-5.0,-0.09311754384847098,1.185023659957453
12.823790311813354,1.26989626007162,[1.3124267],5.0,0.6,0.0,-5.0,-0.08750763992783579,1.178176194768096
12.838343620300293,1.2648158934364664,[1.30818162],5.0,0.6,0.0,-5.0,-0.08068991749882042,1.1682539534021863
12.852262258529663,1.2601263242347864,[1.3039987],5.0,0.6,0.0,-5.0,-0.07569739404472892,1.1622119390888443
12.86726975440979,1.2550459575996329,[1.29987864],5.0,0.6,0.0,-5.0,-0.06846174276951944,1.150716857672363
12.879260301589966,1.250747185831426,[1.29582158],5.0,0.6,0.0,-4.4017690732699295,-0.06500334010543478,1.1518663656822845
12.8942711353302,1.245080623046063,[1.29182717],5.0,0.6,0.0,-3.8806881705537175,-0.05444258393349829,1.1348546878014982
12.916017293930054,1.2368738769431225,[1.2878862],5.0,0.6,0.0,-3.160848329360756,-0.05510942511281554,1.0868699510809963
12.930214643478394,1.2317935103079691,[1.28398186],5.0,0.6,0.0,-2.4758474998526356,-0.044475003501082515,1.0754590923749374
12.944070816040039,1.2265177449560791,[1.28010766],5.0,0.6,0.0,-1.6264664600365828,-0.032703315851834815,1.0610908287722247
12.954946517944336,1.222414371904609,[1.27626964],5.0,0.6,0.0,-0.8660197925460538,-0.011053295539705061,1.0592967581971318
12.965252876281738,1.2185063975698756,[1.27248082],5.0,0.6,0.0,-0.26830262225696977,0.014754584737092964,1.058364362028059
12.983608961105347,1.2120582399175657,[1.26874809],5.0,0.6,0.0,0.7187457384027717,-0.003583595606089902,1.0254611398576945
12.99377727508545,1.2083456642995687,[1.26506903],5.0,0.6,0.0,1.634994604975693,0.025617960114546732,1.0234599172738323
13.004771947860718,1.2050238861150453,[1.26145043],5.0,0.6,0.0,2.3347388145440684,0.04416578767033859,1.0249459788451363
13.017311811447144,1.2011159117803119,[1.25790336],5.0,0.6,0.0,3.0798386186431297,0.04784009231771914,1.0176707495608104
13.031469821929932,1.1974033361623153,[1.25443081],5.0,0.6,0.0,5.0,0.04240259148640483,1.0035551513185232
13.045501232147217,1.1936907605443183,[1.25103131],5.0,0.6,0.0,5.0,0.04355333998453026,0.9998316804609576
13.056222677230835,1.1913459759434786,[1.24770511],5.0,0.6,0.0,5.0,0.053492320224671285,1.0115242937681892
13.066712617874146,1.1884149951924285,[1.24445627],5.0,0.6,0.0,5.0,0.06210465797855255,1.0153234117388794
13.08126950263977,1.1852886157246416,[1.24128742],5.0,0.6,0.0,5.0,0.05414031899043575,1.015831514405203
13.095303297042847,1.1825530336903283,[1.23819749],5.0,0.6,0.0,5.0,0.05771538249730951,1.0200741414082712
13.10824465751648,1.179817451656015,[1.23518603],5.0,0.6,0.0,5.0,0.06270493520607633,1.0233817495565969
13.122239351272583,1.1774726670551747,[1.23225419],5.0,0.6,0.0,5.0,0.06706510591757671,1.0304322768841572
13.135248899459839,1.1755186798878081,[1.22940339],5.0,0.6,0.0,5.0,0.0704023809980962,1.041231733394134
13.147904634475708,1.1735646927204413,[1.22663521],5.0,0.6,0.0,5.0,0.07472700754751267,1.0510615060238235
13.160734415054321,1.1721969017032847,[1.22395138],5.0,0.6,0.0,5.0,0.07684330934785613,1.0669884784036148
13.17522931098938,1.1704383132526548,[1.22135366],5.0,0.6,0.0,5.0,0.08168991504452819,1.0771601869716032
13.187223196029663,1.1692659209522347,[1.21884462],5.0,0.6,0.0,4.940648967228476,0.09178724002647683,1.0937965411534143
13.199341535568237,1.1682889273685515,[1.2164275],5.0,0.6,0.0,4.368457532918562,0.09303948157328829,1.1150945500659857
13.208107233047485,1.1675073325016045,[1.21410634],5.0,0.6,0.0,3.6874263714371773,0.11170990569094048,1.1377021505044684
13.219454050064087,1.1669211363513945,[1.21188613],5.0,0.6,0.0,3.3325339817095028,0.1123610032965936,1.1591978744289417
13.238459825515747,1.1661395414844482,[1.2097676],5.0,0.6,0.0,3.110097422754247,0.08724110020627025,1.1762467895318887
13.252990007400513,1.1657487440509746,[1.2077466],5.0,0.6,0.0,3.211291778114818,0.08753128327247406,1.1951251224432098
13.26900053024292,1.1655533453342382,[1.20582063],5.0,0.6,0.0,3.3589328590292324,0.08699744282565916,1.2147113791016402
13.284244537353516,1.1657487440509746,[1.20398995],5.0,0.6,0.0,3.177132426211223,0.09189494958165498,1.2389537681388183
13.297235012054443,1.1655533453342382,[1.20225604],5.0,0.6,0.0,2.609629959413538,0.09899087530422854,1.2587803981172772
13.31222939491272,1.1657487440509746,[1.20062108],5.0,0.6,0.0,1.9944413468530144,0.10460266794591297,1.2811498841184712
13.326249837875366,1.1659441427677113,[1.19908733],5.0,0.6,0.0,0.9047736162237581,0.11114580107986957,1.3021552682045907
13.339254379272461,1.1661395414844482,[1.19765716],5.0,0.6,0.0,-0.417535164677438,0.11877464858914533,1.3196889089208135
13.352311611175537,1.1665303389179214,[1.19633305],5.0,0.6,0.0,-1.0064285540614712,0.12608901200665684,1.3364900682712324
13.369327783584595,1.1669211363513945,[1.1951178],5.0,0.6,0.0,-1.7872720201026557,0.13695666367781106,1.3506153343717677
13.381863594055176,1.167311933784868,[1.19401438],5.0,0.6,0.0,-2.184077528359677,0.14432530233878396,1.3635588721004668
13.396202564239502,1.1680935286518146,[1.19302561],5.0,0.6,0.0,-2.07958247762239,0.15320832243401689,1.3798867173158338
13.413593530654907,1.1688751235187615,[1.19215568],5.0,0.6,0.0,-2.0846060764762315,0.17633796587291473,1.3940470172230501
13.430112361907959,1.1702429145359179,[1.19141145],5.0,0.6,0.0,-2.098924923798471,0.19422915786899567,1.4110085487626383
13.445243835449219,1.171415306836338,[1.19079961],5.0,0.6,0.0,-1.8122908013720451,0.19915923256571064,1.4251651583572384
