t_s,q_rad,q_des_rad,K,B,jerk,tau_Nm,ilc_ff_Nm
0.005075931549072266,-0.053343849669110974,[0.00289915],0.005,0.1,0.0,9.998999999999999,0
0.014201641082763672,-0.05314845095237431,[0.01400997],0.005,0.1,0.0,10.098989999999999,0
0.025281429290771484,-0.053343849669110974,[0.03481741],0.005,0.1,0.0,10.099989899999999,0
0.03512930870056152,-0.05314845095237431,[0.06355114],0.005,0.1,0.0,10.099999898999998,0
0.04712319374084473,-0.05314845095237431,[0.09861091],0.005,0.1,0.0,10.099999998989999,0
0.058161258697509766,-0.053343849669110974,[0.13856042],0.005,0.1,0.0,10.0999999999899,0
0.07129049301147461,-0.05314845095237431,[0.18212128],0.005,0.1,0.0,10.099999999999898,0
0.08213591575622559,-0.05314845095237431,[0.22816634],0.005,0.1,0.0,5.874744498936434,0
0.09348106384277344,-0.05314845095237431,[0.27571156],0.005,0.1,0.0,3.257195385512695,0
0.10449695587158203,-0.0498266727678509,[0.32390541],0.005,0.1,0.8281150790360429,1.785791843590982,0
0.11452388763427734,-0.04611409714985418,[0.37201892],0.005,0.1,4.792025924021901,0.98590269994679,0
0.1261296272277832,-0.04181532538164743,[0.41943726],0.005,0.1,5.0,0.5738753022062362,0
0.1357412338256836,-0.0381027497636507,[0.46565014],0.005,0.1,5.0,0.3623252616369013,0
0.14813494682312012,-0.03341318056197061,[0.51024112],0.005,0.1,5.0,0.2696787049616649,0
0.15751147270202637,-0.02911440879376387,[0.55287853],0.005,0.1,5.0,0.24504488070682923,0
0.16779804229736328,-0.025401833175767132,[0.59330722],0.005,0.1,5.0,0.2585014641129957,0
0.1779797077178955,-0.021103061407560384,[0.63134007],0.005,0.1,5.0,0.2913043757806031,0
0.18813490867614746,-0.01680428963935364,[0.66684984],0.005,0.1,5.0,0.3340414114866397,0
0.1970686912536621,-0.013677910171566917,[0.69976165],0.005,0.1,5.0,0.38269026427698494,0
0.20559406280517578,-0.010160733270306851,[0.7300458],0.005,0.1,3.145412034803561,0.43161814839299245,0
0.2151014804840088,-0.006448157652310118,[0.75771122],0.005,0.1,0.5159423926396445,0.4790027935654055,0
0.22412991523742676,-0.0027355820343133836,[0.78279939],0.005,0.1,-1.869631226208352,0.523982675322218,0
0.23411035537719727,0.0011723923004200215,[0.8053788],0.005,0.1,-3.977014122931652,0.5650850026001628,0
0.24639344215393066,0.0062527589355734475,[0.82553967],0.005,0.1,-5.0,0.6009692962612667,0
0.25434136390686035,0.008988340969886831,[0.84338974],0.005,0.1,-5.0,0.634961543335347,0
0.26336145401000977,0.012896315304620235,[0.85905119],0.005,0.1,-5.0,0.6618743748631297,0
0.27303361892700195,0.0164134922058803,[0.87265694],0.005,0.1,-5.0,0.6846060458429268,0
0.2846965789794922,0.0216892575577704,[0.88434653],0.005,0.1,-5.0,0.7004211645829591,0
0.294083833694458,0.02462023830882045,[0.89426291],0.005,0.1,-5.0,0.7165999964020293,0
0.306138277053833,0.02989600366071055,[0.90255023],0.005,0.1,-5.0,0.7240918908942722,0
0.31429600715637207,0.03321778184523394,[0.90935157],0.005,0.1,-5.0,0.732437145778261,0
0.3244297504425049,0.03732115489670401,[0.91480727],0.005,0.1,-5.0,0.7355287295112343,0
0.3342010974884033,0.04142452794817409,[0.91905358],0.005,0.1,-5.0,0.7354436954316366,0
0.3430440425872803,0.044746306132697485,[0.92222156],0.005,0.1,-5.0,0.7346040708074414,0
0.35212278366088867,0.048458881750694224,[0.9244361],0.005,0.1,-4.971950426111302,0.7303245414115652,0
0.36110734939575195,0.05158526121848094,[0.92581538],0.005,0.1,-4.7317399816254095,0.7253794688715348,0
0.37336015701293945,0.056470229136897705,[0.92647022],0.005,0.1,-4.4120728414800805,0.7143245593191238,0
0.3831300735473633,0.06057360218836778,[0.92650381],0.005,0.1,-4.350650887540966,0.7036334540785605,0
0.39292049407958984,0.06448157652310119,[0.9260115],0.005,0.1,-4.055807884479552,0.6922990585419354,0
0.4058382511138916,0.06975734187499127,[0.92508086],0.005,0.1,-3.4171154198898943,0.6767084857514709,0
0.4161374568939209,0.07346991749298801,[0.92379167],0.005,0.1,-3.300126331278938,0.6642717968658344,0
0.4270663261413574,0.07757329054445808,[0.92221608],0.005,0.1,-3.0577137809151513,0.6503591957689252,0
0.43707919120788574,0.08167666359592816,[0.92041888],0.005,0.1,-2.78428069506502,0.6361918507517464,0
0.4482753276824951,0.08656163151434493,[0.91845777],0.005,0.1,-2.2433615550804187,0.6201452466702135,0
0.45988035202026367,0.09144659943276168,[0.91638345],0.005,0.1,-1.9682045632793295,0.6044989763651045,0
0.47011709213256836,0.09554997248423175,[0.91424],0.005,0.1,-2.083322716554886,0.5904514184164245,0
0.48158764839172363,0.10004414296917516,[0.9120653],0.005,0.1,-2.001198785145368,0.5763063414041947,0
0.490206241607666,0.10356131987043524,[0.90989133],0.005,0.1,-1.847152064013293,0.5643442098454803,0
0.49907827377319336,0.10688309805495863,[0.90774501],0.005,0.1,-1.6770492568375757,0.552594367174096,0
0.5105373859405518,0.11137726853990204,[0.9056485],0.005,0.1,-1.5139713322370225,0.5400574965149145,0
0.5210208892822266,0.1156760403081088,[0.90361914],0.005,0.1,-1.3659725695130651,0.527481346479877,0
0.5330169200897217,0.12056100822652555,[0.90167034],0.005,0.1,-1.2345573909966576,0.5145320573694445,0
0.5420072078704834,0.12407818512778561,[0.89981256],0.005,0.1,-0.8425979621425809,0.5032309251436731,0
0.5500051975250244,0.12700916587883565,[0.89805432],0.005,0.1,-0.7071427602950768,0.4929534873309755,0
0.5580136775970459,0.13033094406335904,[0.89640238],0.005,0.1,-0.6715326947711523,0.48250504555787477,0
0.5693597793579102,0.13502051326503914,[0.89486167],0.005,0.1,-0.6667802832556431,0.469346452362374,0
0.5793225765228271,0.13892848759977253,[0.89343568],0.005,0.1,-0.6648656311197857,0.4581028693495451,0
0.5879974365234375,0.1424456645010326,[0.89212651],0.005,0.1,-0.6562501338365345,0.4484816756959751,0
0.5979874134063721,0.1465490375525027,[0.89093529],0.005,0.1,-0.639238907293596,0.43710230052034166,0
0.6097590923309326,0.15123860675418274,[0.88986432],0.005,0.1,-0.6150855220847462,0.4251380143456873,0
0.6199378967285156,0.1555373785223895,[0.88891686],0.005,0.1,-0.5858404787101007,0.4157923720202215,0
0.6290967464447021,0.15905455542364957,[0.88809342],0.005,0.1,-0.5534823939026406,0.40815734468325476,0
0.6391065120697021,0.1627671310416463,[0.88739185],0.005,0.1,-0.5196281571405333,0.4009276601674616,0
0.6491303443908691,0.1668705040931164,[0.8868106],0.005,0.1,-0.48548892654805365,0.39380978736714195,0
0.6616265773773193,0.17214626944500647,[0.88634998],0.005,0.1,-0.4519185146361717,0.3879598306342154,0
0.6706516742706299,0.1754680476295299,[0.8860108],0.005,0.1,-0.4194866184271094,0.38260584122998986,0
0.6794698238372803,0.17898522453078994,[0.88579116],0.005,0.1,-0.3885495451329513,0.37695573582868364,0
0.6900084018707275,0.18328399629899667,[0.88568524],0.005,0.1,-0.35930925420170007,0.3670745200647958,0
0.6984190940856934,0.1864103757667834,[0.88568503],0.005,0.1,-0.33185927141782257,0.36274755169961803,0
0.7109549045562744,0.19149074240193684,[0.88578461],0.005,0.1,-0.030180593650615622,0.35800449089390585,0
0.723015308380127,0.1961803116036169,[0.88597977],0.005,0.1,-0.24923377710814132,0.3498953154261051,0
0.7333366870880127,0.20028368465508697,[0.88626382],0.005,0.1,-0.3153133500190606,0.3429454386932836,0
0.744102954864502,0.2047778551400304,[0.88662814],0.005,0.1,-0.31579654128071893,0.3356629040757462,0
0.7535057067871094,0.2086858294747638,[0.8870637],0.005,0.1,-0.015237973137501859,0.32946912505610754,0
0.7640478610992432,0.21259380380949724,[0.88756125],0.005,0.1,0.04929440958581735,0.32357020176064866,0
0.7726178169250488,0.2161109807107573,[0.88811147],0.005,0.1,-0.251064684707244,0.3185289798810364,0
0.7825655937194824,0.22001895504549068,[0.88870512],0.005,0.1,-0.33279947078873495,0.31319474003088354,0
0.7905323505401611,0.22334073323001408,[0.88933321],0.005,0.1,-0.04857566694237214,0.3089447777422694,0
0.8020739555358887,0.22783490371495752,[0.88998731],0.005,0.1,0.024028828454482357,0.3032942334881449,0
0.8123159408569336,0.23193827676642756,[0.8906597],0.005,0.1,-0.26162965321492054,0.2983685648945883,0
0.8201031684875488,0.23506465623421427,[0.89134348],0.005,0.1,-0.32919578646526626,0.29490269489030996,0
0.8281128406524658,0.238191035702001,[0.89203203],0.005,0.1,-0.30974826876943684,0.29153580811949803,0
0.83774733543396,0.24248980747020776,[0.89271888],0.005,0.1,0.013777955072733133,0.2866361425841747,0
0.8464517593383789,0.24542078822125782,[0.89339876],0.005,0.1,0.09754384462447664,0.2836334850022117,0
0.8550856113433838,0.2487425664057812,[0.89406721],0.005,0.1,0.0870208613843845,0.2802166872852111,0
0.864464282989502,0.25245514202377795,[0.89471988],0.005,0.1,0.04709197758430274,0.276397604243496,0
0.8729166984558105,0.25577692020830134,[0.89535247],0.005,0.1,0.004715777994908278,0.2733240147669842,0
0.8831801414489746,0.2600756919765081,[0.89596082],0.005,0.1,-0.030453568692612214,0.26894284035443705,0
0.8915212154388428,0.2633974701610315,[0.89654121],0.005,0.1,-0.05625469005073899,0.26602207344217715,0
0.900087833404541,0.26691464706229157,[0.89709037],0.005,0.1,-0.07346197351421466,0.2628214917314154,0
0.9090077877044678,0.27062722268028827,[0.89760528],0.005,0.1,-0.08375111363535512,0.25977521225842004,0
0.9189012050628662,0.27473059573175834,[0.89808289],0.005,0.1,-0.08885266161359269,0.25647347362104367,0
0.9279954433441162,0.2780523739162818,[0.89852072],0.005,0.1,-0.09024827886660727,0.2531187287565524,0
0.9373247623443604,0.2819603482510151,[0.89891735],0.005,0.1,-0.08910243980159802,0.24957978243524698,0
0.9464061260223389,0.2854775251522752,[0.89927172],0.005,0.1,-0.08628673194696432,0.2467427378038339,0
0.9560911655426025,0.28958089820374533,[0.89958261],0.005,0.1,-0.0824328700511116,0.24346058371729215,0
0.9655623435974121,0.29329347382174203,[0.89984882],0.005,0.1,-0.07798776187354184,0.24075488653280747,0
0.9750993251800537,0.2970060494397388,[0.90006988],0.005,0.1,-0.07326098980449156,0.23621432772097598,0
0.9840834140777588,0.30032782762426213,[0.90024545],0.005,0.1,-0.06846247677790021,0.23653225185850116,0
0.9953529834747314,0.3048219981092056,[0.90037402],0.005,0.1,-0.0637310309167182,0.23268555708968566,0
1.0046980381011963,0.308729972443939,[0.90045466],0.005,0.1,-0.05915538302531201,0.2290974751209386,0
1.0133607387542725,0.31205175062846235,[0.90048791],0.005,0.1,-0.054789410583370286,0.22566659201090455,0
1.0231685638427734,0.31595972496319574,[0.90047515],0.005,0.1,-0.05066301547301805,0.22102024281078023,0
1.0314292907714844,0.31928150314771914,[0.90041867],0.005,0.1,-0.04678982314879822,0.21647338986020445,0
1.0389668941497803,0.32221248389876916,[0.90032212],0.005,0.1,-0.04317259078549597,0.21069587531832015,0
1.0490124225616455,0.3263158569502393,[0.90019027],0.005,0.1,-0.03980698058918733,0.2052563906215493,0
1.0608699321746826,0.3313962235853927,[0.90002806],0.005,0.1,0.23935418477768755,0.19842930099567702,0
1.0699992179870605,0.33452260305317943,[0.89984084],0.005,0.1,0.2753702875938863,0.19301326648499026,0
1.0790038108825684,0.3382351786711762,[0.89963507],0.005,0.1,-0.05309218239614669,0.18703820684824368,0
1.0871760845184326,0.34136155813896296,[0.89941813],0.005,0.1,-0.1598334176642166,0.18184173061088574,0
1.096998929977417,0.345464931190433,[0.89919865],0.005,0.1,0.10305678003968932,0.17573776193244986,0
1.1069703102111816,0.34956830424190305,[0.89898775],0.005,0.1,0.15774412055765002,0.170998830936993,0
1.1159675121307373,0.3532808798598998,[0.89879913],0.005,0.1,0.13310661691672196,0.1692393328986269,0
1.1271677017211914,0.35757965162810657,[0.8986476],0.005,0.1,-0.1900279999332291,0.1693252488429378,0
1.1364638805389404,0.36129222724610327,[0.89854806],0.005,0.1,-0.2695644143572029,0.17233077955334603,0
1.1456687450408936,0.36480940414736335,[0.89851534],0.005,0.1,0.023722843791485815,0.17785849411939914,0
1.1540589332580566,0.3681311823318867,[0.89856061],0.005,0.1,0.10501171165623004,0.17088083371925772,0
1.1647067070007324,0.3726253528168302,[0.89869518],0.005,0.1,0.10133207241533132,0.20060576582909248,0
1.1727404594421387,0.3759471310013535,[0.89893299],0.005,0.1,0.06977572047314237,0.18544312344667327,0
1.184035301208496,0.3808320989197703,[0.89928237],0.005,0.1,0.03440146526452612,0.19701869509358225,0
1.1930086612701416,0.3841538771042937,[0.89975079],0.005,0.1,0.004106136110573165,0.20949670314363303,0
1.2030601501464844,0.3880618514390271,[0.90034815],0.005,0.1,-0.2948852996264739,0.2193605252254643,0
1.211113452911377,0.39118823090681387,[0.90107744],0.005,0.1,-0.3440115256190076,0.1949947739943528,0
1.2230441570281982,0.3960731988252306,[0.9019395],0.005,0.1,-0.29921903282795503,0.2397081724992249,0
1.2329809665679932,0.399981173159964,[0.90294167],0.005,0.1,-0.22910465782482894,0.23657965310474502,0
1.2448749542236328,0.4046707423616441,[0.90409166],0.005,0.1,-0.16140911210620779,0.2679431002395294,0
1.2544317245483398,0.40857871669637746,[0.90539279],0.005,0.1,-0.10541767375839081,0.24902223649412755,0
1.262359857559204,0.4119004948809009,[0.90683693],0.005,0.1,-0.06256831918499396,0.20337641541071677,0
1.2699902057647705,0.41522227306542425,[0.90840281],0.005,0.1,-0.03134127312563258,0.17626281278454792,0
1.2790765762329102,0.41873944996668433,[0.9100703],0.005,0.1,-0.009413653881638265,0.18038839712303756,0
1.288041591644287,0.42225662686794435,[0.91182781],0.005,0.1,0.005466266118075178,0.18106351783337174,0
1.2994816303253174,0.4267507973528878,[0.91367022],0.005,0.1,0.01518404696775444,0.2005991041161263,0
1.3080418109893799,0.43026797425414787,[0.91559075],0.005,0.1,0.021211032086083884,0.16871801445288245,0
1.3183624744415283,0.43476214473909125,[0.91757505],0.005,0.1,0.024649921421399767,0.165241076376714,0
1.3280479907989502,0.43847472035708807,[0.91960926],0.005,0.1,0.02630625588383844,0.1623787681648985,0
1.3373725414276123,0.44238269469182145,[0.92168375],0.005,0.1,-0.24928013062001844,0.1595921056529445,0
1.346689224243164,0.44589987159308153,[0.92378957],0.005,0.1,-0.2827475385931164,0.15734777665681784,0
1.3554902076721191,0.44961244721107824,[0.9259186],0.005,0.1,-0.2285008575012673,0.15517525303036897,0
1.363987922668457,0.45273882667886495,[0.92806058],0.005,0.1,-0.15357509884796816,0.13914223317117147,0
1.3731162548065186,0.4560606048633884,[0.93020359],0.005,0.1,-0.08438367017783995,0.14144855247351762,0
1.3819923400878906,0.45977318048138505,[0.9323403],0.005,0.1,-0.029172463167466217,0.1424436198674,0
1.39223313331604,0.4638765535328551,[0.93446737],0.005,0.1,0.011397052694478362,0.1421306581843242,0
1.401686668395996,0.4679799265843252,[0.93658176],0.005,0.1,0.0394069713605089,0.1409915716018816,0
1.4110136032104492,0.47130170476884864,[0.93867791],0.005,0.1,0.057577931526596564,0.12777431057921845,0
1.4209864139556885,0.4754050778203187,[0.94074819],0.005,0.1,-0.20760103023280974,0.12901934331402123,0
1.4312467575073242,0.4793130521550521,[0.94279135],0.005,0.1,-0.23510509207650102,0.14090072782725302,0
1.4417724609375,0.48380722263999554,[0.94481128],0.005,0.1,-0.17803080329209262,0.13490581997146753,0
1.4528865814208984,0.488301393124939,[0.94680786],0.005,0.1,-0.10243003083500207,0.12891970273864573,0
1.4619431495666504,0.49220936745967236,[0.94877747],0.005,0.1,-0.03399871703212827,0.1234234672068358,0
1.4722208976745605,0.49592194307766907,[0.95071612],0.005,0.1,-0.256508293612726,0.11823800943679226,0
1.4817478656768799,0.49963451869566583,[0.95261948],0.005,0.1,-0.25130755814445216,0.11324362575242995,0
1.4927763938903809,0.5041286891806092,[0.95448297],0.005,0.1,-0.1707565512376535,0.1079922405111186,0
1.502983570098877,0.5078412647986059,[0.95630186],0.005,0.1,-0.07919836962514988,0.1035549296364555,0
1.5145175457000732,0.5121400365668127,[0.95807247],0.005,0.1,-0.2765799115069794,0.10197537992933166,0
1.5219407081604004,0.5150710173178628,[0.95979085],0.005,0.1,-0.25014023277967967,0.09521449869320572,0
1.532484769821167,0.5191743903693328,[0.96145054],0.005,0.1,-0.1536519771810012,0.0918442721661714,0
1.5417969226837158,0.5226915672705928,[0.96304531],0.005,0.1,-0.3271353843460258,0.08916226413901981,0
1.5499751567840576,0.5258179467383796,[0.96456985],0.005,0.1,-0.5506621949474152,0.08673910640562969,0
1.561988115310669,0.5305075159400596,[0.96601909],0.005,0.1,-0.7412249411017318,0.08453910106309798,0
1.5720231533050537,0.5342200915580564,[0.96738933],0.005,0.1,-0.8760716374415558,0.0828399926399043,0
1.58305025100708,0.5381280658927898,[0.96867723],0.005,0.1,-0.9568440337872388,0.08137820857743862,0
1.5919899940490723,0.5412544453605765,[0.96987946],0.005,0.1,-0.993375621823665,0.08062095196212339,0
1.6020402908325195,0.5447716222618366,[0.97099335],0.005,0.1,-0.9968001603957115,0.07982346209768486,0
1.6110382080078125,0.5478980017296233,[0.97201687],0.005,0.1,-0.9769519647867877,0.07936816500372595,0
1.6203217506408691,0.5514151786308834,[0.97294865],0.005,0.1,-0.941657682359895,0.07878756065402165,0
1.6280193328857422,0.5541507606651968,[0.97378846],0.005,0.1,-0.8967957814502936,0.07797243532710457,0
1.6393206119537354,0.5576679375664568,[0.97453706],0.005,0.1,-0.8466153191847723,0.07759621737357872,0
1.6480331420898438,0.560598918317507,[0.97519588],0.005,0.1,-1.0701355438416584,0.0762259407304278,0
1.65897536277771,0.5639206965020302,[0.97576737],0.005,0.1,-1.0504385607977815,0.07541547919552599,0
1.6689867973327637,0.5670470759698171,[0.97625429],0.005,0.1,-0.9435628009231063,0.07457747015661723,0
1.6789486408233643,0.570564252871077,[0.9766595],0.005,0.1,-0.8175991156739407,0.073320082546136,0
1.6870219707489014,0.5732998349053905,[0.9769865],0.005,0.1,-0.6996110292635174,0.07223172113458666,0
1.6966631412506104,0.5764262143731771,[0.97723946],0.005,0.1,-0.5982134897460402,0.07071165442548537,0
1.7059528827667236,0.5795525938409639,[0.97742324],0.005,0.1,-0.7902834366380377,0.06892553586293364,0
1.7150201797485352,0.5822881758752773,[0.9775436],0.005,0.1,-0.754834863326175,0.0667848389474731,0
1.7279624938964844,0.5863915489267474,[0.97760683],0.005,0.1,-0.6438025370778528,0.06478197776251325,0
1.7380321025848389,0.5895179283945341,[0.97761908],0.005,0.1,-0.7978411136051131,0.06266644402053648,0
1.747028112411499,0.5920581117121109,[0.97758681],0.005,0.1,-0.4463143785651573,0.060888768307718645,0
1.7584280967712402,0.5953798898966343,[0.97751695],0.005,0.1,-0.5455066396727589,0.058727632780931134,0
1.7680144309997559,0.5981154719309476,[0.9774164],0.005,0.1,-0.48839944857471046,0.057062139163002595,0
1.7773857116699219,0.6010464526819976,[0.97729175],0.005,0.1,-0.6619917664708649,0.05529860699570919,0
1.7856097221374512,0.603195838566101,[0.97714936],0.005,0.1,-0.5929045249864704,0.05396203527592942,0
1.7951745986938477,0.6059314206004144,[0.97699546],0.005,0.1,-0.451686186963851,0.052390152742770695,0
1.806046962738037,0.6088624013514644,[0.97683614],0.005,0.1,-0.5846912455152591,0.050855228294644526,0
1.8164880275726318,0.6115979833857779,[0.97667694],0.005,0.1,-0.49767062201388346,0.0495409451912752,0
1.825958490371704,0.6139427679866178,[0.97652257],0.005,0.1,-0.3503635998926717,0.04845475410715155,0
1.836122751235962,0.6166783500209313,[0.97637733],0.005,0.1,-0.4834666880987739,0.047183527492181215,0
1.8440349102020264,0.618632337188298,[0.97624453],0.005,0.1,-0.3997322851353303,0.04635174269216911,0
1.8527133464813232,0.6205863243556646,[0.97612591],0.005,0.1,-0.257288959156663,0.045526102271343585,0
1.8620696067810059,0.6231265076732413,[0.97602361],0.005,0.1,-0.3959564840718566,0.044507372569587006,0
1.8746161460876465,0.6258620897075547,[0.97594127],0.005,0.1,-0.5940433954321472,0.04361717913820581,0
1.8820252418518066,0.6274252794414481,[0.97588237],0.005,0.1,-0.4904599556453945,0.04291030693545325,0
1.891082525253296,0.6295746653255516,[0.97584885],0.005,0.1,-0.5795723565597626,0.04224596943030973,0
1.8994572162628174,0.6313332537761815,[0.97584259],0.005,0.1,-0.4308082340487115,0.041795220873802094,0
1.9084458351135254,0.6336780383770215,[0.97586598],0.005,0.1,-0.5045817151419127,0.041210046256222016,0
1.921046495437622,0.6362182216945983,[0.97592216],0.005,0.1,-0.6299403626062499,0.0414114325840656,0
1.931684970855713,0.6383676075787017,[0.97601386],0.005,0.1,-0.464493646593935,0.04004749851740466,0
1.938990831375122,0.6401261960293317,[0.97614042],0.005,0.1,-0.5073069155040031,0.03914723213190557,0
1.9480040073394775,0.6420801831966985,[0.97630026],0.005,0.1,-0.32691933580147925,0.039110991535235125,0
1.9580223560333252,0.6440341703640652,[0.97649419],0.005,0.1,-0.381050050638185,0.039199312021222565,0
1.9670336246490479,0.6454019613812219,[0.97672414],0.005,0.1,-0.21979986021125203,0.03953264587629921,0
1.976050615310669,0.6469651511151151,[0.97699177],0.005,0.1,-0.01719695614798364,0.03977611082530936,0
1.9880075454711914,0.6491145369992186,[0.97729836],0.005,0.1,-0.3916433859494185,0.03974726048141834,0
2.002415895462036,0.6516547203167954,[0.97764707],0.005,0.1,-0.6000167992830037,0.04371172579716344,0
2.012550115585327,0.6532179100506885,[0.97804233],0.005,0.1,-0.7081235511890852,0.0419461395722463,0
2.020263910293579,0.6545857010678453,[0.97848298],0.005,0.1,-0.47886831296048,0.038770187973700854,0
2.0299243927001953,0.6561488908017388,[0.97896217],0.005,0.1,-0.45483294909500827,0.036798243591201686,0
2.0389692783355713,0.6575166818188953,[0.97947322],0.005,0.1,-0.21994874884114257,0.03661059292351595,0
2.0480055809020996,0.6588844728360521,[0.98001178],0.005,0.1,0.040840163667665685,0.03621288556735375,0
2.0579984188079834,0.6604476625699455,[0.98057427],0.005,0.1,0.25993041818185003,0.035629808538572755,0
2.066997528076172,0.661815453587102,[0.98115666],0.005,0.1,0.14480903176721371,0.035086134963280155,0
2.07580304145813,0.662987845887522,[0.9817547],0.005,0.1,0.21824521168979716,0.03457806088748823,0
2.087996244430542,0.6645510356214154,[0.98236396],0.005,0.1,0.05978675156866792,0.03393547115594831,0
2.100121259689331,0.6661142253553088,[0.98298022],0.005,0.1,-0.14395211624228296,0.033574090607888706,0
2.110015392303467,0.6672866176557288,[0.98359915],0.005,0.1,-0.32183346505046284,0.03279406684075888,0
2.118988275527954,0.6682636112394121,[0.98421514],0.005,0.1,-0.17769087520682847,0.03218111665395294,0
2.127941608428955,0.6694360035398322,[0.98482179],0.005,0.1,-0.23114973836382946,0.03179160141065569,0
2.138995885848999,0.6706083958402522,[0.98541299],0.005,0.1,-0.05926692884816509,0.031513118653204476,0
2.146963119506836,0.6715853894239355,[0.98598292],0.005,0.1,0.15322936860633185,0.03143340779757562,0
2.1577064990997314,0.6727577817243556,[0.98652569],0.005,0.1,0.06055180055876602,0.031449905936635845,0
2.170156478881836,0.6739301740247756,[0.98703529],0.005,0.1,0.16252872382059538,0.03177207150720873,0
2.1799509525299072,0.6749071676084589,[0.98750649],0.005,0.1,0.30585843317842537,0.03159471115146989,0
2.1899261474609375,0.6758841611921423,[0.98793534],0.005,0.1,0.43160079368304904,0.0322181868979823,0
2.1995837688446045,0.6766657560590891,[0.9883178],0.005,0.1,0.24657141015818784,0.03250942963017549,0
2.2073915004730225,0.6772519522092991,[0.98865111],0.005,0.1,0.5457469703610061,0.03219843235922598,0
2.2169911861419678,0.6780335470762457,[0.98893427],0.005,0.1,0.3853674830039432,0.0325759759510566,0
2.226259469985962,0.6788151419431923,[0.98916605],0.005,0.1,0.37889732281302263,0.03290589769771404,0
2.2356438636779785,0.6795967368101391,[0.98934506],0.005,0.1,0.41866852853215475,0.033148342411139994,0
2.2429234981536865,0.6799875342436125,[0.98947144],0.005,0.1,0.46074890264531,0.03247259699197344,0
2.2521755695343018,0.6805737303938224,[0.98954669],0.005,0.1,0.21401021138940468,0.032765703258645695,0
2.2610044479370117,0.681355325260769,[0.98957196],0.005,0.1,0.19462236956527867,0.032847275349426316,0
2.2715070247650146,0.6819415214109791,[0.98954809],0.005,0.1,0.249789722769986,0.0328239252466639,0
2.281263589859009,0.6825277175611891,[0.98947664],0.005,0.1,0.3154845749918687,0.0326317105262682,0
2.288961172103882,0.683309312428136,[0.98936056],0.005,0.1,0.36830144507519413,0.031465681159851974,0
2.2999989986419678,0.6838955085783458,[0.98920351],0.005,0.1,0.4025167822531966,0.03181328912376867,0
2.3119986057281494,0.6844817047285559,[0.98900825],0.005,0.1,0.41941131038479484,0.03135909879529451,0
2.3203017711639404,0.6850679008787659,[0.98877864],0.005,0.1,0.42248564193385724,0.03002685947221639,0
2.327908754348755,0.6854586983122393,[0.98852099],0.005,0.1,0.4154559194858136,0.029165950553426457,0
2.3409926891326904,0.6858494957457124,[0.98824229],0.005,0.1,0.401522867881979,0.028513793784306896,0
2.3517441749572754,0.6864356918959225,[0.98794965],0.005,0.1,0.38319594968015275,0.02785446266150333,0
2.360680341720581,0.6868264893293958,[0.98765083],0.005,0.1,0.6383763291746246,0.027476312396467313,0
2.370338201522827,0.6872172867628693,[0.98735461],0.005,0.1,0.6494429107945603,0.027493946466042918,0
2.3798961639404297,0.6874126854796059,[0.98706993],0.005,0.1,0.5720088840615913,0.027610855565731098,0
2.3917224407196045,0.6878034829130792,[0.98680725],0.005,0.1,0.47392601990950645,0.030413705282764443,0
2.401531934738159,0.6881942803465526,[0.98657988],0.005,0.1,0.3821428620584514,0.0321883480753381,0
2.413450241088867,0.6883896790632892,[0.98640146],0.005,0.1,0.30524129528333155,0.037300102522574624,0
2.4229118824005127,0.6887804764967627,[0.9862821],0.005,0.1,0.24408000297853333,0.03452468086154121,0
2.4339184761047363,0.6889758752134992,[0.98622628],0.005,0.1,0.1966787645553483,0.035735473205903596,0
2.445709228515625,0.6895620713637093,[0.98623812],0.005,0.1,0.4363927132864535,0.03924007184540743,0
2.455350637435913,0.6897574700804461,[0.98632234],0.005,0.1,0.4417370297842237,0.037484800999453186,0
2.462961196899414,0.6897574700804461,[0.98647771],0.005,0.1,0.36529806021087846,0.033602803144666925,0
2.472621440887451,0.6901482675139192,[0.986698],0.005,0.1,0.5487030596977085,0.032357089227316775,0
2.4814045429229736,0.6901482675139192,[0.98697646],0.005,0.1,0.7743464306030527,0.030845162182142172,0
2.488956928253174,0.6905390649473927,[0.98730528],0.005,0.1,0.6853877997872245,0.028911100185164164,0
2.5000035762786865,0.6907344636641293,[0.98767479],0.005,0.1,0.7798431703534132,0.027825896941950482,0
2.5092568397521973,0.6907344636641293,[0.98807433],0.005,0.1,0.63001485123411,0.026954813871517803,0
2.5179333686828613,0.690929862380866,[0.98849291],0.005,0.1,0.6984727461326325,0.026675918810680092,0
2.5279359817504883,0.690929862380866,[0.9889196],0.005,0.1,0.8158301289605745,0.026727624321061315,0
2.537400960922241,0.6911252610976026,[0.98934345],0.005,0.1,0.640806922938277,0.0270818786609462,0
2.5479469299316406,0.6911252610976026,[0.98975444],0.005,0.1,0.6732402530538566,0.027431918231646875,0
2.557903528213501,0.6913206598143393,[0.9901448],0.005,0.1,0.48219501236855306,0.02761446867850454,0
2.5679869651794434,0.6913206598143393,[0.99050892],0.005,0.1,0.5257402871458208,0.027745574911813887,0
2.5792934894561768,0.691516058531076,[0.99084292],0.005,0.1,0.6302412222486136,0.02771806121221363,0
2.5879995822906494,0.6917114572478126,[0.99114501],0.005,0.1,0.45091344796102045,0.027415568240987145,0
2.5969765186309814,0.6917114572478126,[0.99141606],0.005,0.1,0.4848925046675234,0.027226960771305268,0
2.605924606323242,0.6917114572478126,[0.99165962],0.005,0.1,0.575281630123877,0.027291062915795812,0
2.615973472595215,0.6919068559645494,[0.99188301],0.005,0.1,0.6597574843194914,0.028586203593572338,0
2.626338243484497,0.6919068559645494,[0.99209891],0.005,0.1,0.7183617630601458,0.03303218675920567,0
2.6353495121002197,0.6921022546812859,[0.99232523],0.005,0.1,0.7488802403868535,0.04176310255782744,0
2.6448562145233154,0.6921022546812859,[0.99258395],0.005,0.1,0.7555700160815573,0.056106888224848085,0
2.652899980545044,0.6922976533980226,[0.9928949],0.005,0.1,0.7442490522757835,0.055810791297215355,0
2.663975477218628,0.6924930521147594,[0.9932813],0.005,0.1,0.7203486248466417,0.11361096087494164,0
2.6749043464660645,0.692688450831496,[0.99377931],0.005,0.1,0.6882945078441544,0.14643335932416018,0
2.686969518661499,0.6930792482649695,[0.99442461],0.005,0.1,0.65144565093539,0.1845789611712157,0
2.697031259536743,0.693274646981706,[0.99524618],0.005,0.1,0.8882751824569293,0.22669951587205148,0
2.7049853801727295,0.6936654444151793,[0.99627143],0.005,0.1,1.1575722418744478,0.27029608991187853,0
2.712970495223999,0.6940562418486528,[0.997516],0.005,0.1,1.3722665370826512,0.22043443370306384,0
2.723926067352295,0.6948378367155994,[0.99899341],0.005,0.1,1.788157987359587,0.38235055273883595,0
2.732649564743042,0.6954240328658093,[1.00072302],0.005,0.1,2.4443960098464004,0.29439196982347193,0
2.7429006099700928,0.6965964251662294,[1.00270935],0.005,0.1,3.0240076521941384,0.3378458586340407,0
2.752200126647949,0.6979642161833861,[1.00495324],0.005,0.1,3.984608015622067,0.3694872195346979,0
2.762969493865967,0.6995274059172796,[1.00746104],0.005,0.1,4.837557381999037,0.389201376242031,0
2.7729153633117676,0.7012859943679095,[1.01023373],0.005,0.1,5.0,0.39906318996124535,0
2.78241229057312,0.7032399815352761,[1.01327634],0.005,0.1,5.0,0.5230349711608946,0
2.7914814949035645,0.7053893674193795,[1.01658831],0.005,0.1,5.0,0.3672739247227288,0
2.799964427947998,0.7075387533034829,[1.02014666],0.005,0.1,5.0,0.36927226619048814,0
2.8103370666503906,0.710469734054533,[1.02392731],0.005,0.1,5.0,0.36588986205665014,0
2.817955255508423,0.7126191199386365,[1.02790617],0.005,0.1,5.0,0.26837716833033126,0
2.826993465423584,0.7153547019729498,[1.0320507],0.005,0.1,5.0,0.2859798882511937,0
2.8362112045288086,0.7186764801574732,[1.03633812],0.005,0.1,5.0,0.2940236711508575,0
2.846869468688965,0.7221936570587333,[1.04075395],0.005,0.1,5.0,0.29422685859400083,0
2.856656312942505,0.7261016313934666,[1.04528248],0.005,0.1,5.0,0.2885775746891634,0
2.8670122623443604,0.7302050044449367,[1.04990714],0.005,0.1,5.0,0.27905971907592214,0
2.8763890266418457,0.7337221813461967,[1.05461079],0.005,0.1,4.779907413532589,0.26815809378741456,0
2.8849310874938965,0.7368485608139834,[1.05937606],0.005,0.1,4.0198455915540325,0.2567292269428505,0
2.893568992614746,0.7405611364319802,[1.06418574],0.005,0.1,2.9060489151394444,0.2445960164503672,0
2.901862859725952,0.7438829146165036,[1.0690168],0.005,0.1,1.8550983971335961,0.1778546358677365,0
2.910902500152588,0.7475954902345003,[1.07384183],0.005,0.1,1.0018037597908611,0.18420732655436994,0
2.9229042530059814,0.7524804581529171,[1.078643],0.005,0.1,-0.1898180673580847,0.1856899315803696,0
2.932347297668457,0.7561930337709138,[1.0834107],0.005,0.1,-1.2616952856580441,0.18496805291796117,0
2.9401729106903076,0.7593194132387007,[1.08813605],0.005,0.1,-2.3522560846824447,0.18323722220030592,0
2.9489121437072754,0.762641191423224,[1.09280542],0.005,0.1,-3.213399371869251,0.13794921725133272,0
2.9578897953033447,0.7659629696077473,[1.09740162],0.005,0.1,-3.798492203216485,0.14762324855339404,0
2.9661972522735596,0.7694801465090074,[1.10191632],0.005,0.1,-4.1379472433887,0.1539626478325551,0
2.97391939163208,0.7726065259767941,[1.10634314],0.005,0.1,-4.560193449927926,0.11999084617109602,0
2.982974052429199,0.7761237028780542,[1.1106716],0.005,0.1,-4.87414931139574,0.1311756118975149,0
2.991509199142456,0.7800316772127877,[1.11489877],0.005,0.1,-5.0,0.13731042670504345,0
3.0008955001831055,0.7837442528307843,[1.11902766],0.005,0.1,-5.0,0.13878645811185486,0
3.009390354156494,0.786870632298571,[1.12306041],0.005,0.1,-5.0,0.13689781222675754,0
3.0175116062164307,0.7901924104830944,[1.12699359],0.005,0.1,-4.987376563095012,0.10487170728362086,0
3.026865005493164,0.7937095873843545,[1.13081935],0.005,0.1,-4.774885711055248,0.10793809861556727,0
3.0368287563323975,0.7978129604358245,[1.13453562],0.005,0.1,-4.481112184696944,0.10795584899412532,0
3.0469770431518555,0.8017209347705582,[1.13814537],0.005,0.1,-4.163209260999848,0.106919196630407,0
3.0559515953063965,0.8052381116718181,[1.14165182],0.005,0.1,-4.124018075408744,0.10642489837726773,0
3.0669338703155518,0.8093414847232882,[1.14505899],0.005,0.1,-3.856491818166525,0.1065310680472572,0
3.0767199993133545,0.8134448577747583,[1.14837214],0.005,0.1,-3.5199937549106166,0.10788078122009939,0
3.0857198238372803,0.8165712372425449,[1.15159792],0.005,0.1,-3.182981477078031,0.11106365872972133,0
3.0969414710998535,0.8208700090107517,[1.15474433],0.005,0.1,-3.147678536893776,0.11485003888188643,0
3.1060094833374023,0.8243871859120117,[1.15782058],0.005,0.1,-3.178461419624389,0.12014647360161917,0
3.1169235706329346,0.8282951602467451,[1.16083684],0.005,0.1,-3.1865336525794494,0.12614871590268412,0
3.126105785369873,0.8322031345814787,[1.16380406],0.005,0.1,-3.147520928214301,0.1332274983588273,0
3.1369001865386963,0.8363065076329487,[1.16673386],0.005,0.1,-3.0629890140828038,0.14136394136351188,0
3.1458702087402344,0.839628285817472,[1.16963846],0.005,0.1,-2.943105116362648,0.15133622314552386,0
3.1561098098754883,0.8437316588689421,[1.17253051],0.005,0.1,-2.7992985590972443,0.16183441508693594,0
3.1655569076538086,0.8472488357702022,[1.17542284],0.005,0.1,-2.3654822089510548,0.17313254403516684,0
3.1766717433929443,0.8513522088216723,[1.17832809],0.005,0.1,-1.8923220255175384,0.1838400183125994,0
3.1889312267303467,0.8556509805898791,[1.18125831],0.005,0.1,-1.4736856983116207,0.19397409047880765,0
3.1978671550750732,0.8591681574911391,[1.18422469],0.005,0.1,-1.1344627266003746,0.20408044599900377,0
3.207923650741577,0.8632715305426091,[1.18723737],0.005,0.1,-0.8716496672643717,0.21288783756235927,0
3.2174012660980225,0.8671795048773426,[1.19030524],0.005,0.1,-0.39687692530120877,0.22050400637465503,0
3.2256412506103516,0.8703058843451292,[1.19343578],0.005,0.1,0.060702536598570056,0.22715996757910908,0
3.2353503704071045,0.8740184599631259,[1.19663481],0.005,0.1,0.4250772341177782,0.23130515886875053,0
3.24471116065979,0.877535636864386,[1.19990638],0.005,0.1,0.409069518489633,0.23349776625613192,0
3.255779981613159,0.8822252060660662,[1.20325261],0.005,0.1,0.5447496572543387,0.23218199602936038,0
3.2652900218963623,0.8861331804007996,[1.20667363],0.005,0.1,0.6969570628810929,0.22937158030269988,0
3.273847818374634,0.8896503573020595,[1.21016112],0.005,0.1,0.817203356613757,0.16901136625967106,0
3.2848079204559326,0.894144527787003,[1.21370604],0.005,0.1,0.6184665765492936,0.23609749219736073,0
3.2949581146240234,0.8982479008384732,[1.2173119],0.005,0.1,0.34735563601587444,0.223098930306817,0
3.302955389022827,0.9013742803062598,[1.22097339],0.005,0.1,0.10028302688053381,0.16146533847846356,0
3.311922788619995,0.9050868559242566,[1.22467725],0.005,0.1,0.18272951954720631,0.21509974200173687,0
3.3208823204040527,0.9084086341087799,[1.22841671],0.005,0.1,0.07738521547422945,0.15471707214261443,0
3.3289294242858887,0.9117304122933033,[1.23217311],0.005,0.1,-0.06934092996066299,0.11856645455329462,0
3.336869239807129,0.9150521904778267,[1.23592372],0.005,0.1,-0.20068196952205788,0.12991901441733017,0
3.347929000854492,0.9193509622460335,[1.23966014],0.005,0.1,-0.29970602384121037,0.13648843623850723,0
3.3579092025756836,0.9232589365807669,[1.24338028],0.005,0.1,-0.365912966305594,0.13985309733649848,0
3.3679146766662598,0.9273623096322371,[1.24708171],0.005,0.1,-0.4045825240889256,0.1406243073182226,0
3.376610279083252,0.9308794865334971,[1.25076176],0.005,0.1,-0.422182837736958,0.1399061142780818,0
3.387918472290039,0.9353736570184404,[1.25441756],0.005,0.1,-0.4245886011275143,0.13699560570766245,0
3.397871494293213,0.9392816313531739,[1.25804588],0.005,0.1,-0.41654956107738417,0.13290201585350456,0
3.40694522857666,0.9429942069711705,[1.2616476],0.005,0.1,-0.40167611719603574,0.15941312252140966,0
3.4173152446746826,0.9474883774561141,[1.26522668],0.005,0.1,-0.38260783621206224,0.1410300689555585,0
3.42783784866333,0.951591750507584,[1.2687761],0.005,0.1,-0.36122049703343034,0.10149378789938415,0
3.435847043991089,0.9549135286921074,[1.2722801],0.005,0.1,-0.33881536959575725,0.09906072813832037,0
3.4455454349517822,0.9586261043101042,[1.2757291],0.005,0.1,-0.3162737041165652,0.09579052170380617,0
3.4529950618743896,0.9613616863444175,[1.27911505],0.005,0.1,-0.29417570537973825,0.0745674527101236,0
3.4639315605163574,0.9656604581126244,[1.28242714],0.005,0.1,-0.27288907862939316,0.07631491307072678,0
3.4737179279327393,0.9697638311640945,[1.28566392],0.005,0.1,-0.2526335037976615,0.09411919270475484,0
3.4828996658325195,0.9732810080653544,[1.28882822],0.005,0.1,-0.23352688485617373,0.07183398025606887,0
3.4952287673950195,0.9779705772670346,[1.29191903],0.005,0.1,-0.4916565243706761,0.08798142641411193,0
3.5029351711273193,0.980706159301348,[1.29493608],0.005,0.1,-0.7841117293078005,0.0683989930969788,0
3.51492977142334,0.9853957285030279,[1.29787671],0.005,0.1,-1.0226439366212519,0.06988281477352898,0
3.5256993770599365,0.9893037028377615,[1.30074408],0.005,0.1,-1.1862200920708599,0.09029110818638524,0
3.5358872413635254,0.9930162784557581,[1.30355039],0.005,0.1,-1.280346288179991,0.08913747053914003,0
3.5469443798065186,0.9969242527904917,[1.30630448],0.005,0.1,-1.318861464662724,0.08986330487223647,0
3.5549376010894775,0.9998552335415416,[1.30901225],0.005,0.1,-1.3163256717179346,0.09264160452489469,0
3.563922882080078,1.0029816130093283,[1.31167618],0.005,0.1,-1.5612957188952075,0.07426731927212535,0
3.5749154090881348,1.0070849860607984,[1.31429558],0.005,0.1,-1.268606069643894,0.08296827038813055,0
3.5849392414093018,1.0106021629620585,[1.31687617],0.005,0.1,-1.1192161183433451,0.09180882858432136,0
3.594311475753784,1.0137285424298452,[1.31943447],0.005,0.1,-1.0309221671098494,0.13265784993823704,0
3.6029152870178223,1.016854921897632,[1.32198644],0.005,0.1,-0.9667059126270043,0.10176492282284695,0
3.6129398345947266,1.020372098798892,[1.32453714],0.005,0.1,-0.9108432938981192,0.1135301577678821,0
3.6218419075012207,1.0234984782666787,[1.32709283],0.005,0.1,-0.8573543239137099,0.12597303841697383,0
3.6338796615600586,1.0276018513181489,[1.32966599],0.005,0.1,-0.5284659615564171,0.13761065066812722,0
3.6431775093078613,1.0309236295026722,[1.33226878],0.005,0.1,-0.44308455184294226,0.14948735879962957,0
3.653871774673462,1.034636205120669,[1.33491278],0.005,0.1,-0.4470178341042489,0.16065396636187954,0
3.6618521213531494,1.0375671858717188,[1.33760874],0.005,0.1,-0.19756054986377464,0.1715385778135647,0
3.669848918914795,1.0403027679060324,[1.34035961],0.005,0.1,0.08846233938279371,0.13232676377312677,0
3.677856922149658,1.0432337486570824,[1.34316138],0.005,0.1,0.6068918160907026,0.15280441289098276,0
3.6878490447998047,1.0467509255583425,[1.34601745],0.005,0.1,0.8183335519148507,0.16965579722693777,0
3.69978666305542,1.0508542986098126,[1.34894435],0.005,0.1,1.156969662423616,0.24389237297498112,0
3.708930015563965,1.053980678077599,[1.35195569],0.005,0.1,1.1822995049562937,0.17699924293867608,0
3.718956470489502,1.0576932536955959,[1.35504829],0.005,0.1,1.3637828247387398,0.18848697265002373,0
3.728891372680664,1.0617966267470662,[1.35821859],0.005,0.1,1.8207386992186843,0.19683703493311397,0
3.739637851715088,1.0660953985152728,[1.36147656],0.005,0.1,1.9816878960907802,0.2665005173596642,0
3.748080253601074,1.0694171766997962,[1.36482934],0.005,0.1,1.9929623406143047,0.18883672897468973,0
3.758457660675049,1.073715948468003,[1.36827438],0.005,0.1,2.2060221820135775,0.2555678036995597,0
3.7688446044921875,1.077819321519473,[1.37180784],0.005,0.1,2.4171032851566734,0.18046514212640147,0
3.7810046672821045,1.082508890721153,[1.37542487],0.005,0.1,2.558436585562185,0.24392478726469283,0
3.789867639541626,1.0864168650558865,[1.3791198],0.005,0.1,2.343718167703795,0.1727010824473904,0
3.8003156185150146,1.0907156368240933,[1.38288653],0.005,0.1,2.027022977945017,0.23566216600919931,0
3.811894416809082,1.0950144085923001,[1.3867322],0.005,0.1,1.713339077953288,0.2879582003709682,0
3.823232412338257,1.0995085790772434,[1.39066867],0.005,0.1,1.439664685329456,0.25875857623960535,0
3.8314621448516846,1.1026349585450301,[1.39468496],0.005,0.1,0.9375571527739504,0.18206827492859287,0
3.841393232345581,1.1065429328797636,[1.39875776],0.005,0.1,0.4460438945126814,0.18895211724706898,0
3.8488755226135254,1.1096693123475503,[1.4028672],0.005,0.1,0.04597698490968574,0.14335534897244337,0
3.8578732013702393,1.113381887965547,[1.40699676],0.005,0.1,0.026855148258982622,0.16503311626428818,0
3.8659942150115967,1.1165082674333338,[1.41114047],0.005,0.1,-0.14232984739525517,0.18581212228140867,0
3.8755526542663574,1.1202208430513305,[1.41530171],0.005,0.1,-0.6020204325842134,0.20468568584739116,0
3.885627031326294,1.124519614819537,[1.41948461],0.005,0.1,-0.7846500015477127,0.22105355532123316,0
3.8957717418670654,1.1286229878710075,[1.4236937],0.005,0.1,-0.5579121454864729,0.23513125737757581,0
3.907886505126953,1.1333125570726872,[1.42793341],0.005,0.1,-0.5117815851516352,0.24627021178393654,0
3.9178764820098877,1.1372205314074209,[1.43220771],0.005,0.1,-0.5264300014824715,0.25607073199958336,0
3.9268927574157715,1.140737708308681,[1.43652004],0.005,0.1,-0.55154888917904,0.264749524212713,0
3.9365861415863037,1.1446456826434142,[1.44087324],0.005,0.1,-0.5686480933228909,0.27196548865377557,0
3.94689679145813,1.148944454411621,[1.44526964],0.005,0.1,-0.5730923334555169,0.2781025102087108,0
3.9579784870147705,1.1534386248965642,[1.44971949],0.005,0.1,-0.5657401615499468,0.37733044968097096,0
3.966545343399048,1.1567604030810879,[1.45423133],0.005,0.1,-0.5491975756914702,0.26636063801806065,0
3.9763236045837402,1.160668377415821,[1.4587956],0.005,0.1,-0.5262483969449971,0.2794168559413582,0
3.9859838485717773,1.164380953033818,[1.46340432],0.005,0.1,-0.49928165848701883,0.2929402030905293,0
3.998598337173462,1.1692659209522347,[1.46806838],0.005,0.1,-0.4701535662071743,0.4089287523404384,0
4.006861448287964,1.1729784965702312,[1.4727975],0.005,0.1,-0.4402220127353365,0.2912811357619526,0
4.0153985023498535,1.1766910721882282,[1.47758273],0.005,0.1,-0.41043607576655544,0.31275005222215685,0
4.0259623527526855,1.1811852426731717,[1.48241732],0.005,0.1,-0.381431122426545,0.33316822180888384,0
4.033991813659668,1.1841162234242217,[1.48729573],0.005,0.1,-0.35361141348056535,0.2521033425964386,0
4.0449182987213135,1.1884149951924285,[1.49220438],0.005,0.1,-0.6032541206460664,0.2932800296025803,0
4.054807424545288,1.1923229695271618,[1.4971416],0.005,0.1,-0.6115302023115495,0.3283271101622307,0
4.065961837768555,1.1966217412953686,[1.50212548],0.005,0.1,-0.5331754126218999,0.4813241761503845,0
4.075284957885742,1.2003343169133653,[1.50718101],0.005,0.1,-0.43541478744549483,0.4688468051711784,0
4.0851545333862305,1.2044376899648352,[1.51231923],0.005,0.1,-0.3447550245764822,0.4600049605057345,0
4.093845844268799,1.2077594681493586,[1.51753895],0.005,0.1,-0.2694700340206312,0.4559091517697929,0
4.103017330169678,1.211667442484092,[1.52282841],0.005,0.1,-0.21020622794699234,0.3306116035863017,0
4.111669301986694,1.2151846193853522,[1.52816689],0.005,0.1,0.1111994679833199,0.36207288307712776,0
4.121890306472778,1.2192879924368225,[1.53354581],0.005,0.1,0.17857501692633182,0.38539691884018834,0
4.134991884231567,1.2245637577887123,[1.5389761],0.005,0.1,0.14920860403715155,0.5285711157039021,0
4.143813848495483,1.2282763334067093,[1.54446547],0.005,0.1,0.09248039463849723,0.37099374600212515,0
4.154592037200928,1.2325751051749159,[1.54999946],0.005,0.1,0.03661028181394782,0.3797835098414158,0
4.166808605194092,1.2376554718100692,[1.55556367],0.005,0.1,-0.28484588553754575,0.38082087629930483,0
4.176199674606323,1.2415634461448029,[1.56116165],0.005,0.1,-0.35128758034485463,0.4912378066661219,0
4.184796333312988,1.245080623046063,[1.5667939],0.005,0.1,-0.3187752420153891,0.3395549267348112,0
4.194336652755737,1.2487931986640595,[1.57244137],0.005,0.1,-0.25675174639432263,0.3368569138010444,0
4.2025980949401855,1.2519195781318462,[1.57808589],0.005,0.1,-0.19392910133665478,0.3326512396979756,0
4.211776971817017,1.2554367550331063,[1.58371898],0.005,0.1,-0.41649664318397134,0.3258335564964134,0
4.220393657684326,1.2589539319343666,[1.58933209],0.005,0.1,-0.407635672866842,0.31761944820061255,0
4.228135347366333,1.2618849126854164,[1.59491673],0.005,0.1,-0.3210466779185903,0.308916715214425,0
4.236624479293823,1.2654020895866764,[1.60045739],0.005,0.1,-0.22202860794420856,0.22519327009999246,0
4.246896743774414,1.2695054626381466,[1.60593289],0.005,0.1,-0.13515746581128826,0.2366096693128798,0
4.260544300079346,1.2747812279900368,[1.61133886],0.005,0.1,-0.34311962153744124,0.3117266991227239,0
4.2703537940979,1.2788846010415067,[1.61668471],0.005,0.1,-0.32634949444923744,0.287115190090882,0
4.281201124191284,1.2835741702431867,[1.62197025],0.005,0.1,0.03955265717062109,0.2650465821230736,0
4.2899253368377686,1.2870913471444472,[1.62718751],0.005,0.1,0.1718409203171553,0.24787530000429092,0
4.298962593078613,1.2908039227624437,[1.63232923],0.005,0.1,0.20170865033359175,0.2337791472378373,0
4.3068108558654785,1.2939303022302302,[1.63738316],0.005,0.1,0.19050159617501408,0.1718411284838036,0
4.317480802536011,1.2982290739984372,[1.64233332],0.005,0.1,0.16591178264811812,0.17771754744598367,0
4.326986789703369,1.3019416496164338,[1.64717288],0.005,0.1,0.13969384378297975,0.18169406994944726,0
4.33682918548584,1.3058496239511672,[1.65190294],0.005,0.1,0.11625673081788127,0.18377767154713853,0
4.344827175140381,1.3091714021356906,[1.65651973],0.005,0.1,0.09677301448613974,0.1417205375441975,0
4.354691982269287,1.3128839777536871,[1.6610156],0.005,0.1,-0.19493543787915005,0.15470632546333318,0
4.365826845169067,1.317182749521894,[1.66539145],0.005,0.1,-0.24049806436460097,0.1649934842081073,0
4.375360012054443,1.321286122573364,[1.66965571],0.005,0.1,0.08077950056663663,0.17369488845252318,0
4.38581919670105,1.325584894341571,[1.67381757],0.005,0.1,0.18212915611158345,0.18160279969717694,0
4.399003744125366,1.330860659693461,[1.67789316],0.005,0.1,0.1912200404072058,0.24516359690432396,0
4.40778923034668,1.334377836594721,[1.68190446],0.005,0.1,0.1665816918595509,0.2375608508778434,0
4.418332815170288,1.3386766083629278,[1.6858722],0.005,0.1,0.1337648362580373,0.2999136140884276,0
4.429230690002441,1.3429753801311346,[1.68981564],0.005,0.1,0.1029445259144656,0.27796703242108667,0
4.439783334732056,1.3470787531826045,[1.6937456],0.005,0.1,0.0773876277981696,0.2636147982150827,0
4.447868347167969,1.3505959300838646,[1.69765888],0.005,0.1,0.05745270752758459,0.19367610122504814,0
4.456522226333618,1.3541131069851247,[1.70154657],0.005,0.1,0.042426266484421965,0.20495166055593858,0
4.463805437088013,1.357044087736175,[1.70540154],0.005,0.1,0.03132626435287718,0.15979038647247187,0
4.473201751708984,1.3605612646374348,[1.70922448],0.005,0.1,0.02322366078363232,0.2366450495787772,0
4.481782674789429,1.3636876441052217,[1.71302258],0.005,0.1,0.017347030300197647,0.1779500672775867,0
4.492901802062988,1.3679864158734283,[1.71679537],0.005,0.1,0.01309555857865739,0.1897456180729813,0
4.502108097076416,1.371894390208162,[1.72054212],0.005,0.1,0.010018020902635868,0.19720970813317254,0
4.512834072113037,1.376583959409842,[1.72426817],0.005,0.1,0.007783005896800564,0.1999192150051573,0
4.523231744766235,1.3808827311780487,[1.72798363],0.005,0.1,0.006150539971172279,0.2584740692870206,0
4.531192064285278,1.3838137119290987,[1.73169669],0.005,0.1,0.004948456895565976,0.18730005533874228,0
4.539089679718018,1.3871354901136221,[1.73540207],0.005,0.1,0.004053971399228536,0.19233856682132083,0
4.549725294113159,1.3918250593153023,[1.73909553],0.005,0.1,0.2794181965897088,0.19608429985927553,0
4.557817697525024,1.3947560400663521,[1.74277386],0.005,0.1,0.3120271457973801,0.15157129409465342,0
4.568803310394287,1.3992502105512956,[1.74643512],0.005,0.1,-0.01950948963921556,0.22214319125736892,0
4.577800750732422,1.4029627861692924,[1.75008461],0.005,0.1,-0.12903656904389504,0.16811161876896757,0
4.58684515953064,1.4066753617872891,[1.75371475],0.005,0.1,0.13132037218779813,0.1353668875255128,0
4.599825382232666,1.4115603297057058,[1.75731988],0.005,0.1,0.18369794508546164,0.21102745961928632,0
4.607833385467529,1.4148821078902292,[1.76091504],0.005,0.1,0.15695004718801248,0.21634344241918566,0
4.616457223892212,1.4182038860747526,[1.76451319],0.005,0.1,0.1079224477287464,0.2192776801604379,0
4.625284433364868,1.4219164616927495,[1.76811863],0.005,0.1,0.05974095889104418,0.2199626027951922,0
4.633056640625,1.4248474424437991,[1.77173444],0.005,0.1,0.020269509045999747,0.21945911516615477,0
4.641276836395264,1.4281692206283225,[1.77535628],0.005,0.1,-0.009140966881355845,0.16517032019708977,0
4.6488869190216064,1.4311002013793728,[1.77897344],0.005,0.1,-0.029614127178441824,0.17660528216741717,0
4.659682035446167,1.4353989731475796,[1.78258215],0.005,0.1,-0.04296420186006656,0.18156023234815497,0
4.670873641967773,1.4402839410659962,[1.78618419],0.005,0.1,-0.05096855836166657,0.1809710633950633,0
4.678791761398315,1.4436057192505198,[1.78977405],0.005,0.1,-0.055119143173651367,0.13768034655352707,0
4.6895551681518555,1.447513693585253,[1.79334562],0.005,0.1,-0.056578772669142546,0.18521895104987027,0
4.700755596160889,1.4520078640701966,[1.79690325],0.005,0.1,-0.0562156396765997,0.17430448038628096,0
4.710366249084473,1.45591583840493,[1.80044932],0.005,0.1,-0.05465998475545045,0.16375907930063577,0
4.719833850860596,1.4598238127396632,[1.8039744],0.005,0.1,-0.052359992391136256,0.12230100277926637,0
4.7293596267700195,1.46353638835766,[1.8074695],0.005,0.1,-0.04962900201068904,0.15575550187184717,0
4.742487668991089,1.4688121537095502,[1.81094022],0.005,0.1,-0.046682570417180325,0.17808743544861702,0
4.750183343887329,1.4717431344606002,[1.81439067],0.005,0.1,-0.04366639791089627,0.12799104871984976,0
4.7588889598846436,1.475455710078597,[1.81781018],0.005,0.1,-0.04067684483188183,0.12320475670135966,0
4.767797470092773,1.4791682856965935,[1.8211851],0.005,0.1,0.23826260352307155,0.09548568591385712,0
4.777811765670776,1.4828808613145905,[1.82450404],0.005,0.1,0.27416191204857265,0.09855661059157655,0
4.786389350891113,1.4867888356493237,[1.82776166],0.005,0.1,-0.05434687569400107,0.09972707084290176,0
4.79464054107666,1.4901106138338471,[1.83095767],0.005,0.1,-0.16108787857693802,0.09954070076603277,0
4.807287216186523,1.4951909804690007,[1.83409549],0.005,0.1,-0.17420580964438734,0.11846418852235818,0
4.816369533538818,1.498512758653524,[1.83717792],0.005,0.1,-0.15259423496865826,0.08986339012224792,0
4.824891090393066,1.5018345368380475,[1.84019978],0.005,0.1,-0.3981131874911168,0.08926604901999463,0
4.834618806838989,1.5051563150225709,[1.84315697],0.005,0.1,-0.6782222105422777,0.08868506189046592,0
4.842837333679199,1.5082826944903576,[1.84604665],0.005,0.1,-0.6320714957186268,0.0723169299197647,0
4.850872278213501,1.5114090739581443,[1.84886352],0.005,0.1,-0.7580872828459029,0.07607392982233399,0
4.861877679824829,1.5153170482928777,[1.85160753],0.005,0.1,-0.906500636653034,0.07854028508466392,0
4.871466398239136,1.5184434277606642,[1.85428321],0.005,0.1,-1.0230494620679376,0.08061872681059648,0
4.8788368701934814,1.5211790097949778,[1.85689532],0.005,0.1,-1.0949170389668135,0.08243964357438406,0
4.886853456497192,1.5243053892627647,[1.85944521],0.005,0.1,-1.1256034097652896,0.06856156604369443,0
4.897809743881226,1.5284087623142348,[1.86193134],0.005,0.1,-1.1236917808303741,0.0731041924526461,0
4.905857563018799,1.5311443443485482,[1.86435707],0.005,0.1,-1.098162504109025,0.07728526967310678,0
4.914787292480469,1.5342707238163347,[1.86672613],0.005,0.1,-1.332739317006893,0.06541009274374816,0
4.9248809814453125,1.5373971032841214,[1.86903874],0.005,0.1,-1.5905078245075466,0.07120934411092264,0
4.932739973068237,1.5399372866016983,[1.87129953],0.005,0.1,-1.5116435876722436,0.07580475935696582,0
4.944873094558716,1.5440406596531684,[1.87352029],0.005,0.1,-1.5972664487862267,0.09557212406391426,0
4.952870845794678,1.5467762416874815,[1.87570765],0.005,0.1,-1.4243802547641247,0.09570686408106274,0
4.960782289505005,1.549511823721795,[1.87785651],0.005,0.1,-1.4600483184737962,0.09173125867811172,0
4.969766139984131,1.5522474057561084,[1.87996619],0.005,0.1,-1.2625349815678528,0.08814264324927487,0
4.979580402374268,1.555373785223895,[1.88204327],0.005,0.1,-1.2883527075758598,0.084535134287413,0
4.9897894859313965,1.5583047659749452,[1.88409289],0.005,0.1,-1.0896790757308357,0.08084966069198186,0
5.000884771347046,1.5616265441594686,[1.88612174],0.005,0.1,-1.119429427477813,0.090871170340221,0
5.010547876358032,1.5645575249105188,[1.88813741],0.005,0.1,-0.9276082223008765,0.08128865396532174,0
5.020522117614746,1.5674885056615686,[1.89014184],0.005,0.1,-0.9657940657893311,0.07347110225243961,0
5.030658483505249,1.5700286889791455,[1.89213233],0.005,0.1,-0.7831589802168962,0.06721601858168609,0
5.0406410694122314,1.5731550684469322,[1.89410545],0.005,0.1,-0.8307606736618562,0.06173439559521338,0
5.050770998001099,1.5758906504812455,[1.89605731],0.005,0.1,-0.65744680043312,0.05729258968900441,0
5.060592174530029,1.5790170299490323,[1.89798377],0.005,0.1,-0.7140767487224086,0.05349240041220135,0
5.071757078170776,1.5819480107000823,[1.89988078],0.005,0.1,-0.8254199963809827,0.05057770169006219,0
5.0837342739105225,1.5848789914511323,[1.90174474],0.005,0.1,-0.9233206694247098,0.04840232538197955,0
5.096571445465088,1.588005370918919,[1.90357477],0.005,0.1,-1.2632502172096771,0.05250784413754752,0
5.108839988708496,1.5911317503867057,[1.90537487],0.005,0.1,-1.3253290862970446,0.056499135021516426,0
5.116770029067993,1.5926949401205992,[1.90714724],0.005,0.1,-1.2702411026815852,0.047388926216664844,0
5.126941442489624,1.5952351234381759,[1.90888841],0.005,0.1,-1.1726492161505675,0.04742878945542695,0
5.137012958526611,1.5975799080390158,[1.9105966],0.005,0.1,-1.0658417407278713,0.04809291927765216,0
5.145544528961182,1.599338496489646,[1.91227364],0.005,0.1,-0.9635701651235881,0.04929555427714327,0
5.153754234313965,1.6012924836570126,[1.91391968],0.005,0.1,-0.5945895469655091,0.043852162573564876,0
5.1617751121521,1.6028556733909058,[1.91553333],0.005,0.1,-0.4787382196702199,0.04686802361809731,0
5.171745777130127,1.6048096605582727,[1.91711691],0.005,0.1,-0.46066141758282964,0.04956298781572676,0
5.181621074676514,1.6067636477256393,[1.91867586],0.005,0.1,-0.4719746679980037,0.051989316376948855,0
5.1927690505981445,1.6087176348930061,[1.92021554],0.005,0.1,-0.4849383017241108,0.05398949889067387,0
5.201556921005249,1.6104762233436363,[1.92174102],0.005,0.1,-0.7661893685263861,0.05563072323473719,0
5.212811231613159,1.6126256092277396,[1.9232568],0.005,0.1,-0.5191202943070398,0.05646238781101933,0
5.2257609367370605,1.6145795963951064,[1.9247693],0.005,0.1,-0.4186841749274635,0.066561814235034,0
5.23605489730835,1.616533583562473,[1.92628626],0.005,0.1,-0.3795225195892591,0.0632815878040577,0
5.243767738342285,1.6179013745796298,[1.92781103],0.005,0.1,-0.08693932627286949,0.060900964401469145,0
5.2554919719696045,1.6196599630302595,[1.9293433],0.005,0.1,-0.04334029222106539,0.05904066243037201,0
5.2629711627960205,1.6208323553306796,[1.93087998],0.005,0.1,0.1883604692630943,0.049890551453954934,0
5.276289939880371,1.622981741214783,[1.9324184],0.005,0.1,0.1583081569886017,0.059806188064377444,0
5.286080360412598,1.6243495322319397,[1.93396158],0.005,0.1,0.04778159641213604,0.05905268814998471,0
5.293776035308838,1.6255219245323598,[1.93550961],0.005,0.1,0.2078073549136681,0.05035857495160049,0
5.3029797077178955,1.6268897155495166,[1.93706052],0.005,0.1,0.42205237778405114,0.06274154021633227,0
5.310815095901489,1.6280621078499362,[1.93861595],0.005,0.1,0.6079848209024863,0.05351825105306424,0
5.321306228637695,1.62962529758383,[1.94017533],0.005,0.1,0.7421776312974226,0.05771643177470866,0
5.331852674484253,1.6311884873177231,[1.94173968],0.005,0.1,0.825307514404765,0.06272479944050692,0
5.340555906295776,1.6325562783348797,[1.94331447],0.005,0.1,0.8662967669622956,0.06864686399644597,0
5.350865364074707,1.6339240693520367,[1.94490618],0.005,0.1,0.8755332172933045,0.07534502949980779,0
5.36233115196228,1.6352918603691935,[1.94652205],0.005,0.1,0.8622839411368923,0.08280686456583393,0
5.372759819030762,1.6368550501030865,[1.94816989],0.005,0.1,0.5579258565490043,0.09077613318599372,0
5.382752180099487,1.6382228411202433,[1.94985771],0.005,0.1,0.7630403807966268,0.0992782201895237,0
5.390754222869873,1.6391998347039267,[1.95159359],0.005,0.1,0.8080384812339975,0.10820485934418851,0
5.401583909988403,1.6407630244378202,[1.95338527],0.005,0.1,0.7832329923465555,0.11666534412718346,0
5.411278963088989,1.6421308154549765,[1.95523993],0.005,0.1,1.0073033543556627,0.12478229913460806,0
5.419738531112671,1.6433032077553966,[1.95715877],0.005,0.1,1.2568507313194268,0.10124940196124645,0
5.431784629821777,1.6450617962060268,[1.95914298],0.005,0.1,1.4521054966996856,0.1501634556763584,0
5.440727233886719,1.6462341885064469,[1.96120383],0.005,0.1,1.5753543697674068,0.15364792504646796,0
5.448742628097534,1.6474065808068667,[1.963345],0.005,0.1,1.9091341668690809,0.12013167439613152,0
5.46174168586731,1.6493605679742336,[1.96556361],0.005,0.1,2.224377150057952,0.16981069306104343,0
5.471243143081665,1.6509237577081268,[1.96786161],0.005,0.1,2.4470625865603113,0.12982772886671382,0
5.479882001876831,1.6520961500085467,[1.97023414],0.005,0.1,2.844307868734125,0.13818197680815072,0
5.491437911987305,1.6540501371759135,[1.97267569],0.005,0.1,2.912114763497626,0.14306378847320253,0
5.499393701553345,1.6554179281930703,[1.97518534],0.005,0.1,2.826013810347985,0.14520433536240404,0
5.511749982833862,1.6575673140771736,[1.97776525],0.005,0.1,2.6728015455445506,0.18092043342032726,0
5.521743059158325,1.6593259025278038,[1.98041992],0.005,0.1,2.771054509833402,0.16607344400967564,0
5.531991004943848,1.6612798896951704,[1.98314594],0.005,0.1,2.622320200878404,0.153723069297787,0
5.539831638336182,1.6632338768625372,[1.98593342],0.005,0.1,2.6668860259084735,0.14356202921888647,0
5.550134181976318,1.6651878640299036,[1.98877209],0.005,0.1,2.4571859953364408,0.13508358613778237,0
5.561787366867065,1.6675326486307438,[1.99165164],0.005,0.1,2.7280458524825644,0.12780377659717038,0
5.570669651031494,1.6694866357981104,[1.99456204],0.005,0.1,2.7934077107076662,0.12233372935544387,0
5.579822301864624,1.6712452242487406,[1.99749394],0.005,0.1,2.4706212080102774,0.11854974142313354,0
5.587705135345459,1.6730038126993705,[2.00043482],0.005,0.1,2.0545329141122064,0.09329737196862206,0
5.601414203643799,1.6759347934504207,[2.00337402],0.005,0.1,1.9388421839974899,0.1216706394423901,0
5.609830141067505,1.6776933819010509,[2.00630679],0.005,0.1,1.9185946019348636,0.09566757207072935,0
5.619812726974487,1.6798427677851542,[2.00922536],0.005,0.1,1.633865259234987,0.10095572715404892,0
5.632738351821899,1.682969147252941,[2.01212811],0.005,0.1,1.2984649816120892,0.13192081334495254,0
5.642751693725586,1.6853139318537809,[2.01502301],0.005,0.1,0.9948931359129768,0.12917197473955933,0
5.652095317840576,1.6876587164546208,[2.01791332],0.005,0.1,0.7473099783451671,0.12822656927198908,0
5.660267114639282,1.689417304905251,[2.02079828],0.005,0.1,0.2797898988747561,0.1291847503183597,0
5.670354843139648,1.6919574882228277,[2.02367799],0.005,0.1,-0.1730785331354728,0.13076642437113617,0
5.677731990814209,1.6937160766734578,[2.02654854],0.005,0.1,-0.257068830505201,0.10437122647769526,0
5.688727140426636,1.696451658707771,[2.02940254],0.005,0.1,-0.20323738605441732,0.11392560214290959,0
5.699732303619385,1.6989918420253478,[2.03223918],0.005,0.1,-0.38885482622910167,0.12232474156991502,0
5.7097790241241455,1.7015320253429245,[2.03506326],0.005,0.1,-0.3356028760266182,0.12939344049380597,0
5.7214930057525635,1.7044630060939745,[2.03788457],0.005,0.1,-0.2115256181487662,0.17157770295703412,0
5.732385873794556,1.7070031894115512,[2.04071691],0.005,0.1,-0.085678982778464,0.1659055762158336,0
5.741715908050537,1.7091525752956547,[2.04356715],0.005,0.1,0.017854679217376032,0.16211146437588211,0
5.751452207565308,1.711888157329968,[2.04643604],0.005,0.1,-0.1817204478218682,0.15952145997282582,0
5.758721590042114,1.7136467457805982,[2.049319],0.005,0.1,-0.16275832574042695,0.12354624396928926,0
5.769674301147461,1.7165777265316482,[2.052212],0.005,0.1,-0.07507691272866741,0.16801785122526497,0
5.780758619308472,1.719508707282698,[2.05512152],0.005,0.1,0.2950119261218002,0.16302949307305464,0
5.790562868118286,1.7224396880337483,[2.05805254],0.005,0.1,0.40614057391865266,0.158427315667121,0
5.799750328063965,1.7247844726345882,[2.06099863],0.005,0.1,0.40789591022780775,0.12145748547699453,0
5.809659004211426,1.7277154533856383,[2.06395355],0.005,0.1,0.6452431350950976,0.16040279794768203,0
5.820378303527832,1.730646434136688,[2.06692087],0.005,0.1,0.6295736980535068,0.1523160583925125,0
5.827770471572876,1.7327958200207916,[2.06989799],0.005,0.1,0.8038935642172023,0.11593482746339825,0
5.840265274047852,1.7365083956387886,[2.07287676],0.005,0.1,0.7205841289926387,0.1471433424835581,0
5.847743511199951,1.7386577815228919,[2.0758583],0.005,0.1,0.5614998418657692,0.13820555641685464,0
5.856264352798462,1.7411979648404683,[2.07883825],0.005,0.1,0.40150406887807194,0.10512328018263285,0
5.863763332366943,1.7433473507245718,[2.0818033],0.005,0.1,0.2667959454843769,0.10623862302901017,0
5.873600006103516,1.7464737301923585,[2.0847456],0.005,0.1,0.16262343735889406,0.10505078650775905,0
5.882737636566162,1.749209312226672,[2.08765811],0.005,0.1,0.08612469264528405,0.08411724427162455,0
5.890747308731079,1.7517494955442485,[2.09053055],0.005,0.1,-0.24400019474451476,0.08724005315756699,0
5.901729583740234,1.755071273728772,[2.09335753],0.005,0.1,-0.31410260945635704,0.08764621550211663,0
5.9107983112335205,1.7578068557630855,[2.09613444],0.005,0.1,-0.283389097857184,0.07248410242636684,0
5.920752048492432,1.7607378365141355,[2.09885382],0.005,0.1,-0.49868611569409416,0.07554113164972266,0
5.929762363433838,1.7630826211149755,[2.10151277],0.005,0.1,-0.7463078572321036,0.07712317724317917,0
5.940739631652832,1.7664043992994989,[2.10411226],0.005,0.1,-0.9483343346228315,0.07699057055345278,0
5.949724435806274,1.7689445826170758,[2.10665306],0.005,0.1,-1.085914094238418,0.07638686409856511,0
5.9615137577056885,1.7726571582350723,[2.10913884],0.005,0.1,-1.4396092469512634,0.08804970591825904,0
5.972779989242554,1.7755881389861226,[2.11157865],0.005,0.1,-1.7784161662626452,0.0963065615790635,0
5.980798006057739,1.7779329235869625,[2.1139772],0.005,0.1,-1.7506764060757036,0.07467944278746898,0
5.9887425899505615,1.780082309471066,[2.11632702],0.005,0.1,-1.8652094123315845,0.06236331165235121,0
5.9980857372283936,1.7828178915053792,[2.11862202],0.005,0.1,-1.7053721055667759,0.07396727793829812,0
6.00772500038147,1.785358074822956,[2.12086325],0.005,0.1,-1.743130540706483,0.061737602288291726,0
6.0185041427612305,1.7884844542907428,[2.12305213],0.005,0.1,-1.8164231355744778,0.07283100432495646,0
6.026743173599243,1.7904384414581092,[2.12519041],0.005,0.1,-1.5893966995444775,0.061072785581192966,0
6.034724950790405,1.7925878273422127,[2.12727473],0.005,0.1,-1.5657681576951457,0.05410805750579233,0
6.043733596801758,1.7949326119430529,[2.12930021],0.005,0.1,-1.3172955831523403,0.05729640085540328,0
6.053695201873779,1.7974727952606295,[2.1312691],0.005,0.1,-1.30386383192623,0.05978181207333018,0
6.062711477279663,1.8000129785782062,[2.13318693],0.005,0.1,-1.3530208925579328,0.06170055144030176,0
6.070752859115601,1.8021623644623095,[2.13505632],0.005,0.1,-1.1207170986984765,0.054418922168429085,0
6.0800769329071045,1.8047025477798866,[2.13688016],0.005,0.1,-1.1045103850204216,0.06700973569124379,0
6.087728023529053,1.806656534947253,[2.13866433],0.005,0.1,-0.8716737224607153,0.057503991425291584,0
6.0959625244140625,1.8088059208313563,[2.14041146],0.005,0.1,-0.8788994572566027,0.05983104333376132,0
6.107818365097046,1.8115415028656698,[2.14212695],0.005,0.1,-0.9515056009026869,0.07135946341428306,0
6.118019104003906,1.8140816861832465,[2.14382114],0.005,0.1,-1.0199510016949622,0.06903540112663674,0
6.126577615737915,1.8162310720673498,[2.14549731],0.005,0.1,-1.0618126051174253,0.05791829588785328,0
6.136314392089844,1.8185758566681898,[2.14715273],0.005,0.1,-1.074418769875138,0.0589686703474767,0
6.14684796333313,1.8211160399857669,[2.14879033],0.005,0.1,-1.0623164868403256,0.06868514927027133,0
6.157415866851807,1.82385162202008,[2.15041787],0.005,0.1,-1.0318097195508606,0.06583201281437184,0
6.1646997928619385,1.82561021047071,[2.15203403],0.005,0.1,-0.7127529178030902,0.06580128098773626,0
6.173472166061401,1.8275641976380768,[2.15363004],0.005,0.1,-0.628889121956868,0.06410726138471452,0
6.187762975692749,1.8308859758226002,[2.15520684],0.005,0.1,-0.6291449257583164,0.07321447062994609,0
6.1997528076171875,1.8338169565736502,[2.15677667],0.005,0.1,-0.6488888988148441,0.08205811928938582,0
6.2085652351379395,1.8357709437410168,[2.158348],0.005,0.1,-0.38733168102635757,0.06520027149511728,0
6.2191972732543945,1.8381157283418568,[2.15992028],0.005,0.1,-0.35628173067190116,0.06549794939465216,0
6.228340148925781,1.8402651142259603,[2.16149374],0.005,0.1,-0.40107923023055014,0.06651541545146428,0
6.2369866371154785,1.8424145001100636,[2.16307208],0.005,0.1,-0.1809367733035931,0.06776206676775484,0
6.244686841964722,1.8441730885606937,[2.16465578],0.005,0.1,0.08486052407524267,0.05771516722814386,0
6.254318952560425,1.8461270757280606,[2.1662425],0.005,0.1,0.3138388672886908,0.06191409816774636,0
6.262099742889404,1.8476902654619538,[2.16783381],0.005,0.1,0.20765119596422177,0.06583271978008425,0
6.271360158920288,1.8496442526293206,[2.16943457],0.005,0.1,0.28726227083725264,0.06905804357846299,0
6.280476808547974,1.851793638513424,[2.17104928],0.005,0.1,0.13208893083130097,0.07173519491411728,0
6.293210506439209,1.8543338218310006,[2.17268538],0.005,0.1,0.20525123634414935,0.08964698658823436,0
6.302077531814575,1.8562878089983674,[2.17434913],0.005,0.1,0.05953540715180279,0.07132401570561375,0
6.312342643737793,1.8588279923159439,[2.17603877],0.005,0.1,0.14635076092375213,0.07335838825801565,0
6.322399854660034,1.8609773782000472,[2.17775248],0.005,0.1,0.28979002926253616,0.0749786143505716,0
6.331657409667969,1.8631267640841507,[2.17949179],0.005,0.1,0.42073125675626255,0.07591499901246151,0
6.342021942138672,1.8654715486849907,[2.18125753],0.005,0.1,0.24168214711428945,0.07626722927544856,0
6.3508241176605225,1.8672301371356208,[2.18304983],0.005,0.1,0.26997365365993875,0.07642347766612607,0
6.360311269760132,1.869379523019724,[2.18486821],0.005,0.1,0.08037540885173933,0.07606577231876951,0
6.367709398269653,1.8709427127536178,[2.18670837],0.005,0.1,0.1317141853936215,0.06264736432658104,0
6.380183696746826,1.8738736935046676,[2.18856613],0.005,0.1,0.24929974504253713,0.07905936600467724,0
6.39171576499939,1.8760230793887709,[2.19044411],0.005,0.1,0.36288391557809924,0.07718402052769666,0
6.4020256996154785,1.8783678639896109,[2.192344],0.005,0.1,0.4492440394305095,0.07524441495399002,0
6.4137091636657715,1.8807126485904508,[2.19426336],0.005,0.1,0.5050386682457625,0.0734431845384888,0
6.426005601882935,1.8834482306247644,[2.1962025],0.005,0.1,0.5343297641652285,0.08521500762439346,0
6.433964729309082,1.8852068190753946,[2.19816096],0.005,0.1,0.5431094570976049,0.06642841888041183,0
6.447307109832764,1.8881377998264446,[2.20013442],0.005,0.1,0.26106066344710227,0.07751617549592867,0
6.456244707107544,1.8900917869938112,[2.20212138],0.005,0.1,0.21185999962782828,0.07271061127331929,0
6.4680023193359375,1.8928273690281245,[2.20412271],0.005,0.1,0.2444422397443456,0.08061856103805323,0
6.476847887039185,1.8945859574787545,[2.20613554],0.005,0.1,0.29423464242908304,0.06270754369643662,0
6.487657308578491,1.896735343362858,[2.20815135],0.005,0.1,0.3365773452415861,0.06117338503143071,0
6.497929096221924,1.8988847292469615,[2.21016254],0.005,0.1,0.3644372030178986,0.05992840466168299,0
6.510103225708008,1.9012295138478013,[2.21216782],0.005,0.1,0.3779669652788834,0.06858803636896611,0
6.517706871032715,1.902792703581695,[2.21416589],0.005,0.1,0.37977617837097594,0.055431184125146075,0
6.528722286224365,1.9049420894657982,[2.21615028],0.005,0.1,0.09687195032406914,0.05530295092975228,0
6.5376386642456055,1.9067006779164282,[2.21811536],0.005,0.1,0.050917693834111294,0.054800838832336614,0
6.550481796264648,1.9094362599507417,[2.22006155],0.005,0.1,0.08938162459257366,0.0635960945741772,0
6.560741424560547,1.911585645834845,[2.22199214],0.005,0.1,-0.12939087437288008,0.060921572144692335,0
6.5687806606292725,1.9131488355687383,[2.22390516],0.005,0.1,-0.11183567873485016,0.050842551162545956,0
6.579807281494141,1.9154936201695782,[2.22579659],0.005,0.1,-0.020176424460874746,0.06043897456826629,0
6.587682485580444,1.9170568099034717,[2.22766595],0.005,0.1,0.07817119547534417,0.050658897623708586,0
6.595701456069946,1.918619999637365,[2.22951057],0.005,0.1,-0.11698999265748528,0.052155948996436066,0
6.60395073890686,1.919987790654522,[2.23132864],0.005,0.1,-0.36817651133144125,0.05351749719505044,0
6.612642288208008,1.921746379105152,[2.23311901],0.005,0.1,-0.30922127007687916,0.04677732209574408,0
6.621753215789795,1.923504967555782,[2.2348785],0.005,0.1,-0.43392958240146157,0.04939285702021455,0
6.632673025131226,1.9256543534398853,[2.23660737],0.005,0.1,-0.5888758246480504,0.051157447225979334,0
6.64268684387207,1.927608340607252,[2.23830866],0.005,0.1,-0.4410140247282074,0.0521678669524754,0
6.651690483093262,1.9293669290578819,[2.23998495],0.005,0.1,-0.49448796859756144,0.052630614298494485,0
6.660776138305664,1.9307347200750387,[2.24163837],0.005,0.1,-0.3206597573299222,0.052724457127932674,0
6.670119047164917,1.9324933085256688,[2.24327052],0.005,0.1,-0.37885805483976825,0.05233480853156928,0
6.679197072982788,1.9338610995428254,[2.24488258],0.005,0.1,-0.4961649149909886,0.051813512499218534,0
6.6907031536102295,1.9360104854269287,[2.24647526],0.005,0.1,-0.6042624499041824,0.05082005784989858,0
6.698657751083374,1.9373782764440857,[2.24804674],0.005,0.1,-0.6816049010583257,0.044215734965641795,0
6.710327863693237,1.939332263611452,[2.24959512],0.005,0.1,-0.7261698907100425,0.050506296600452076,0
6.718649864196777,1.940504655911872,[2.25112081],0.005,0.1,-0.4669607913569805,0.043680014782785014,0
6.728811740875244,1.9420678456457654,[2.25262365],0.005,0.1,-0.4296209944038736,0.04856796482134759,0
6.737322092056274,1.9436310353796589,[2.25410309],0.005,0.1,-0.46566222231177895,0.04207220961150244,0
6.7446746826171875,1.944803427680079,[2.25555474],0.005,0.1,-0.23685800057598957,0.03828257806561499,0
6.754923105239868,1.9463666174139724,[2.25697443],0.005,0.1,-0.23944240985652288,0.04211770263029477,0
6.765120506286621,1.9479298071478657,[2.25836348],0.005,0.1,-0.31316961164272933,0.04087162072434451,0
6.7729880809783936,1.9492975981650225,[2.25972122],0.005,0.1,-0.11600022925796857,0.03701042049756666,0
6.782038688659668,1.950665389182179,[2.26104361],0.005,0.1,-0.14371068635088602,0.036783901743354115,0
6.791003942489624,1.9518377814825991,[2.26232846],0.005,0.1,-0.23684293667172684,0.0364073989117506,0
6.798633575439453,1.953010173783019,[2.26357401],0.005,0.1,-0.3305037616109075,0.034221459950596035,0
6.809672594070435,1.9543779648001756,[2.26477853],0.005,0.1,-0.6786115453781346,0.03575226325477284,0
6.818704843521118,1.9555503571005957,[2.26594176],0.005,0.1,-0.758329072749043,0.033676516879505555,0
6.829691410064697,1.9571135468344893,[2.26706344],0.005,0.1,-0.7273786584867885,0.034595109429723006,0
6.838010549545288,1.958285939134909,[2.2681433],0.005,0.1,-0.6579452018266904,0.03280851619036195,0
6.846383571624756,1.959067534001856,[2.26918032],0.005,0.1,-0.5814172198580008,0.03269301686423181,0
6.853690147399902,1.960044527585539,[2.27017292],0.005,0.1,-0.5101681106756913,0.031734797677254574,0
6.8627660274505615,1.9610215211692226,[2.27112006],0.005,0.1,-0.17199575226843383,0.031732306735138945,0
6.87380576133728,1.9623893121863794,[2.27202262],0.005,0.1,-0.08610126635955359,0.032139713351658605,0
6.883666276931763,1.9635617044867992,[2.27288232],0.005,0.1,-0.09672699252155507,0.031159789900273887,0
6.891916751861572,1.9645386980704826,[2.2736994],0.005,0.1,-0.13525261508935202,0.03102137846390784,0
6.901738882064819,1.9651248942206925,[2.27447428],0.005,0.1,-0.1738191046308336,0.030988595984281834,0
6.910061597824097,1.9661018878043761,[2.27520832],0.005,0.1,-0.20298529106941804,0.03082236318837538,0
6.917755365371704,1.9668834826713226,[2.27590299],0.005,0.1,-0.49718554067137133,0.030737970284641827,0
6.9256370067596436,1.9676650775382694,[2.27655937],0.005,0.1,-0.5388241250208217,0.03034471427218006,0
6.933776617050171,1.9684466724052159,[2.27717771],0.005,0.1,-0.48476063263231184,0.030094570207940062,0
6.943173170089722,1.9692282672721628,[2.27775922],0.005,0.1,-0.4043360074964187,0.03043269558469281,0
6.9533116817474365,1.9704006595725827,[2.27830708],0.005,0.1,-0.3258517443017467,0.030266599554647274,0
6.961743593215942,1.9711822544395294,[2.27882385],0.005,0.1,-0.2589940667274884,0.029910443778869276,0
6.972762107849121,1.971963849306476,[2.279311],0.005,0.1,-0.20547517966138087,0.029919687077758234,0
6.983777761459351,1.9729408428901594,[2.27977128],0.005,0.1,-0.16395426952553532,0.030192495638621655,0
6.996665954589844,1.9739178364738426,[2.28020914],0.005,0.1,-0.40825658933141584,0.030458579059339796,0
7.007729768753052,1.9748948300575262,[2.28062817],0.005,0.1,-0.4172391096647453,0.029785224346221877,0
7.016315221786499,1.9754810262077362,[2.28103002],0.005,0.1,-0.06769674670994369,0.029791875841800177,0
7.025753736495972,1.976067222357946,[2.28141644],0.005,0.1,0.055651580984059396,0.029818500231495872,0
7.036364316940308,1.9766534185081563,[2.28178988],0.005,0.1,0.08206142809042015,0.029852658424039544,0
7.0453479290008545,1.9772396146583662,[2.28215274],0.005,0.1,0.07125447636028648,0.02989413496386257,0
7.054678678512573,1.9778258108085762,[2.28250731],0.005,0.1,0.049661982517198,0.02992809394895701,0
7.064640045166016,1.978607405675523,[2.28285577],0.005,0.1,0.02810317415371888,0.029911549962171748,0
7.07261061668396,1.978998203108996,[2.28319944],0.005,0.1,0.010314148013875368,0.029481287765799117,0
7.081044912338257,1.9791936018257328,[2.28353893],0.005,0.1,-0.003004863059554358,0.02976801463169277,0
7.091079950332642,1.979779797975943,[2.28387567],0.005,0.1,-0.012317858820918667,0.029938457270711996,0
7.099637985229492,1.9801705954094162,[2.28421178],0.005,0.1,-0.01842363415128686,0.030129666716042218,0
7.1086509227752686,1.9805613928428896,[2.28454841],0.005,0.1,-0.022115503580307876,0.029659171164829565,0
7.116626739501953,1.980756791559626,[2.28488579],0.005,0.1,-0.024063254074600575,0.029995726628691443,0
7.1257665157318115,1.9811475889930996,[2.28522493],0.005,0.1,-0.0247905666291007,0.03022606017407882,0
7.135714769363403,1.981342987709836,[2.28556743],0.005,0.1,-0.02468922198208505,0.030442698522792168,0
7.1464173793792725,1.981538386426573,[2.28591455],0.005,0.1,-0.02404403453533218,0.030600537021513042,0
7.157752752304077,1.9817337851433097,[2.28626795],0.005,0.1,-0.29909614658619804,0.03149852101954105,0
7.165626287460327,1.9819291838600464,[2.28662886],0.005,0.1,-0.3310353743479242,0.030612508903955154,0
7.176114797592163,1.982124582576783,[2.28699663],0.005,0.1,-0.2746513756016382,0.03073579478790707,0
7.187635898590088,1.982124582576783,[2.28737057],0.005,0.1,-0.473282800853029,0.030918499664966136,0
7.198779344558716,1.982124582576783,[2.28775143],0.005,0.1,-0.43457146854500206,0.03180880623340527,0
7.209629535675049,1.982124582576783,[2.28814035],0.005,0.1,-0.597614423497494,0.03170813204343893,0
7.217667818069458,1.982124582576783,[2.28853667],0.005,0.1,-0.5114343647462491,0.03097596801661244,0
7.226081371307373,1.982124582576783,[2.28893821],0.005,0.1,-0.07920313468951212,0.03112989785196081,0
7.236683130264282,1.982124582576783,[2.2893442],0.005,0.1,-0.1687936429242739,0.031856132888977096,0
7.245954751968384,1.982124582576783,[2.28975441],0.005,0.1,0.14471368874816665,0.03115871590575647,0
7.256715536117554,1.982124582576783,[2.29016713],0.005,0.1,0.25067720790930037,0.03122754784670388,0
7.2686426639556885,1.982124582576783,[2.29058107],0.005,0.1,0.5427087839849494,0.03169213129582827,0
7.276672601699829,1.982124582576783,[2.29099545],0.005,0.1,0.8326557695248802,0.03111536469971885,0
7.2868125438690186,1.982124582576783,[2.29140822],0.005,0.1,1.0568497204254241,0.031100288349102383,0
7.2969207763671875,1.982124582576783,[2.29181729],0.005,0.1,1.2045921468558738,0.031057386706942938,0
7.306901931762695,1.982124582576783,[2.29222134],0.005,0.1,1.2851910156229012,0.031223707720479735,0
7.31586766242981,1.982124582576783,[2.29261899],0.005,0.1,1.3134335815690936,0.030927724217901624,0
7.326853036880493,1.982124582576783,[2.29300816],0.005,0.1,1.3036901274983765,0.030918510451995285,0
7.3371946811676025,1.982124582576783,[2.29338689],0.005,0.1,1.2679221497256652,0.030916359350376916,0
7.347354888916016,1.982124582576783,[2.29375383],0.005,0.1,1.21535512530102,0.030995100271396084,0
7.355161905288696,1.9819291838600464,[2.29410774],0.005,0.1,1.152782280991522,0.03098791761308255,0
7.365692853927612,1.9819291838600464,[2.29444714],0.005,0.1,1.0850430157260078,0.031024916687202645,0
7.374067544937134,1.9819291838600464,[2.29477077],0.005,0.1,1.0154901071243936,0.031069005430791587,0
7.385099411010742,1.9819291838600464,[2.2950777],0.005,0.1,0.9463823767173682,0.031118425373737102,0
7.393543481826782,1.9819291838600464,[2.29536714],0.005,0.1,0.8791918739457263,0.031162663425715633,0
7.4025115966796875,1.9819291838600464,[2.29563847],0.005,0.1,0.8148346115119411,0.031225848680555765,0
7.415557622909546,1.9819291838600464,[2.29589134],0.005,0.1,0.7538395169912231,0.03128898502805101,0
7.426500082015991,1.9819291838600464,[2.29612567],0.005,0.1,0.6964700342935534,0.03134443585201218,0
7.43607497215271,1.9819291838600464,[2.29634143],0.005,0.1,0.6428105599039399,0.03139938970266009,0
7.44581937789917,1.9817337851433097,[2.29653869],0.005,0.1,0.5928272816047002,0.03151090573854876,0
7.45673394203186,1.9819291838600464,[2.29671764],0.005,0.1,0.5464106339441598,0.03150275314434818,0
7.4656500816345215,1.9819291838600464,[2.29687856],0.005,0.1,0.5034046767974533,0.03155013718129723,0
7.473639249801636,1.9817337851433097,[2.29702194],0.005,0.1,0.46362723773250536,0.031652054369895745,0
7.481638193130493,1.9817337851433097,[2.29714815],0.005,0.1,0.4268835680594345,0.03170604313688909,0
7.490347862243652,1.9817337851433097,[2.2972558],0.005,0.1,0.3929754665517181,0.03208365977343815,0
7.4987359046936035,1.9817337851433097,[2.29734072],0.005,0.1,0.3617072516810922,0.03298797410472676,0
7.508816957473755,1.9817337851433097,[2.29739736],0.005,0.1,0.3328895541128541,0.033972006489512124,0
7.518659830093384,1.981538386426573,[2.29742184],0.005,0.1,0.030303251325915465,0.03378206300565497,0
7.526632308959961,1.981538386426573,[2.29741218],0.005,0.1,-0.02727042414915637,0.034802275666595966,0
7.5387444496154785,1.981538386426573,[2.29736427],0.005,0.1,0.005316209800245816,0.03782606900941611,0
7.550674200057983,1.981538386426573,[2.29727192],0.005,0.1,0.0606792084163398,0.03876340568325172,0
7.560214996337891,1.981342987709836,[2.29713067],0.005,0.1,0.11212907621705448,0.03998332452988956,0
7.5687150955200195,1.981342987709836,[2.29693924],0.005,0.1,0.15119789209847678,0.03824289244472033,0
7.577662944793701,1.981342987709836,[2.29669596],0.005,0.1,0.1770425595392347,0.0444562769490194,0
7.585630416870117,1.9811475889930996,[2.29639935],0.005,0.1,0.191594053653884,0.04448360474729468,0
7.596863746643066,1.9811475889930996,[2.29604971],0.005,0.1,0.19744523343189635,0.0523120395042645,0
7.6076438426971436,1.980952190276363,[2.2956426],0.005,0.1,-0.07902451464417456,0.05359776338844192,0
7.618040561676025,1.980756791559626,[2.2951691],0.005,0.1,-0.11688569550039588,0.06448367172203401,0
7.62881326675415,1.980756791559626,[2.29462048],0.005,0.1,-0.06931866500313838,0.06489591942175661,0
7.6394641399383545,1.9805613928428896,[2.29399131],0.005,0.1,-0.2784880219431835,0.06620441418403897,0
7.648699998855591,1.9805613928428896,[2.29328233],0.005,0.1,-0.25120410187743136,0.057067307229425095,0
7.658867120742798,1.9803659941261529,[2.29249399],0.005,0.1,-0.14995172220577696,0.07440449237908404,0
7.669615030288696,1.9801705954094162,[2.29162382],0.005,0.1,-0.0423200300121674,0.06296043793060704,0
7.681434154510498,1.9799751966926797,[2.29066973],0.005,0.1,0.047423619656872355,0.0829242860041511,0
7.689651250839233,1.9799751966926797,[2.28963002],0.005,0.1,0.11378694276000112,0.06869293040999702,0
7.699665784835815,1.979779797975943,[2.28850354],0.005,0.1,0.15864732600619078,0.09074196427845523,0
7.70762038230896,1.979779797975943,[2.28728961],0.005,0.1,0.18615652188959664,0.07369127647567669,0
7.716296195983887,1.979584399259206,[2.28599201],0.005,0.1,0.20061800996166324,0.0784650025400654,0
7.7256999015808105,1.9793890005424695,[2.2846145],0.005,0.1,-0.0703153224134335,0.08228206745381761,0
7.73632550239563,1.9791936018257328,[2.2831573],0.005,0.1,-0.104786310273608,0.08533752248404815,0
7.745739936828613,1.9791936018257328,[2.28162507],0.005,0.1,-0.05530949978326089,0.07021573013981787,0
7.754615306854248,1.978998203108996,[2.28002627],0.005,0.1,0.012461621780187986,0.07655849327232901,0
7.765824794769287,1.9788028043922596,[2.27836071],0.005,0.1,0.0730974589507576,0.10221474295593998,0
7.778310537338257,1.978412006958786,[2.27661654],0.005,0.1,-0.1570006037016771,0.12560585692375945,0
7.786784887313843,1.978021209525313,[2.27478793],0.005,0.1,-0.15907398327005554,0.09504917453350857,0
7.797612428665161,1.9778258108085762,[2.27288256],0.005,0.1,-0.361458944646818,0.0971144089002117,0
7.806620836257935,1.9776304120918395,[2.27091157],0.005,0.1,-0.3095152256898501,0.07789460888589851,0
7.817210674285889,1.9774350133751026,[2.26888052],0.005,0.1,-0.1818327955589693,0.10849341598634933,0
7.828080892562866,1.9772396146583662,[2.26678553],0.005,0.1,-0.32787852828692865,0.10898990130441595,0
7.837627410888672,1.9768488172248928,[2.26462317],0.005,0.1,-0.2543431382189978,0.11100067881769383,0
7.848096132278442,1.9766534185081563,[2.26238914],0.005,0.1,-0.12102223306506868,0.1479653423762365,0
7.856624364852905,1.9762626210746828,[2.26007866],0.005,0.1,0.0076709027640861766,0.11261658937891308,0
7.865159034729004,1.9762626210746828,[2.25769643],0.005,0.1,0.11033015022995599,0.12368216434159438,0
7.872588634490967,1.976067222357946,[2.2552442],0.005,0.1,0.1837772668215753,0.13761038558994315,0
7.88161826133728,1.9756764249244727,[2.25272882],0.005,0.1,-0.044380561761268617,0.13625868679221878,0
7.889610528945923,1.9756764249244727,[2.25016731],0.005,0.1,-0.04973426883973045,0.15174123923385643,0
7.901181936264038,1.9752856274909993,[2.24755222],0.005,0.1,0.018268966777205853,0.2294025708514244,0
7.910622835159302,1.9750902287742627,[2.24485406],0.005,0.1,0.09675329557351538,0.2374793631509535,0
7.920807838439941,1.9748948300575262,[2.24205175],0.005,0.1,0.43857783403408335,0.24946955946793703,0
7.92961859703064,1.9748948300575262,[2.23913233],0.005,0.1,0.5189499640119458,0.26390227331530536,0
7.93962025642395,1.9748948300575262,[2.23608328],0.005,0.1,0.7696746738731164,0.27956403004912195,0
7.947590112686157,1.9748948300575262,[2.23290222],0.005,0.1,1.018379123496615,0.21276970256332217,0
7.955631256103516,1.9750902287742627,[2.22959601],0.005,0.1,1.2069586544131568,0.24601224942286776,0
7.96360182762146,1.9750902287742627,[2.22617095],0.005,0.1,1.3258643467789617,0.19344885070235318,0
7.975553512573242,1.9750902287742627,[2.22262332],0.005,0.1,1.659870969099258,0.32202020560918493,0
7.986249208450317,1.9750902287742627,[2.21893139],0.005,0.1,1.7037220213161723,0.33041844256943526,0
7.996631860733032,1.9750902287742627,[2.21507778],0.005,0.1,1.3493282561041087,0.3352503943607589,0
8.008041381835938,1.9750902287742627,[2.21104862],0.005,0.1,0.917842535996956,0.44591322954246493,0
8.017689943313599,1.9752856274909993,[2.20683351],0.005,0.1,0.532501382801981,0.3130758373838412,0
8.026616096496582,1.9754810262077362,[2.20244505],0.005,0.1,0.5048819423448301,0.32297869301994436,0
8.038609027862549,1.9756764249244727,[2.19788431],0.005,0.1,0.3155996440892983,0.43970545179833165,0
8.050098419189453,1.976067222357946,[2.19313237],0.005,0.1,0.6585150659195294,0.41431517160446474,0
8.057711839675903,1.9764580197914197,[2.18819543],0.005,0.1,0.8237036829999163,0.2932171586643503,0
8.067586660385132,1.9768488172248928,[2.18310128],0.005,0.1,1.1664323471882616,0.3094304284515839,0
8.077593564987183,1.9772396146583662,[2.17786367],0.005,0.1,1.2111749125046434,0.32124930463390716,0
8.087042331695557,1.9778258108085762,[2.17248421],0.005,0.1,1.4129691273027674,0.3279722378172279,0
8.095909833908081,1.978607405675523,[2.16696507],0.005,0.1,1.6100374428947344,0.3303743757347005,0
8.105586528778076,1.9791936018257328,[2.16130923],0.005,0.1,1.4727822299864255,0.3283207971128895,0
8.11760687828064,1.979779797975943,[2.1555206],0.005,0.1,1.5123183042724535,0.3238469195520422,0
8.125568866729736,1.9803659941261529,[2.14961532],0.005,0.1,1.5831214992694425,0.23094333843717044,0
8.13720178604126,1.9811475889930996,[2.14360888],0.005,0.1,1.3555042824160182,0.3294334024587225,0
8.14558219909668,1.981538386426573,[2.13749372],0.005,0.1,1.058776912759921,0.30901660875989484,0
8.156239986419678,1.9823199812935197,[2.1312651],0.005,0.1,0.5074305915042212,0.2900779923228124,0
8.164560079574585,1.9827107787269929,[2.12494266],0.005,0.1,0.24880196145265776,0.2027280324557191,0
8.175036668777466,1.9834923735939396,[2.11854251],0.005,0.1,0.13058224414119612,0.28902130433123246,0
8.182658910751343,1.9836877723106763,[2.11205328],0.005,0.1,-0.19756940358715347,0.27819601744764894,0
8.190562963485718,1.9842739684608863,[2.1054883],0.005,0.1,-0.5285994869983064,0.261589946599328,0
8.202038764953613,1.9848601646110962,[2.09888057],0.005,0.1,-0.7913175170072265,0.3359003090483661,0
8.209975719451904,1.9852509620445697,[2.09221667],0.005,0.1,-0.9726268299148415,0.30625868927883104,0
8.21867847442627,1.9858371581947796,[2.08548354],0.005,0.1,-1.081602244504411,0.20878292282034813,0
8.228674173355103,1.9864233543449896,[2.07869467],0.005,0.1,-1.4096399478081785,0.21267298866140777,0
8.238678932189941,1.9870095504951997,[2.07184537],0.005,0.1,-1.4529345053978298,0.21165461189221813,0
8.250742435455322,1.9875957466454097,[2.06490062],0.005,0.1,-1.6549189497394037,0.26970291386718154,0
8.258657693862915,1.9877911453621464,[2.05783],0.005,0.1,-1.5737271061146414,0.1763885729504889,0
8.266554117202759,1.9881819427956196,[2.05062349],0.005,0.1,-1.6739325824587368,0.21463852681484263,0
8.27526569366455,1.9883773415123565,[2.04327409],0.005,0.1,-1.5173834046592365,0.1351865866703843,0
8.282540559768677,1.9885727402290931,[2.03580833],0.005,0.1,-1.5657333308301729,0.08695812815324101,0
8.2915518283844,1.9887681389458298,[2.02826598],0.005,0.1,-1.6520854825371467,0.07929778074317667,0
8.30106496810913,1.9887681389458298,[2.02065291],0.005,0.1,-1.990480775930639,0.06460480805842934,0
8.31107759475708,1.9885727402290931,[2.01296192],0.005,0.1,-2.597891445569946,0.04560105593861509,0
8.320714473724365,1.9885727402290931,[2.00519048],0.005,0.1,-2.8693039821034123,0.023642085642969202,0
8.330370664596558,1.9883773415123565,[1.99734057],0.005,0.1,-3.498601809407553,0.0017361987989310723,0
8.339584350585938,1.9881819427956196,[1.98943131],0.005,0.1,-3.5295121720818177,-0.011730758593017228,0
8.350580930709839,1.9877911453621464,[1.98148351],0.005,0.1,-3.319514656172168,-0.042116001130082015,0
8.358593702316284,1.9875957466454097,[1.97350548],0.005,0.1,-3.032010155507267,-0.041917992707624155,0
8.366585493087769,1.9874003479286733,[1.96553166],0.005,0.1,-2.7377901390114214,-0.040360465159621044,0
8.376443862915039,1.9870095504951997,[1.95759538],0.005,0.1,-2.188417688205397,-0.07854963517323527,0
8.384663581848145,1.9866187530617263,[1.94970375],0.005,0.1,-1.9110442666248593,-0.06452419811380733,0
8.396567583084106,1.9858371581947796,[1.9418663],0.005,0.1,-1.7510229513557367,-0.10301123530263853,0
8.406547546386719,1.9848601646110962,[1.93408473],0.005,0.1,-1.638180788803751,-0.10547162616491915,0
8.416670083999634,1.9840785697441496,[1.92636285],0.005,0.1,-1.8183505145245946,-0.10763919696809304,0
8.425293684005737,1.9831015761604662,[1.91872498],0.005,0.1,-1.760779254529356,-0.08118445089670755,0
8.437734127044678,1.981538386426573,[1.91119163],0.005,0.1,-2.7206180241930062,-0.122918968335657,0
8.446515560150146,1.9799751966926797,[1.90375989],0.005,0.1,-3.2409693215230435,-0.1260855007990977,0
8.454612255096436,1.978607405675523,[1.89642432],0.005,0.1,-3.7580856340893574,-0.13331267863300375,0
8.462541580200195,1.9770442159416295,[1.88919594],0.005,0.1,-3.8547727948864012,-0.10230173106827317,0
8.470638513565063,1.9754810262077362,[1.88208951],0.005,0.1,-3.751453934723661,-0.12619919711645328,0
8.478573322296143,1.973331640323633,[1.87510084],0.005,0.1,-3.8343846317047916,-0.15493057995844398,0
8.486680269241333,1.9715730518730028,[1.86822094],0.005,0.1,-3.9155182380793745,-0.12676352478835562,0
8.49656891822815,1.9690328685554261,[1.86144705],0.005,0.1,-4.2097099368892055,-0.17364203643195938,0
8.507951974868774,1.9661018878043761,[1.85475637],0.005,0.1,-4.466093399446641,-0.2266894976142085,0
8.516886711120605,1.9635617044867992,[1.84810822],0.005,0.1,-4.331958271572864,-0.2870625036747966,0
8.525908946990967,1.9608261224524859,[1.84147593],0.005,0.1,-4.0455783326173655,-0.23309713378330063,0
8.534300565719604,1.958285939134909,[1.83484639],0.005,0.1,-3.992079172582388,-0.3185803303485948,0
8.543616533279419,1.9551595596671225,[1.82820429],0.005,0.1,-3.975827513695458,-0.2638808522550401,0
8.553832530975342,1.9510561866156522,[1.82151477],0.005,0.1,-4.202985794881095,-0.539977722297863,0
8.561580896377563,1.9479298071478657,[1.81472689],0.005,0.1,-3.8628494544488508,-0.4170048208293136,0
8.573055744171143,1.9432402379461855,[1.80779478],0.005,0.1,-4.462469395799103,-0.7330023879705339,0
8.580583095550537,1.9401138584783988,[1.80067807],0.005,0.1,-4.0930599995624855,-0.5445296497923058,0
8.589868068695068,1.9362058841436656,[1.79336296],0.005,0.1,-3.708732581591755,-0.6317560185509364,0
8.598309993743896,1.932884105959142,[1.7858397],0.005,0.1,-3.624157338736694,-0.7052377876251478,0
8.609985589981079,1.9281945367574618,[1.77806546],0.005,0.1,-2.780566625310457,-1.0239256316559042,0
8.617663621902466,1.9248727585729384,[1.76999083],0.005,0.1,-1.819488366407508,-0.9783660841426223,0
8.626539707183838,1.9211601829549418,[1.76161841],0.005,0.1,-0.42927340729843677,-0.6862512929989414,0
8.634563446044922,1.9176430060536815,[1.7530121],0.005,0.1,0.8401340079339233,-0.5101761542540744,0
8.643474817276001,1.9141258291524215,[1.74421495],0.005,0.1,1.8193723770485668,-0.8126476021969691,0
8.652614831924438,1.9102178548176882,[1.73523402],0.005,0.1,3.049365274014365,-0.579560492000397,0
8.660934448242188,1.9065052791996915,[1.72609856],0.005,0.1,3.813771735557866,-0.6171223911310352,0
8.671644926071167,1.902206507431485,[1.71684123],0.005,0.1,4.2372568763753655,-0.6295709529110524,0
8.684900283813477,1.8969307420795947,[1.70746712],0.005,0.1,4.695694452325984,-0.8118301260462195,0
8.692535638809204,1.8938043626118082,[1.6979883],0.005,0.1,5.0,-0.5518830693039865,0
8.701565265655518,1.8900917869938112,[1.68844986],0.005,0.1,5.0,-0.536625461746618,0
8.71055793762207,1.885988413942341,[1.67889674],0.005,0.1,5.0,-0.512863927875233,0
8.72004508972168,1.8820804396076078,[1.66935932],0.005,0.1,5.0,-0.4833464123307227,0
8.728578567504883,1.8785632627063478,[1.65987899],0.005,0.1,4.875171359188749,-0.33748349842176323,0
8.738541841506958,1.8742644909381412,[1.65050488],0.005,0.1,4.949738375936947,-0.3447125307672423,0
8.749096155166626,1.8697703204531975,[1.64126052],0.005,0.1,4.738907841047194,-0.44773099753331047,0
8.7576322555542,1.8664485422686738,[1.63215726],0.005,0.1,4.143331842387836,-0.3052808569987938,0
8.766718626022339,1.8623451692172042,[1.62322582],0.005,0.1,3.763345621710031,-0.29772243726751485,0
8.7763032913208,1.8580463974489976,[1.61449372],0.005,0.1,3.7558549036890274,-0.28626647572455954,0
8.787874460220337,1.8531614295305805,[1.60596797],0.005,0.1,3.548622355424741,-0.34918469590799434,0
8.796087741851807,1.8500350500627938,[1.59765512],0.005,0.1,3.2738636537271883,-0.23580248982284052,0
8.80454683303833,1.8467132718782704,[1.58957653],0.005,0.1,2.9902793201018794,-0.22591889794412254,0
8.815088510513306,1.8426098988268003,[1.58174999],0.005,0.1,2.7218508045435184,-0.214900871311288,0
8.822559118270874,1.8392881206422769,[1.57418863],0.005,0.1,2.4766416707042174,-0.1532005321462734,0
8.833444356918335,1.8347939501573334,[1.56690237],0.005,0.1,2.2557792131594274,-0.20835538626287745,0
8.845526218414307,1.8297135835221803,[1.5598847],0.005,0.1,2.057650901757124,-0.19208780500067704,0
8.855104684829712,1.8258056091874466,[1.55312847],0.005,0.1,1.8797955537580844,-0.1784909091627364,0
8.862610816955566,1.8226792297196601,[1.54663838],0.005,0.1,1.9957414291283309,-0.12734917051609682,0
8.870962142944336,1.8191620528184,[1.5404221],0.005,0.1,1.8842743252748455,-0.13053831433001276,0
8.880520343780518,1.8152540784836664,[1.53447787],0.005,0.1,1.6981476999401626,-0.13121994782269594,0
8.890912294387817,1.8109553067154598,[1.52879592],0.005,0.1,1.5029669951028315,-0.12998526848925898,0
8.898676633834839,1.8078289272476729,[1.52336565],0.005,0.1,1.3239196066435737,-0.12859195964072279,0
8.906875848770142,1.8043117503464128,[1.51818092],0.005,0.1,1.1681991145855377,-0.09577808429177495,0
8.914632558822632,1.8009899721618894,[1.51323925],0.005,0.1,1.0355583872847562,-0.10246558956000401,0
8.922512292861938,1.797668193977366,[1.50853584],0.005,0.1,0.9231243817755046,-0.08011861689323746,0
8.932526350021362,1.793564820925896,[1.50406388],0.005,0.1,0.8274819091485711,-0.0895548835752748,0
8.94154143333435,1.7898522453078993,[1.49980973],0.005,0.1,1.0215269566777652,-0.09702245166316834,0
8.95030426979065,1.7863350684066395,[1.49575394],0.005,0.1,0.9836861435078923,-0.10297866656367397,0
8.961438655853271,1.7818408979216962,[1.49187723],0.005,0.1,0.8665636039731041,-0.10745491489692324,0
8.972309112548828,1.7773467274367525,[1.4881605],0.005,0.1,0.735766867812736,-0.11136471588522198,0
8.981531143188477,1.7736341518187557,[1.48458496],0.005,0.1,0.6165892177955783,-0.1152967388486218,0
8.991567134857178,1.7695307787672858,[1.48113227],0.005,0.1,0.5163975964062874,-0.11867926191123919,0
8.999806880950928,1.7658182031492888,[1.47778479],0.005,0.1,0.4351591131423489,-0.12197893834326334,0
9.009113073348999,1.762105627531292,[1.47452566],0.005,0.1,0.37023694281708797,-0.12500692104775663,0
9.020627737045288,1.7576114570463488,[1.47133905],0.005,0.1,0.3184609943061588,-0.12705331443077816,0
9.031612873077393,1.7531172865614053,[1.46821026],0.005,0.1,0.2769340275048472,-0.12871175910782934,0
9.039905548095703,1.7494047109434088,[1.46512582],0.005,0.1,0.24327414817611676,-0.13045930160431107,0
9.04955530166626,1.7453013378919386,[1.46207354],0.005,0.1,0.21562355830805605,-0.13160951115286756,0
9.060360670089722,1.7408071674069951,[1.45904251],0.005,0.1,0.19257408902144935,-0.13213693127081247,0
9.06951117515564,1.7370945917889984,[1.45602883],0.005,0.1,0.4491130503369618,-0.09862539009307178,0
9.081487894058228,1.732014225153845,[1.45302901],0.005,0.1,0.46550936737365595,-0.1430079570943594,0
9.096261262893677,1.7261522636517448,[1.4500231],0.005,0.1,0.3958783403071815,-0.17838951849135706,0
9.105528354644775,1.7224396880337483,[1.44698909],0.005,0.1,0.3070258634984007,-0.1612673240113036,0
9.11510157585144,1.7183363149822781,[1.44392062],0.005,0.1,0.22518174010430483,-0.14794886488403794,0
9.126541137695312,1.7136467457805982,[1.44081911],0.005,0.1,0.15844250907341734,-0.13709374346366673,0
9.13456392288208,1.7103249675960746,[1.43769217],0.005,0.1,0.10734619717041394,-0.09812394727566125,0
9.148926734924316,1.7044630060939745,[1.43454747],0.005,0.1,0.06970705012207824,-0.12986806899425818,0
9.157040119171143,1.701141227909451,[1.43138223],0.005,0.1,0.042716063494714365,-0.1209269064647377,0
9.165507316589355,1.697624051008191,[1.42819526],0.005,0.1,0.023769479220159324,-0.11308124385776591,0
9.174628257751465,1.6939114753901945,[1.42499676],0.005,0.1,0.010727809764755587,-0.08143026918909176,0
9.185088396072388,1.689417304905251,[1.42180103],0.005,0.1,0.0019367063604382286,-0.08315814394741838,0
9.19559907913208,1.6851185331370444,[1.41861607],0.005,0.1,-0.0038386456049276127,-0.08346035995836076,0
9.206276893615723,1.6802335652186273,[1.41544006],0.005,0.1,-0.007499544986249104,-0.10527148222102521,0
9.219300508499146,1.6751531985834738,[1.41226373],0.005,0.1,-0.009694025213288857,-0.11892617496201928,0
9.228557348251343,1.6712452242487406,[1.40908485],0.005,0.1,-0.010883038926909578,-0.08085986864474434,0
9.239643812179565,1.6671418511972707,[1.40591165],0.005,0.1,-0.011391783350531821,-0.09529843020362445,0
9.250669479370117,1.6624522819955905,[1.40274823],0.005,0.1,0.26459024145669974,-0.08337047133829466,0
9.260881662368774,1.657958111510647,[1.39959905],0.005,0.1,0.021913906987959017,-0.07398021560089713,0
9.272602081298828,1.6532685423089668,[1.39647288],0.005,0.1,-0.06588652282379304,-0.06645334890648105,0
9.281524181365967,1.6499467641244434,[1.39338136],0.005,0.1,0.18969416828095995,-0.04841711509537654,0
9.293073415756226,1.6452571949227635,[1.39033491],0.005,0.1,0.22896855931276994,-0.059436027409861564,0
9.301298379898071,1.64193541673824,[1.38733588],0.005,0.1,-0.08765579496545456,-0.05421183652047017,0
9.312128782272339,1.63724584753656,[1.3843866],0.005,0.1,-0.1816306887022524,-0.04939259596536956,0
9.320086479187012,1.6339240693520367,[1.38149268],0.005,0.1,-0.1838776580703888,-0.045770954700179306,0
9.327529907226562,1.63079768988425,[1.3786619],0.005,0.1,0.12208357996371741,-0.034798455464824525,0
9.337533235549927,1.6264989181160432,[1.37590354],0.005,0.1,0.19165186291660447,-0.03470451505896681,0
9.350488662719727,1.6212231527641532,[1.37321927],0.005,0.1,0.16958381821727125,-0.04164540920500345,0
9.360534906387329,1.6173151784294195,[1.37060435],0.005,0.1,0.12016679868817916,-0.03852953559414631,0
9.37224793434143,1.6130164066612127,[1.3680571],0.005,0.1,0.3459290010689538,-0.036045959457184085,0
9.381247997283936,1.6093038310432162,[1.36557824],0.005,0.1,0.33721458676076116,-0.034296678264798916,0
9.390571355819702,1.6055912554252194,[1.36316764],0.005,0.1,0.250607865556155,-0.03295700925429788,0
9.398534297943115,1.6026602746741694,[1.36082436],0.005,0.1,0.42840616385173497,-0.03214827882803742,0
9.407320261001587,1.5991430977729093,[1.35854947],0.005,0.1,0.652420327784124,-0.02556052708517024,0
9.415520668029785,1.5960167183051226,[1.35634837],0.005,0.1,0.5648859056922488,-0.021712985899685344,0
9.427922487258911,1.590936351669969,[1.35422205],0.005,0.1,0.38688574822966304,-0.028620738452673815,0
9.437511205673218,1.5872237760519723,[1.35216228],0.005,0.1,0.4849713845956606,-0.028514024445931485,0
9.445518970489502,1.5842927953009225,[1.35016395],0.005,0.1,0.3714623593709875,-0.02302316601295681,0
9.456326007843018,1.5799940235327155,[1.34822463],0.005,0.1,0.20692901959432847,-0.029825483099445285,0
9.465394973754883,1.576281447914719,[1.34633874],0.005,0.1,0.05474403685445284,-0.02338378614109337,0
9.477485656738281,1.5715918787130385,[1.34450087],0.005,0.1,-0.06520655664134874,-0.029890654190204546,0
9.485889434814453,1.5682701005285153,[1.34270575],0.005,0.1,0.1248337743220202,-0.023164146116616498,0
9.494956254959106,1.564948322343992,[1.34095111],0.005,0.1,0.37708551478646024,-0.02390521340268086,0
9.505524396896362,1.5612357467259954,[1.33923459],0.005,0.1,0.32087811256580767,-0.024234759044219956,0
9.51694130897522,1.5569369749577884,[1.33754842],0.005,0.1,0.4482140951504066,-0.030057946517352305,0
9.528095245361328,1.5528336019063185,[1.33588049],0.005,0.1,0.32904028213064096,-0.03465316505145211,0
9.535528421401978,1.550098019872005,[1.334223],0.005,0.1,0.42522321569320454,-0.02514732573288402,0
9.547802209854126,1.5452130519535883,[1.33257444],0.005,0.1,0.5673735856900425,-0.030550188824140626,0
9.556061267852783,1.5420866724858016,[1.3309332],0.005,0.1,0.4144700572123565,-0.022642409119116646,0
9.5635244846344,1.5391556917347513,[1.32930034],0.005,0.1,0.1906372031501836,-0.02301698064870521,0
9.576611280441284,1.5344661225330716,[1.32767638],0.005,0.1,-0.01579429791630764,-0.02305091686422784,0
9.584752082824707,1.5315351417820213,[1.32606148],0.005,0.1,0.0988273131381571,-0.01820560041818664,0
9.593297243118286,1.5286041610309713,[1.32445833],0.005,0.1,0.017825632758965884,-0.019696730963974732,0
9.60431432723999,1.5243053892627647,[1.32286616],0.005,0.1,-0.11099033578297993,-0.020545764168155484,0
9.616864204406738,1.5194204213443476,[1.32127861],0.005,0.1,-0.22939558706104712,-0.02663192605598349,0
9.627843379974365,1.5155124470096146,[1.31968484],0.005,0.1,-0.04316048291386687,-0.03134331533576188,0
9.637529134750366,1.5119952701083543,[1.3180789],0.005,0.1,0.20630207168734174,-0.021934554604631184,0
9.646532535552979,1.5088688906405676,[1.3164645],0.005,0.1,0.1502119954215465,-0.021145294768253817,0
9.655185461044312,1.5059379098895176,[1.31484539],0.005,0.1,0.00458854256192498,-0.02036469758332233,0
9.66249942779541,1.503202327855204,[1.31322506],0.005,0.1,-0.14225126402817004,-0.015417916995763514,0
9.67251205444336,1.4996851509539442,[1.31160948],0.005,0.1,0.01616220157956859,-0.015755032662890606,0
9.681528568267822,1.4965587714861572,[1.31000396],0.005,0.1,-0.0334636437280953,-0.012478512805118186,0
9.693024635314941,1.4924553984346873,[1.30841319],0.005,0.1,0.13579068686134757,-0.013089060552493217,0
9.703043460845947,1.4887428228166906,[1.30683897],0.005,0.1,0.06569826335664204,-0.013339594025587232,0
9.714499950408936,1.4844440510484838,[1.30528068],0.005,0.1,-0.06893463366074862,-0.01317137964817958,0
9.723757982254028,1.4809268741472237,[1.30373812],0.005,0.1,0.07809626256669237,-0.012895522694918692,0
9.731494903564453,1.4783866908296472,[1.30221352],0.005,0.1,0.010911515106349128,-0.010101514091002248,0
9.740566492080688,1.4752603113618603,[1.3007111],0.005,0.1,0.16342185389328442,-0.010390482738480162,0
9.751021146774292,1.4715477357438635,[1.29923247],0.005,0.1,0.07969762415691349,-0.01033020675690023,0
9.761640071868896,1.467835160125867,[1.29777706],0.005,0.1,-0.0651429044838015,-0.010043969622796134,0
9.770905494689941,1.46470878065808,[1.2963447],0.005,0.1,0.0746768936024032,-0.009695281591440013,0
9.77947211265564,1.4615824011902934,[1.2949355],0.005,0.1,0.2786954325351345,-0.00926270002476158,0
9.789892435073853,1.45826062300577,[1.2935498],0.005,0.1,0.46127809843280365,-0.008764449107775275,0
9.79949426651001,1.4549388448212468,[1.29218814],0.005,0.1,0.32069400983266527,-0.008244772344378652,0
9.809537649154663,1.4516170666367234,[1.29085114],0.005,0.1,0.3749512346790736,-0.0077381618149551246,0
9.818515062332153,1.4486860858856732,[1.28953945],0.005,0.1,0.47713907491823093,-0.00730611907797041,0
9.826579332351685,1.4459505038513598,[1.28825519],0.005,0.1,0.5696192147693746,-0.005840028104122431,0
9.835551261901855,1.443410320533783,[1.28700161],0.005,0.1,0.35852845826795016,-0.005843079415943078,0
9.843841314315796,1.4406747384994696,[1.28577978],0.005,0.1,0.36153113505582823,-0.005773060477179936,0
9.854290008544922,1.4371575615982095,[1.28458898],0.005,0.1,0.42856301515240536,-0.005541910275202259,0
9.865200996398926,1.4336403846969494,[1.28342783],0.005,0.1,0.4983334853142145,-0.005796082089314378,0
9.873460531234741,1.4307094039458996,[1.28229542],0.005,0.1,0.5497493903225417,-0.00475981634304422,0
9.881548643112183,1.4283646193450594,[1.28119479],0.005,0.1,0.5788891107159764,-0.0037587329926673466,0
9.893693685531616,1.4246520437270627,[1.28013226],0.005,0.1,0.5883726834600669,-0.003187557406380169,0
9.904490232467651,1.421525664259276,[1.279115],0.005,0.1,0.8587029853168724,-0.0029028497386874618,0
9.914482355117798,1.4183992847914892,[1.27815143],0.005,0.1,0.8753203810926395,-0.003064761430558737,0
9.924940347671509,1.4152729053237025,[1.27725196],0.005,0.1,0.7965810713398329,-0.004091750670588485,0
9.934999465942383,1.412537323289389,[1.27642771],0.005,0.1,0.6925383984038829,-0.004824780222465822,0
9.94256854057312,1.4105833361220224,[1.27568625],0.005,0.1,0.5918056895997725,-0.004726564648786915,0
9.951456546783447,1.408043152804446,[1.27503142],0.005,0.1,0.5041763356438453,-0.005428125285663166,0
9.96052861213684,1.4053075707701321,[1.27446679],0.005,0.1,0.43136572317282257,-0.005910069631696238,0
9.970832824707031,1.4027673874525557,[1.27399528],0.005,0.1,0.371984373151409,-0.006101749500733859,0
9.98049807548523,1.3998364067015054,[1.27361763],0.005,0.1,0.32374588966504003,-0.005942538194919716,0
9.988506555557251,1.3974916221006655,[1.27333149],0.005,0.1,0.2843757703893728,-0.004947839368498534,0
9.996790885925293,1.3951468374998257,[1.2731318],0.005,0.1,0.25192907780721163,-0.004690281935755024,0
10.007503271102905,1.392411255465512,[1.27301345],0.005,0.1,0.22485345127734324,-0.004518961384258968,0
10.016555547714233,1.3900664708646722,[1.27297065],0.005,0.1,0.20195343564164003,-0.003589630631970721,0
10.025183916091919,1.387721686263832,[1.27299518],0.005,0.1,0.18232552845691213,-0.0030361586555154234,0
10.034453630447388,1.3851815029462553,[1.27307782],0.005,0.1,0.1652926362170907,-0.002492721919742172,0
10.044777393341064,1.3826413196286786,[1.2732092],0.005,0.1,0.15034807668041233,-0.0020564366387944627,0
10.054175853729248,1.3802965350278384,[1.27337972],0.005,0.1,0.13711124966596386,-0.0016826994931395977,0
10.06246829032898,1.3779517504269985,[1.27357999],0.005,0.1,0.12529397466042735,-0.0014496986420360245,0
10.072949886322021,1.3752161683926851,[1.27380042],0.005,0.1,0.11467554995692675,-0.0011185563033531995,0
10.081459045410156,1.373457579942055,[1.27403125],0.005,0.1,0.10508454914483178,-0.0010267671294916878,0
10.092040061950684,1.371112795341215,[1.27426271],0.005,0.1,0.372424014069035,-0.0009404418460037427,0
10.102476835250854,1.3687680107403752,[1.27448302],0.005,0.1,1.2257482218132114,-0.001140922072908269,0
10.111489295959473,1.3672048210064816,[1.27468126],0.005,0.1,1.5388422192549798,-0.0010123264132164593,0
10.119510650634766,1.3656416312725883,[1.27485169],0.005,0.1,1.6000281228343058,-0.0009262066097219718,0
10.129074096679688,1.3642738402554317,[1.27499029],0.005,0.1,2.101350680393215,-0.0011103924060840188,0
10.14134955406189,1.3625152518048016,[1.27508975],0.005,0.1,2.6239297464326596,-0.0017803209278608153,0
10.150143146514893,1.3613428595043817,[1.27514112],0.005,0.1,2.7465378690195035,-0.0019370431927911481,0
10.159423589706421,1.3603658659206983,[1.27513837],0.005,0.1,2.9601397097734896,-0.002076725585682573,0
10.167457818984985,1.3593888723370147,[1.27507973],0.005,0.1,2.8508971418381206,-0.0016108990037298249,0
10.178820133209229,1.3580210813198583,[1.27496485],0.005,0.1,3.176320715867761,-0.0022553336499338945,0
10.186457633972168,1.3572394864529114,[1.2747934],0.005,0.1,2.7136453809180825,-0.0016249029586737542,0
10.196511507034302,1.3564578915859649,[1.27456815],0.005,0.1,2.8806618453824697,-0.001508853202206734,0
10.207796096801758,1.3554808980022812,[1.27429361],0.005,0.1,2.632061279508063,-0.0013839380410387652,0
10.21690320968628,1.354699303135335,[1.27397528],0.005,0.1,1.9892430423479184,-0.0009267613589347492,0
10.22449278831482,1.3541131069851247,[1.27362182],0.005,0.1,1.593789623264695,-0.0006703511719417771,0
10.232450485229492,1.3535269108349148,[1.27324339],0.005,0.1,1.0579599900702001,-0.0005474548388564963,0
10.241643905639648,1.3529407146847048,[1.2728506],0.005,0.1,0.842079686036645,-0.0005287590255862147,0
10.253485202789307,1.3523545185344947,[1.27245534],0.005,0.1,0.7601353675268538,-0.0006982536108936968,0
10.264992237091064,1.3517683223842847,[1.27207198],0.005,0.1,0.7277662324622651,-0.0014525803224808857,0
10.273468017578125,1.3513775249508115,[1.2717149],0.005,0.1,0.4327388876610979,-0.0014517915595302902,0
10.281953811645508,1.3511821262340749,[1.27139525],0.005,0.1,0.10399792818499493,-0.0021676700827715106,0
10.292465925216675,1.3505959300838646,[1.27112615],0.005,0.1,-0.1743860080541674,-0.004192965850420367,0
10.301457643508911,1.3505959300838646,[1.27092125],0.005,0.1,-0.1055310431502839,-0.0035083074786709987,0
10.313205480575562,1.350400531367128,[1.27078833],0.005,0.1,-0.21271958257094584,-0.0043925398247584655,0
10.324143648147583,1.3502051326503914,[1.27073401],0.005,0.1,-0.07763731322464541,-0.005166340778370322,0
10.336354970932007,1.3500097339336545,[1.27076797],0.005,0.1,-0.16531618655118535,-0.007664010018871696,0
10.346466302871704,1.3498143352169178,[1.27089977],0.005,0.1,-0.5821197273263723,-0.0074833818645017244,0
10.354466199874878,1.3498143352169178,[1.27113137],0.005,0.1,-1.0187233015448345,-0.0054785755656705315,0
10.362502336502075,1.3496189365001814,[1.27145797],0.005,0.1,-1.3665231278120091,-0.005648062876986187,0
10.371510744094849,1.3494235377834447,[1.27187587],0.005,0.1,-1.6032479027143252,-0.00556420773942435,0
10.380308628082275,1.3492281390667082,[1.27238201],0.005,0.1,-2.0160281886918474,-0.005280584182300837,0
10.389535427093506,1.3490327403499716,[1.2729698],0.005,0.1,-2.3828777566355477,-0.003791410314651667,0
10.400727033615112,1.348641942916498,[1.27363133],0.005,0.1,-2.6366416823834387,-0.004625907297958814,0
10.408527135848999,1.3484465441997613,[1.27435966],0.005,0.1,-2.774137185263567,-0.0031990849191320604,0
10.417431354522705,1.3484465441997613,[1.27514547],0.005,0.1,-2.814780464209894,-0.002903876609124557,0
10.430238723754883,1.3482511454830246,[1.27597966],0.005,0.1,-2.782737738479219,-0.0029794710041711977,0
10.440475225448608,1.3482511454830246,[1.27685473],0.005,0.1,-2.6999853842696155,-0.0022940106407812765,0
10.450198411941528,1.3480557467662881,[1.2777608],0.005,0.1,-2.5842276523784014,-0.0017068100327033834,0
10.460175514221191,1.3478603480495512,[1.27868642],0.005,0.1,-2.1727870664258075,-0.0012512988841150985,0
10.467468738555908,1.3478603480495512,[1.27962058],0.005,0.1,-1.9942752276780162,-0.0009643981391520613,0
10.479878425598145,1.3478603480495512,[1.28055362],0.005,0.1,-1.624714032481442,-0.0008338830440838406,0
10.488508462905884,1.3476649493328146,[1.28147831],0.005,0.1,-1.5203933628845965,-0.0008578969973502684,0
10.497032403945923,1.3476649493328146,[1.28238945],0.005,0.1,-1.503056349399657,-0.0007606854324812806,0
10.50554347038269,1.3476649493328146,[1.28328416],0.005,0.1,-1.4989854295520941,-0.0011121000053921032,0
10.514907836914062,1.3476649493328146,[1.28416439],0.005,0.1,-1.2059334817935032,-0.0017648340313081439,0
10.52353835105896,1.3476649493328146,[1.28503441],0.005,0.1,-1.137076671018847,-0.001718847609538097,0
10.532511949539185,1.3476649493328146,[1.28589918],0.005,0.1,-0.8638102086692926,-0.0030178179497236117,0
10.540980577468872,1.3476649493328146,[1.28676919],0.005,0.1,-0.8423171035336887,-0.004821730715145418,0
10.550945281982422,1.3476649493328146,[1.28766],0.005,0.1,-0.6198325444756559,-0.007090583546583339,0
10.562447547912598,1.347469550616078,[1.28859401],0.005,0.1,-0.6435011726205997,-0.014353485198629591,0
10.571540117263794,1.347469550616078,[1.28959397],0.005,0.1,-0.734212073625917,-0.011405820227801795,0
10.581547021865845,1.3472741518993414,[1.29067246],0.005,0.1,-1.0965033300964349,-0.014783921485650268,0
10.592513799667358,1.3470787531826045,[1.2918429],0.005,0.1,-1.1882117226575075,-0.018129042474595333,0
10.603455781936646,1.346883354465868,[1.29313024],0.005,0.1,-1.4371476574599291,-0.02941629204894105,0
10.613978624343872,1.3464925570323945,[1.29456364],0.005,0.1,-1.6721672613620835,-0.029852747149806687,0
10.622424364089966,1.346297158315658,[1.29615497],0.005,0.1,-1.8379860748365988,-0.021757683983245568,0
10.6319420337677,1.3459063608821848,[1.29790034],0.005,0.1,-1.9279608263352181,-0.023986443628404495,0
10.641263484954834,1.3457109621654482,[1.29980209],0.005,0.1,-2.229321416855517,-0.025332119320574272,0
10.65037727355957,1.3453201647319744,[1.30186732],0.005,0.1,-2.238699518660994,-0.025459643731185783,0
10.659448862075806,1.3447339685817647,[1.30409275],0.005,0.1,-2.125413025533326,-0.01788155423445981,0
10.66890573501587,1.3443431711482912,[1.30647257],0.005,0.1,-1.968648010225042,-0.024644547387046335,0
10.677456617355347,1.343952373714818,[1.30900553],0.005,0.1,-1.8040444875604733,-0.0164333772425269,0
10.686100959777832,1.3433661775646077,[1.3116806],0.005,0.1,-1.646543100982722,-0.015309054204088656,0
10.696444988250732,1.342779981414398,[1.31449024],0.005,0.1,-1.7775337081415916,-0.017232285596082263,0
10.70945930480957,1.3419983865474514,[1.31743601],0.005,0.1,-1.6791617577470843,-0.013188446707698191,0
10.718425273895264,1.3416075891139778,[1.32050367],0.005,0.1,-1.5054757933023835,-0.007824580172913945,0
10.726444005966187,1.3410213929637678,[1.32366635],0.005,0.1,-1.3224733400583795,-0.0060331254578211676,0
10.734434843063354,1.340435196813558,[1.32689885],0.005,0.1,-0.879333403777983,-0.0032958746726887084,0
10.744553089141846,1.3398490006633477,[1.33017768],0.005,0.1,-0.7021121446864833,-0.0021750868564767672,0
10.756623983383179,1.3390674057964012,[1.33348985],0.005,0.1,-0.6357633931409669,-0.0009848575526492042,0
10.767054080963135,1.3384812096461913,[1.33683094],0.005,0.1,-0.33405433142252283,0.00047666007383657293,0
10.777689218521118,1.3380904122127177,[1.34019402],0.005,0.1,-0.009875319577834385,0.0021215985730974724,0
10.78745722770691,1.3376996147792444,[1.34356674],0.005,0.1,0.5361018674706315,0.0022386127133754282,0
10.795428037643433,1.337504216062508,[1.34692606],0.005,0.1,0.7672908193071766,0.00212716046161162,0
10.807688236236572,1.3373088173457712,[1.35025116],0.005,0.1,1.3960612880822136,0.0036489989909198437,0
10.816882371902466,1.3371134186290345,[1.35353403],0.005,0.1,2.016633880787203,0.003956081821347462,0
10.827921867370605,1.3369180199122979,[1.35677001],0.005,0.1,2.492458358214238,0.005281394321314001,0
10.836445331573486,1.3369180199122979,[1.35995117],0.005,0.1,2.8013577915120673,0.003915057979533477,0
10.846018552780151,1.3367226211955612,[1.36306467],0.005,0.1,2.9642001747755615,0.004052469908793295,0
10.856444835662842,1.3367226211955612,[1.3660996],0.005,0.1,3.013501733010629,0.004129043352085342,0
10.86593246459961,1.3365272224788243,[1.36904985],0.005,0.1,2.7046754690470687,0.004206237054442254,0
10.876686573028564,1.3367226211955612,[1.37191072],0.005,0.1,2.3067529308600623,0.004235204953351021,0
10.888452768325806,1.3367226211955612,[1.37467899],0.005,0.1,1.9280656394583207,0.004314961764702245,0
10.899022579193115,1.3367226211955612,[1.37735558],0.005,0.1,1.6043858952142638,0.005888661876379486,0
10.907531023025513,1.3367226211955612,[1.37994277],0.005,0.1,1.3406651018187805,0.004357390973903524,0
10.915788412094116,1.3367226211955612,[1.38243933],0.005,0.1,0.854231700441177,0.004913821038671308,0
10.923527956008911,1.3367226211955612,[1.38484366],0.005,0.1,0.6542947648284531,0.003953300049450229,0
10.932292222976685,1.3367226211955612,[1.38715669],0.005,0.1,0.30070781210182335,0.00518806060171883,0
10.942013263702393,1.3367226211955612,[1.38938523],0.005,0.1,-0.03878141886264966,0.0067557451822849585,0
10.95144248008728,1.3365272224788243,[1.39154168],0.005,0.1,-0.3087628525101072,0.008771974855807373,0
10.962480783462524,1.3365272224788243,[1.39364536],0.005,0.1,-0.5013611487983441,0.016347416157501498,0
10.974658250808716,1.3365272224788243,[1.39572202],0.005,0.1,-0.6264320647765669,0.019192432371582004,0
10.982476472854614,1.3367226211955612,[1.39778826],0.005,0.1,-0.6984785054817881,0.015474182749110225,0
10.99149227142334,1.3367226211955612,[1.39984579],0.005,0.1,-0.7313804993493275,0.013438416296345242,0
11.005293846130371,1.3367226211955612,[1.40190485],0.005,0.1,-0.7366500365081065,0.029852908856064092,0
11.01523470878601,1.3367226211955612,[1.40399491],0.005,0.1,-0.7231809101084017,0.03595635712364555,0
11.02742862701416,1.3367226211955612,[1.40615084],0.005,0.1,-0.6975588971375073,0.05882333741093311,0
11.037290096282959,1.3367226211955612,[1.40840523],0.005,0.1,-0.6645211303895104,0.06157894991615429,0
11.050933122634888,1.3367226211955612,[1.41078682],0.005,0.1,-0.6273984130427313,0.08649665062651613,0
11.059485673904419,1.3367226211955612,[1.41331969],0.005,0.1,-0.5884848769425199,0.08348608455890281,0
11.068957805633545,1.3369180199122979,[1.41600756],0.005,0.1,-0.5493264505394333,0.060122903925152446,0
11.076488018035889,1.3371134186290345,[1.41882906],0.005,0.1,-0.23489899339025194,0.046019447608761484,0
11.093559741973877,1.337504216062508,[1.42176416],0.005,0.1,0.11124266272150857,0.05470728150311959,0
11.103387832641602,1.3376996147792444,[1.42480903],0.005,0.1,0.4004944642853281,0.06196543201911929,0
11.114070177078247,1.337895013495981,[1.42797326],0.005,0.1,0.6116639568161608,0.09116240777973705,0
11.121402978897095,1.3382858109294544,[1.43126291],0.005,0.1,0.7502287747757199,0.06579268560280661,0
11.131942510604858,1.3386766083629278,[1.43467359],0.005,0.1,1.106123186492384,0.0948300748110219,0
11.13943600654602,1.3390674057964012,[1.43819951],0.005,0.1,0.8990275915774001,0.06834240554007802,0
11.148973226547241,1.3394582032298745,[1.44182679],0.005,0.1,1.0912857658193058,0.07322051757288234,0
11.1600341796875,1.3398490006633477,[1.44554893],0.005,0.1,1.0864730117552543,0.10330558344881044,0
11.170356273651123,1.340435196813558,[1.44937287],0.005,0.1,1.0060801659077927,0.09933002107006567,0
11.181967496871948,1.3412167916805044,[1.45330265],0.005,0.1,0.9045522092261942,0.12549443077895767,0
11.191410064697266,1.3416075891139778,[1.45733962],0.005,0.1,1.0806927917934788,0.11501170890395725,0
11.200393438339233,1.3423891839809245,[1.46146938],0.005,0.1,1.0237692601309125,0.08089927381105369,0
11.210362672805786,1.343170778847871,[1.46566438],0.005,0.1,0.8903293235806529,0.08356089503137512,0
11.218436479568481,1.3437569749980813,[1.46990007],0.005,0.1,1.0229591003968201,0.062338466192783035,0
11.22969675064087,1.3447339685817647,[1.47416118],0.005,0.1,1.2037881581171392,0.09464919745947717,0
11.23782205581665,1.3455155634487113,[1.47844675],0.005,0.1,1.0752960457456497,0.09357058016816629,0
11.245432376861572,1.3461017595989213,[1.48274875],0.005,0.1,0.8587124654062377,0.06840157896052942,0
11.255300521850586,1.3470787531826045,[1.48704055],0.005,0.1,0.9206481227394405,0.05284083754300231,0
11.26927399635315,1.3484465441997613,[1.49130566],0.005,0.1,1.0494514222370483,0.08619500467302059,0
11.278387308120728,1.3496189365001814,[1.49554891],0.005,0.1,1.1627200585401962,0.0878060407880959,0
11.28642749786377,1.350400531367128,[1.49976817],0.005,0.1,0.959474492015983,0.06514000960156756,0
11.297425746917725,1.351572923667548,[1.50395543],0.005,0.1,0.6814143159167565,0.09809549735828334,0
11.308885097503662,1.3529407146847048,[1.50812228],0.005,0.1,0.4239182972022333,0.12586959393681002,0
11.319410562515259,1.353917708268388,[1.51228435],0.005,0.1,0.21688116115491796,0.11574875143731313,0
11.327673435211182,1.355090100568808,[1.5164364],0.005,0.1,0.06282626724157181,0.08177121016976957,0
11.335787057876587,1.3558716954357548,[1.52056174],0.005,0.1,-0.04565183006800844,0.08485848520423055,0
11.34408187866211,1.357044087736175,[1.52464637],0.005,0.1,-0.1182955384215244,0.06352891392597827,0
11.354506969451904,1.3580210813198583,[1.52867864],0.005,0.1,-0.16417872248296267,0.07137574656764362,0
11.364428997039795,1.3593888723370147,[1.53265477],0.005,0.1,-0.19075706808089174,0.07706518435626444,0
11.374515295028687,1.3605612646374348,[1.53657761],0.005,0.1,-0.20378028521299746,0.08107416905967288,0
11.384508609771729,1.3617336569378549,[1.5404497],0.005,0.1,-0.2075189763014472,0.08379011065516884,0
11.394433975219727,1.3631014479550119,[1.5442734],0.005,0.1,-0.20506747098141037,0.08555592951430313,0
11.405234813690186,1.3644692389721682,[1.54805643],0.005,0.1,-0.1986276987768781,0.11376688951131003,0
11.416058778762817,1.3656416312725883,[1.55181652],0.005,0.1,-0.4657820886477601,0.13695449996766085,0
11.424395561218262,1.367009422289745,[1.55556887],0.005,0.1,-0.48864671988900255,0.12340999077246764,0
11.432395935058594,1.368181814590165,[1.55931023],0.005,0.1,-0.4226420082770024,0.08728082564261812,0
11.441542148590088,1.3699404030407951,[1.56302752],0.005,0.1,-0.3354905593731834,0.09104572344136691,0
11.453399419784546,1.3716989914914248,[1.56672275],0.005,0.1,-0.2540627496406559,0.12903681051663773,0
