t_s,q_rad,q_des_rad,K,B,Kff,jerk,tau_Nm,reward
0.005293369293212891,-0.058619615021001076,[0.00433871],9.825212432529046,0.9790254919034855,1.9737818648793566,0.0,9.998999999999999,0.9525983183650464
0.017134428024291992,-0.058619615021001076,[0.02095885],9.650424865058092,0.9580509838069711,1.9475637297587132,0.0,10.098989999999999,0.7818032021068008
0.027854442596435547,-0.058619615021001076,[0.05206102],9.475637297587138,0.9370764757104565,1.92134559463807,0.0,10.099989899999999,0.5862900883079227
0.03960227966308594,-0.058619615021001076,[0.09496898],9.300849730116184,0.9161019676139419,1.8951274595174268,0.0,10.099999898999998,0.5089339985399945
0.04837465286254883,-0.058619615021001076,[0.14726918],9.12606216264523,0.8951274595174274,1.8689093243967834,0.0,10.099999998989999,0.5002079861048797
0.05741000175476074,-0.058619615021001076,[0.20680147],8.951274595174274,0.8741529514209129,1.84269118927614,0.0,-2.8688854951059763,0.5000007602106037
0.06529760360717773,-0.058619615021001076,[0.27164318],8.77648702770332,0.8531784433243983,1.8164730541554968,0.0,-10.027688854951059,0.5000000003357339
0.0743265151977539,-0.058619615021001076,[0.3400972],8.601699460232366,0.8322039352278838,1.7902549190348536,0.0,-10.09927688854951,0.5000000000000155
0.08337521553039551,-0.058619615021001076,[0.4106791],8.426911892761412,0.8112294271313693,1.7640367839142101,0.0,-10.099992768885494,0.5
0.09239506721496582,-0.058619615021001076,[0.48211112],8.252124325290458,0.7902549190348547,1.7378186487935667,0.0,-10.099999927688854,0.5
0.10199880599975586,-0.058619615021001076,[0.55329925],8.077336757819502,0.7692804109383402,1.7116005136729235,0.0,-10.099999999276887,0.5
0.11089277267456055,-0.058619615021001076,[0.62330391],7.902549190348549,0.7483059028418256,1.6853823785522803,0.0,-10.099999999992768,0.5
0.12133169174194336,-0.058619615021001076,[0.69133496],7.727761622877595,0.727331394745311,1.659164243431637,0.0,-10.099999999999927,0.5
0.1333179473876953,-0.058619615021001076,[0.7567375],7.55297405540664,0.7063568866487966,1.6329461083109935,0.0,-10.099999999999998,0.5
0.14240384101867676,-0.058619615021001076,[0.81898012],7.378186487935686,0.685382378552282,1.6067279731903503,0.0,-10.099999999999998,0.5
0.15064287185668945,-0.058815013737737745,[0.87766187],7.203398920464732,0.6644078704557674,1.5805098380697071,0.0,-10.099999999999998,0.5
0.1595134735107422,-0.058619615021001076,[0.93249855],7.028611352993777,0.643433362359253,1.5542917029490637,0.0,-5.100499999999999,0.5
0.16832256317138672,-0.058619615021001076,[0.98330033],6.853823785522822,0.6224588542627384,1.5280735678284203,0.0,-5.050504999999999,0.5
0.17632055282592773,-0.058619615021001076,[1.02996897],6.679036218051868,0.6014843461662238,1.501855432707777,0.0,-5.050005049999999,0.5
0.1843273639678955,-0.058619615021001076,[1.07248529],6.504248650580913,0.6,1.475637297587134,0.0,-5.0500000505,0.5
0.19231605529785156,-0.058619615021001076,[1.11088003],6.329461083109958,0.6,1.4494191624664907,0.0,-5.050000000504999,0.5
0.20031476020812988,-0.058619615021001076,[1.14522637],6.154673515639004,0.6,1.4232010273458477,0.0,-5.050000000005049,0.5
0.2083292007446289,-0.058619615021001076,[1.17564174],5.97988594816805,0.6,1.3969828922252046,0.0,-5.05000000000005,0.5
0.21631884574890137,-0.058815013737737745,[1.20228659],5.805098380697095,0.6,1.3707647571045614,0.0,-5.05,0.5
0.22683310508728027,-0.058619615021001076,[1.22534919],5.63031081322614,0.6,1.3445466219839184,0.0,-5.05,0.5
0.23635101318359375,-0.058619615021001076,[1.24502556],5.455523245755186,0.6,1.3183284868632752,0.0,-5.4800089042826565,0.5
0.24643445014953613,-0.058619615021001076,[1.26152958],5.280735678284231,0.6,1.292110351742632,0.0,0.3368163546391061,0.5
0.25434136390686035,-0.058619615021001076,[1.275099],5.105948110813277,0.6,1.2658922166219888,0.0,6.420820256642589,0.5
0.26256632804870605,-0.0584242163042644,[1.28598139],5.0,0.6,1.2396740815013456,0.0,8.745231646076627,0.5
0.2704505920410156,-0.05686102657037104,[1.29442325],5.0,0.6,1.2134559463807026,0.552076719357362,10.086452316460765,0.49977316659524446
0.28035998344421387,-0.052953052235637635,[1.30066692],5.0,0.6,1.1872378112600595,3.1026711627883743,10.099864523164607,0.49288508482525095
0.2895362377166748,-0.04943587533437757,[1.30494177],5.0,0.6,1.1610196761394163,5.0,10.099998645231645,0.4817320621239355
0.29949212074279785,-0.04552790099964417,[1.30746653],5.0,0.6,1.1348015410187733,5.0,10.099999986452316,0.4817320621239355
0.3088345527648926,-0.04142452794817409,[1.30845835],5.0,0.6,1.10858340589813,5.0,10.099999999864522,0.4817320621239355
0.31943249702453613,-0.03732115489670401,[1.30812394],5.0,0.6,1.082365270777487,5.0,10.099999999998644,0.4817320621239355
0.3297450542449951,-0.03302238312849727,[1.30665698],5.0,0.6,1.0561471356568437,5.0,10.099999999999985,0.4817320621239355
0.34045958518981934,-0.0289190100770272,[1.30424005],5.0,0.6,1.0299290005362005,5.0,10.099999999999998,0.4817320621239355
0.3500332832336426,-0.025206434459030463,[1.30104133],5.0,0.6,1.0037108654155575,5.0,10.099999999999998,0.4817320621239355
0.3595442771911621,-0.021493858841033726,[1.29721565],5.0,0.6,0.9774927302949143,5.0,5.100499999999999,0.4817320621239355
0.36963462829589844,-0.01758588450630032,[1.29290331],5.0,0.6,0.9512745951742712,4.7024436753974586,5.050504999999999,0.48380710089870754
0.37833476066589355,-0.013873308888303588,[1.28822893],5.0,0.6,0.9250564600536281,2.6119728533035724,5.050005049999999,0.4949471052489404
0.3883183002471924,-0.009965334553570182,[1.28330365],5.0,0.6,0.898838324932985,0.033990985297007725,5.0500000505,0.4999991399299806
0.39767932891845703,-0.006448157652310118,[1.27822521],5.0,0.6,0.8726201898123418,-2.4875991360744742,5.050000000504999,0.49541469271829897
0.405322790145874,-0.0031263794677867237,[1.27307906],5.0,0.6,0.8464020546916986,-4.482077802335956,5.050000000005049,0.4852671392664793
0.416149377822876,0.0009769935836833512,[1.26793957],5.0,0.6,0.8201839195710555,-5.0,5.05000000000005,0.4817320621239355
0.4257087707519531,0.004689569201680086,[1.26286936],5.0,0.6,0.7939657844504124,-5.0,5.05,0.4817320621239355
0.43390846252441406,0.008011347386203481,[1.25791985],5.0,0.6,0.7677476493297692,-5.0,5.05,0.4817320621239355
0.444659948348999,0.012505517871146895,[1.25313147],5.0,0.6,0.741529514209126,-5.0,5.05,0.4817320621239355
0.45233750343322754,0.015436498622196948,[1.24853521],5.0,0.6,0.715311379088483,-5.0,5.05,0.4817320621239355
0.4607818126678467,0.019149074240193686,[1.24415493],5.0,0.6,0.6890932439678399,-5.0,6.722955917894945,0.4817320621239355
0.47010326385498047,0.02286164985819042,[1.24000625],5.0,0.6,0.6628751088471967,-5.0,6.072122464968612,0.4817320621239355
0.4792745113372803,0.02618342804271381,[1.23609655],5.0,0.6,0.6366569737265535,-5.0,5.423912349861826,0.4817320621239355
0.4872925281524658,0.02911440879376387,[1.23242677],5.0,0.6,0.6104388386059104,-5.0,4.9319442010373615,0.4817320621239355
0.4953017234802246,0.03243618697828726,[1.2289923],5.0,0.6,0.5842207034852673,-5.0,4.33858778722861,0.4817320621239355
0.5033109188079834,0.03556256644607399,[1.22578394],5.0,0.6,0.5580025683646241,-4.956055992002442,3.868141926570286,0.4820459472006155
0.5132896900177002,0.03986133821428073,[1.22278603],5.0,0.6,0.531784433243981,-4.752867199360668,3.159768721372365,0.4834638088138414
0.5232887268066406,0.04357391383227746,[1.21997775],5.0,0.6,0.5055662981233379,-4.4799730502730934,2.818841616469423,0.4852807672625659
0.5334718227386475,0.04767728688374754,[1.21733692],5.0,0.6,0.4793481630026947,-4.182723988133304,2.3581399031670087,0.48714472515827173
0.5418767929077148,0.050803666351534264,[1.21484426],5.0,0.6,0.4531300278820516,-3.883917277939662,2.6720195753575355,0.48889601183320924
0.5498971939086914,0.05412544453605766,[1.21248724],5.0,0.6,0.42691189276140845,-3.5947752726742657,2.9793151844912718,0.49047249487356515
0.5578994750976562,0.05725182400384438,[1.21025329],5.0,0.6,0.4006937576407653,-3.3205449801239926,3.569007292398194,0.4918592260500348
0.565593957901001,0.059987406038157755,[1.2081273],5.0,0.6,0.3744756225201221,-3.063373474891141,4.028730137123707,0.4930629268317655
0.5753529071807861,0.06409077908962785,[1.20609858],5.0,0.6,0.3482574873994789,-2.8237970034699362,4.895527953686454,0.49409937085676287
0.5890223979949951,0.0695619431582546,[1.20415764],5.0,0.6,0.3220393522788358,-2.601520098464608,4.88601995393348,0.4949872633004732
0.5968043804168701,0.07249292390930466,[1.20229035],5.0,0.6,0.2958212171581926,-2.395828024614545,5.015371210708817,0.49574535233036515
0.6067698001861572,0.07659629696077475,[1.20048479],5.0,0.6,0.2696030820375494,-2.2058078241326458,5.171371449032983,0.4963911404599415
0.6153051853179932,0.07972267642856146,[1.19873651],5.0,0.6,0.24338494691690624,-2.0304681110772433,5.4743621648047815,0.4969403845366551
0.6263010501861572,0.08421684691350488,[1.19704231],5.0,0.6,0.21716681179626307,-1.868804443120743,5.343828115666192,0.49740698030061686
0.634307861328125,0.08734322638129159,[1.19539951],5.0,0.6,0.19094867667561988,-1.7198349052804613,5.424096233252303,0.49780302907430285
0.6442842483520508,0.09144659943276168,[1.19381044],5.0,0.6,0.16473054155497668,-1.5826190706638248,5.476502174841588,0.49813898454511735
0.6553947925567627,0.09574537120096842,[1.19227348],5.0,0.6,0.13851240643433352,-1.4562675082144085,5.421703808838465,0.4984238281336841
0.6658074855804443,0.10004414296917516,[1.19077999],5.0,0.6,0.11229427131369034,-1.3399458281696344,5.288201994118263,0.4986652472153733
0.6752853393554688,0.10356131987043524,[1.18932504],5.0,0.6,0.08607613619304716,-1.2328755395296462,5.348979924206843,0.4988698037893963
0.6843352317810059,0.1070784967716953,[1.18790952],5.0,0.6,0.05985800107240398,-0.8582946876105948,5.338070316578425,0.49945192323790466
0.6933119297027588,0.11059567367295536,[1.18653329],5.0,0.6,0.0336398659517608,-0.7344846196075645,5.272160423958884,0.49959858121241274
0.702911376953125,0.1143082492909521,[1.18519303],5.0,0.6,0.0074217308311176206,-0.7061328415108946,5.1878971292177685,0.49962896207129004
0.7102804183959961,0.1168484326085288,[1.18388635],5.0,0.6,0.0,-0.7054318765042689,5.1669922983851695,0.4996296980779235
0.71929931640625,0.12056100822652555,[1.18261161],5.0,0.6,0.0,-0.7053024741458214,5.128328117046729,0.499629833869368
0.7306292057037354,0.1254459761449423,[1.18136332],5.0,0.6,0.0,-0.6969180717183933,5.083646013006338,0.49963857922099975
0.7403881549835205,0.12954934919641237,[1.18013259],5.0,0.6,0.0,-0.6791055788694436,5.043575443262759,0.4996568119283465
0.7492902278900146,0.13287112738093576,[1.17891019],5.0,0.6,0.0,-0.6534923475995776,5.00908059592822,0.4996822031164179
0.7583487033843994,0.1365837029989325,[1.17769017],5.0,0.6,0.0,-0.6223918843282796,5.003516799333415,0.49971172346691684
0.7676353454589844,0.14010087990019257,[1.17646993],5.0,0.6,0.0,-0.5879649177621376,4.964549987477249,0.4997427249059494
0.7792267799377441,0.14479044910187266,[1.17524417],5.0,0.6,0.0,-0.5519523617694074,4.925085265362872,0.499773268750909
0.7891044616699219,0.14869842343660605,[1.17400577],5.0,0.6,0.0,-0.5156482032787884,4.8945155902720225,0.49980210822883026
0.7977285385131836,0.1524109990546028,[1.1727498],5.0,0.6,0.0,-0.4799601604576547,4.869479215472044,0.49982854798886966
0.8053135871887207,0.15534197980565284,[1.17147608],5.0,0.6,0.0,-0.44549171309269203,4.875108765150418,0.4998522859602048
0.815575122833252,0.1594453528571229,[1.17018657],5.0,0.6,0.0,-0.13658072022807388,4.827418133974625,0.4999861139270741
0.8242788314819336,0.1627671310416463,[1.16888237],5.0,0.6,0.0,-0.07239170739281361,4.834815488826093,0.4999960989400834
0.8367819786071777,0.16726130152658972,[1.16756702],5.0,0.6,0.0,-0.37436874375576235,4.799638368170917,0.4998956816928679
0.8452847003936768,0.17077847842784977,[1.16624615],5.0,0.6,0.0,-0.45634482644773816,4.80618396505119,0.49984500217121425
0.8593969345092773,0.1766404399299499,[1.16492639],5.0,0.6,0.0,-0.1703906487501728,4.767926765604796,0.4999783883063713
0.8704032897949219,0.18074381298141998,[1.16361451],5.0,0.6,0.0,-0.09428789286332356,4.764362052720373,0.49999338216916095
0.8813292980194092,0.18543338218310007,[1.16231986],5.0,0.6,0.0,-0.09908536370375658,4.763676652927668,0.49999269159649834
0.8912756443023682,0.18934135651783346,[1.16105515],5.0,0.6,0.0,-0.12783216372613698,4.761883995192716,0.4999878358526465
0.8995554447174072,0.19285853341909354,[1.15983303],5.0,0.6,0.0,-0.15729476977625173,4.76139131858731,0.4999815826457834
0.9082725048065186,0.19598491288688025,[1.1586656],5.0,0.6,0.0,-0.17950243298041368,4.762287747654496,0.49997601515382806
0.9162850379943848,0.19911129235466699,[1.15756357],5.0,0.6,0.0,-0.19300051938362314,4.7521173594791755,0.49997227244415726
0.9253771305084229,0.20262846925592706,[1.15653614],5.0,0.6,0.0,-0.1988134794077026,4.751338063124305,0.49997057709506026
0.9335904121398926,0.2061456461571871,[1.15559287],5.0,0.6,0.0,-0.19866160458027457,4.751272506651809,0.49997062202924275
0.9422812461853027,0.20946742434171048,[1.15474211],5.0,0.6,0.0,-0.19423396989280253,4.732763953872695,0.4999719169125665
0.9513106346130371,0.2131799999597072,[1.15398968],5.0,0.6,0.0,-0.1869399834824556,4.731430166569638,0.4999739864407596
0.9617025852203369,0.21767417044465065,[1.1533438],5.0,0.6,0.0,-0.17786560943336616,4.744129999813391,0.49997645056905055
0.9716899394989014,0.22138674606264738,[1.1528147],5.0,0.6,0.0,-0.167807694320805,4.733247701132058,0.4999790385504488
0.9802441596984863,0.22470852424717075,[1.15240673],5.0,0.6,0.0,-0.15733039052535608,4.701466818234632,0.49998157430345713
0.994084358215332,0.22998428959906086,[1.15212105],5.0,0.6,0.0,-0.14682076660885823,4.7104832184409124,0.4999839537083613
1.004244327545166,0.23428306136726765,[1.15196197],5.0,0.6,0.0,-0.1365357149582178,4.693716612818771,0.4999861230767524
1.013695240020752,0.238191035702001,[1.15193212],5.0,0.6,0.0,-0.12663870681122652,4.679055880682288,0.4999880619216544
1.0212483406066895,0.2411220164530511,[1.15202809],5.0,0.6,0.0,-0.11722741573868711,4.645108276607037,0.4999897703537687
1.0299506187438965,0.2450299907877845,[1.1522434],5.0,0.6,0.0,-0.10835394187900288,4.63770765594026,0.4999912603848145
1.0387394428253174,0.24815637025557122,[1.15257372],5.0,0.6,0.0,-0.10003935789261326,4.632481834931299,0.499992550189411
1.0462689399719238,0.2510873510066213,[1.15301409],5.0,0.6,0.0,-0.36832239478691353,4.60160453947422,0.4998990237891648
1.0556740760803223,0.25479992662461803,[1.15355921],5.0,0.6,0.0,-0.39423786017871293,4.623961971186574,0.4998843160557646
1.0642774105072021,0.2581217048091414,[1.15420596],5.0,0.6,0.0,-0.33245617480006395,4.587579527752989,0.4999177303308267
1.0732536315917969,0.26183428042713813,[1.15494807],5.0,0.6,0.0,-0.25018505299767313,4.582331747337126,0.4999534082353555
1.0836751461029053,0.2657422547618715,[1.15577928],5.0,0.6,0.0,-0.17394562517338957,4.574406092134443,0.49997747712043505
1.0929644107818604,0.2694548303798682,[1.15669592],5.0,0.6,0.0,-0.11204654659453647,4.56599615026597,0.4999906545639956
1.1019296646118164,0.273167405997865,[1.15769392],5.0,0.6,0.0,-0.06518132684358956,4.55650503114785,0.49999683734590167
1.1112806797027588,0.27687998161586175,[1.15876889],5.0,0.6,0.0,-0.03127922546579864,4.546207100585205,0.49999927168653346
1.1212713718414307,0.2809833546673318,[1.15991351],5.0,0.6,0.0,-0.0076172967602746704,4.507245907329442,0.4999999568074935
1.1313998699188232,0.2848913290020652,[1.161118],5.0,0.6,0.0,0.008342937451783099,4.50270266420946,0.4999999481862974
1.1413304805755615,0.2887993033367986,[1.16237594],5.0,0.6,0.0,0.018690666287259024,4.495745725144908,0.4999997399504364
1.1492559909820557,0.29192568280458536,[1.16368376],5.0,0.6,0.0,0.025040811917291406,4.49082347144449,0.4999995332296243
1.159416675567627,0.29602905585605543,[1.16503776],5.0,0.6,0.0,0.028596718342440642,4.479976967140605,0.49999939125023474
1.170281171798706,0.3007186250577355,[1.16643417],5.0,0.6,0.0,0.030234096902686594,4.465595357134666,0.4999993195434777
1.1782665252685547,0.3038450045255222,[1.16786931],5.0,0.6,0.0,0.030579798401247978,4.458977966707106,0.49999930389362834
1.187317132949829,0.3075575801435189,[1.16933977],5.0,0.6,0.0,-0.24596142065836443,4.450161962760357,0.49995496801373907
1.1970419883728027,0.31127015576151573,[1.17084257],5.0,0.6,0.0,-0.28012749978981893,4.441999329815145,0.4999415892480921
1.206892490386963,0.3151781300962491,[1.17237527],5.0,0.6,0.0,-0.2263956988318724,4.4336698611080445,0.49996184719713005
1.2142810821533203,0.31771831341382584,[1.17393311],5.0,0.6,0.0,-0.15185307428119954,4.404237699296956,0.4999828348976276
1.2222607135772705,0.32123549031508586,[1.1755064],5.0,0.6,0.0,-0.08295022630684894,4.37702940803205,0.4999948779996794
1.2320399284362793,0.3249480659330826,[1.17709017],5.0,0.6,0.0,-0.027959524789618474,4.414317458063672,0.4999994180763684
1.2402653694152832,0.328269844117606,[1.17868635],5.0,0.6,0.0,0.01243874657769433,4.38177458974168,0.49999988482456403
1.2482585906982422,0.3313962235853927,[1.18029378],5.0,0.6,0.0,0.04031331891798515,4.387508370369482,0.4999987902287525
1.2592642307281494,0.3356949953535995,[1.18191178],5.0,0.6,0.0,0.058375331599827246,4.384454943433417,0.4999974633281186
1.2683064937591553,0.33921217225485956,[1.18354307],5.0,0.6,0.0,-0.20689294599560232,4.38297894717179,0.49996813718041566
1.2762575149536133,0.34253395043938295,[1.18519009],5.0,0.6,0.0,-0.23447152928665482,4.3807148259812685,0.4999590768425945
1.2857179641723633,0.3464419247741163,[1.18685499],5.0,0.6,0.0,-0.17746044183497778,4.374142691838547,0.49997655773283034
1.2942767143249512,0.3497637029586398,[1.18853623],5.0,0.6,0.0,-0.10191406171795767,4.338984181061399,0.49999226836152766
1.304487705230713,0.3540624747268465,[1.19022915],5.0,0.6,0.0,-0.03353016084424524,4.337617194020983,0.49999916309225806
1.314262866973877,0.3579704490615799,[1.19193298],5.0,0.6,0.0,0.019956842477170975,4.334750598504006,0.49999970352354756
1.322265386581421,0.36109682852936664,[1.19364688],5.0,0.6,0.0,0.05824503204598938,4.3024086228845935,0.4999974746396602
1.3344428539276123,0.3659817964477834,[1.19536984],5.0,0.6,0.0,0.3597038668625236,4.328370950808798,0.49990369361976744
1.344496250152588,0.3700851694992534,[1.1971071],5.0,0.6,0.0,0.40827166475265075,4.315323930434871,0.49987593443202055
1.3548271656036377,0.37399314383398685,[1.19886553],5.0,0.6,0.0,0.36128140717625895,4.328339121825429,0.4999028471148024
1.3627605438232422,0.3769241245850368,[1.2006469],5.0,0.6,0.0,0.2881142277931573,4.2855187512719315,0.4999382112726605
1.3729984760284424,0.38122289635324363,[1.20244576],5.0,0.6,0.0,0.21696247293746992,4.2718739920378,0.4999649602739603
1.382857084274292,0.3851308706879771,[1.20425674],5.0,0.6,0.0,0.15737496852698418,4.259792109596335,0.49998156386069464
1.3902673721313477,0.38825725015576373,[1.2060749],5.0,0.6,0.0,0.11094427897558513,4.224188750480575,0.49999083753095974
1.3992645740509033,0.3917744270570238,[1.20789284],5.0,0.6,0.0,0.0762405834757842,4.222144883979775,0.49999567309640697
1.4093379974365234,0.3958778001084939,[1.2097098],5.0,0.6,0.0,0.0509917952038573,4.241456180721327,0.499998064440891
1.4212281703948975,0.40076276802691063,[1.21153075],5.0,0.6,0.0,0.03297285528852898,4.2214675975729605,0.4999991906815577
1.4329125881195068,0.4052569385118541,[1.21335689],5.0,0.6,0.0,0.020309850864485435,4.204340011444909,0.49999969294228713
1.4403800964355469,0.40838331797964084,[1.21518349],5.0,0.6,0.0,0.011533710298889992,4.168217337225041,0.4999999009750322
1.4505078792572021,0.4122912923143742,[1.21700641],5.0,0.6,0.0,0.005538202079557981,4.189569097004266,0.4999999771679839
1.4602556228637695,0.4163946653658443,[1.21882491],5.0,0.6,0.0,0.0015107456123679098,4.147887138214031,0.4999999983010157
1.4692885875701904,0.420107240983841,[1.22063548],5.0,0.6,0.0,-0.0011359104091414902,4.142520191032776,0.4999999990395056
1.4772741794586182,0.4230382217348911,[1.22243505],5.0,0.6,0.0,-0.0028214531181285727,4.1394091889438975,0.4999999940741268
1.4852497577667236,0.4259692024859411,[1.22422104],5.0,0.6,0.0,-0.0038434067884383174,4.108548002627505,0.4999999890038824
1.4937710762023926,0.4292909806704645,[1.22598854],5.0,0.6,0.0,-0.004411392709410567,4.109107648425109,0.49999998551367875
1.5043206214904785,0.4333943537219346,[1.22773876],5.0,0.6,0.0,-0.004672346977631789,4.128067914928362,0.4999999837491215
1.514669418334961,0.437888524206878,[1.22947809],5.0,0.6,0.0,0.2713095720997062,4.110266316510257,0.4999452085099171
1.5223054885864258,0.44101490367466467,[1.23120668],5.0,0.6,0.0,0.30451105722580035,4.074618239401124,0.4999309787480898
1.5322411060333252,0.4451182767261348,[1.2329195],5.0,0.6,0.0,0.2495748277588466,4.068003735134,0.49995363523117464
1.5447757244110107,0.45019864336128823,[1.2346178],5.0,0.6,0.0,-0.10233711982007326,4.080702448435315,0.49999220403878913
1.5559570789337158,0.454497415129495,[1.23630816],5.0,0.6,0.0,0.0702927862041123,4.063560802922585,0.49999632187407583
1.5632526874542236,0.45742839588054507,[1.23798842],5.0,0.6,0.0,0.10214361383080339,4.057152995243872,0.49999223349295463
1.572709560394287,0.4611409714985418,[1.23965172],5.0,0.6,0.0,-0.19465216208027608,4.069343279351527,0.49997179585816054
1.5825693607330322,0.46543974326674853,[1.24130068],5.0,0.6,0.0,-0.2625067612837262,4.0481907392282865,0.4999487061396079
1.5923073291778564,0.46915231888474523,[1.2429406],5.0,0.6,0.0,-0.24059984660326605,4.032594205769361,0.4999569097857891
1.6027708053588867,0.47345109065295204,[1.24457369],5.0,0.6,0.0,0.08497351959650468,4.016269074036225,0.49999462508556236
1.6102302074432373,0.4761866726872654,[1.24620229],5.0,0.6,0.0,0.16941050169364916,4.009680296437239,0.49997863622210853
1.6186139583587646,0.4795084508717888,[1.24782597],5.0,0.6,0.0,0.1581256154909534,3.9736655987660607,0.4999813875711788
1.6301310062408447,0.48400262135673217,[1.24944194],5.0,0.6,0.0,0.1162649086883599,3.9690058058539726,0.49998993764546723
1.6402335166931152,0.4879105956914656,[1.25105451],5.0,0.6,0.0,0.07111714304074847,3.994731633143982,0.4999962350982827
1.6508457660675049,0.4920139687429357,[1.25267414],5.0,0.6,0.0,0.032635614201721674,3.9822117678593743,0.4999992071520419
1.6590592861175537,0.495335746927459,[1.25430402],5.0,0.6,0.0,0.0032204767239735962,3.944616808736754,0.499999992279472
1.669201374053955,0.49963451869566583,[1.25594097],5.0,0.6,0.0,-0.017725052335361525,3.94197898352624,0.499999766126171
1.6792926788330078,0.5039332904638726,[1.257586],5.0,0.6,0.0,-0.03175101633461982,3.9377064829804453,0.49999924955025865
1.6909010410308838,0.508427460948816,[1.25924724],5.0,0.6,0.0,-0.040502935028678716,3.9611448124834254,0.49999877882153904
1.699449062347412,0.5115538404166027,[1.2609319],5.0,0.6,0.0,-0.045407711362261516,3.921124249296781,0.4999984651524861
1.7082431316375732,0.5152664160345994,[1.26263568],5.0,0.6,0.0,-0.04759690781607639,3.885860280361803,0.4999983135890191
1.7162501811981201,0.5180019980689128,[1.26435134],5.0,0.6,0.0,-0.04792457732851165,3.8960808344826265,0.49999829028974974
1.7255151271820068,0.5219099724036462,[1.26608311],5.0,0.6,0.0,-0.047015483030621065,3.9249248186972867,0.4999983545383478
1.7342441082000732,0.5254271493049063,[1.2678409],5.0,0.6,0.0,-0.04531669290598739,3.9120709415891883,0.49999847129942554
1.7445290088653564,0.5295305223563763,[1.26962528],5.0,0.6,0.0,-0.04314259053389766,3.8668315668715336,0.49999861446177485
1.7546420097351074,0.5334384966911098,[1.27142886],5.0,0.6,0.0,-0.040710805982460685,3.8602519890490252,0.4999987662546166
1.7632629871368408,0.5369556735923698,[1.27324473],5.0,0.6,0.0,-0.03816955716221741,3.823816580065792,0.4999989154728039
1.772339105606079,0.5406682492103666,[1.27506637],5.0,0.6,0.0,0.24042049624133496,3.822640851704387,0.49995697400056555
1.7802095413208008,0.5437946286781532,[1.27689072],5.0,0.6,0.0,0.2760427489404589,3.82034640282468,0.499943280195098
1.790247917175293,0.5478980017296233,[1.27871761],5.0,0.6,0.0,0.2233486288126244,3.8105011159629045,0.49996286724864847
1.7992167472839355,0.5516105773476201,[1.2805463],5.0,0.6,0.0,0.14954833591305638,3.8012504022467533,0.49998335197901095
1.8092188835144043,0.5557139503990901,[1.28237572],5.0,0.6,0.0,0.0811793310008947,3.7896728563835267,0.4999950943621866
1.8172285556793213,0.5592311273003503,[1.28420484],5.0,0.6,0.0,0.026575159782034674,3.7810898441609333,0.499999474275501
1.8259332180023193,0.562357506768137,[1.2860299],5.0,0.6,0.0,-0.013540844373386748,3.7471495089273534,0.4999998635108562
1.8340978622436523,0.5656792849526604,[1.28784496],5.0,0.6,0.0,-0.04120712781235025,3.7478591264326466,0.4999987359891093
1.8432505130767822,0.5690010631371838,[1.28964804],5.0,0.6,0.0,-0.05911352179349297,3.746548718378089,0.4999973987672476
1.8547687530517578,0.5736906323388637,[1.29144351],5.0,0.6,0.0,-0.06976565425128162,3.763678463539575,0.49999637683222936
1.8622584342956543,0.5764262143731771,[1.29323237],5.0,0.6,0.0,-0.07522082148050177,3.7591633514066647,0.49999578807150025
1.8722503185272217,0.580138789991174,[1.29500698],5.0,0.6,0.0,-0.07706343427487503,3.7451434946170243,0.49999557919383053
1.8832387924194336,0.5846329604761173,[1.29676401],5.0,0.6,0.0,-0.07646794689895145,3.7284818118931415,0.49999564725079604
1.897139310836792,0.5904949219782174,[1.29851251],5.0,0.6,0.0,-0.07428291850687038,3.755114377395673,0.4999958924504763
1.9071388244628906,0.5945982950296876,[1.30026591],5.0,0.6,0.0,0.20492854139868028,3.727336431821447,0.49996873935054
1.9175772666931152,0.5987016680811577,[1.3020294],5.0,0.6,0.0,0.24179483269408603,3.702744250584943,0.4999564807095958
1.925201177597046,0.6016326488322077,[1.30379836],5.0,0.6,0.0,-0.08531851332012058,3.6613996446171875,0.4999945813527394
1.9372615814208984,0.6063222180338877,[1.30556841],5.0,0.6,0.0,-0.19041958496676198,3.6712083796566555,0.499973009049324
1.9474551677703857,0.6106209898020944,[1.30734089],5.0,0.6,0.0,0.07425989404400554,3.64962897934295,0.4999958949963934
1.9575433731079102,0.6147243628535647,[1.30911647],5.0,0.6,0.0,0.13079013094725828,3.6302840353429393,0.4999872664031936
1.9653229713439941,0.6178507423213512,[1.3108899],5.0,0.6,0.0,-0.1680522743697636,3.592654043067495,0.4999789774044966
1.9742183685302734,0.6213679192226114,[1.31265386],5.0,0.6,0.0,-0.2464896265003962,3.585861491892164,0.49995477440108393
1.9822018146514893,0.6246896974071348,[1.31440205],5.0,0.6,0.0,-0.23609557908214646,3.5541033294381563,0.499958508000417
1.994544506072998,0.6293792666088148,[1.31613153],5.0,0.6,0.0,-0.19623954306967162,3.570529852988873,0.4999713339883185
2.0027823448181152,0.6325056460766015,[1.31784465],5.0,0.6,0.0,-0.15211451905533052,3.560676450175543,0.4999827757416017
2.0117881298065186,0.6362182216945983,[1.31954336],5.0,0.6,0.0,-0.1131732612385026,3.548036108146743,0.49999046566963234
2.019604444503784,0.6393446011623851,[1.32122449],5.0,0.6,0.0,-0.08194193598767249,3.515061758037081,0.49999500176184236
2.0272176265716553,0.6426663793469085,[1.32288078],5.0,0.6,0.0,-0.058143857588796075,3.4878814725708067,0.49999748340536604
2.0391957759857178,0.6473559485485886,[1.32450865],5.0,0.6,0.0,-0.040563193281003024,3.5069543580572002,0.49999877518522334
2.0491838455200195,0.6512639228833219,[1.32611235],5.0,0.6,0.0,-0.027838104209657454,3.4957203768474243,0.4999994231196616
2.0582213401794434,0.6547810997845819,[1.32769569],5.0,0.6,0.0,-0.01876022003750106,3.485830142942447,0.499999738011386
2.0676651000976562,0.6586890741193153,[1.32925973],5.0,0.6,0.0,-0.012356411195063349,3.473923362489081,0.4999998863442714
2.0752155780792236,0.661815453587102,[1.3308033],5.0,0.6,0.0,-0.007882101354577412,3.44256767530281,0.4999999537522418
2.0844080448150635,0.6655280292050988,[1.33232572],5.0,0.6,0.0,-0.004784623846230618,3.4619459149034144,0.4999999829587178
2.0942158699035645,0.6692406048230957,[1.33383141],5.0,0.6,0.0,-0.002661591589183815,3.449663394459085,0.49999999472661466
2.102482795715332,0.672562383007619,[1.33532207],5.0,0.6,0.0,-0.0012237677327643455,3.4159629197937527,0.4999999988851802
2.1107516288757324,0.6756887624754058,[1.33679481],5.0,0.6,0.0,-0.00026508230137665403,3.4142828277631057,0.499999999947692
2.1186134815216064,0.6788151419431923,[1.33824748],5.0,0.6,0.0,0.00036035131285029213,3.38671696553699,0.4999999999033373
2.126441717147827,0.6819415214109791,[1.33967622],5.0,0.6,0.0,0.0007553212394375345,3.364390330531194,0.49999999957531194
2.1345577239990234,0.6852632995955026,[1.34107815],5.0,0.6,0.0,0.0009919737177399171,3.370296126539266,0.49999999926750105
2.142210006713867,0.6881942803465526,[1.34245363],5.0,0.6,0.0,0.0011207803221775971,3.3487241524410774,0.4999999990649224
2.1545493602752686,0.6930792482649695,[1.34380587],5.0,0.6,0.0,0.001176937936611481,3.3718748935101264,0.4999999989688691
2.1621906757354736,0.696205627732756,[1.34514047],5.0,0.6,0.0,0.0011849093741691246,3.3422464369475944,0.49999999895485403
2.171266794204712,0.7001136020674896,[1.34646015],5.0,0.6,0.0,0.0011616313771899349,3.3403555036969736,0.4999999989955153
2.1792073249816895,0.7034353802520129,[1.34776773],5.0,0.6,0.0,0.0011187743051929825,3.33900057741385,0.49999999906826664
2.188330888748169,0.7071479558700097,[1.34906857],5.0,0.6,0.0,-0.27497402935565896,3.334220956214456,0.49994371850995134
2.1961891651153564,0.7100789366210597,[1.35036503],5.0,0.6,0.0,-0.30815923509161935,3.3052984715123053,0.4999293151484257
2.205453872680664,0.7137915122390565,[1.35165958],5.0,0.6,0.0,-0.25312509438475944,3.3327890181741506,0.4999523068105416
2.213989019393921,0.7169178917068433,[1.35295734],5.0,0.6,0.0,-0.177103309725041,3.299098236321156,0.4999766519889567
2.22463059425354,0.7212166634750498,[1.35426022],5.0,0.6,0.0,-0.10664240308120139,3.2945910454273073,0.49999153430057935
2.234198570251465,0.7249292390930466,[1.35557023],5.0,0.6,0.0,-0.3261183222624532,3.2913420915263645,0.4999208369183915
2.2432305812835693,0.72883721342778,[1.35688927],5.0,0.6,0.0,-0.31730169516911716,3.256760638286372,0.49992505909877943
2.2553844451904297,0.7337221813461967,[1.35821929],5.0,0.6,0.0,-0.23284240698106826,3.28177758200984,0.4999596435172606
2.2660343647003174,0.7374347569641935,[1.35956806],5.0,0.6,0.0,-0.1372793377924518,3.2726586580705215,0.49998597150977403
2.2752432823181152,0.7411473325821902,[1.36094226],5.0,0.6,0.0,-0.054650482214026845,3.2631649301876866,0.4999977767223279
2.2842299938201904,0.7446645094834503,[1.36234757],5.0,0.6,0.0,0.008769879808620557,3.2817553302299936,0.4999999427475688
2.2924492359161377,0.748377085101447,[1.36378859],5.0,0.6,0.0,0.32988835924299104,3.236343903575578,0.4999189961846078
2.30122971534729,0.751894262002707,[1.36526271],5.0,0.6,0.0,0.3929761014017602,3.2296662572452544,0.49988505527902743
2.312513589859009,0.7563884324876504,[1.3667674],5.0,0.6,0.0,0.3562755619307886,3.21774582812806,0.4999055204735895
2.325260639190674,0.7618595965562772,[1.36830643],5.0,0.6,0.0,0.29014099153141554,3.2279102238111497,0.49993733895370246
2.3333022594451904,0.764985976024064,[1.36988264],5.0,0.6,0.0,0.22361253965055777,3.1859417984163807,0.49996277944725626
2.3422107696533203,0.7686985516420607,[1.37148861],5.0,0.6,0.0,0.16691431331427484,3.149293624140774,0.4999792611424467
2.3525452613830566,0.7726065259767941,[1.37311768],5.0,0.6,0.0,0.12215111084740088,3.1782111412288345,0.49998889300201094
2.3622512817382812,0.7765145003115275,[1.37477322],5.0,0.6,0.0,0.08827018120503714,3.1661703525517186,0.4999941999439208
2.370234727859497,0.779836278496051,[1.37645454],5.0,0.6,0.0,0.06327147786978768,3.128233323949772,0.499997019965181
2.3807485103607178,0.783939651547521,[1.37815748],5.0,0.6,0.0,0.045123347304619005,3.1521826712829544,0.49999848431611055
2.389190912246704,0.7872614297320444,[1.37988136],5.0,0.6,0.0,0.03208776581117961,3.113236326700407,0.4999992335474011
2.3972108364105225,0.7903878091998312,[1.38162231],5.0,0.6,0.0,0.02279013241292631,3.1133900775533756,0.4999996133658559
2.407614231109619,0.7944911822513011,[1.38337716],5.0,0.6,0.0,0.01618918705791604,3.108011578876562,0.49999980490026796
2.418187379837036,0.7987899540195079,[1.38514665],5.0,0.6,0.0,0.011516484625656935,3.101346308339797,0.49999990127060023
2.428589344024658,0.802893327070978,[1.38693187],5.0,0.6,0.0,0.008214292061095089,3.0956444637415097,0.4999999497718787
2.437209129333496,0.8064105039722381,[1.3887343],5.0,0.6,0.0,0.005882248756555297,3.0927974729910335,0.49999997424310916
2.44596529006958,0.8097322821567615,[1.39055214],5.0,0.6,0.0,0.004235094756463222,3.058392897473786,0.49999998664841167
2.4567301273345947,0.8144218513584416,[1.39238444],5.0,0.6,0.0,0.0030706132353532384,3.091212072308188,0.49999999298129627
2.4654130935668945,0.8179390282597016,[1.39423442],5.0,0.6,0.0,0.27828431606137527,3.052984197552636,0.4999423553375698
2.474163770675659,0.8216516038776983,[1.39610142],5.0,0.6,0.0,0.31082341923879,3.0561464980802633,0.499928087744634
2.483168363571167,0.8253641794956951,[1.39798142],5.0,0.6,0.0,0.2553089906946989,3.022266148746093,0.49995148033204073
2.491184949874878,0.8282951602467451,[1.39987117],5.0,0.6,0.0,-0.09711300120726923,3.035194633498579,0.4999929796562435
2.5018351078033447,0.8323985332982152,[1.40177194],5.0,0.6,0.0,-0.20097533435599282,3.0373217154561147,0.4999699337588029
2.5101664066314697,0.8359157101994752,[1.40368876],5.0,0.6,0.0,0.07338244960309077,3.0380830339634253,0.49999599143117673
2.519371271133423,0.839628285817472,[1.4056257],5.0,0.6,0.0,0.1404801832447956,3.0350171117871545,0.49998530970809785
2.529557943344116,0.8435362601522054,[1.40758969],5.0,0.6,0.0,0.12640584909331629,3.057871819077371,0.4999881057832029
2.5376429557800293,0.8466626396199921,[1.409586],5.0,0.6,0.0,0.08735136241221625,3.01561462103249,0.49999432006226835
2.5451691150665283,0.8497890190877789,[1.41160683],5.0,0.6,0.0,0.046625402736980764,2.9802183097349046,0.49999838172932287
2.555936574935913,0.853892392139249,[1.41364475],5.0,0.6,0.0,0.012539656263101395,3.0119705525243936,0.4999998829482562
2.565229654312134,0.8576049677572457,[1.41570043],5.0,0.6,0.0,-0.01308212560508819,2.9701870613690087,0.49999987260181256
2.574160575866699,0.8613175433752424,[1.41776997],5.0,0.6,0.0,-0.0309533868080185,2.967331944085597,0.49999928678131
2.5841827392578125,0.8652255177099757,[1.41984911],5.0,0.6,0.0,-0.042562000086479077,2.9603077566669014,0.49999865150249817
2.5957107543945312,0.869915086911656,[1.42194019],5.0,0.6,0.0,-0.0494376602093118,2.9736938985066836,0.4999981806271831
2.603182554244995,0.8730414663794427,[1.42404091],5.0,0.6,0.0,-0.05288968207025238,2.9687506263647863,0.4999979176789767
2.6153714656829834,0.8777310355811228,[1.42614182],5.0,0.6,0.0,-0.05394873207232198,2.9689270122112905,0.4999978334524817
2.6252195835113525,0.8816390099158562,[1.42824034],5.0,0.6,0.0,-0.05338864085068399,2.9426556528720402,0.49999787820469727
2.6371610164642334,0.8865239778342728,[1.43033941],5.0,0.6,0.0,-0.051772939796821876,2.9365549282310495,0.49999800468503036
2.6453700065612793,0.8898457560187963,[1.43243742],5.0,0.6,0.0,-0.049503040299742146,2.8877773221489766,0.49999817581185824
2.657374858856201,0.8945353252204764,[1.43452665],5.0,0.6,0.0,-0.04685973332471797,2.865547164058399,0.4999983654222201
2.667407751083374,0.8986386982719464,[1.43659984],5.0,0.6,0.0,-0.04403610066718033,2.8473331352924305,0.4999985564768266
2.6777894496917725,0.9029374700401532,[1.43865561],5.0,0.6,0.0,-0.041162460136849266,2.851604517859273,0.49999873872794404
2.689268112182617,0.9074316405250966,[1.44069481],5.0,0.6,0.0,-0.03832475925051619,2.826426088712837,0.4999989066352422
2.698669910430908,0.9111442161430933,[1.44271536],5.0,0.6,0.0,-0.03557789698699085,2.807654644634731,0.49999905774855363
2.7062509059906006,0.9138797981774068,[1.4447129],5.0,0.6,0.0,-0.03295525382618224,2.7957987049184725,0.4999991915453818
2.714168071746826,0.9172015763619301,[1.44668141],5.0,0.6,0.0,-0.030475448371211102,2.759917303082946,0.49999930863628456
2.72320818901062,0.9205233545464535,[1.44861365],5.0,0.6,0.0,-0.02814709431338969,2.754513339060678,0.49999941024238687
2.734199047088623,0.9252129237481336,[1.45050601],5.0,0.6,0.0,-0.02597212974475583,2.7411480195725275,0.4999994978637386
2.74318528175354,0.9289254993661303,[1.45235798],5.0,0.6,0.0,-0.023948134302677115,2.731541556842962,0.4999995730766978
2.752958059310913,0.9328334737008638,[1.45416943],5.0,0.6,0.0,-0.02206993244170533,2.720494817032331,0.49999963741609216
2.761202812194824,0.9361552518853872,[1.45593841],5.0,0.6,0.0,-0.020330695278220727,2.6898738725353555,0.4999996923116847
2.7691850662231445,0.9394770300699106,[1.45766158],5.0,0.6,0.0,-0.01872269146501048,2.687714322177993,0.4999997390585189
2.7774531841278076,0.9427988082544339,[1.45933878],5.0,0.6,0.0,-0.017237793217471757,2.683642136079407,0.4999997788077468
2.788174867630005,0.9469021813059041,[1.46097259],5.0,0.6,0.0,-0.015867812110521944,2.674141416841258,0.49999981256931486
2.7981910705566406,0.9512009530741107,[1.46256576],5.0,0.6,0.0,-0.014604716987902576,2.6627008993625694,0.4999998412210603
2.806459426879883,0.9543273325418974,[1.46412115],5.0,0.6,0.0,-0.013440770621600514,2.656530228264397,0.4999998655208498
2.815190315246582,0.9580399081598941,[1.46564181],5.0,0.6,0.0,0.26366974896160567,2.6471952313508216,0.4999482506604684
2.8271920680999756,0.9627294773615743,[1.46713098],5.0,0.6,0.0,0.2977816697337401,2.6331050047276467,0.4999339954415782
2.8352601528167725,0.9656604581126244,[1.46858978],5.0,0.6,0.0,0.2435933967051689,2.6045039121739038,0.4999558309035755
2.8465936183929443,0.969959229880831,[1.47001992],5.0,0.6,0.0,0.16834511238766375,2.622686261995846,0.4999789040767304
2.855163097381592,0.9734764067820911,[1.47142814],5.0,0.6,0.0,0.09859253710692592,2.613184520011327,0.49999276411563365
2.863171100616455,0.9767981849666146,[1.47281842],5.0,0.6,0.0,0.042679458993990727,2.580528985634302,0.4999986440493058
2.871148109436035,0.9797291657176646,[1.47418753],5.0,0.6,0.0,0.0013340303026379806,2.5561927482082067,0.49999999867523737
2.883694648742676,0.9850049310695548,[1.47553572],5.0,0.6,0.0,-0.027480992187209986,2.576098964313033,0.49999943782536255
2.8942131996154785,0.9893037028377615,[1.47687355],5.0,0.6,0.0,-0.04645659770091905,2.5889188238555243,0.4999983934258352
2.9029955863952637,0.9928208797390216,[1.47821025],5.0,0.6,0.0,-0.058101066728245644,2.5486852689965254,0.4999974871081597
2.9124629497528076,0.9965334553570182,[1.47954619],5.0,0.6,0.0,-0.06447524789105935,2.540006757874699,0.49999690549369036
2.9201769828796387,0.9994644361080682,[1.48087914],5.0,0.6,0.0,-0.06716759896580604,2.5092730181456524,0.4999966416584349
2.929067373275757,1.0029816130093283,[1.48220712],5.0,0.6,0.0,-0.06735684286050016,2.5065132011023366,0.49999662270766637
2.9384968280792236,1.0068895873440618,[1.48353078],5.0,0.6,0.0,-0.06589584778877955,2.498793347090612,0.4999967676277389
2.9461817741394043,1.0100159668118485,[1.48485054],5.0,0.6,0.0,-0.06339031466011828,2.468648059371449,0.4999970087604709
2.9575533866882324,1.0147055360135286,[1.48616662],5.0,0.6,0.0,-0.06026380779561634,2.4848346735478164,0.49999729654814445
2.965169668197632,1.0176365167645787,[1.48748156],5.0,0.6,0.0,-0.05680821799893167,2.4523953788183803,0.49999759769599955
2.9753520488739014,1.0219352885327855,[1.48879755],5.0,0.6,0.0,-0.053221526943390426,2.4682229212141986,0.4999978914669121
2.9831504821777344,1.0248662692838355,[1.49011413],5.0,0.6,0.0,-0.049635434259839434,2.4603899251146344,0.4999981660413874
2.996492624282837,1.0301420346357255,[1.49143108],5.0,0.6,0.0,-0.04613526665067934,2.4847465028614164,0.4999984155736463
3.004141330718994,1.0330730153867755,[1.4927532],5.0,0.6,0.0,-0.042774175561482004,2.4402397742587136,0.49999863802423733
3.0141515731811523,1.0371763884382457,[1.4940822],5.0,0.6,0.0,-0.03958318431194236,2.4234936782892955,0.4999988336534047
3.023712158203125,1.0414751602064523,[1.49541728],5.0,0.6,0.0,-0.03657825533647507,2.407454619089099,0.49999900401633146
3.0355124473571777,1.0465555268416058,[1.49676292],5.0,0.6,0.0,-0.03376523585449684,2.413024799715989,0.49999915131625894
3.0431578159332275,1.0490957101591825,[1.49812305],5.0,0.6,0.0,-0.03114330210077065,2.3756817660737912,0.49999927800252464
3.0511527061462402,1.0522220896269692,[1.49949326],5.0,0.6,0.0,-0.3047457054181369,2.34378139937656,0.4999308723425485
3.0592803955078125,1.0555438678114926,[1.50086727],5.0,0.6,0.0,-0.3356125804984711,2.3441957736020305,0.49991616087712454
3.069716691970825,1.0596472408629627,[1.50224762],5.0,0.6,0.0,-0.27842655825522583,2.363640161704728,0.49994229639694654
3.079185724258423,1.0633598164809595,[1.50363912],5.0,0.6,0.0,-0.2004117286008853,2.3243514350236194,0.4999701021500147
3.0891427993774414,1.0670723920989562,[1.50504047],5.0,0.6,0.0,-0.12810789985137608,2.318801343763608,0.4999877833201514
3.098146915435791,1.0707849677169528,[1.50645057],5.0,0.6,0.0,-0.06984344605742275,2.3120130177348712,0.4999963687477677
3.108138084411621,1.074888340768423,[1.50787111],5.0,0.6,0.0,-0.026331795867267235,2.302293725414147,0.4999994838601272
3.1163954734802246,1.0786009163864199,[1.50930357],5.0,0.6,0.0,0.004478219576716437,2.293905759936068,0.4999999850714566
3.1242311000823975,1.0817272958542066,[1.51074919],5.0,0.6,0.0,0.025290667063175197,2.2880386069620244,0.4999995238683655
3.134174346923828,1.08563527018894,[1.51220632],5.0,0.6,0.0,0.03862604464017907,2.251027593669706,0.4999988893769846
3.1421680450439453,1.0887616496567265,[1.51366802],5.0,0.6,0.0,0.046556571430935535,2.224601465472918,0.4999983865037713
3.153019905090332,1.0930604214249333,[1.51513131],5.0,0.6,0.0,0.050681257321178785,2.25394387101333,0.4999980879440079
3.1631317138671875,1.0973591931931401,[1.51659934],5.0,0.6,0.0,0.052188597034356396,2.2158388702853826,0.49999797251785266
3.171165704727173,1.1004855726609268,[1.51807206],5.0,0.6,0.0,0.05194049356864951,2.2183612694506176,0.49999799174920534
3.1811769008636475,1.104588945712397,[1.51954959],5.0,0.6,0.0,0.05055099113505229,2.213478456119775,0.4999980977604845
3.192559242248535,1.109278514914077,[1.52103786],5.0,0.6,0.0,-0.2275870078761925,2.2308919049887073,0.49996144463111664
3.2025415897369385,1.1131864892488104,[1.52254489],5.0,0.6,0.0,-0.26322239920012247,2.2159646187225004,0.49994842610132695
3.210240602493286,1.116312868716597,[1.52407452],5.0,0.6,0.0,-0.21084255770671573,2.2061153016461934,0.49996690907893787
3.2181761264801025,1.119243849467647,[1.52562407],5.0,0.6,0.0,-0.13754387043738656,2.170281544717031,0.49998591739359693
3.2270004749298096,1.1225656276521707,[1.5271882],5.0,0.6,0.0,-0.0697855389641808,2.1694786320518697,0.4999963747665869
3.2351396083831787,1.1260828045534306,[1.52876235],5.0,0.6,0.0,-0.2918862182484223,2.1369316550394255,0.4999365829097335
3.2444725036621094,1.1297953801714273,[1.5303426],5.0,0.6,0.0,-0.2855813756347717,2.139712243808409,0.49993929281827343
3.254601001739502,1.1338987532228972,[1.53192872],5.0,0.6,0.0,0.07253746111965034,2.136675741776163,0.49999608321553174
3.2630701065063477,1.1372205314074209,[1.5335235],5.0,0.6,0.0,0.19898901579203476,2.1345935470085773,0.49997052511754
3.2721831798553467,1.140737708308681,[1.53512918],5.0,0.6,0.0,-0.0516083176221106,2.1295020159857616,0.49999801735384997
3.2801365852355957,1.1438640877764674,[1.53674443],5.0,0.6,0.0,-0.09934424016110914,2.09595257554275,0.4999926533581709
3.291236639022827,1.1485536569781476,[1.53836482],5.0,0.6,0.0,-0.07149683223410075,2.090650829911244,0.4999961947901177
3.299165964126587,1.152070833879408,[1.53998934],5.0,0.6,0.0,0.2522937222624623,2.087317648009054,0.4999526195713778
3.307593822479248,1.155392612063931,[1.54161976],5.0,0.6,0.0,0.3307918802541227,2.0821877666821984,0.49991855189558443
3.315277576446533,1.1585189915317178,[1.54325429],5.0,0.6,0.0,0.03538337431105626,2.048880176667747,0.49999906802406296
3.324152946472168,1.1620361684329779,[1.54488812],5.0,0.6,0.0,-0.048681702102819246,2.0477366179085665,0.49999823584243075
3.333111047744751,1.1655533453342382,[1.54651692],5.0,0.6,0.0,-0.04813764926439168,2.016127768780911,0.49999827505353717
3.343139410018921,1.1694613196689714,[1.54813674],5.0,0.6,0.0,-0.019875175054894438,2.0149153381034703,0.4999997059454155
3.352200508117676,1.1729784965702312,[1.54974656],5.0,0.6,0.0,0.012181262836971556,2.011041669193575,0.49999988954397334
3.3611226081848145,1.1763002747547546,[1.55134775],5.0,0.6,0.0,0.03922245868106206,2.0046452704918467,0.49999885481519585
3.3695759773254395,1.1800128503727516,[1.5529409],5.0,0.6,0.0,0.05904024987118557,1.993970977686575,0.4999974052125849
3.3783833980560303,1.183334628557275,[1.55452596],5.0,0.6,0.0,0.07205824143812745,1.9836642978214658,0.4999961347980157
3.389186143875122,1.1878287990422185,[1.55610239],5.0,0.6,0.0,0.35558693991017126,1.9666636112734426,0.499905885314692
3.398266315460205,1.191736773376952,[1.55766939],5.0,0.6,0.0,0.3920442303383812,1.9523781146702206,0.4998855997135519
3.4091405868530273,1.1960355451451585,[1.55922605],5.0,0.6,0.0,0.3373131114309995,1.9364833704183266,0.49991530918360166
3.4184303283691406,1.199943519479892,[1.56077156],5.0,0.6,0.0,0.2595704799728278,1.9228815238167722,0.4999498471691989
3.427110195159912,1.2032652976644154,[1.56230309],5.0,0.6,0.0,0.18607439569063708,1.890092423059664,0.4999742267842508
3.436221122741699,1.2071732719991486,[1.56381612],5.0,0.6,0.0,0.12567706286447083,1.88353479451416,0.49998824254613566
3.4445345401763916,1.2101042527501988,[1.56530925],5.0,0.6,0.0,0.07946489648973906,1.8803073625025588,0.49999529938954024
3.452883720397949,1.2138168283681954,[1.56678368],5.0,0.6,0.0,0.04564708656567808,1.871475002543414,0.499998448942476
3.46114182472229,1.217138606552719,[1.56823842],5.0,0.6,0.0,0.02169787826557643,1.8413489426522107,0.4999996495575244
3.4711129665374756,1.2210465808874524,[1.56967061],5.0,0.6,0.0,0.005216334726152157,1.8363079990776596,0.49999997977250293
3.480113983154297,1.2245637577887123,[1.57108021],5.0,0.6,0.0,-0.005791723504583852,1.8307908742474264,0.4999999750669829
3.4881396293640137,1.2276901372564992,[1.57246952],5.0,0.6,0.0,-0.012876287719980754,1.8252482965694667,0.49999987662660844
3.497023820877075,1.230816516724286,[1.57384064],5.0,0.6,0.0,-0.01719690420885332,1.8183477728739097,0.4999997799160772
3.507195472717285,1.2351152884924925,[1.57519541],5.0,0.6,0.0,-0.019600249546366355,1.8045291047506604,0.49999971411391936
3.515453815460205,1.2386324653937526,[1.57653546],5.0,0.6,0.0,-0.02069439496452436,1.7936738490851947,0.4999996813255757
3.5231974124908447,1.2417588448615395,[1.57785807],5.0,0.6,0.0,-0.020910757639632408,1.7846366368950701,0.49999967465792483
3.531458616256714,1.2452760217627994,[1.579159],5.0,0.6,0.0,-0.020552436271492273,1.7934725085430385,0.49999968577091775
3.5404651165008545,1.2491839960975328,[1.58044091],5.0,0.6,0.0,-0.019830518466131597,1.7737719447119862,0.49999970755933276
3.548776865005493,1.2525057742820562,[1.58170627],5.0,0.6,0.0,-0.01889072076937423,1.7379707880737143,0.49999973474002213
3.5561530590057373,1.2552413563163693,[1.58295326],5.0,0.6,0.0,-0.017832638660788495,1.7329610455685593,0.4999997637481091
3.564457416534424,1.2587585332176296,[1.5841806],5.0,0.6,0.0,-0.016723512908292517,1.7026617286390755,0.49999979244257575
3.573754072189331,1.2622757101188897,[1.58538749],5.0,0.6,0.0,-0.015608002840548824,1.6989099153127183,0.4999998195115258
3.583164930343628,1.2661836844536232,[1.58657562],5.0,0.6,0.0,-0.014515087901993474,1.691214971090966,0.49999984437689593
3.59244704246521,1.2700916587883566,[1.58774879],5.0,0.6,0.0,0.26257543830009805,1.681979719418121,0.499948681018014
3.6008777618408203,1.2736088356896167,[1.58890848],5.0,0.6,0.0,0.29670073041230666,1.652098711167941,0.49993447604750474
3.6113595962524414,1.2775168100243501,[1.59005634],5.0,0.6,0.0,0.24254700288140224,1.6692761304928405,0.4999562128200613
3.6191346645355225,1.2806431894921368,[1.59119613],5.0,0.6,0.0,0.16734607522165715,1.6383474992831328,0.4999791579124901
3.62894606590271,1.28455116382687,[1.59232917],5.0,0.6,0.0,0.09764797247314697,1.6316283613196558,0.499992908013967
3.6401216983795166,1.2888499355950767,[1.59345684],5.0,0.6,0.0,0.041792643198523646,1.6213202742182313,0.4999987085380872
3.649618625640869,1.2925625112130739,[1.59458262],5.0,0.6,0.0,0.0005056878263846841,1.6125159779480378,0.5000000117513411
3.6579484939575195,1.296079688114334,[1.59570958],5.0,0.6,0.0,-0.02825179788248445,1.603574928164861,0.4999994217677808
3.668168783187866,1.3001830611658038,[1.59684036],5.0,0.6,0.0,-0.04717185050036915,1.5908811037099453,0.4999983662702129
3.6781599521636963,1.3044818329340107,[1.59797715],5.0,0.6,0.0,-0.05876337745969091,1.5764507240996923,0.4999974624537482
3.6876473426818848,1.3081944085520072,[1.59912168],5.0,0.6,0.0,-0.06508756850505137,1.5642515878068852,0.49999689093963967
3.696176290512085,1.3115161867365306,[1.60027305],5.0,0.6,0.0,-0.06773303026550717,1.531515858792738,0.4999966421128564
3.708258628845215,1.3162057559382108,[1.60143027],5.0,0.6,0.0,-0.06787850709847107,1.5415763883988136,0.49999665604758153
3.718118906021118,1.3201137302729442,[1.60259649],5.0,0.6,0.0,-0.06637680610141437,1.5253584019996904,0.4999968374807029
3.7271602153778076,1.3238263058909407,[1.60377199],5.0,0.6,0.0,-0.06383351535928489,1.4889797722610973,0.49999712270808205
3.7356719970703125,1.3271480840754641,[1.60495249],5.0,0.6,0.0,-0.06067205577594179,1.4821467779345439,0.4999974577842527
3.7441904544830322,1.3304698622599875,[1.60613617],5.0,0.6,0.0,-0.05718415847725514,1.4737937366416416,0.49999781665244325
3.7521674633026123,1.3337916404445112,[1.60732129],5.0,0.6,0.0,-0.05356763881932454,1.4435385470262079,0.49999818116560774
3.763127326965332,1.3382858109294544,[1.60850421],5.0,0.6,0.0,-0.04995402983079236,1.4334265283504437,0.4999985971367432
3.7720885276794434,1.3419983865474514,[1.60968367],5.0,0.6,0.0,-0.046428495427634796,1.4250465158118675,0.4999989925279596
3.783090829849243,1.346297158315658,[1.61086052],5.0,0.6,0.0,0.23299432904613035,1.4120529669948287,0.4999604234044002
3.7938404083251953,1.350986727517338,[1.61203742],5.0,0.6,0.0,-0.006706907033204049,1.416762845394808,0.5000011709591194
3.802879810333252,1.354699303135335,[1.61321863],5.0,0.6,0.0,-0.09190401319249811,1.4004504371611572,0.49999527941648975
3.813122034072876,1.3589980749035415,[1.61440597],5.0,0.6,0.0,0.1659778684896165,1.382711915367908,0.49998165051985305
3.8220911026000977,1.362319853088065,[1.61559716],5.0,0.6,0.0,0.20730353263663437,1.3499478534008162,0.49997069009712686
3.8302831649780273,1.3654462325558518,[1.61678838],5.0,0.6,0.0,0.16855857615768816,1.3461805705365493,0.49998210796514536
3.8385610580444336,1.3685726120236386,[1.61797864],5.0,0.6,0.0,0.10936971865430895,1.3415490521852724,0.49999505018852125
3.8470969200134277,1.371894390208162,[1.6191673],5.0,0.6,0.0,0.053531371322882666,1.3129572205400306,0.500002754595653
3.855152130126953,1.375411567109422,[1.6203519],5.0,0.6,0.0,0.008738797803988344,1.3110180670988276,0.5000060925694146
3.8654932975769043,1.3793195414441553,[1.6215327],5.0,0.6,0.0,-0.024091313152425367,1.3046524208824157,0.5000075889900649
3.874662160873413,1.3826413196286786,[1.6227122],5.0,0.6,0.0,-0.04654269432414255,1.2990294912609517,0.5000082496264099
3.8832271099090576,1.386158496529939,[1.62389038],5.0,0.6,0.0,-0.06082784975067487,1.2685535060011401,0.5000095779953148
3.8921306133270264,1.3900664708646722,[1.62506511],5.0,0.6,0.0,-0.06903936675921166,1.2638981483673988,0.500012420709299
3.901093006134033,1.393779046482669,[1.62623676],5.0,0.6,0.0,-0.07290651156441473,1.2577179343007,0.5000162940241385
3.9092206954956055,1.3969054259504556,[1.62740791],5.0,0.6,0.0,-0.07376513286836284,1.252761022079517,0.5000202192864023
3.917084217071533,1.4000318054182421,[1.62857863],5.0,0.6,0.0,-0.07260668996275967,1.2241834927651607,0.5000251188106711
3.9271161556243896,1.4039397797529758,[1.62974701],5.0,0.6,0.0,-0.07014757625424906,1.2205060329953688,0.5000335899517234
3.935147285461426,1.407261557937499,[1.63091389],5.0,0.6,0.0,-0.06689510723668837,1.2178723587393465,0.500041884247879
3.946080207824707,1.4117557284224425,[1.63208494],5.0,0.6,0.0,-0.06320240563609647,1.2317342472254458,0.5000577613796242
3.956237316131592,1.4158591014739124,[1.63326772],5.0,0.6,0.0,-0.05931113358033113,1.2165191632333767,0.5000758115321616
3.9651098251342773,1.4195716770919091,[1.63446419],5.0,0.6,0.0,-0.05538352992556474,1.179528706765296,0.5000952068934691
3.9761130809783936,1.423870448860116,[1.63567387],5.0,0.6,0.0,-0.05152586983124885,1.1967257274905787,0.5001249203158773
3.985008955001831,1.4273876257613762,[1.6368989],5.0,0.6,0.0,-0.047805376543366335,1.1597005318595601,0.500152231525095
3.9965872764587402,1.4318817962463195,[1.63814119],5.0,0.6,0.0,-0.044262280173286025,1.1757609451301156,0.5002002701055547
4.005091667175293,1.4353989731475796,[1.6394024],5.0,0.6,0.0,-0.04091834655895389,1.1376369956476566,0.5002415032757294
4.014132261276245,1.4389161500488394,[1.64068125],5.0,0.6,0.0,-0.037782870580068253,1.1327247514298262,0.5002900410064152
4.022156000137329,1.4424333269500995,[1.64197394],5.0,0.6,0.0,-0.034856863948723935,1.1002152915767787,0.500347101413182
4.033610105514526,1.4473182948685164,[1.64327969],5.0,0.6,0.0,-0.032135965339918596,1.1189795073863893,0.5004611259056443
4.0430779457092285,1.4508354717697765,[1.64460283],5.0,0.6,0.0,-0.029612450665941488,1.1079513930057694,0.5005473897515422
4.051430940628052,1.4541572499542998,[1.64594668],5.0,0.6,0.0,-0.027276611999100038,1.0973416131901654,0.5006377877409166
4.060105085372925,1.4574790281388232,[1.64730849],5.0,0.6,0.0,-0.02511769500922697,1.0615350425018155,0.5007408749356627
4.071093797683716,1.4619731986237665,[1.64868545],5.0,0.6,0.0,-0.023124528687296215,1.0763152989137972,0.5009371029176417
4.080587387084961,1.4658811729585002,[1.65007964],5.0,0.6,0.0,-0.02128594133739216,1.0596182362269089,0.5011293490466207
4.088353633880615,1.4690075524262869,[1.65148987],5.0,0.6,0.0,-0.019591028716823847,1.0235315201436221,0.5012809133223917
4.096641540527344,1.4723293306108103,[1.65290965],5.0,0.6,0.0,-0.018029320412490998,1.0173039088615976,0.501470703368612
4.107097864151001,1.4764327036622804,[1.65433314],5.0,0.6,0.0,-0.01659087663085932,0.9822188606601466,0.5017823402360198
4.119146347045898,1.4811222728639604,[1.65575734],5.0,0.6,0.0,-0.015266337824500438,0.9956110217935823,0.5022438585581545
4.127526760101318,1.4844440510484838,[1.65718381],5.0,0.6,0.0,-0.014046942739383669,0.9833922351526302,0.5025597077355032
4.135252237319946,1.487375031799534,[1.65861349],5.0,0.6,0.0,-0.012924525685949647,0.9727680775725744,0.5028382558142774
4.143656492233276,1.4908922087007939,[1.66004238],5.0,0.6,0.0,-0.011891500490511988,0.9380140173923285,0.5032718863774515
4.1510937213897705,1.4938231894518441,[1.66146268],5.0,0.6,0.0,-0.010940836254646119,0.9125557257745873,0.5036223781523599
4.161508560180664,1.4983173599367874,[1.66286975],5.0,0.6,0.0,-0.010066028417504484,0.9270024176089338,0.5044470494499321
4.173108816146851,1.5030069291384676,[1.66426582],5.0,0.6,0.0,-0.2852994271674554,0.909925474438844,0.5054510914064472
4.182424783706665,1.506914903473201,[1.66565272],5.0,0.6,0.0,-0.31768336987137,0.896140710342633,0.5064016123125891
4.191125869750977,1.5102366816577244,[1.66702787],5.0,0.6,0.0,-0.2619046381761642,0.8647238585132226,0.5072722342548026
4.204094409942627,1.5155124470096146,[1.668391],5.0,0.6,0.0,-0.1851926286885034,0.8897212359414096,0.5093058661557865
4.215373754501343,1.5198112187778212,[1.66974783],5.0,0.6,0.0,-0.11409307400999556,0.8668803932227711,0.511141629317788
4.224209308624268,1.5231329969623446,[1.67109929],5.0,0.6,0.0,-0.33297888795954134,0.8310281804177442,0.512457809818015
4.233095645904541,1.5270409712970778,[1.67244037],5.0,0.6,0.0,-0.323617579622739,0.8196445381501297,0.5145006990167843
4.243188381195068,1.5311443443485482,[1.67376889],5.0,0.6,0.0,-0.23865593553823883,0.8069330317272203,0.5170631575865753
4.251072645187378,1.5342707238163347,[1.67508316],5.0,0.6,0.0,-0.14262982449253944,0.7783922625928763,0.5189409737641985
4.2590696811676025,1.537201704567385,[1.67638002],5.0,0.6,0.0,-0.05957435829013319,0.7766929770911556,0.5207699569979566
4.268825054168701,1.5409142801853815,[1.67765894],5.0,0.6,0.0,0.004238913993813889,0.7693908409456046,0.5237583580516472
4.278481483459473,1.544822254520115,[1.67892171],5.0,0.6,0.0,0.04968081113405481,0.7597426261461718,0.52741678485603
4.286120176315308,1.5479486339879014,[1.68016816],5.0,0.6,0.0,0.07997699528786786,0.7325222947958864,0.5303015056549283
4.297590017318726,1.553029000623055,[1.68139853],5.0,0.6,0.0,0.09868026092731552,0.7427337777340972,0.5370331050456651
4.30755615234375,1.557132373674525,[1.68261746],5.0,0.6,0.0,0.10891282320248805,0.7296008120113265,0.5428732367884913
4.316208124160767,1.5604541518590485,[1.68382727],5.0,0.6,0.0,0.1131666782836681,0.6988605460965839,0.5476255631487533
4.327131748199463,1.564948322343992,[1.68502633],5.0,0.6,0.0,0.11332915704352761,0.6910596015157475,0.555915340700924
4.336076021194458,1.568465499245252,[1.68621594],5.0,0.6,0.0,0.11078339177909624,0.6871985906031216,0.5624630793529934
4.345093011856079,1.5719826761465123,[1.68740003],5.0,0.6,0.0,0.10651986663769605,0.6825769253822803,0.5696443052259551
4.3533244132995605,1.5753044543310357,[1.68858258],5.0,0.6,0.0,0.10123505419308557,0.6782452773914077,0.5768049427518336
4.364075422286987,1.5796032260992423,[1.68976758],5.0,0.6,0.0,0.09541068095109029,0.6684244135258735,0.5882736483084001
4.373692989349365,1.5835112004339755,[1.69095884],5.0,0.6,0.0,0.08937427187680985,0.6599112451762268,0.5993547046259786
4.383409023284912,1.587419174768709,[1.69216001],5.0,0.6,0.0,0.08334401372619853,0.651209943782024,0.6114504673932148
4.391412734985352,1.5907409529532324,[1.69337454],5.0,0.6,0.0,0.07746135705690693,0.6452834300606695,0.6216305164167719
4.402849912643433,1.5948443260047027,[1.69460571],5.0,0.6,0.0,0.07181439654701303,0.6357033507474746,0.6366277997392437
4.41106390953064,1.5983615029059628,[1.69585387],5.0,0.6,0.0,0.06645447993883741,0.6014569176491179,0.6494229597616005
4.420624494552612,1.6022694772406958,[1.69711972],5.0,0.6,0.0,0.06140792186325242,0.6285626713798868,0.6654095320130503
4.431199073791504,1.606372850292166,[1.69840989],5.0,0.6,0.0,0.056684216207220375,0.6173756593557097,0.6837504920964862
4.439083814620972,1.6094992297599529,[1.69972726],5.0,0.6,0.0,0.05228176251038053,0.582423603684366,0.6962767206949058
4.449524879455566,1.6137980015281594,[1.70106863],5.0,0.6,0.0,0.04819183699669888,0.5795944214518235,0.7180042768600745
4.458066463470459,1.617510577146156,[1.70243459],5.0,0.6,0.0,0.04440132936167658,0.5779386662810865,0.7363541926143589
4.468283176422119,1.6214185514808896,[1.70382896],5.0,0.6,0.0,0.31693297446053326,0.5739555847605385,0.7570239486187815
4.477989912033081,1.6255219245323598,[1.70525537],5.0,0.6,0.0,0.34681778479874326,0.5682061091596012,0.7803255284231425
4.486096620559692,1.62845290528341,[1.70671373],5.0,0.6,0.0,0.012692027283420504,0.5357239801841908,0.7937719194061155
4.496408939361572,1.6327516770516164,[1.70820426],5.0,0.6,0.0,-0.09927518380153973,0.5689159658325676,0.8202538024032131
4.506113290786743,1.6364642526696132,[1.70973075],5.0,0.6,0.0,-0.11724227062412235,0.5292346891230921,0.8417670857896244
4.516312599182129,1.6405676257210835,[1.71129651],5.0,0.6,0.0,0.1759176959883305,0.5602977444873598,0.8676669498521423
4.52607536315918,1.6444756000558167,[1.71290444],5.0,0.6,0.0,-0.040627551558884006,0.5176676171523404,0.8919957438266731
4.537971019744873,1.6493605679742336,[1.71455682],5.0,0.6,0.0,-0.10362839073406764,0.5429234038542285,0.9273598082034499
4.547158479690552,1.6526823461587568,[1.7162554],5.0,0.6,0.0,-0.10397423028136032,0.501971676105599,0.9456039557714695
4.555077314376831,1.6560041243432801,[1.71799745],5.0,0.6,0.0,0.1932066000075363,0.5022288460237613,0.9636179612751077
4.564121961593628,1.6595213012445402,[1.71978018],5.0,0.6,0.0,0.25136982135005526,0.49911895981318916,0.9836838241662708
4.573620796203613,1.663429275579274,[1.72160445],5.0,0.6,0.0,-0.057536436978151695,0.4927907125109714,1.0082026885182052
4.583085298538208,1.6673372499140071,[1.72347035],5.0,0.6,0.0,-0.1492180817554789,0.4850908287289517,1.0324767653487068
4.594061851501465,1.671636021682214,[1.72537733],5.0,0.6,0.0,0.12429508819798157,0.47432298263313316,1.061217796071999
4.602989196777344,1.6751531985834738,[1.7273242],5.0,0.6,0.0,0.18590358546651597,0.46662000793997227,1.080185755991608
4.611066818237305,1.6784749767679974,[1.72930547],5.0,0.6,0.0,0.16534232062382115,0.4281861534652341,1.0964368035803393
4.621933698654175,1.682773748536204,[1.73131585],5.0,0.6,0.0,0.1202449248540566,0.4560587807313556,1.1242000100926726
4.631070852279663,1.686486324154201,[1.73335396],5.0,0.6,0.0,0.07437246102367563,0.41404971329822715,1.144473586314409
4.63975977897644,1.690003501055461,[1.73541444],5.0,0.6,0.0,0.03607372387331442,0.41279640403451023,1.1620380651120972
4.64943790435791,1.6939114753901945,[1.73749221],5.0,0.6,0.0,0.007057602086018352,0.4073764007041919,1.1839597970186695
4.658049583435059,1.6972332535747179,[1.73958603],5.0,0.6,0.0,-0.01354114563978672,0.4031529772593051,1.1985477135183769
4.667050361633301,1.7009458291927144,[1.7416909],5.0,0.6,0.0,-0.027353243102277797,0.3649623942168547,1.21746364883351
4.675159931182861,1.7042676073772378,[1.7437987],5.0,0.6,0.0,-0.03602750174482799,0.36816010247934905,1.2315843207124864
4.683411359786987,1.707589385561761,[1.74590572],5.0,0.6,0.0,-0.040966937124351295,0.36793284477890775,1.245552322742287
4.692195892333984,1.710715765029548,[1.74801197],5.0,0.6,0.0,-0.04327366344554837,0.3660175745366688,1.2571429547309192
4.700139999389648,1.7138421444973346,[1.75011378],5.0,0.6,0.0,-0.04377509548767696,0.3319969985264558,1.2686433324198367
4.7097413539886475,1.7175547201153312,[1.75220446],5.0,0.6,0.0,-0.04307464953798901,0.33320942315993163,1.2865314083399846
4.71942663192749,1.7214626944500648,[1.75428139],5.0,0.6,0.0,-0.04160338781097092,0.3295793856068273,1.3062068244595144
4.730335712432861,1.7259568649350083,[1.75634847],5.0,0.6,0.0,-0.03966422247813427,0.3470805604068985,1.3313275518806207
4.7390663623809814,1.729669440553005,[1.75840856],5.0,0.6,0.0,-0.03746686292756886,0.30380930563961717,1.347733734385328
4.748634576797485,1.7335774148877383,[1.76045739],5.0,0.6,0.0,-0.035154260798524586,0.2953737874821833,1.3654483138513884
4.756043195724487,1.7365083956387886,[1.76248794],5.0,0.6,0.0,-0.0328220938340663,0.26278265156355085,1.3737262097980163
4.767542123794556,1.7411979648404683,[1.76449693],5.0,0.6,0.0,-0.03053287358979303,0.2823440739983161,1.3971168794112405
4.7763831615448,1.7445197430249917,[1.76648693],5.0,0.6,0.0,0.24771232012579616,0.27055252964098303,1.4079538035817551
4.785046339035034,1.7480369199262518,[1.76845709],5.0,0.6,0.0,0.2829378429730644,0.2321795222109587,1.4199265893549657
4.794569253921509,1.7519448942609854,[1.77040085],5.0,0.6,0.0,-0.046215431334514334,0.22511974601914478,1.4341425798264664
4.802824020385742,1.7554620711622455,[1.77231513],5.0,0.6,0.0,-0.15356661135290978,0.21737071208008643,1.4447605879220067
4.811353921890259,1.7587838493467687,[1.77419964],5.0,0.6,0.0,-0.1672579934704115,0.20837543673658274,1.453561717388016
4.821044206619263,1.7624964249647657,[1.77605143],5.0,0.6,0.0,-0.1461824621399085,0.1729549397541807,1.4639034809684888
4.831068515777588,1.7664043992994989,[1.77786544],5.0,0.6,0.0,-0.11616214608627795,0.16556478961984564,1.4740609272708172
4.840047359466553,1.7697261774840223,[1.77964153],5.0,0.6,0.0,-0.08757152364890484,0.17814665233431895,1.4805235036518603
4.851635694503784,1.7744157466857025,[1.78138346],5.0,0.6,0.0,-0.06382262253529065,0.15461314211361843,1.4903341587868217
4.859333753585815,1.7775421261534892,[1.78308996],5.0,0.6,0.0,-0.0453791754291167,0.12012877050826556,1.4938616853487
4.867040634155273,1.7806685056212759,[1.7847558],5.0,0.6,0.0,-0.03160378935836548,0.11168059797905748,1.4966636305158239
4.8762054443359375,1.7843810812392726,[1.78637853],5.0,0.6,0.0,-0.0215695968221161,0.09957424792385429,1.499202008186137
4.885056257247925,1.7878982581405327,[1.78795638],5.0,0.6,0.0,-0.014387730024044925,0.06951203980236016,1.4999991701585673
4.8931872844696045,1.7910246376083194,[1.78948642],5.0,0.6,0.0,-0.009316214044992135,0.06523118385999561,1.4995268229914487
4.902591943740845,1.7947372132263162,[1.79096837],5.0,0.6,0.0,-0.005776024497103421,0.05661167517316931,1.4971631732936308
4.911054372787476,1.797863592694103,[1.7924026],5.0,0.6,0.0,-0.2793706054589329,0.03176461682725573,1.4939951768206003
4.920091152191162,1.8009899721618894,[1.79379004],5.0,0.6,0.0,-0.5868671648766867,0.04842932399172185,1.489429447276588
4.931380987167358,1.8047025477798866,[1.79513565],5.0,0.6,0.0,-1.1158517687678748,0.03726887929818108,1.4809353851587082
4.943058967590332,1.8090013195480932,[1.79644433],5.0,0.6,0.0,-1.6022582270150316,0.02345065781734397,1.4670490463441515
4.953916549682617,1.81271389516609,[1.79771919],5.0,0.6,0.0,-1.9633101965737034,0.012666894963727658,1.4531666988342984
4.9635467529296875,1.8160356733506133,[1.79896347],5.0,0.6,0.0,-2.1918384241996507,0.00383760785866225,1.4398109361435298
4.971615314483643,1.8185758566681898,[1.80018041],5.0,0.6,0.0,-2.5840099422626377,-0.001311817578044581,1.429615045907779
4.980513334274292,1.82150683741924,[1.80137312],5.0,0.6,0.0,-2.6473155324285083,-0.009029222136050159,1.4169362217009618
4.988068342208862,1.8234608245866066,[1.80254268],5.0,0.6,0.0,-2.836968804969497,-0.0310708856537586,1.4102507576961243
4.997373580932617,1.82619640662092,[1.80368842],5.0,0.6,0.0,-2.997228283792884,-0.032542626678786615,1.3969993973675443
5.008086204528809,1.82912738737197,[1.80481186],5.0,0.6,0.0,-3.3576452803359764,-0.03677001451250234,1.3801526064067833
5.018113613128662,1.8312767732560733,[1.80591625],5.0,0.6,0.0,-3.949780384556224,-0.03839810525824662,1.3678187636505401
5.029043197631836,1.8336215578569135,[1.80700445],5.0,0.6,0.0,-4.180587325353411,-0.04232797333692479,1.355044434024613
5.037487506866455,1.8353801463075436,[1.80807888],5.0,0.6,0.0,-4.201026230872461,-0.044518772243339465,1.3485406573234244
5.0460522174835205,1.8371387347581736,[1.80913979],5.0,0.6,0.0,-4.651507641570367,-0.06470582825477042,1.339035490147685
5.056069850921631,1.8388973232088037,[1.81018563],5.0,0.6,0.0,-5.0,-0.06250793156769727,1.3297341232746294
5.065097808837891,1.8402651142259603,[1.81121825],5.0,0.6,0.0,-5.0,-0.04410725592979247,1.32645712853799
5.075244665145874,1.841632905243117,[1.81224064],5.0,0.6,0.0,-5.0,-0.06469283480259722,1.3230538925762758
5.084393262863159,1.8428052975435372,[1.81325191],5.0,0.6,0.0,-4.869690152687454,-0.06381932510930868,1.3223806287685784
5.093058824539185,1.8435868924104835,[1.81424954],5.0,0.6,0.0,-4.824989870180506,-0.07702416180042805,1.3248314773345788
5.101012945175171,1.8441730885606937,[1.81523124],5.0,0.6,0.0,-4.4824106830964325,-0.07078151211798035,1.331019532581743
5.110022783279419,1.8449546834276405,[1.81619742],5.0,0.6,0.0,-4.331253965766004,-0.055196969474810995,1.3337864117586922
5.119349956512451,1.8453454808611136,[1.81715049],5.0,0.6,0.0,-3.942441652721158,-0.05732240109387256,1.3415662975484552
5.127019166946411,1.8455408795778505,[1.81808842],5.0,0.6,0.0,-3.779707637180849,-0.05175965295762885,1.3495597159845634
5.139651536941528,1.8459316770113239,[1.81900663],5.0,0.6,0.0,-3.675333804743468,-0.044906033239993065,1.3550745748817596
5.1501171588897705,1.8459316770113239,[1.81990457],5.0,0.6,0.0,-3.565478973771415,-0.04219350763715947,1.3639205495426583
5.162602424621582,1.8459316770113239,[1.82078292],5.0,0.6,0.0,-3.4319459314705685,-0.049779857058042776,1.3724898611443495
5.171349763870239,1.8459316770113239,[1.82163971],5.0,0.6,0.0,-2.9989380723027974,-0.055232755958231565,1.3820281334187747
5.179043292999268,1.8457362782945872,[1.82247158],5.0,0.6,0.0,-2.2397451987993446,-0.06376275105345584,1.3936835696381986
5.19035530090332,1.8453454808611136,[1.82327552],5.0,0.6,0.0,-1.4928904542599082,-0.05625263436481825,1.4055216682901168
5.1990416049957275,1.8451500821443771,[1.82404964],5.0,0.6,0.0,-0.5979579435795849,-0.06160248109415222,1.4145376413604382
5.207007646560669,1.8449546834276405,[1.82479158],5.0,0.6,0.0,0.45783228577048235,-0.06413158521517172,1.4217517212864572
5.217641830444336,1.8443684872774304,[1.82549979],5.0,0.6,0.0,1.0832862098477642,-0.05051485204280849,1.4303976756753705
5.225484371185303,1.8441730885606937,[1.82617457],5.0,0.6,0.0,1.7143745232130512,-0.05181436206221464,1.4350818152705451
5.235020160675049,1.8435868924104835,[1.82681637],5.0,0.6,0.0,2.206797836111126,-0.04200926541347495,1.4416906298687828
5.245041608810425,1.8428052975435372,[1.82742661],5.0,0.6,0.0,2.2584906556960864,-0.029778737840716378,1.4500178300105526
5.25368595123291,1.8422191013933271,[1.82800824],5.0,0.6,0.0,2.6834214522020776,-0.017677332371655724,1.455083464960323
5.261048078536987,1.841632905243117,[1.82856402],5.0,0.6,0.0,2.839558608835432,-0.0157183420730091,1.460451379997626
5.269128084182739,1.8412421078096437,[1.82909645],5.0,0.6,0.0,2.845403450363419,-0.001218274191959015,1.4649368606137654
5.281736850738525,1.8402651142259603,[1.82961099],5.0,0.6,0.0,2.7675988051327893,0.02974483302235334,1.4718842481203407
5.290037631988525,1.8396789180757502,[1.83011434],5.0,0.6,0.0,2.9204690817768064,0.027289871722175254,1.4755611675837725
5.299038648605347,1.8392881206422769,[1.83061078],5.0,0.6,0.0,3.083525701720755,0.04220327079600951,1.478025587707796
5.309011459350586,1.8388973232088037,[1.83110497],5.0,0.6,0.0,3.4579176176759754,0.05621742858869154,1.4791071071347557
5.320515155792236,1.8381157283418568,[1.83160472],5.0,0.6,0.0,3.7877300235032267,0.08957221703942174,1.4809906164349056
5.330017566680908,1.83792032962512,[1.83211748],5.0,0.6,0.0,4.271109069358733,0.07865052939240605,1.479891141717091
5.340272426605225,1.8377249309083836,[1.83264696],5.0,0.6,0.0,4.936879605437165,0.0924371116752415,1.4770382290418298
5.349157333374023,1.8377249309083836,[1.83319721],5.0,0.6,0.0,5.0,0.10566719589869747,1.4776404081147578
5.360045909881592,1.837529532191647,[1.83377444],5.0,0.6,0.0,5.0,0.12010671019420181,1.4789158952989139
5.368767738342285,1.837529532191647,[1.83438488],5.0,0.6,0.0,5.0,0.1333192265016996,1.479756253581524
5.380025625228882,1.8377249309083836,[1.83503739],5.0,0.6,0.0,5.0,0.17179402588359585,1.4802885269353065
5.3889501094818115,1.8377249309083836,[1.8357402],5.0,0.6,0.0,5.0,0.1515850939875327,1.4809445375305275
5.398994207382202,1.83792032962512,[1.83649547],5.0,0.6,0.0,5.0,0.16580928377475862,1.48132609897175
5.407555103302002,1.8381157283418568,[1.83730548],5.0,0.6,0.0,5.0,0.17929274944635412,1.4816007696342863
5.4173266887664795,1.838311127058594,[1.83817516],5.0,0.6,0.0,4.549159217761698,0.19195823440402457,1.4848259489834104
5.4250264167785645,1.838701924492067,[1.83910563],5.0,0.6,0.0,3.9774487356495225,0.172608518689017,1.4883285185654538
5.433420658111572,1.8390927219255402,[1.84009455],5.0,0.6,0.0,3.703752176630158,0.19136213151173317,1.4896913351666008
5.443058252334595,1.8396789180757502,[1.84114302],5.0,0.6,0.0,3.533573420940797,0.20589680836987068,1.490362540815004
5.453907012939453,1.8400697155092236,[1.84225502],5.0,0.6,0.0,3.3866584804533857,0.21897166634184073,1.4905799558062225
5.463252782821655,1.8406559116594339,[1.84343363],5.0,0.6,0.0,3.234508425388171,0.22898219342896783,1.4907304281121652
5.4720964431762695,1.8412421078096437,[1.84468096],5.0,0.6,0.0,3.0707670727866354,0.237280341645927,1.4906672844264561
5.481011390686035,1.8420237026765904,[1.84599458],5.0,0.6,0.0,2.897554974499256,0.21252048611207033,1.4906404280186931
5.490084648132324,1.8428052975435372,[1.84736812],5.0,0.6,0.0,2.9954712947603266,0.22642990313574538,1.4892098174500352
5.500361442565918,1.8437822911272206,[1.84880213],5.0,0.6,0.0,2.850102849728593,0.2640166963024752,1.4889625055130806
5.509965896606445,1.8447592847109036,[1.85029953],5.0,0.6,0.0,2.6198154806318574,0.2333233126837417,1.488796804860202
5.520552396774292,1.8457362782945872,[1.85185796],5.0,0.6,0.0,2.650539392025671,0.2666438690007297,1.4873306007839626
5.528568267822266,1.8467132718782704,[1.85347403],5.0,0.6,0.0,2.4516265601896325,0.23517745279090446,1.4864458535202176
5.536015033721924,1.8476902654619538,[1.85513727],5.0,0.6,0.0,2.1871446163601527,0.21115363938743895,1.4854214568725568
5.545025110244751,1.8484718603289005,[1.85683444],5.0,0.6,0.0,1.9255552524000623,0.22388883630977618,1.4833583657498246
5.555014371871948,1.849839651346057,[1.85855959],5.0,0.6,0.0,1.6914926152815282,0.22922727471977944,1.4827822729381557
5.565480947494507,1.8512074423632139,[1.86031233],5.0,0.6,0.0,1.7665059335538094,0.25541197195624576,1.4812393522705025
5.573588848114014,1.8523798346636338,[1.86209099],5.0,0.6,0.0,1.629552748108857,0.22403615819409528,1.4793426538057184
5.580993890762329,1.8533568282473172,[1.86388737],5.0,0.6,0.0,1.154774461045523,0.2257999552295227,1.4770740018799193
5.589981555938721,1.8545292205477373,[1.86569088],5.0,0.6,0.0,1.1996437916279006,0.2013005195512592,1.4743211912081295
5.600774526596069,1.8562878089983674,[1.86749412],5.0,0.6,0.0,1.1128803971033516,0.22566474305213383,1.4742754169061114
5.6102683544158936,1.8578509987322607,[1.86929244],5.0,0.6,0.0,0.9868617452887872,0.197188756094947,1.4734340171825007
5.61874532699585,1.8590233910326808,[1.87107886],5.0,0.6,0.0,0.5842657438494692,0.1984407457083083,1.4710974713561038
5.626002550125122,1.8601957833331009,[1.87284466],5.0,0.6,0.0,0.43813224685692487,0.17798089842883896,1.4683648454327982
5.634986400604248,1.8615635743502574,[1.87458219],5.0,0.6,0.0,0.12104909408385489,0.18160976831380787,1.4666602709087369
5.644998550415039,1.8633221628008876,[1.87628661],5.0,0.6,0.0,-0.19228663795264223,0.18088237707396354,1.4669157957033405
5.654027462005615,1.8644945551013075,[1.87795558],5.0,0.6,0.0,-0.4425744717696184,0.18143687259738686,1.464263167997247
5.664601564407349,1.8660577448352007,[1.87958701],5.0,0.6,0.0,-0.619695300273462,0.17935317883113944,1.46376797776532
5.674086093902588,1.867620934569094,[1.88117921],5.0,0.6,0.0,-1.0082054117261137,0.17701282358909143,1.463146156658209
5.681999921798706,1.8687933268695143,[1.88272931],5.0,0.6,0.0,-1.3788674861715857,0.1594094581102065,1.460489056293435
5.691460609436035,1.8703565166034077,[1.88423504],5.0,0.6,0.0,-1.6568102887220295,0.17775706982457903,1.4601706710785933
5.70203161239624,1.8719197063373008,[1.88569775],5.0,0.6,0.0,-1.8322066297730322,0.17179730832284898,1.4602520854361467
5.710000514984131,1.8730920986377209,[1.8871171],5.0,0.6,0.0,-2.195309585542918,0.15275086492336526,1.4578489151316432
5.719287395477295,1.8744598896548776,[1.88848956],5.0,0.6,0.0,-2.2474824349508244,0.15035106566594972,1.4576524378995253
5.727002382278442,1.8754368832385613,[1.88981209],5.0,0.6,0.0,-2.4386915191819423,0.1356830588231972,1.4551055211215551
5.739365100860596,1.8773908704059277,[1.89108342],5.0,0.6,0.0,-2.333037887113352,0.14547752107168604,1.4591616934129812
5.7470057010650635,1.8785632627063478,[1.89230295],5.0,0.6,0.0,-2.3999105555226166,0.14602963757653745,1.458678979421104
5.756940603256226,1.8797356550067679,[1.89346765],5.0,0.6,0.0,-2.480831959021712,0.13325839861709007,1.4584282321431377
5.765594005584717,1.880908047307188,[1.89457379],5.0,0.6,0.0,-2.5211320050466584,0.11125163815076572,1.4586292344871852
5.773703575134277,1.8818850408908712,[1.89561774],5.0,0.6,0.0,-2.5104413811596045,0.09380127075830547,1.4583155231491503
5.781335830688477,1.882666635757818,[1.89659504],5.0,0.6,0.0,-2.4552376835255325,0.07592807885837045,1.457475674081357
5.789013862609863,1.883252831908028,[1.89750148],5.0,0.6,0.0,-2.3667266264930804,0.06531767431055933,1.4560561927531148
5.7990031242370605,1.8842298254917114,[1.89833247],5.0,0.6,0.0,-2.5319453407312817,0.039466077460075716,1.4562543290769552
5.810388803482056,1.8852068190753946,[1.8990725],5.0,0.6,0.0,-2.9931285012032753,-0.08105222669179744,1.4556537658202986
5.818526744842529,1.8857930152256044,[1.89969493],5.0,0.6,0.0,-3.1500315111797565,-0.09908221828178157,1.454752646631053
5.826990842819214,1.886183812659078,[1.90018079],5.0,0.6,0.0,-3.141344362666988,-0.11539189547105766,1.4542825717507006
5.836043119430542,1.8863792113758147,[1.90051323],5.0,0.6,0.0,-3.5953683283434725,-0.18999856700001042,1.451302950111896
5.844402313232422,1.8863792113758147,[1.90066233],5.0,0.6,0.0,-3.792937939691544,-0.24053762822133865,1.4494243106475078
5.8550169467926025,1.886183812659078,[1.90059197],5.0,0.6,0.0,-4.6529908465495,-0.2660195257594227,1.4434715520753278
5.865692138671875,1.8855976165088677,[1.9002674],5.0,0.6,0.0,-5.0,-0.2674447800936027,1.4396046422025517
5.873708248138428,1.8850114203586577,[1.89965641],5.0,0.6,0.0,-5.0,-0.250650868567182,1.439743896870101
5.880975008010864,1.8844252242084478,[1.89874115],5.0,0.6,0.0,-5.0,-0.2661670078446993,1.4415715916730762
5.889984846115112,1.883252831908028,[1.89751753],5.0,0.6,0.0,-5.0,-0.2420980885819987,1.4418527328457638
5.89901065826416,1.8818850408908712,[1.89597272],5.0,0.6,0.0,-5.0,-0.20080283874763902,1.4428169687182686
5.907632112503052,1.8805172498737142,[1.89408662],5.0,0.6,0.0,-5.0,-0.15169955614007938,1.4455763112447113
5.918491363525391,1.8785632627063478,[1.89184367],5.0,0.6,0.0,-5.0,-0.1653735711205303,1.447073093516331
5.926781415939331,1.8768046742557176,[1.88924482],5.0,0.6,0.0,-5.0,-0.20373071373330437,1.4512547267829392
5.937070846557617,1.8742644909381412,[1.88629296],5.0,0.6,0.0,-5.0,-0.20411512982694519,1.4532099258366291
5.9458699226379395,1.8721151050540379,[1.88298112],5.0,0.6,0.0,-5.0,-0.1714609031461078,1.4583946520349804
5.958301305770874,1.868988725586251,[1.87930651],5.0,0.6,0.0,-5.0,-0.23184563458406512,1.4606657919969068
5.966072082519531,1.8668393397021477,[1.87527017],5.0,0.6,0.0,-5.0,-0.19792211362351686,1.4676168557221667
5.978376865386963,1.8635175615176243,[1.87087663],5.0,0.6,0.0,-4.9940124737541485,-0.2587949359751141,1.4710022542195855
5.987120151519775,1.860586580766574,[1.86613331],5.0,0.6,0.0,-4.453387197282087,-0.2214115440363777,1.4793180500671024
5.998486757278442,1.8566786064318406,[1.86104991],5.0,0.6,0.0,-4.065925081078197,-0.2824151607117563,1.484029603624232
6.009070634841919,1.852966030813844,[1.85562441],5.0,0.6,0.0,-3.7526082035864294,-0.2871470684356551,1.4882140269342934
6.019394874572754,1.8492534551958473,[1.8498586],5.0,0.6,0.0,-3.201626641561707,-0.29458651939057956,1.4923542777547842
6.028511047363281,1.8459316770113239,[1.84377113],5.0,0.6,0.0,-2.6403840282033304,-0.30635557050783274,1.4939040026708574
6.036099910736084,1.8424145001100636,[1.83739536],5.0,0.6,0.0,-1.8747504848364658,-0.2741418833468711,1.4923648158991183
6.0444111824035645,1.8390927219255402,[1.83077689],5.0,0.6,0.0,-1.1662764294285548,-0.30212550394278886,1.485253072544776
6.054816722869873,1.8345985514405967,[1.82394403],5.0,0.6,0.0,-1.1488992018751345,-0.3219827047616127,1.4765703843043358
6.065565586090088,1.83029977967239,[1.81691004],5.0,0.6,0.0,-0.5154549566674844,-0.34126907838910986,1.4645804871027228
6.076492071151733,1.8258056091874466,[1.80967515],5.0,0.6,0.0,0.2021939211154058,-0.40381842292382014,1.4492620660433515
6.085496187210083,1.82209303356945,[1.80224201],5.0,0.6,0.0,1.3602537961127226,-0.3674237765014173,1.4228376395449491
6.096548080444336,1.8175988630845066,[1.79462899],5.0,0.6,0.0,2.147733230731559,-0.4329782640667311,1.3964317621953466
6.104423999786377,1.8142770848999832,[1.7868541],5.0,0.6,0.0,3.1925685915595947,-0.4013331593917837,1.3528303124524474
6.111981630325317,1.8111507054321965,[1.77896203],5.0,0.6,0.0,4.083443018970905,-0.3863561843477031,1.3005793137198343
6.122960567474365,1.8064611362305163,[1.77100615],5.0,0.6,0.0,4.982512928064899,-0.41916785669978684,1.2595598160229735
6.13098669052124,1.8033347567627296,[1.76300653],5.0,0.6,0.0,5.0,-0.45406751834436165,1.2040620323281472
6.14097261428833,1.7992313837112597,[1.75496873],5.0,0.6,0.0,5.0,-0.47965018895239975,1.157546662105572
6.1495325565338135,1.7957142068099994,[1.74689989],5.0,0.6,0.0,5.0,-0.5045761911067586,1.1026430646467618
6.159082889556885,1.7920016311920028,[1.73880873],5.0,0.6,0.0,5.0,-0.5257939891761323,1.0495826529804868
6.1669602394104,1.7884844542907428,[1.73071736],5.0,0.6,0.0,5.0,-0.5068067652230107,0.9947689950761529
6.175963640213013,1.7847718786727458,[1.72265884],5.0,0.6,0.0,5.0,-0.5362768976115397,0.9440021419571153
6.186078786849976,1.7806685056212759,[1.71465142],5.0,0.6,0.0,4.973292516007741,-0.5586052494624989,0.9001835398840097
6.196504831314087,1.776369733853069,[1.70669095],5.0,0.6,0.0,4.867407521592719,-0.6098979224039353,0.8613654390754821
6.204711675643921,1.772852556951809,[1.69877709],5.0,0.6,0.0,4.697736627501216,-0.583661024636514,0.8175649977105683
6.215398073196411,1.7683583864668657,[1.69092392],5.0,0.6,0.0,4.483391304061296,-0.6287581961221517,0.7866880278060677
6.223526954650879,1.7650366082823423,[1.68314609],5.0,0.6,0.0,4.241585730175948,-0.6448158908502704,0.7483139192983561
6.234003305435181,1.761128633947609,[1.67546693],5.0,0.6,0.0,3.985981985923441,-0.6707221082304329,0.71879302271074
6.2420830726623535,1.7578068557630855,[1.66791632],5.0,0.6,0.0,4.0027065180681625,-0.7476126915342749,0.6868942371542437
6.253988742828369,1.7529218878446686,[1.66051083],5.0,0.6,0.0,3.7798722562098606,-0.7046781337636853,0.6707117801018746
6.262636423110962,1.7490139135099352,[1.6532475],5.0,0.6,0.0,3.2008417456823706,-0.7391119737433057,0.6521658554987249
6.272427558898926,1.7453013378919386,[1.64612421],5.0,0.6,0.0,2.8547600988141966,-0.7706492997813295,0.6338150362582662
6.283003807067871,1.7408071674069951,[1.63914837],5.0,0.6,0.0,2.891224737442169,-0.7946621295932931,0.6203932516393851
6.290992021560669,1.7376807879392087,[1.63233402],5.0,0.6,0.0,2.733207942132572,-0.832876946378552,0.6031236436550156
6.300103187561035,1.7337728136044748,[1.62570048],5.0,0.6,0.0,2.233754461219612,-0.8467167634524784,0.5930203609464497
6.310187578201294,1.7294740418362682,[1.61925046],5.0,0.6,0.0,1.968487835059896,-0.8502237660841286,0.5851740381009546
6.318726539611816,1.7259568649350083,[1.61297948],5.0,0.6,0.0,1.8054081810804383,-0.8670154923234704,0.5754445849000777
6.328958511352539,1.7214626944500648,[1.60689761],5.0,0.6,0.0,1.9605913279047256,-0.8724328524758347,0.569584206662832
6.336994647979736,1.7181409162655412,[1.60101431],5.0,0.6,0.0,1.8892048430776975,-0.8806303384124394,0.561680248946117
6.346523761749268,1.7142329419308078,[1.59533186],5.0,0.6,0.0,1.459717551180458,-0.8826879259755235,0.5575773121237475
6.354985952377319,1.7111065624630215,[1.58985717],5.0,0.6,0.0,1.2550461339316348,-0.8603046917631155,0.5516796116583338
6.3640313148498535,1.707589385561761,[1.58460057],5.0,0.6,0.0,1.146592443989682,-0.865881065912417,0.5475679987126767
6.372514963150024,1.7040722086605014,[1.57956555],5.0,0.6,0.0,1.3520063136804055,-0.8668465225309095,0.5436731642832019
6.379982233047485,1.700750430475978,[1.57475385],5.0,0.6,0.0,1.327194466888619,-0.8363641247175208,0.5404834470524849
6.390258550643921,1.696451658707771,[1.57016674],5.0,0.6,0.0,1.2170378566773,-0.862113486269128,0.5400879540791439
6.398643732070923,1.6933252792399842,[1.56580062],5.0,0.6,0.0,1.0857255343049412,-0.8277713891428365,0.5378003620972256
6.405979633331299,1.6901988997721975,[1.56165466],5.0,0.6,0.0,0.9595217074558138,-0.8262388519925625,0.5360244489750146
6.41621208190918,1.685704729287254,[1.55772743],5.0,0.6,0.0,0.8474272827769703,-0.8147885974265611,0.5372584610135862
6.425002574920654,1.6821875523859942,[1.55401593],5.0,0.6,0.0,0.7510048988926556,-0.7813708659679554,0.5369987249920257
6.434053897857666,1.6784749767679974,[1.55051897],5.0,0.6,0.0,0.6689371062954801,-0.7778119886998766,0.5375009797968421
6.442933082580566,1.6747624011500006,[1.54723367],5.0,0.6,0.0,0.5990571274107546,-0.7480357321968281,0.5384019869263924
6.452303171157837,1.6708544268152674,[1.54415334],5.0,0.6,0.0,0.5391901350004864,-0.7681695250493902,0.5401147072926052
6.4627368450164795,1.6665556550470606,[1.5412659],5.0,0.6,0.0,0.4874517711729691,-0.7545680605689427,0.5431273984615967
6.473057985305786,1.6622568832788538,[1.53855908],5.0,0.6,0.0,0.4423116936223364,-0.7413014236201705,0.5467313338686582
6.481644868850708,1.6587397063775937,[1.53602488],5.0,0.6,0.0,0.40256513866396615,-0.7105012128650738,0.5490831145524395
6.491959571838379,1.6546363333261238,[1.5336565],5.0,0.6,0.0,0.36727636175833056,-0.7057830543172439,0.5534450578491215
6.500931739807129,1.6509237577081268,[1.53144369],5.0,0.6,0.0,0.3357205406567829,-0.7026042247612497,0.5574663135726642
6.51034688949585,1.6470157833733936,[1.52937301],5.0,0.6,0.0,0.3073336908454578,-0.6994990596367019,0.5627193801057246
6.519325494766235,1.6433032077553966,[1.52743008],5.0,0.6,0.0,0.28167274696364075,-0.6993855553182327,0.5681405556156051
6.529132127761841,1.6393952334206634,[1.52559933],5.0,0.6,0.0,0.2583850511651666,-0.7004795775661257,0.5749777171459194
6.540961742401123,1.6345102655022465,[1.52386055],5.0,0.6,0.0,0.23718558283716368,-0.7302782174742637,0.5863663946721314
6.54994010925293,1.63079768988425,[1.52219308],5.0,0.6,0.0,0.2178401957429536,-0.6944753062113554,0.5944800924260443
6.55914568901062,1.627085114266253,[1.52058285],5.0,0.6,0.0,0.20015336400501277,-0.7029444818762458,0.6034326285495476
6.566959619522095,1.6239587347984663,[1.51901892],5.0,0.6,0.0,0.18395924475395917,-0.6754775122621459,0.6105043171039395
6.5749351978302,1.6208323553306796,[1.51749007],5.0,0.6,0.0,0.16911515064429927,-0.6950055504793501,0.6181139114236707
6.583529233932495,1.6171197797126828,[1.51598029],5.0,0.6,0.0,0.15549676070331533,-0.7075006317091272,0.6292536389634589
6.593957901000977,1.6124302105110029,[1.51446439],5.0,0.6,0.0,0.1429945804649655,-0.7466801952190901,0.6466708666036839
6.60400128364563,1.608131438742796,[1.5129188],5.0,0.6,0.0,0.13151129903057407,-0.7043535837153323,0.6631364477145967
6.611943006515503,1.6048096605582727,[1.51133181],5.0,0.6,0.0,0.12095979089518477,-0.7141134873229111,0.6741768514169593
6.619929790496826,1.6018786798072226,[1.50969757],5.0,0.6,0.0,0.3872999424957623,-0.6839094782945326,0.6826684620330553
6.630367755889893,1.5973845093222792,[1.50800435],5.0,0.6,0.0,0.41150862073857253,-0.7294726471849214,0.7022227411022217
6.63832950592041,1.5940627311377558,[1.50623557],5.0,0.6,0.0,0.34821321224526147,-0.697104756875679,0.7137080940534397
6.648334264755249,1.5899593580862856,[1.50438269],5.0,0.6,0.0,-0.01144930278899109,-0.7035094700610665,0.7311534002795825
6.660357713699341,1.585074390167869,[1.50243089],5.0,0.6,0.0,0.15400796271783534,-0.7185375390194614,0.7551104151710759
6.6683971881866455,1.5817526119833456,[1.50036117],5.0,0.6,0.0,0.179230461881305,-0.6959338077506236,0.7658020470553388
6.6787474155426025,1.577453840215139,[1.49817092],5.0,0.6,0.0,0.15235432589864223,-0.6940165711195092,0.7844445010215482
6.689929723739624,1.5729596697301953,[1.49585783],5.0,0.6,0.0,-0.16405771635388605,-0.6884856671519424,0.8045242488371052
6.699319124221802,1.569051695395462,[1.49341283],5.0,0.6,0.0,0.04046337955624221,-0.6842512463423451,0.8184622547190106
6.708324670791626,1.565339119777465,[1.49082768],5.0,0.6,0.0,0.09734201749858343,-0.6794326481269198,0.8294231188574623
6.718569278717041,1.5612357467259954,[1.4880947],5.0,0.6,0.0,0.09470473855618607,-0.6710857470121624,0.8430283946617245
6.726931571960449,1.557718569824735,[1.48520674],5.0,0.6,0.0,0.07226796051330417,-0.6640323346919595,0.8493767980784261
6.735627889633179,1.5540059942067386,[1.48215731],5.0,0.6,0.0,0.046851516062090794,-0.6546499858880532,0.8561329219976039
6.742940664291382,1.5508796147389516,[1.47894984],5.0,0.6,0.0,0.024742525280320178,-0.6663737726218074,0.8553046225460905
6.75393533706665,1.5457992481037983,[1.47559651],5.0,0.6,0.0,0.007602332525262745,-0.6541374054700567,0.8731835371305456
6.7653844356536865,1.5411096789021181,[1.47208958],5.0,0.6,0.0,-0.004772498631938716,-0.5749384486352722,0.885677047642345
6.773057699203491,1.5381786981510683,[1.46841403],5.0,0.6,0.0,-0.013204395451278923,-0.6415314342080081,0.8777880193651496
6.782961845397949,1.5342707238163347,[1.46457711],5.0,0.6,0.0,-0.01860615427264124,-0.6282622161315244,0.8785373268708632
6.793657302856445,1.529971952048128,[1.46058626],5.0,0.6,0.0,-0.021782600631424075,-0.6135407107771428,0.8817933744633107
6.801935434341431,1.526454775146868,[1.45644959],5.0,0.6,0.0,-0.0233775803614805,-0.652115938406069,0.8752562556951917
6.813388347625732,1.5215698072284511,[1.4521759],5.0,0.6,0.0,-0.023879750723981907,-0.5690074183882975,0.881706281633402
6.8219335079193115,1.518052630327191,[1.44776502],5.0,0.6,0.0,-0.02364806709256754,-0.6419694542488751,0.8722942197434033
6.831967115402222,1.5141446559924576,[1.4432286],5.0,0.6,0.0,-0.022940325560036848,-0.6341185259782387,0.8657452075049304
6.8409812450408936,1.510432080374461,[1.43857902],5.0,0.6,0.0,-0.02193848036776376,-0.6301885640752192,0.8560894253561117
6.851938009262085,1.5059379098895176,[1.43381963],5.0,0.6,0.0,-0.020769022619232316,-0.6263333497154154,0.8533804292560421
6.86196231842041,1.5018345368380475,[1.42895547],5.0,0.6,0.0,-0.019518562328279268,-0.626602903461644,0.845669432665199
6.87180233001709,1.4975357650698409,[1.42399232],5.0,0.6,0.0,-0.018245383926068157,-0.6261074289215117,0.8390090985239022
6.8819661140441895,1.4930415945848974,[1.41893567],5.0,0.6,0.0,-0.016987849581312595,-0.6232198891643657,0.8334246851365035
6.89155912399292,1.4893290189669006,[1.41378997],5.0,0.6,0.0,-0.015770429953645478,-0.6220541551046357,0.8194258720852534
6.9004716873168945,1.4856164433489039,[1.40855828],5.0,0.6,0.0,-0.29064635151327367,-0.6184051600790024,0.8048918060244266
6.909951686859131,1.4815130702974335,[1.40325244],5.0,0.6,0.0,-0.32267178794210916,-0.6826684333650723,0.7936962845433038
6.918177366256714,1.478582089546384,[1.39789176],5.0,0.6,0.0,0.009495885896577766,-0.6725057970486041,0.7719366404281698
6.926664352416992,1.474869513928387,[1.39248127],5.0,0.6,0.0,0.1196695729027143,-0.6530211363060041,0.7572759765130546
6.93851637840271,1.4701799447267068,[1.38700258],5.0,0.6,0.0,-0.14004619893588532,-0.6574354430318832,0.7506361343277717
6.946951389312744,1.466662767825447,[1.38143895],5.0,0.6,0.0,-0.19180146580728571,-0.64451178521481,0.7339291750592113
6.955935478210449,1.46295019220745,[1.37579774],5.0,0.6,0.0,-0.1644583317839977,-0.6483996991276256,0.7188864675904686
6.963917016983032,1.4596284140229265,[1.37009623],5.0,0.6,0.0,-0.11486720815562351,-0.7150407497741438,0.7012411589684084
6.975102186203003,1.45474344610451,[1.36433775],5.0,0.6,0.0,-0.06615613886603508,-0.6908302737713579,0.6950197028625456
6.983405828475952,1.4512262692032498,[1.35850235],5.0,0.6,0.0,-0.3022280362507516,-0.7031292363476904,0.6790796449155578
6.9934587478637695,1.4473182948685164,[1.35257389],5.0,0.6,0.0,-0.30548129228783266,-0.7139834773003562,0.6660080842990587
7.006694555282593,1.4418471307998897,[1.34653993],5.0,0.6,0.0,-0.22948305165644556,-0.755050389407764,0.6625233080412624
7.014906167984009,1.4381345551818931,[1.34039152],5.0,0.6,0.0,-0.13965169819798467,-0.7182369884437171,0.6479562884322468
7.025977611541748,1.4334449859802127,[1.33413464],5.0,0.6,0.0,-0.33679657886655767,-0.7656522853374035,0.6390229694784386
7.033917427062988,1.4301232077956894,[1.3277764],5.0,0.6,0.0,-0.03277200129324498,-0.7339367560864368,0.62307268043074
7.04544472694397,1.425629037310746,[1.3213253],5.0,0.6,0.0,0.09921937643187445,-0.7824273109787381,0.6135038450735407
7.052968740463257,1.4225026578429594,[1.31479107],5.0,0.6,0.0,0.1495470695209572,-0.7536197022854059,0.5982218302110687
7.06093430519104,1.4193762783751724,[1.30820585],5.0,0.6,0.0,0.16222222963603555,-0.8247905004857327,0.584415447729506
7.07075309753418,1.4154683040404392,[1.30160975],5.0,0.6,0.0,0.158418326955944,-0.8139450166550075,0.5747950161735816
7.080925941467285,1.410974133555496,[1.29501694],5.0,0.6,0.0,0.14812988764157714,-0.8080142876633934,0.5679179650737924
7.090639114379883,1.4070661592207623,[1.28843076],5.0,0.6,0.0,0.13593067234894765,-0.8143944910233095,0.55989867080854
7.099418878555298,1.4031581848860288,[1.28185623],5.0,0.6,0.0,0.12380287002885318,-0.828828158221476,0.5527047596340244
7.107941627502441,1.3998364067015054,[1.27530902],5.0,0.6,0.0,0.11251671068625668,-0.9136904641298899,0.5449761248163871
7.116940498352051,1.396123831083509,[1.26881359],5.0,0.6,0.0,0.1022957301293428,-0.9200500350472374,0.5390942874686839
7.126164436340332,1.392411255465512,[1.26238292],5.0,0.6,0.0,0.09313217468566026,-0.9308332256938444,0.5339908567028359
7.1363654136657715,1.387721686263832,[1.25601264],5.0,0.6,0.0,0.08493259956652657,-0.8810410486069836,0.5311286339309012
7.145390033721924,1.3840091106458352,[1.24970138],5.0,0.6,0.0,0.07758215418976142,-0.9678876210909676,0.5271092907164229
7.154563903808594,1.3802965350278384,[1.2434663],5.0,0.6,0.0,0.07097072736131049,-0.9833777008929432,0.5236436350379852
7.162914037704468,1.3771701555600517,[1.23733097],5.0,0.6,0.0,0.06500178687445674,-1.003175198540283,0.5200173331479473
7.173601150512695,1.3726759850751085,[1.23130875],5.0,0.6,0.0,0.059593804239632654,-1.0076014551848482,0.5183691403934839
7.182152509689331,1.369354206890585,[1.22539784],5.0,0.6,0.0,0.05467884108291977,-1.0246796975974792,0.5158461695590036
7.190900087356567,1.3656416312725883,[1.21960413],5.0,0.6,0.0,0.05020032710496239,-1.0278310077605624,0.5140445106041307
7.2013750076293945,1.3613428595043817,[1.21394091],5.0,0.6,0.0,0.04611086349302339,-1.0432475747266305,0.5129638669676206
7.210491418838501,1.3578256826031216,[1.20840801],5.0,0.6,0.0,0.04237034182340432,-1.0510069512965523,0.5115018852719007
7.21994423866272,1.3537223095516515,[1.20301131],5.0,0.6,0.0,0.03894443447448913,-1.033314194547357,0.5106428478952588
7.229523420333862,1.3498143352169178,[1.19776729],5.0,0.6,0.0,0.03580342211947392,-1.0380184441185727,0.5098158405018748
7.2384583950042725,1.3459063608821848,[1.19268402],5.0,0.6,0.0,0.03292129723451368,-1.040702994429051,0.5091362501746077
7.246912002563477,1.3423891839809245,[1.18776712],5.0,0.6,0.0,0.0302750822761695,-1.0142363950821585,0.5083819246372139
7.256430149078369,1.3384812096461913,[1.18302053],5.0,0.6,0.0,0.02784431016907028,-1.0506557285325984,0.5079572092693169
7.263912200927734,1.335159431461668,[1.17844145],5.0,0.6,0.0,0.025610625638361986,-1.021977545913638,0.5073564962193413
7.272881507873535,1.331446855843671,[1.17403074],5.0,0.6,0.0,0.023557475860352513,-1.0279718249038448,0.5070408586190144
7.281911611557007,1.3277342802256742,[1.16978768],5.0,0.6,0.0,0.021669867020332877,-1.0321952574634445,0.5068092245082249
7.289885520935059,1.324412502041151,[1.16570961],5.0,0.6,0.0,0.01993416963763909,-1.0038324322093244,0.506490813452177
7.301284074783325,1.3197229328394708,[1.16179185],5.0,0.6,0.0,0.29437631988990753,-1.0448081825518225,0.5067517477962097
7.309909105300903,1.3164011546549474,[1.1580233],5.0,0.6,0.0,0.04999449333670429,-1.0148513943784931,0.5066244375503369
7.318885564804077,1.312493180320214,[1.15439659],5.0,0.6,0.0,-0.039577680944152836,-1.0254331015135876,0.506744152466278
7.3289570808410645,1.3087806047022175,[1.15090252],5.0,0.6,0.0,-0.06180750190858851,-1.0344923102241759,0.5068362654062483
7.3412134647369385,1.3035048393503272,[1.14752062],5.0,0.6,0.0,0.21865063057976572,-1.0616068693786236,0.5076668732270477
7.349905014038086,1.2997922637323305,[1.14423115],5.0,0.6,0.0,-0.01141328801731896,-1.0284371389142333,0.5079081280996799
7.361594915390015,1.2947118970971772,[1.14102068],5.0,0.6,0.0,-0.08597784339546138,-1.0539082988334059,0.5088723302908222
7.369347333908081,1.2915855176293904,[1.13787642],5.0,0.6,0.0,0.18076575550408144,-1.0235355603967171,0.5088437537724544
7.3793134689331055,1.287677543294657,[1.13479192],5.0,0.6,0.0,0.22852174754541354,-1.0258793664081411,0.5092884931121864
7.387907266616821,1.284160366393397,[1.1317611],5.0,0.6,0.0,0.19394783072003385,-1.0274035780617323,0.5095805001287423
7.397742033004761,1.2800569933419268,[1.12877323],5.0,0.6,0.0,0.13710535346775793,-1.0236438361162923,0.5102680608866589
7.407649517059326,1.27575822157372,[1.1258193],5.0,0.6,0.0,0.08224720619428082,-1.017033702641895,0.5111447418422982
7.4173455238342285,1.2720456459557232,[1.12289206],5.0,0.6,0.0,0.03746409468165618,-1.0119030279674386,0.5116850137845967
7.425961017608643,1.2685284690544634,[1.11998583],5.0,0.6,0.0,0.003984366735261542,-1.0069160178579777,0.5121189625436986
7.433886289596558,1.2652066908699398,[1.11710107],5.0,0.6,0.0,-0.019542335793848536,-0.9713702071673398,0.5124370174244984
7.443919658660889,1.2609079191017332,[1.11424305],5.0,0.6,0.0,-0.03515958262857587,-0.972144311436402,0.5135389453913135
7.452922105789185,1.2571953434837364,[1.11141126],5.0,0.6,0.0,-0.044840792839484264,-0.9735681010672648,0.5142541833353095
7.4619152545928955,1.2534827678657396,[1.10860487],5.0,0.6,0.0,-0.05023307980342647,-0.938767665041364,0.5150249071818638
7.4723663330078125,1.2489885973807964,[1.10582252],5.0,0.6,0.0,-0.05261700200104218,-0.9773963237953599,0.516582133227673
7.482254266738892,1.245080623046063,[1.10305263],5.0,0.6,0.0,-0.052947881502371175,-0.9726452230093512,0.5176943788890667
7.4931418895721436,1.2405864525611194,[1.10028484],5.0,0.6,0.0,-0.05191943957216831,-0.964892360219534,0.5195064199102429
7.501882076263428,1.2364830795096493,[1.09751986],5.0,0.6,0.0,-0.050025666832937965,-0.9266055403183515,0.5210207818367061
7.5118536949157715,1.2319889090247058,[1.09475788],5.0,0.6,0.0,-0.04761276639159931,-0.9599026047232211,0.5231318749169764
7.520037412643433,1.2288625295569193,[1.09199365],5.0,0.6,0.0,-0.04491980471739024,-0.9266128857217373,0.5235959116512223
7.52933669090271,1.2253453526556592,[1.08922755],5.0,0.6,0.0,-0.04210928838763797,-0.9321421532073391,0.5245838672467172
7.539923667907715,1.221241979604189,[1.08645446],5.0,0.6,0.0,-0.03928960610081875,-0.9588513084871685,0.5264214671191909
7.552001237869263,1.2161616129690356,[1.08365967],5.0,0.6,0.0,0.23950712294144005,-0.9444217469020005,0.5298137913250053
7.560884952545166,1.2122536386343021,[1.08084133],5.0,0.6,0.0,-0.0007537223114990471,-0.9070716696295235,0.531623998873493
7.5690693855285645,1.2089318604497787,[1.07800859],5.0,0.6,0.0,-0.08645414154318556,-0.9113372043529149,0.5324403567505129
7.5788867473602295,1.2048284873983088,[1.07516427],5.0,0.6,0.0,-0.10506557424340351,-0.9097384662144197,0.5346381661468137
7.586966514587402,1.201702107930522,[1.07231094],5.0,0.6,0.0,0.1787609655020702,-0.8780819297268683,0.5351162272531969
7.598460912704468,1.1968171400121053,[1.06945097],5.0,0.6,0.0,0.2278619985587453,-0.9113934698461,0.5389522047822294
7.609024524688721,1.1925183682438982,[1.0665762],5.0,0.6,0.0,0.18931787819815732,-0.9036349112973628,0.5418810127065238
7.617315053939819,1.1888057926259017,[1.06367991],5.0,0.6,0.0,-0.14843477291124196,-0.8987284831185088,0.5436447236231411
7.6258885860443115,1.1852886157246416,[1.06076694],5.0,0.6,0.0,0.03549836942115528,-0.864228296500531,0.5449974137829182
7.636004209518433,1.1807944452396981,[1.05784668],5.0,0.6,0.0,0.07600270008703837,-0.8661892216132349,0.5486395209487892
7.64489483833313,1.1770818696217016,[1.05492189],5.0,0.6,0.0,0.061715098168748345,-0.8692854474702528,0.5505562731344562
7.654895544052124,1.1731738952869681,[1.05198961],5.0,0.6,0.0,0.03175855714475477,-0.8694174562692322,0.5530171165169441
7.662907123565674,1.1700475158191814,[1.0490472],5.0,0.6,0.0,0.0020672578375431107,-0.8722323987327534,0.5534924240335601
7.674923896789551,1.1651625479007646,[1.04608685],5.0,0.6,0.0,-0.021922093862525173,-0.8893703036279028,0.5586709428624663
7.682891607284546,1.1616453709995045,[1.04310161],5.0,0.6,0.0,-0.039254376483706666,-0.858009698350478,0.5601722586994717
7.690883159637451,1.1585189915317178,[1.04010152],5.0,0.6,0.0,-0.050678896645747554,-0.8289909490706219,0.5605327347866637
7.701380252838135,1.1540248210467743,[1.03709411],5.0,0.6,0.0,-0.05742231170528859,-0.8697767566057031,0.5649202253991144
7.708984136581421,1.1508984415789878,[1.03407375],5.0,0.6,0.0,-0.060688094320118305,-0.842708244328983,0.5652425378461636
7.717982053756714,1.1469904672442544,[1.03104038],5.0,0.6,0.0,-0.06148532345913191,-0.852858132393864,0.5679538751880838
7.725998163223267,1.1434732903429943,[1.02799211],5.0,0.6,0.0,-0.060598380960917284,-0.8620418659646042,0.5694450166992494
7.736313104629517,1.1391745185747875,[1.02491946],5.0,0.6,0.0,-0.05861047369871821,-0.864998067490622,0.5734699617630402
7.7443108558654785,1.1362435378237374,[1.02181929],5.0,0.6,0.0,-0.05594243247792273,-0.8452104477215566,0.572903868093397
7.752697706222534,1.1327263609224774,[1.01869411],5.0,0.6,0.0,-0.05289100676459532,-0.8612637514987558,0.5742216989734071
7.7625885009765625,1.1286229878710075,[1.01553718],5.0,0.6,0.0,-0.049661210049132945,-0.8670200773213453,0.57748245539565
7.77058744430542,1.1249104122530105,[1.01234174],5.0,0.6,0.0,-0.046391704726284726,-0.8490483230917422,0.5793123365875814
7.778544902801514,1.1217840327852238,[1.00910845],5.0,0.6,0.0,-0.043173918786490656,-0.8646189731086219,0.5789314917475075
7.785885572433472,1.1186576533174373,[1.0058372],5.0,0.6,0.0,-0.0400660787911897,-0.8513777483272611,0.5784176642179262
7.796871185302734,1.1145542802659671,[1.00251905],5.0,0.6,0.0,-0.03710333804366503,-0.8621803719215057,0.5812364631012001
7.807086706161499,1.1102555084977603,[0.99912919],5.0,0.6,0.0,-0.034304999939330144,-0.8534861996436466,0.5845999160194923
7.818291664123535,1.1059567367295535,[0.99563764],5.0,0.6,0.0,-0.03167962372669399,-0.788192587269763,0.5876793359833604
7.825927019119263,1.1024395598282934,[0.99203632],5.0,0.6,0.0,-0.029228607238892007,-0.7879561894973929,0.5873543443725033
7.835258483886719,1.09853158549356,[0.98833634],5.0,0.6,0.0,-0.026948684428298987,-0.7726614755793774,0.588159759266388
7.843878984451294,1.0946236111588266,[0.98453904],5.0,0.6,0.0,-0.024833654902617016,-0.8225200506954413,0.5885907707291024
7.853235244750977,1.09091103554083,[0.98064662],5.0,0.6,0.0,-0.022875572765704573,-0.8219914779845904,0.5878914625593943
7.863868474960327,1.0864168650558865,[0.97666197],5.0,0.6,0.0,-0.02106555642086412,-0.8184154518530334,0.5898843891438632
7.875324726104736,1.0819226945709433,[0.97257131],5.0,0.6,0.0,-0.01939433368952018,-0.7585656097771372,0.5914879325368605
7.884876489639282,1.077819321519473,[0.96836483],5.0,0.6,0.0,-0.01785260281632996,-0.8322003683206236,0.5910761195638115
7.895148992538452,1.0733251510345296,[0.9640455],5.0,0.6,0.0,-0.016431265953671993,-0.7652408363122996,0.5917754189825196
7.9029154777526855,1.070198771566743,[0.95961824],5.0,0.6,0.0,-0.015121574774816416,-0.8468663970246058,0.5866730041246906
7.9126996994018555,1.0660953985152728,[0.95509811],5.0,0.6,0.0,-0.013915215932786662,-0.8484428600835864,0.5850869818274632
7.923912525177002,1.0616012280303293,[0.95050061],5.0,0.6,0.0,-0.012804355692113623,-0.8497850911940888,0.5846973517659168
7.933600664138794,1.0576932536955959,[0.94583322],5.0,0.6,0.0,-0.2878200168570831,-0.8558381371733834,0.5818156253028348
7.942534685134888,1.0537852793608626,[0.94110525],5.0,0.6,0.0,-0.3200032424124072,-0.8629988632963186,0.5788408552370709
7.9528422355651855,1.0498773050261292,[0.93632759],5.0,0.6,0.0,-0.5400779316156681,-0.8702492036891483,0.5756549039638366
7.960853099822998,1.0465555268416058,[0.93151908],5.0,0.6,0.0,-0.49632018630682384,-0.8772590586923508,0.5707030436550511
7.9699366092681885,1.042842951223609,[0.92670478],5.0,0.6,0.0,-0.3699665264581138,-0.884228483336688,0.5672641253207203
7.978095769882202,1.0389349768888756,[0.9219006],5.0,0.6,0.0,-0.23658457918128767,-0.8888615601774987,0.564566864134847
7.986148118972778,1.0354177999876155,[0.91711466],5.0,0.6,0.0,-0.12344307838507304,-0.8945320838930272,0.5608518436881554
7.994194269180298,1.0320960218030921,[0.91235541],5.0,0.6,0.0,-0.036834569566278584,-0.9003157267300125,0.5568362796747943
8.001887798309326,1.028774243618569,[0.90764328],5.0,0.6,0.0,0.025216713994994384,-0.907253449982372,0.5531545831543373
8.011224508285522,1.0252570667173089,[0.90300222],5.0,0.6,0.0,0.06726822657881018,-0.9175789671927179,0.550321826268986
8.020243644714355,1.0213490923825752,[0.8984349],5.0,0.6,0.0,0.09408280679802741,-0.9194860795765027,0.5487175877723869
8.0282142162323,1.0184181116315254,[0.89394328],5.0,0.6,0.0,0.10976733087258624,-0.9051512888271487,0.5450944818170329
8.035864114761353,1.0152917321637385,[0.88954039],5.0,0.6,0.0,0.11757070932391789,-0.9114463224735732,0.5423018996601767
8.043902397155762,1.0115791565457417,[0.88523645],5.0,0.6,0.0,0.11994286846694366,-0.8846800982272056,0.5410585190297079
8.054205179214478,1.0072803847775351,[0.88103907],5.0,0.6,0.0,0.11867615033389355,-0.8931783468759925,0.5412696500420013
8.065244197845459,1.0029816130093283,[0.87694283],5.0,0.6,0.0,0.11505427635925969,-0.9218959722769307,0.5416942746780158
8.075194358825684,0.9984874425243848,[0.87293144],5.0,0.6,0.0,0.1099815469424919,-0.9156706281538606,0.542720661720307
8.082932949066162,0.9957518604900715,[0.86900122],5.0,0.6,0.0,0.10408568209921956,-0.8905214550177039,0.5402218356738969
8.091870784759521,0.9922346835888115,[0.86515911],5.0,0.6,0.0,0.09779595378364389,-0.8968801336860861,0.5395646034917624
8.10118055343628,0.9881313105373414,[0.8614051],5.0,0.6,0.0,0.09140089836455885,-0.8974995915819844,0.5402735278345964
8.108880281448364,0.984809532352818,[0.8577385],5.0,0.6,0.0,0.08509017736740196,-0.867477674064568,0.5395754677364127
8.11786961555481,0.9810969567348212,[0.85416326],5.0,0.6,0.0,0.07898456691512021,-0.8763388924746531,0.5398533415723119
8.127406120300293,0.9769935836833512,[0.85067737],5.0,0.6,0.0,0.07315725324126701,-0.8780735145744277,0.5411202791987261
8.135838270187378,0.9738672042155644,[0.84727857],5.0,0.6,0.0,0.06764885368926135,-0.8476227549268868,0.5405580749701094
8.145956993103027,0.969373033730621,[0.84396488],5.0,0.6,0.0,0.062477954155040566,-0.882981059568375,0.5430450278744755
8.15783143043518,0.9646834645289409,[0.84072516],5.0,0.6,0.0,0.05764846508818131,-0.8724326827717787,0.5462735152070467
8.166215658187866,0.9613616863444175,[0.83754958],5.0,0.6,0.0,0.053154731533474206,-0.8686604569098673,0.5466103588824451
8.17584753036499,0.9576491107264208,[0.83443824],5.0,0.6,0.0,0.04898506385063615,-0.8316164316715441,0.5480159944322998
8.184637546539307,0.953936535108424,[0.83139478],5.0,0.6,0.0,0.04512416147208478,-0.8368952855780667,0.5496217049003539
8.194953203201294,0.9492469659067441,[0.82841678],5.0,0.6,0.0,0.04155476303580015,-0.8351507167263883,0.5539331076359311
8.203850269317627,0.9455343902887473,[0.82549653],5.0,0.6,0.0,0.03825875741535326,-0.8366702213309672,0.5560317234199469
8.212782621383667,0.9422126121042239,[0.82262623],5.0,0.6,0.0,0.035217920260590056,-0.8394464358512034,0.5572574877593155
8.221977472305298,0.9381092390527538,[0.81979784],5.0,0.6,0.0,0.03241439136795166,-0.8385307826357938,0.560838634259718
8.23086428642273,0.9347874608682304,[0.81700796],5.0,0.6,0.0,0.029830973528916675,-0.8060098848289977,0.5623861097901219
8.240183115005493,0.9304886891000236,[0.81425724],5.0,0.6,0.0,0.02745130915628155,-0.8144669699258117,0.5670740387933578
8.25123381614685,0.9261899173318169,[0.81153463],5.0,0.6,0.0,0.02525997392071586,-0.8498859023900168,0.5721380420116735
8.260399103164673,0.9218911455636103,[0.80881898],5.0,0.6,0.0,0.02324251467502537,-0.8430180757845697,0.5775317388657165
8.2688627243042,0.9185693673790868,[0.80610179],5.0,0.6,0.0,0.021385450578595647,-0.8102544868232774,0.5796753266587874
8.277212858200073,0.9152475891945634,[0.80338574],5.0,0.6,0.0,0.01967625049160973,-0.8189737975752506,0.581870381873675
8.284856081008911,0.9123166084435134,[0.80067273],5.0,0.6,0.0,0.01810329562633268,-0.7907715045906795,0.5826720240104649
8.297252178192139,0.9072362418083599,[0.7979585],5.0,0.6,0.0,0.016655833599325882,-0.8278330592374796,0.5917830808555653
8.306238174438477,0.9037190649070999,[0.7952281],5.0,0.6,0.0,0.29136228772685124,-0.8255773386789536,0.5949197444838098
8.316138744354248,0.899420293138893,[0.79247463],5.0,0.6,0.0,0.3232613694405508,-0.7889319349993402,0.6014447029438728
8.324872493743896,0.8957077175208964,[0.78970381],5.0,0.6,0.0,-0.009001844400640807,-0.7942289241248944,0.6056771676806166
8.334238290786743,0.8919951419028997,[0.78690986],5.0,0.6,0.0,-0.11924892496921348,-0.8192497857159412,0.6098455942228059
8.346647500991821,0.8867193765510096,[0.78407776],5.0,0.6,0.0,0.14040948146240295,-0.8034454138549033,0.6215802330883802
8.35621166229248,0.8828114022162762,[0.78120174],5.0,0.6,0.0,0.1921190840298345,-0.7939311793558383,0.6268028935235797
8.364838361740112,0.879294225315016,[0.77828914],5.0,0.6,0.0,0.16473891825685177,-0.7587578139017832,0.6299557875324893
8.374571561813354,0.8753862509802827,[0.77534806],5.0,0.6,0.0,0.11511721155595692,-0.7821823257320913,0.6351188088028353
8.38666296005249,0.8703058843451292,[0.77237737],5.0,0.6,0.0,0.06638044641081628,-0.7637284446976114,0.6468973713748328
8.394850015640259,0.8667887074438692,[0.76938255],5.0,0.6,0.0,0.02639205246728532,-0.7244658818022663,0.6499287290857815
8.402854442596436,0.8636623279760824,[0.76637943],5.0,0.6,0.0,-0.0034982757296805195,-0.7230544024715113,0.6506505388551851
8.413007974624634,0.8593635562078759,[0.76337837],5.0,0.6,0.0,-0.024415885090012714,-0.7136818055284547,0.6583996825233875
8.42085862159729,0.856237176740089,[0.76038895],5.0,0.6,0.0,-0.038176942585492195,-0.6779141656401109,0.6592335175798688
8.430853128433228,0.8521338036886189,[0.7574202],5.0,0.6,0.0,-0.04656086614525547,-0.7071428605470286,0.6662698561663289
8.441839933395386,0.8478350319204122,[0.75447248],5.0,0.6,0.0,-0.05106167670772003,-0.6938057270769181,0.6749379090330223
8.450851202011108,0.8439270575856788,[0.7515502],5.0,0.6,0.0,-0.052844230757586874,-0.6530471611479289,0.6814621463825453
8.458852767944336,0.840800678117892,[0.74866472],5.0,0.6,0.0,-0.0527786901718515,-0.6566152488948281,0.6830825385455994
8.468298196792603,0.8366973050664219,[0.74582152],5.0,0.6,0.0,-0.051497171542713036,-0.6539772647646986,0.6917252446836164
8.477518081665039,0.8329847294484253,[0.74302088],5.0,0.6,0.0,-0.04944963046457254,-0.6524092347547902,0.6981545127781039
8.484848737716675,0.8300537486973752,[0.74026215],5.0,0.6,0.0,-0.046951067397158555,-0.6552370719515804,0.6993856471311851
8.495821952819824,0.8255595782124316,[0.73754358],5.0,0.6,0.0,-0.04421858942328119,-0.6508615411004525,0.7123816922728573
8.506410598754883,0.8214562051609617,[0.7348622],5.0,0.6,0.0,-0.041399338591429996,-0.6489112732991744,0.7231948738277563
8.514819622039795,0.8179390282597016,[0.73221831],5.0,0.6,0.0,0.2374473471843307,-0.6152986817665947,0.7299736140362021
8.523938655853271,0.8136402564914949,[0.72961501],5.0,0.6,0.0,0.27330626886985393,-0.6229720273949148,0.7435881033375042
8.53249216079712,0.8103184783069715,[0.72704931],5.0,0.6,0.0,-0.05520809950703348,-0.6320043162802923,0.7498836536516662
8.540823698043823,0.8068013014057114,[0.72451765],5.0,0.6,0.0,-0.1619320804196976,-0.6005065025218453,0.7581548632042989
8.550249814987183,0.8026979283542414,[0.72201562],5.0,0.6,0.0,-0.1750188152304159,-0.6472202496922833,0.771984330398414
8.561371803283691,0.7983991565860346,[0.71952909],5.0,0.6,0.0,0.12267070827910695,-0.6427873112259956,0.7881897009622059
8.568876266479492,0.7952727771182478,[0.71704999],5.0,0.6,0.0,0.18635876932291573,-0.608939824900065,0.7940960628635416
8.578830242156982,0.7909740053500411,[0.71458021],5.0,0.6,0.0,-0.11567703705600735,-0.6142680960250423,0.8112265243539327
8.58886456489563,0.7870660310153078,[0.71211584],5.0,0.6,0.0,-0.20066264140974938,-0.6179026689976808,0.8251078064100553
8.597355604171753,0.7835488541140476,[0.70964804],5.0,0.6,0.0,0.07883549549131133,-0.6208996174263447,0.8354508226198226
8.60584831237793,0.7800316772127877,[0.70716886],5.0,0.6,0.0,0.14560836544076472,-0.6217839041083227,0.8458176209631001
8.616002082824707,0.7757329054445808,[0.70467131],5.0,0.6,0.0,0.129449553756102,-0.6172853561768519,0.8642247327687391
8.624871492385864,0.7722157285433208,[0.70215463],5.0,0.6,0.0,0.0881035201601965,-0.582024500761857,0.8746635490574689
8.63285756111145,0.7690893490755342,[0.69962339],5.0,0.6,0.0,0.04544570525024054,-0.5924488229724397,0.8809420649166723
8.642100811004639,0.764985976024064,[0.69707631],5.0,0.6,0.0,0.009925133126995753,-0.5941734867046857,0.897585720240622
8.649935007095337,0.7616641978395406,[0.69451235],5.0,0.6,0.0,-0.01666743971296212,-0.5620247947840591,0.9058082509653809
8.659852027893066,0.7577562235048073,[0.69193035],5.0,0.6,0.0,-0.035132598667567475,-0.6043429469866368,0.9203736911638842
8.668825387954712,0.7538482491700736,[0.68932378],5.0,0.6,0.0,-0.047050758965760074,-0.5687265862918037,0.9348799822755018
8.677084922790527,0.7503310722688137,[0.68669203],5.0,0.6,0.0,-0.0540317261323254,-0.5780598676244287,0.9448623337296356
8.686832189559937,0.7462276992173437,[0.68403347],5.0,0.6,0.0,-0.057448152635198146,-0.5823024715555342,0.9613354483836473
8.696491241455078,0.741928927449137,[0.68134603],5.0,0.6,0.0,-0.058378298177247004,-0.5489300315784779,0.9799551108851957
8.706831455230713,0.7380209531144034,[0.67863282],5.0,0.6,0.0,-0.05763059401883429,-0.5637402029438278,0.9939133903965851
8.71481466293335,0.7348945736466168,[0.67588907],5.0,0.6,0.0,-0.05579311891870867,-0.5767764622024045,0.9984088054537507
8.723577976226807,0.7313773967453567,[0.67310319],5.0,0.6,0.0,-0.05328434041737756,-0.5835093894339892,1.0070321639439754
8.731833457946777,0.7280556185608333,[0.670271],5.0,0.6,0.0,-0.050396658051052645,-0.5599253577325766,1.0128272846683006
8.740352153778076,0.7241476442261,[0.66739497],5.0,0.6,0.0,-0.04733086839317887,-0.5724360198933289,1.0250947981516825
8.749831914901733,0.7204350686081032,[0.66446949],5.0,0.6,0.0,-0.04422225780177748,-0.5787721685185192,1.0344955427131954
8.759813070297241,0.716331695556633,[0.66148213],5.0,0.6,0.0,-0.04115982778850187,-0.5785641637548582,1.047880989833804
8.767848014831543,0.7134007148055831,[0.65842179],5.0,0.6,0.0,0.23783814798831335,-0.5815043874791472,1.0462854628456975
8.77672290802002,0.7096881391875862,[0.65528653],5.0,0.6,0.0,0.2737853366488271,-0.5670325261186907,1.0532154048439897
8.788413047790527,0.7049985699859063,[0.65207479],5.0,0.6,0.0,-0.054683577706184594,-0.5673143040134163,1.0711010416404376
8.795819282531738,0.7018721905181196,[0.64877009],5.0,0.6,0.0,-0.16139082089348944,-0.5673555175536952,1.0689284459192583
8.80685544013977,0.6971826213164394,[0.64535938],5.0,0.6,0.0,-0.1744797399085062,-0.5606278624559053,1.0844007033206993
8.816437482833862,0.692688450831496,[0.64184855],5.0,0.6,0.0,-0.15284290704825093,-0.5589414674782751,1.0963257550822005
8.824804067611694,0.6895620713637093,[0.63825186],5.0,0.6,0.0,-0.12230126544307422,-0.5632802080527056,1.0906294119125626
8.834819555282593,0.6852632995955026,[0.6345675],5.0,0.6,0.0,-0.09322757214171612,-0.5427686421984151,1.0980842528779187
8.84593415260315,0.6809645278272958,[0.63078065],5.0,0.6,0.0,-0.06903182905570511,-0.5464632215980944,1.1042965315701756
8.854358673095703,0.6776427496427724,[0.62689614],5.0,0.6,0.0,-0.05017559517673613,-0.5594569601712801,1.0974726359651588
8.862882375717163,0.6741255727415123,[0.62293525],5.0,0.6,0.0,-0.03601926055728132,-0.5625536973502149,1.0920930170036336
8.872690916061401,0.6700221996900422,[0.61891055],5.0,0.6,0.0,-0.0256337659504624,-0.5623478355533275,1.0930473397707325
8.88134765625,0.6665050227887822,[0.61482745],5.0,0.6,0.0,-0.018128120611582293,-0.5651070805814046,1.0861879808642583
8.892860412597656,0.6620108523038388,[0.61069277],5.0,0.6,0.0,-0.012758321903996743,-0.563151019680337,1.0905450531656362
8.901820421218872,0.6581028779691054,[0.6065144],5.0,0.6,0.0,-0.008943427703287996,-0.5639871691820624,1.0872677690203902
8.911060810089111,0.654194903634372,[0.6023073],5.0,0.6,0.0,-0.28228508119809864,-0.5479493948060046,1.0835842706412087
8.922828674316406,0.6497007331494286,[0.59808595],5.0,0.6,0.0,-0.3135104482338621,-0.5638824889191938,1.086875961967321
8.933056116104126,0.6452065626644852,[0.59385168],5.0,0.6,0.0,-0.25707942591423766,-0.5608141514459017,1.0900499458352861
8.942801237106323,0.6412985883297517,[0.58960719],5.0,0.6,0.0,-0.18005998735193945,-0.5597290992003818,1.0859965317827465
8.952218055725098,0.6371952152782816,[0.58536241],5.0,0.6,0.0,-0.1088840522380436,-0.5573209118982241,1.0842986649979842
8.961275577545166,0.6328964435100749,[0.5811268],5.0,0.6,0.0,-0.32784490395809684,-0.553659199336742,1.0849927167682687
8.968867301940918,0.6301608614757614,[0.57691452],5.0,0.6,0.0,-0.3186547406856048,-0.5326522800313126,1.0671293234427517
8.978838205337524,0.6262528871410281,[0.57274324],5.0,0.6,0.0,0.04211613495961064,-0.5391426148672102,1.0640238152403614
8.987307786941528,0.6225403115230315,[0.56862217],5.0,0.6,0.0,0.1710057803180069,-0.5445834097931271,1.0590747436974783
8.997830867767334,0.618632337188298,[0.56455308],5.0,0.6,0.0,0.19868856754213604,-0.5476101699711582,1.0571247944105542
9.007858514785767,0.6145289641368279,[0.56053685],5.0,0.6,0.0,0.18613875406400085,-0.5486715072167481,1.0581788768787308
9.017499685287476,0.6104255910853578,[0.55657356],5.0,0.6,0.0,0.16078484267176768,-0.5491408836785181,1.0598745312019746
9.02483344078064,0.607299211617571,[0.55266247],5.0,0.6,0.0,0.134195836803698,-0.5540094031211116,1.0504279825772196
9.03424859046936,0.603195838566101,[0.54880208],5.0,0.6,0.0,0.11065069158761126,-0.5538475289884583,1.0533565890482444
9.043635606765747,0.5994832629481043,[0.54499584],5.0,0.6,0.0,0.09123143879358135,-0.5250750507275298,1.0522319962168045
9.053948402404785,0.5953798898966343,[0.54125135],5.0,0.6,0.0,0.07573560412468988,-0.5340670657089259,1.0565560131038034
9.065809488296509,0.5904949219782174,[0.53756295],5.0,0.6,0.0,0.06353849142972608,-0.5593136452733094,1.071001172128834
9.075942754745483,0.586000751493274,[0.53391384],5.0,0.6,0.0,0.05395855672528,-0.552999186725169,1.0812275780098035
9.086272478103638,0.5817019797250673,[0.53029473],5.0,0.6,0.0,-0.22964432143179428,-0.5479031979341342,1.0894250959819138
9.094107389450073,0.5785756002572806,[0.52670837],5.0,0.6,0.0,-0.26880394899488286,-0.5219852207478564,1.083836668388298
9.103898048400879,0.5750584233560204,[0.52315624],5.0,0.6,0.0,0.0574514864368838,-0.5551933410200639,1.0834645339648858
9.112346649169922,0.5715412464547605,[0.519633],5.0,0.6,0.0,0.1626542619050958,-0.529276613146324,1.0833739299623781
9.124078273773193,0.566460879819607,[0.51613912],5.0,0.6,0.0,0.17473770238317177,-0.5293548291265979,1.1026047860987727
9.134840965270996,0.562357506768137,[0.51267394],5.0,0.6,0.0,0.1524440108750048,-0.5320161867869322,1.1103518853132712
9.144909143447876,0.5586449311501402,[0.50922416],5.0,0.6,0.0,0.12148735612323268,-0.5513831316196484,1.113545714249085
9.153821229934692,0.5547369568154068,[0.50577781],5.0,0.6,0.0,0.09216514333649084,-0.5285715987441824,1.1191486871057017
9.162750005722046,0.5508289824806734,[0.50233649],5.0,0.6,0.0,0.06783445957183856,-0.5309676527934476,1.1248086056191713
9.171201467514038,0.5471164068626767,[0.49890108],5.0,0.6,0.0,0.04891986455282423,-0.5331002341455714,1.128168745374049
9.1809561252594,0.5432084325279433,[0.49546576],5.0,0.6,0.0,0.034755984788830865,-0.5334423312673243,1.1338937328469667
9.18881106376648,0.5398866543434199,[0.49203144],5.0,0.6,0.0,0.024395900674630367,-0.5098294537514997,1.132531612407547
9.197924375534058,0.5361740787254231,[0.48860471],5.0,0.6,0.0,0.016936303933302338,-0.5200883077178404,1.1359920042684473
9.209532737731934,0.5312891108070064,[0.48517797],5.0,0.6,0.0,0.011624751859671961,-0.5359604986526431,1.1536079207652996
9.21877908706665,0.5275765351890096,[0.48173808],5.0,0.6,0.0,0.007874568040660643,-0.5170399804653754,1.156893879631403
9.227818727493286,0.523863959571013,[0.47828664],5.0,0.6,0.0,0.00524518490888079,-0.5213321760342265,1.1600375836381727
9.238828659057617,0.5191743903693328,[0.47481849],5.0,0.6,0.0,0.0034133401744144893,-0.5283702191752631,1.1746986095183423
9.248296022415161,0.5156572134680728,[0.47132306],5.0,0.6,0.0,0.002145393221398728,-0.5150206581727922,1.1749589622646812
9.2619309425354,0.5099906506827093,[0.46781117],5.0,0.6,0.0,0.001274186556386282,-0.48057189920287857,1.2005974877044954
