t_s,q_rad,q_des_rad,K,B,Kff,jerk,tau_Nm,reward
0.0054090023040771484,-0.038493547197124035,[0.00765797],9.825212432529046,0.9790254919034855,1.9737818648793566,0.0,9.998999999999999,1.153121231075637
0.01862311363220215,-0.038493547197124035,[0.03700714],9.650424865058092,0.9580509838069711,1.9475637297587132,0.0,10.098989999999999,0.8197963713703376
0.03632354736328125,-0.038493547197124035,[0.09197163],9.475637297587138,0.9370764757104565,1.92134559463807,0.0,10.099989899999999,0.5332323205704966
0.04541301727294922,-0.038493547197124035,[0.16787848],9.300849730116184,0.9161019676139419,1.8951274595174268,0.0,10.099999898999998,0.5001998621133593
0.05534696578979492,-0.038493547197124035,[0.26050721],9.12606216264523,0.8951274595174274,1.8689093243967834,0.0,10.099999998989999,0.5000000171667552
0.06635451316833496,-0.038493547197124035,[0.36607275],8.951274595174274,0.8741529514209129,1.84269118927614,0.0,10.0999999999899,0.5000000000000061
0.07898497581481934,-0.038493547197124035,[0.4812051],8.77648702770332,0.8531784433243983,1.8164730541554968,0.0,-9.8980000000001,0.5
0.0900728702545166,-0.038493547197124035,[0.60292957],8.601699460232366,0.8322039352278838,1.7902549190348536,0.0,-10.09798,0.5
0.10024309158325195,-0.038493547197124035,[0.72864609],8.426911892761412,0.8112294271313693,1.7640367839142101,0.0,-10.099979799999998,0.5
0.11309957504272461,-0.038493547197124035,[0.85610492],8.252124325290458,0.7902549190348547,1.7378186487935667,0.0,-10.099999797999999,0.5
0.12335586547851562,-0.038493547197124035,[0.98338116],8.077336757819502,0.7692804109383402,1.7116005136729235,0.0,-5.100499997979999,0.5
0.14045953750610352,-0.038493547197124035,[1.10884908],7.902549190348549,0.7483059028418256,1.6853823785522803,0.0,-5.0505049999797995,0.5
0.1523914337158203,-0.038493547197124035,[1.23115604],7.727761622877595,0.727331394745311,1.659164243431637,0.0,-5.050005049999798,0.5
0.1698763370513916,-0.038493547197124035,[1.34919862],7.55297405540664,0.7063568866487966,1.6329461083109935,0.0,-5.050000050499998,0.5
0.18047118186950684,-0.038493547197124035,[1.46209958],7.378186487935686,0.685382378552282,1.6067279731903503,0.0,-5.050000000504999,0.5
0.1892836093902588,-0.038493547197124035,[1.56918562],7.203398920464732,0.6644078704557674,1.5805098380697071,0.0,-5.050000000005049,0.5
0.20442819595336914,-0.038493547197124035,[1.66996353],7.028611352993777,0.643433362359253,1.5542917029490637,0.0,-5.05000000000005,0.5
0.21540236473083496,-0.038493547197124035,[1.76409688],6.853823785522822,0.6224588542627384,1.5280735678284203,0.0,-5.05,0.5
0.22843694686889648,-0.038493547197124035,[1.85138667],6.679036218051868,0.6014843461662238,1.501855432707777,0.0,-5.05,0.5
0.24140477180480957,-0.038493547197124035,[1.93175339],6.504248650580913,0.6,1.475637297587134,0.0,-5.05,0.5
0.262648344039917,-0.03829814848038737,[2.0052188],6.329461083109958,0.6,1.4494191624664907,0.0,-5.05,0.5
0.2730085849761963,-0.038493547197124035,[2.07189039],6.154673515639004,0.6,1.4232010273458477,0.0,-5.05,0.5
0.2833740711212158,-0.038493547197124035,[2.13194877],5.97988594816805,0.6,1.3969828922252046,0.0,-5.05,0.5
0.2947230339050293,-0.038493547197124035,[2.1856336],5.805098380697095,0.6,1.3707647571045614,0.0,-5.05,0.5
0.3063013553619385,-0.038493547197124035,[2.23322989],5.63031081322614,0.6,1.3445466219839184,0.0,-5.05,0.5
0.3162717819213867,-0.038493547197124035,[2.27505731],5.455523245755186,0.6,1.3183284868632752,0.0,-5.05,0.5
0.3361084461212158,-0.038493547197124035,[2.31145998],5.280735678284231,0.6,1.292110351742632,0.0,-5.05,0.5
0.35544443130493164,-0.038493547197124035,[2.34279694],5.105948110813277,0.6,1.2658922166219888,0.0,-3.212890925142982,0.5
0.36733078956604004,-0.038493547197124035,[2.36943777],5.0,0.6,1.2396740815013456,0.0,0.7813412687149321,0.5
0.3800797462463379,-0.03829814848038737,[2.39175794],5.0,0.6,1.2134559463807026,0.0,3.9639919366816843,0.5
0.39527010917663574,-0.03712575617996735,[2.41013103],5.0,0.6,1.1872378112600595,0.552076719357362,6.122737752206146,0.49977316659524446
0.40909290313720703,-0.03302238312849727,[2.42492339],5.0,0.6,1.1610196761394163,3.9307862418244164,7.983612569947844,0.48862949010561885
0.42130470275878906,-0.028528212643553853,[2.43649123],5.0,0.6,1.1348015410187733,5.0,9.46918399860113,0.4817320621239355
0.43720388412475586,-0.02247085242471708,[2.44517736],5.0,0.6,1.10858340589813,5.0,10.09369183998601,0.4817320621239355
0.4462547302246094,-0.018562878089983675,[2.45130903],5.0,0.6,1.082365270777487,5.0,10.099936918399859,0.4817320621239355
0.4584181308746338,-0.013677910171566917,[2.45519711],5.0,0.6,1.0561471356568437,5.0,10.099999369183998,0.4817320621239355
0.4713253974914551,-0.00840214481967682,[2.4571336],5.0,0.6,1.0299290005362005,5.0,10.099999993691839,0.4817320621239355
0.4812624454498291,-0.0042987717682067455,[2.4573906],5.0,0.6,1.0037108654155575,5.0,10.099999999936918,0.4817320621239355
0.49419093132019043,0.0009769935836833512,[2.45622028],5.0,0.6,0.9774927302949143,5.0,10.099999999999367,0.4817320621239355
0.5048894882202148,0.005275765351890096,[2.45385409],5.0,0.6,0.9512745951742712,5.0,10.099999999999993,0.4817320621239355
0.5133275985717773,0.00840214481967682,[2.45050379],5.0,0.6,0.9250564600536281,2.6094059164564287,10.099999999999998,0.49495698168316427
0.5255403518676758,0.013091714021356905,[2.44636171],5.0,0.6,0.898838324932985,-0.14830566641695464,5.100499999999999,0.49998362749792147
0.5368185043334961,0.017781283223036994,[2.44160005],5.0,0.6,0.8726201898123418,-2.774522575010222,5.050504999999999,0.49430233505498844
0.5473153591156006,0.022275453707980408,[2.43637229],5.0,0.6,0.8464020546916986,-4.550084355273816,5.050005049999999,0.4848235699683386
0.5626833438873291,0.028528212643553853,[2.43081414],5.0,0.6,0.8201839195710555,-5.0,5.0500000505,0.4817320621239355
0.5736856460571289,0.0328269844117606,[2.42504412],5.0,0.6,0.7939657844504124,-5.0,5.050000000504999,0.4817320621239355
0.5846514701843262,0.03712575617996735,[2.41916586],5.0,0.6,0.7677476493297692,-5.0,5.050000000005049,0.4817320621239355
0.5942938327789307,0.04103373051470075,[2.41326911],5.0,0.6,0.741529514209126,-5.0,5.05000000000005,0.4817320621239355
0.6083431243896484,0.046895692016800855,[2.40742998],5.0,0.6,0.715311379088483,-5.0,5.05,0.4817320621239355
0.6270654201507568,0.054907039403004336,[2.40171074],5.0,0.6,0.6890932439678399,-5.0,5.05,0.4817320621239355
0.6401045322418213,0.05959660860468442,[2.39616142],5.0,0.6,0.6628751088471967,-5.0,5.05,0.4817320621239355
0.6507687568664551,0.06389538037289116,[2.39082334],5.0,0.6,0.6366569737265535,-5.0,5.05,0.4817320621239355
0.6680409908294678,0.0709297341754113,[2.38572913],5.0,0.6,0.6104388386059104,-5.0,5.05,0.4817320621239355
0.6829872131347656,0.07659629696077475,[2.38090201],5.0,0.6,0.5842207034852673,-5.0,5.05,0.4817320621239355
0.6913924217224121,0.08011347386203481,[2.37635918],5.0,0.6,0.5580025683646241,-5.0,5.05,0.4817320621239355
0.706395149230957,0.08656163151434493,[2.37211278],5.0,0.6,0.531784433243981,-4.845660171830449,5.05,0.48282314171619434
0.7153201103210449,0.09007880841560498,[2.36816855],5.0,0.6,0.5055662981233379,-4.584412040176076,5.05,0.48459728893597
0.7303969860076904,0.0965269660679151,[2.36452722],5.0,0.6,0.4793481630026947,-4.283363635331771,5.05,0.48652717659005246
0.7433207035064697,0.10141193398633185,[2.36118557],5.0,0.6,0.4531300278820516,-3.9752983758167684,5.05,0.48837354757876744
0.7563307285308838,0.10688309805495863,[2.35813699],5.0,0.6,0.42691189276140845,-3.6758025078959102,5.05,0.490042502420247
0.7693746089935303,0.11215886340684872,[2.35537218],5.0,0.6,0.4006937576407653,-3.667898928557171,5.05,0.4900848499433391
0.7903156280517578,0.12095180565999888,[2.35287906],5.0,0.6,0.3744756225201221,-3.4353365993948466,5.05,0.49129165659993296
0.801800012588501,0.1252505774282056,[2.35064363],5.0,0.6,0.3482574873994789,-3.1333969561375197,5.05,0.492744501322574
0.8125772476196289,0.12954934919641237,[2.34865196],5.0,0.6,0.3220393522788358,-2.8288855864867712,5.05,0.494078211954302
0.8232414722442627,0.1338481209646191,[2.34689019],5.0,0.6,0.2958212171581926,-2.547456654133147,5.05,0.49519244817091734
0.8380589485168457,0.13971008246671923,[2.34534347],5.0,0.6,0.2696030820375494,-2.296362283886829,5.05,0.4960899365250035
0.8580164909362793,0.14772142985292272,[2.34399576],5.0,0.6,0.24338494691690624,-2.075187225579211,5.05,0.4968045665490269
0.8686110973358154,0.15202020162112945,[2.34283091],5.0,0.6,0.21716681179626307,-1.8807672000873519,5.05,0.4973737643274221
0.8763689994812012,0.1555373785223895,[2.34183403],5.0,0.6,0.19094867667561988,-1.7093328936045522,5.05,0.49782972021178756
0.8903241157531738,0.16120394130775295,[2.34099092],5.0,0.6,0.16473054155497668,-1.5573605121511824,5.05,0.49819780768857197
0.9032857418060303,0.16647970665964307,[2.34028733],5.0,0.6,0.13851240643433352,-1.4218412968875995,5.05,0.49849735802746625
0.9274470806121826,0.17624964249647657,[2.33970909],5.0,0.6,0.11229427131369034,-1.300306556474587,5.05,0.4987429525291942
0.941798210144043,0.18191620528184,[2.33924256],5.0,0.6,0.08607613619304716,-1.1907627389641733,5.05,0.49894561593921943
0.9552085399627686,0.1871919706337301,[2.33887529],5.0,0.6,0.05985800107240398,-1.0916041710878375,5.05,0.49911375892597254
0.9713358879089355,0.1938355270027769,[2.33859597],5.0,0.6,0.0336398659517608,-1.001530531437081,5.05,0.4992538763214923
0.9843630790710449,0.1993066910714036,[2.33839388],5.0,0.6,0.0074217308311176206,-0.9194778638314167,5.05,0.49937105026417355
0.998323917388916,0.20516865257350375,[2.33825911],5.0,0.6,0.0,-0.8445642217033881,5.05,0.49946930932535316
1.0130178928375244,0.2110306140756039,[2.33818252],5.0,0.6,0.0,-0.7760481671229926,5.05,0.4995518851420291
1.0242021083831787,0.2155247845605473,[2.33815569],5.0,0.6,0.0,-0.7132976080977478,5.05,0.4996213972764815
1.035630226135254,0.219823556328754,[2.33817097],5.0,0.6,0.0,-0.6557665735588651,5.05,0.49967998803984237
1.04917311668396,0.22588091654759082,[2.33822138],5.0,0.6,0.0,-0.6029779235843088,5.05,0.4997294223240155
1.0609750747680664,0.23017968831579752,[2.33830056],5.0,0.6,0.0,-0.5545104298516533,5.05,0.4997711627541802
1.076049566268921,0.2360416498178977,[2.33840278],5.0,0.6,0.0,-0.5099890470798008,5.05,0.4998064272178306
1.0898287296295166,0.24170821260326106,[2.33852286],5.0,0.6,0.0,-0.4690775061990483,5.05,0.49983623361667556
1.1029200553894043,0.24698397795515117,[2.33865617],5.0,0.6,0.0,-0.4314725971001975,5.05,0.4998614351971818
1.116633415222168,0.2528459394572513,[2.33879861],5.0,0.6,0.0,-0.3968996849986283,5.05,0.49988274881049816
1.1310625076293945,0.25870790095935137,[2.33894652],5.0,0.6,0.0,-0.365109133009625,5.05,0.49990077777226455
1.1463689804077148,0.26496065989492484,[2.33909669],5.0,0.6,0.0,-0.3358733962585465,5.05,0.49991603052906547
1.1571111679077148,0.2692594316631316,[2.33924634],5.0,0.6,0.0,-0.30898461924170545,5.05,0.4999289360188685
1.1722140312194824,0.2755121905987051,[2.33939304],5.0,0.6,0.0,-0.2842526154616748,5.05,0.4999398563899163
1.1863577365875244,0.28137415210080513,[2.33953471],5.0,0.6,0.0,-0.261503141996453,5.05,0.499949097584638
1.197356939315796,0.2854775251522752,[2.33966957],5.0,0.6,0.0,-0.24057640554712753,5.05,0.4999569181813673
1.2063403129577637,0.2889947020535353,[2.33979631],5.0,0.6,0.0,-0.221325753475617,5.05,0.49996353680316163
1.2188422679901123,0.2942704674054254,[2.33991399],5.0,0.6,0.0,-0.20361651542575926,5.05,0.49996913834061046
1.2376904487609863,0.3015002199246822,[2.34002166],5.0,0.6,0.0,0.08871338994347575,5.05,0.4999941415533285
1.2522735595703125,0.3075575801435189,[2.34011831],5.0,0.6,0.0,0.13682554781137052,5.05,0.4999860641002273
1.2672677040100098,0.3140057377958291,[2.34020332],5.0,0.6,0.0,0.09551637441529763,5.05,0.49999320859884133
1.2803800106048584,0.3190861044309825,[2.34027649],5.0,0.6,0.0,0.032116078804400545,5.05,0.49999923219422965
1.2932801246643066,0.3241664710661359,[2.3403378],5.0,0.6,0.0,-0.026736894939235884,5.05,0.4999994678569637
1.3072538375854492,0.32983303385149937,[2.34038742],5.0,0.6,0.0,-0.07262272329099903,5.05,0.4999960740023851
1.3221969604492188,0.3356949953535995,[2.34042571],5.0,0.6,0.0,-0.10474335076026864,5.05,0.49999183312225526
1.3373746871948242,0.3419477542891729,[2.34045317],5.0,0.6,0.0,-0.12507174411713098,5.05,0.49998835552184834
1.3481802940368652,0.346637323490853,[2.34047045],5.0,0.6,0.0,-0.1362397824225519,5.05,0.49998618316544013
1.3713059425354004,0.3560164618942132,[2.34047826],5.0,0.6,0.0,0.1353369779444181,5.05,0.49998636567308513
1.3871848583221436,0.3628554169799967,[2.34047739],5.0,0.6,0.0,0.16869557560011447,5.05,0.4999788161515874
1.4021940231323242,0.36871737848209674,[2.3404689],5.0,0.6,0.0,0.11698544440094022,5.05,0.4999898125401692
1.4173431396484375,0.37457933998419685,[2.34045406],5.0,0.6,0.0,0.04630428210558271,5.05,0.4999984039433835
1.4347288608551025,0.381613693786717,[2.34043424],5.0,0.6,0.0,-0.017611782751894775,5.05,0.49999976910569865
1.4456794261932373,0.38591246555492376,[2.34041089],5.0,0.6,0.0,-0.06699409251839486,5.05,0.49999665898641366
1.459195852279663,0.39118823090681387,[2.3403854],5.0,0.6,0.0,-0.10150996517980762,5.05,0.4999923295525013
1.4721736907958984,0.39665939497544056,[2.34035919],5.0,0.6,0.0,-0.12346270970556955,5.05,0.499988653201141
1.485898733139038,0.40232595776080404,[2.34033374],5.0,0.6,0.0,-0.13571755299524035,5.05,0.499986288885363
1.4982609748840332,0.4074063243959575,[2.34031059],5.0,0.6,0.0,-0.14089264122595263,5.05,0.49998522331963635
1.5121853351593018,0.41268208974784754,[2.34029119],5.0,0.6,0.0,-0.1411140698691103,5.05,0.49998517683739485
1.5231726169586182,0.41717626023279103,[2.34027695],5.0,0.6,0.0,-0.1380049798444095,5.05,0.49998582281409804
1.5372545719146729,0.42342901916836445,[2.34026933],5.0,0.6,0.0,-0.13275813015527518,5.05,0.4999868803203336
1.5482041835784912,0.4275323922198345,[2.34026962],5.0,0.6,0.0,-0.1262267257332521,5.05,0.4999881394683101
1.5597443580627441,0.4322219614215146,[2.34027886],5.0,0.6,0.0,-0.1190079408185542,5.05,0.4999894572483045
1.571035623550415,0.43691153062319465,[2.340298],5.0,0.6,0.0,-0.1115112932292483,5.05,0.4999907436373705
1.5862774848937988,0.4425780934085581,[2.34032828],5.0,0.6,0.0,-0.10401140138196244,5.05,0.49999194686325676
1.595259428024292,0.44668146646002815,[2.34037077],5.0,0.6,0.0,-0.0966873075179644,5.05,0.4999930410681077
1.6071796417236328,0.4515664343784449,[2.34042572],5.0,0.6,0.0,-0.08965115074851582,5.05,0.49999401704393165
1.6192901134490967,0.4566468010135984,[2.34049339],5.0,0.6,0.0,-0.08296876570078512,5.05,0.49999487570989887
1.6311814785003662,0.46094557278180515,[2.34057472],5.0,0.6,0.0,-0.07667432311808375,5.05,0.49999562372428014
1.6415669918060303,0.46543974326674853,[2.34067026],5.0,0.6,0.0,-0.3468190099011012,5.05,0.49991046897062724
1.6561574935913086,0.47130170476884864,[2.34078046],5.0,0.6,0.0,-0.374449418053647,5.05,0.4998956367327335
1.6704118251800537,0.476968267554212,[2.34090638],5.0,0.6,0.0,-0.31424705792146695,5.05,0.4999264949476354
1.6836521625518799,0.4822440329061022,[2.34104883],5.0,0.6,0.0,-0.23343003013172503,5.05,0.4999594395736174
1.6982545852661133,0.4879105956914656,[2.341208],5.0,0.6,0.0,0.11750920540403795,5.05,0.4999897211153974
1.7132015228271484,0.49396795591030235,[2.34138389],5.0,0.6,0.0,0.21130086693864314,5.05,0.4999667650676564
1.7354366779327393,0.5029562968801892,[2.34157717],5.0,0.6,0.0,0.20193498355007683,5.05,0.4999696459518202
1.7431883811950684,0.5062780750647126,[2.3417882],5.0,0.6,0.0,0.15870866873737938,5.05,0.4999812500622698
1.7639682292938232,0.5150710173178628,[2.34201615],5.0,0.6,0.0,-0.16515056888294083,5.05,0.49997969710326107
1.774341106414795,0.5191743903693328,[2.3422603],5.0,0.6,0.0,-0.23982018599422295,5.05,0.4999571885879069
1.793304443359375,0.5265995416053263,[2.34251957],5.0,0.6,0.0,-0.21718567581848722,5.05,0.4999648881442883
1.8082857131958008,0.532656901824163,[2.34279338],5.0,0.6,0.0,-0.16491356547988306,5.05,0.49997975533261646
1.8227362632751465,0.5387142620429999,[2.34308095],5.0,0.6,0.0,-0.11105088606742136,5.05,0.49999081991410715
1.8418262004852295,0.5461394132789933,[2.34338118],5.0,0.6,0.0,-0.06557734186874294,5.05,0.4999967987993027
1.8511872291564941,0.5496565901802534,[2.34369293],5.0,0.6,0.0,-0.030658144504226752,5.05,0.4999993003221826
1.8669254779815674,0.5564955452660368,[2.34401387],5.0,0.6,0.0,-0.005404196585478079,5.05,0.49999997825952924
1.886061429977417,0.5645068926522403,[2.34434286],5.0,0.6,0.0,0.012004141266113584,5.05,0.49999989273233575
1.8992226123809814,0.5699780567208671,[2.34468053],5.0,0.6,0.0,0.023434558789131595,5.05,0.4999995911913651
1.9136343002319336,0.5758400182229672,[2.34502653],5.0,0.6,0.0,0.03048709193153583,5.05,0.4999993081078941
1.9281468391418457,0.5815065810083306,[2.3453795],5.0,0.6,0.0,0.034424119903143854,5.05,0.4999991178712355
1.943124771118164,0.5877593399439041,[2.34573828],5.0,0.6,0.0,0.03619683045625565,5.05,0.4999990246795307
1.9565691947937012,0.5932305040125309,[2.34610195],5.0,0.6,0.0,0.03650145383003868,5.05,0.49999900819436927
1.9701285362243652,0.5985062693644211,[2.34646986],5.0,0.6,0.0,0.03583745724519852,5.05,0.499999043949934
1.9867136478424072,0.6053452244502044,[2.34684188],5.0,0.6,0.0,0.034557674897762375,5.05,0.4999991110131874
1.9991428852081299,0.6104255910853578,[2.34721809],5.0,0.6,0.0,0.03290807608207,5.05,0.49999919385844144
2.018237829208374,0.6178507423213512,[2.34759919],5.0,0.6,0.0,0.031057923225525863,5.05,0.49999928195578497
2.0319297313690186,0.623908102540188,[2.34798717],5.0,0.6,0.0,0.029122025931907845,5.05,0.49999936867996825
2.040313720703125,0.6276206781581847,[2.34838198],5.0,0.6,0.0,0.0271768751041732,5.05,0.4999994501990656
2.061138391494751,0.6354366268276517,[2.34878299],5.0,0.6,0.0,0.02527220079442922,5.05,0.4999995245634171
2.072185516357422,0.6401261960293317,[2.3491921],5.0,0.6,0.0,0.023439181632853058,5.05,0.4999995910300611
2.0817394256591797,0.6440341703640652,[2.34960905],5.0,0.6,0.0,0.021696238890092177,5.05,0.49999964959085547
2.100486993789673,0.651850119033532,[2.35003299],5.0,0.6,0.0,0.02005310500860661,5.05,0.4999997006565213
2.1081671714782715,0.6545857010678453,[2.35046479],5.0,0.6,0.0,0.018513667757817362,5.05,0.49999974485239507
2.1236302852630615,0.6608384600034187,[2.35090387],5.0,0.6,0.0,0.0170779498866252,5.05,0.49999978289088814
2.1346418857574463,0.6651372317716254,[2.35135018],5.0,0.6,0.0,0.01574348065259358,5.05,0.4999998154950149
2.148669481277466,0.6708037945569889,[2.35180438],5.0,0.6,0.0,0.014506240866415845,5.05,0.4999998433550581
2.168856620788574,0.6792059393766657,[2.35226868],5.0,0.6,0.0,0.013361309631383867,5.05,0.49999986710621397
2.1761598587036133,0.6821369201277159,[2.35274524],5.0,0.6,0.0,0.012303302968876979,5.05,0.49999988731916317
2.192199230194092,0.6883896790632892,[2.35323261],5.0,0.6,0.0,0.011326667648979608,5.05,0.49999990449833376
2.207634210586548,0.6948378367155994,[2.35373117],5.0,0.6,0.0,0.010425874600418567,5.05,0.49999991908451635
2.217015266418457,0.6989412097670694,[2.35424253],5.0,0.6,0.0,0.2856339026259858,5.05,0.4999392704858168
2.232174873352051,0.7046077725524329,[2.3547662],5.0,0.6,0.0,0.041955119523543305,5.05,0.49999868968403777
2.2422077655792236,0.7089065443206396,[2.35530114],5.0,0.6,0.0,-0.04697134972817042,5.05,0.4999983576260733
2.260866403579712,0.7167224929901064,[2.35584719],5.0,0.6,0.0,0.20743047111336058,5.05,0.4999679714061283
2.2766685485839844,0.72238905577547,[2.35640679],5.0,0.6,0.0,0.24552013007294204,5.05,0.49995512944941317
2.2912113666534424,0.7282510172775699,[2.35698182],5.0,0.6,0.0,0.20377399614330338,5.05,0.4999690905856882
2.3044450283050537,0.7339175800629335,[2.35757156],5.0,0.6,0.0,0.14180721439626084,5.05,0.4999850308608245
2.319174289703369,0.7399749402817702,[2.35817453],5.0,0.6,0.0,0.08340138601113734,5.05,0.4999948221321431
2.333239793777466,0.7458369017838703,[2.35878934],5.0,0.6,0.0,0.0362384753696814,5.05,0.49999902243400474
2.347172737121582,0.7513080658524971,[2.35941491],5.0,0.6,0.0,0.2772602352378234,5.05,0.49994277879515164
2.3611464500427246,0.7571700273545973,[2.36005021],5.0,0.6,0.0,0.2859178421334886,5.05,0.4999391496946295
2.3751816749572754,0.7630319888566973,[2.36069402],5.0,0.6,0.0,0.21467823235625144,5.05,0.49996569418056186
2.3898675441741943,0.7690893490755342,[2.3613452],5.0,0.6,0.0,0.12867110587975622,5.05,0.4999876756679724
2.4123282432556152,0.7774914938952109,[2.36200475],5.0,0.6,0.0,-0.22333221989259258,5.05,0.49996287270436446
2.420184373855591,0.7808132720797343,[2.36267337],5.0,0.6,0.0,-0.3153873436240293,5.05,0.4999259605743722
2.441615104675293,0.7896062143328845,[2.36334938],5.0,0.6,0.0,-0.3024640246659042,5.05,0.4999319035372588
2.4491968154907227,0.7927325938006711,[2.36403124],5.0,0.6,0.0,-0.25456350946778644,5.05,0.49995176325158697
2.4691269397735596,0.8009393399036113,[2.36471753],5.0,0.6,0.0,-0.2014466728543667,5.05,0.49996979257166485
2.4820902347564697,0.8062151052555014,[2.36540818],5.0,0.6,0.0,0.12171334005114266,5.05,0.4999889724700222
2.4982497692108154,0.8124678641910749,[2.36610305],5.0,0.6,0.0,0.19292793351135462,5.05,0.49997229329585874
2.51118540763855,0.8179390282597016,[2.36680153],5.0,0.6,0.0,0.16717019395058766,5.05,0.49997919750944764
2.524233341217041,0.8234101923283283,[2.36750301],5.0,0.6,0.0,0.11307529134623755,5.05,0.4999904821693625
2.5382041931152344,0.8290767551136919,[2.36820607],5.0,0.6,0.0,0.05877695024051531,5.05,0.4999974283038503
2.5551929473876953,0.8361111089162119,[2.36890984],5.0,0.6,0.0,0.014024463344538884,5.05,0.49999985358717675
2.5751760005950928,0.8439270575856788,[2.3696155],5.0,0.6,0.0,-0.29535793922452463,5.05,0.4999350654595244
2.588263511657715,0.8493982216543056,[2.37032524],5.0,0.6,0.0,-0.3515858632027462,5.05,0.4999079911670576
2.6041834354400635,0.8558463793066157,[2.3710388],5.0,0.6,0.0,-0.3113957091604116,5.05,0.4999278227094389
2.620177984237671,0.8620991382421892,[2.37175421],5.0,0.6,0.0,-0.2440583147536598,5.05,0.49995566214945164
2.641287326812744,0.8706966817786026,[2.37247171],5.0,0.6,0.0,-0.17784491410977463,5.05,0.49997645604873003
2.649388313293457,0.8738230612463893,[2.37319152],5.0,0.6,0.0,-0.3984782062892398,5.05,0.49988181442008645
2.66949725151062,0.8820298073493293,[2.37391184],5.0,0.6,0.0,-0.3887357098895482,5.05,0.49988752223004407
2.677191972732544,0.8853515855338528,[2.37463077],5.0,0.6,0.0,-0.30199845536459147,5.05,0.4999321129973553
2.698056221008301,0.8937537303535298,[2.37534669],5.0,0.6,0.0,-0.20332498561870618,5.05,0.4999692266475543
2.7123241424560547,0.8998110905723665,[2.37606021],5.0,0.6,0.0,0.15892224568267094,5.05,0.49998119956504594
2.7260966300964355,0.9054776533577299,[2.37677184],5.0,0.6,0.0,0.25926782763079625,5.05,0.4999499640440265
2.7381842136383057,0.9103626212761465,[2.37748006],5.0,0.6,0.0,0.25310420398554434,5.05,0.49995231468207363
2.7521607875823975,0.9162245827782467,[2.37818358],5.0,0.6,0.0,-0.06525990549483668,5.05,0.49999682971592185
2.7672359943389893,0.9222819429970835,[2.3788813],5.0,0.6,0.0,-0.1468419120681757,5.05,0.49998394908605615
2.7892770767211914,0.9306840878167605,[2.37957406],5.0,0.6,0.0,-0.13491739731162478,5.05,0.49998645008097364
2.8044137954711914,0.9371322454690706,[2.38026434],5.0,0.6,0.0,-0.3695687914015043,5.05,0.4998983392989469
2.81217885017395,0.9402586249368571,[2.38095063],5.0,0.6,0.0,-0.358560678087476,5.05,0.4999043047385936
2.830101490020752,0.9472929787393772,[2.38162935],5.0,0.6,0.0,-0.2662390167819352,5.05,0.49994723728178386
2.8437752723693848,0.9531549402414774,[2.38230078],5.0,0.6,0.0,-0.16208064046988996,5.05,0.4999804448806529
2.8560729026794434,0.9580399081598941,[2.38296551],5.0,0.6,0.0,-0.07195596573928714,5.05,0.4999961457612437
2.871136426925659,0.9644880658122044,[2.38362269],5.0,0.6,0.0,-0.0026103595279351674,5.05,0.499999994927672
2.883319139480591,0.9691776350138844,[2.38427182],5.0,0.6,0.0,0.046900045754452974,5.05,0.4999983626086301
2.899160623550415,0.9758211913829312,[2.38491233],5.0,0.6,0.0,0.08005373878498112,5.05,0.4999952294566892
2.91508412361145,0.9820739503185046,[2.38554445],5.0,0.6,0.0,0.10068072392914008,7.019832357317609,0.49999245436041323
2.9281692504882812,0.9871543169536582,[2.38616839],5.0,0.6,0.0,0.112146813269425,7.014965680769956,0.4999906378308377
2.9431233406066895,0.9932116771724948,[2.38678372],5.0,0.6,0.0,0.11713877542691856,6.9860637717639245,0.49998978581784675
2.9666051864624023,1.0029816130093283,[2.3873917],5.0,0.6,0.0,0.11769193051655653,6.955855282661943,0.4999896891238398
2.9780282974243164,1.0078665809277452,[2.38799473],5.0,0.6,0.0,0.11529838709706176,6.9254874128866915,0.49999010424711404
2.986111640930176,1.0109929603955317,[2.38859173],5.0,0.6,0.0,0.11102719936223215,6.894543912437798,0.499990823829804
3.010159969329834,1.0205674975156287,[2.38918073],5.0,0.6,0.0,0.10563060943514227,6.867883916333245,0.49999169417762807
3.0231871604919434,1.0260386615842554,[2.38976317],5.0,0.6,0.0,0.0996294247749766,6.839276784150834,0.4999926111183207
3.0372846126556396,1.0313144269361456,[2.39034006],5.0,0.6,0.0,0.0933782325989356,6.812705029468246,0.4999935092459095
3.04841685295105,1.0356131987043522,[2.39091077],5.0,0.6,0.0,0.08711372572512324,6.791744634901127,0.4999943509242478
3.063236713409424,1.0412797614897158,[2.3914748],5.0,0.6,0.0,0.08098982311584485,6.764589821116359,0.499995117239128
3.07924222946167,1.048314115292236,[2.39203177],5.0,0.6,0.0,0.07510285869814574,6.730956937041835,0.4999958012715458
3.091172218322754,1.0531990832106526,[2.3925814],5.0,0.6,0.0,0.06950947731314025,6.70813647536233,0.4999964033915614
3.1050972938537598,1.058865645996016,[2.39312352],5.0,0.6,0.0,-0.21179910127865098,6.681880820917485,0.4999666081562956
3.1191699504852295,1.0645322087813796,[2.39365802],5.0,0.6,0.0,-0.2498593945445633,6.655602948533223,0.4999535294450124
3.1341519355773926,1.0705895690002163,[2.3941849],5.0,0.6,0.0,-0.19936397148049104,6.627403262144814,0.49997041393690783
3.1581897735595703,1.0803595048370498,[2.39470557],5.0,0.6,0.0,-0.12755537048255172,6.5960942802333395,0.49998788847270326
3.173175811767578,1.0860260676224132,[2.39522268],5.0,0.6,0.0,-0.06099689593368837,6.565100284340851,0.4999972303751824
3.1860861778259277,1.0913018329743032,[2.39573704],5.0,0.6,0.0,0.26799525016418907,6.537272065099394,0.4999465389295775
3.201080799102783,1.0973591931931401,[2.3962479],5.0,0.6,0.0,0.3397282280614991,6.506655618417036,0.49991409219329364
3.223081111907959,1.1061521354462902,[2.39675597],5.0,0.6,0.0,0.31091774926105953,6.477691771067036,0.49992804409267366
3.2365965843200684,1.111623299514917,[2.3972631],5.0,0.6,0.0,-0.024563104293834376,6.446773567132995,0.4999995508690489
3.2521297931671143,1.1178760584504905,[2.39776948],5.0,0.6,0.0,-0.11871733941395368,6.413520419086872,0.4999895086728684
3.264287233352661,1.1223702289354338,[2.39827381],5.0,0.6,0.0,-0.11585049065231875,6.390022748547896,0.49999000925000875
3.279076099395752,1.1282321904375339,[2.39877496],5.0,0.6,0.0,-0.08089734825766506,6.360576809185544,0.4999951283830624
3.2921977043151855,1.133507955789424,[2.39927189],5.0,0.6,0.0,0.23475561148968138,6.334275975394415,0.4999589776228197
3.3038253784179688,1.1381975249911043,[2.39976369],5.0,0.6,0.0,0.30196442305602655,6.311286730336845,0.4999321282958735
3.317079782485962,1.1434732903429943,[2.4002495],5.0,0.6,0.0,0.27278097163378473,6.285637885822321,0.49994461262743956
3.3303442001342773,1.1487490556948845,[2.40072858],5.0,0.6,0.0,0.21483069563983181,6.260061756330334,0.49996564543733013
3.3448526859283447,1.1546110171969846,[2.40120023],5.0,0.6,0.0,0.15605008622493766,6.231613103558099,0.4999818729626875
3.357123613357544,1.1596913838321379,[2.40166372],5.0,0.6,0.0,0.10629782420269768,6.206155800471875,0.49999158891982687
3.3709003925323486,1.1655533453342382,[2.40211839],5.0,0.6,0.0,0.06763004593458233,6.1787267728899895,0.4999965952552296
3.3843839168548584,1.170829110686128,[2.40256379],5.0,0.6,0.0,0.039066788755108606,6.152962482147994,0.49999886388678805
3.3982980251312256,1.1763002747547546,[2.40299946],5.0,0.6,0.0,0.018715404765239547,6.125836901704287,0.4999997392615914
3.4106698036193848,1.1809898439564348,[2.40342472],5.0,0.6,0.0,0.004650422043208803,6.101608631446477,0.4999999839012778
3.425175905227661,1.1866564067417984,[2.40383902],5.0,0.6,0.0,-0.004773797817807391,6.076003558236773,0.49999998303574816
3.440235137939453,1.1923229695271618,[2.4042422],5.0,0.6,0.0,-0.010855804690190103,6.047917902743514,0.49999991227352486
3.4533374309539795,1.1977941335957885,[2.40463404],5.0,0.6,0.0,-0.014575768018301105,6.020769649048253,0.49999984184988866
3.467149019241333,1.203460696381152,[2.40501417],5.0,0.6,0.0,-0.016653451076462693,5.99264418604373,0.49999979354990987
3.4831676483154297,1.2097134553167255,[2.40538227],5.0,0.6,0.0,-0.01760771869378891,5.961578808341416,0.4999997692122477
3.4999654293060303,1.2163570116857723,[2.4057382],5.0,0.6,0.0,-0.017807643067578687,5.93041984068558,0.49999976394160106
3.5121541023254395,1.2216327770376625,[2.40608185],5.0,0.6,0.0,-0.01751299156903545,5.901620781252676,0.4999997716887807
3.532862663269043,1.2298395231406025,[2.40641321],5.0,0.6,0.0,-0.016904914525549056,5.865761041361198,0.499999787268138
3.5472536087036133,1.2351152884924925,[2.40673271],5.0,0.6,0.0,-0.016108590120530168,5.838192394916467,0.49999980683801765
3.558804512023926,1.239609458977436,[2.40704021],5.0,0.6,0.0,-0.015209648620638335,5.811850824928805,0.4999998277953151
3.5743913650512695,1.2460576166297461,[2.40733505],5.0,0.6,0.0,-0.2903043071964623,5.782099132326278,0.4999372683964995
3.5881381034851074,1.2517241794151095,[2.40761716],5.0,0.6,0.0,-0.3224789085021162,5.753285561720909,0.4999225938109192
3.604112386703491,1.2579769383506831,[2.40788651],5.0,0.6,0.0,-0.2664503302167291,5.7216507384922135,0.4999471534976222
3.6181070804595947,1.2634481024193098,[2.40814297],5.0,0.6,0.0,-0.18946835401463286,5.694090663290718,0.49997327803231983
3.6311182975769043,1.2685284690544634,[2.40838647],5.0,0.6,0.0,-0.11809233891356236,5.66869461630334,0.49998961884643867
3.651829719543457,1.2767352151574034,[2.40861727],5.0,0.6,0.0,-0.0606657780892494,5.630061259016933,0.4999972603629562
3.668074369430542,1.2831833728097135,[2.40883594],5.0,0.6,0.0,-0.01791399876166756,5.5983512217339895,0.4999997611134759
3.67933988571167,1.2872867458611836,[2.4090429],5.0,0.6,0.0,0.012204630836919647,5.576022358284909,0.49999988911930937
3.6970560550689697,1.2945164983804403,[2.40923827],5.0,0.6,0.0,0.03238639102902263,5.54152545076197,0.4999992192150264
3.711073637008667,1.2997922637323305,[2.40942247],5.0,0.6,0.0,0.04514530814327333,5.514972825594921,0.49999848284043374
3.722904920578003,1.3046772316507471,[2.40959587],5.0,0.6,0.0,0.052548131837181815,5.490086103706169,0.4999979444864485
3.737072467803955,1.3105391931528474,[2.40975877],5.0,0.6,0.0,-0.2198491803129617,5.461646532437869,0.49996402169068915
3.7510502338409424,1.3162057559382108,[2.40991159],5.0,0.6,0.0,-0.2519100970539207,5.433389321295216,0.4999527635435622
3.765026807785034,1.3214815212901008,[2.41005475],5.0,0.6,0.0,-0.19746819912759295,5.4069721200454035,0.49997097391917905
3.776428699493408,1.3257802930583074,[2.4101885],5.0,0.6,0.0,-0.12314673709493013,5.384526839833633,0.49998871120488037
3.7921347618103027,1.332033051993881,[2.41031312],5.0,0.6,0.0,-0.3311057320397107,5.354272721462341,0.4999183972805982
3.804117202758789,1.3369180199122979,[2.41042896],5.0,0.6,0.0,-0.31043519662861985,5.329418838515242,0.49992826725830847
3.8190693855285645,1.342779981414398,[2.41053631],5.0,0.6,0.0,-0.2163481318115024,5.299622665325058,0.49996515841992517
3.832122325897217,1.3476649493328146,[2.41063532],5.0,0.6,0.0,-0.11390130925912562,5.274466680192103,0.4999903426068111
3.8461976051330566,1.3531361134014415,[2.41072607],5.0,0.6,0.0,-0.02686072528988695,5.246317406401569,0.4999994629163736
3.8601438999176025,1.3589980749035415,[2.41080858],5.0,0.6,0.0,0.03900366760495771,5.216073106464651,0.49999886755510886
3.8731138706207275,1.3642738402554317,[2.41088279],5.0,0.6,0.0,0.08506704831248764,5.188586697524698,0.4999946132469849
3.889171838760376,1.3707219979077419,[2.41094861],5.0,0.6,0.0,0.11498165618155823,5.155210350006942,0.4999901585402418
3.9041030406951904,1.3767793581265784,[2.41100586],5.0,0.6,0.0,0.40867116350595917,5.123433963218395,0.4998756915441164
3.918781042098999,1.3824459209119417,[2.41105425],5.0,0.6,0.0,0.17451440874409926,5.0929789677678965,0.49997732958815116
3.933588743209839,1.3883078824140422,[2.41109328],5.0,0.6,0.0,0.08882512776880407,5.061228306428579,0.49999412678625677
3.9421305656433105,1.3916296605985656,[2.4111226],5.0,0.6,0.0,0.06615743520490971,5.0455090395591204,0.49999674191372306
3.957097291946411,1.3974916221006655,[2.41114221],5.0,0.6,0.0,0.06729566647419083,5.014500007247044,0.4999966288396645
3.976362705230713,1.4051121720533957,[2.41115158],5.0,0.6,0.0,0.07507559327884747,4.970337769441488,0.49999580431960106
3.9872381687164307,1.4096063425383392,[2.41114976],5.0,0.6,0.0,0.08261505283375073,4.9484440558197464,0.49999491930834344
3.9960906505584717,1.4129281207228626,[2.41113668],5.0,0.6,0.0,0.08765320398474347,4.933395069894818,0.49999428074076074
4.01884388923645,1.4219164616927495,[2.41111217],5.0,0.6,0.0,0.0898768466631015,4.879552176400559,0.49999398688212515
4.031108379364014,1.4271922270446393,[2.41107519],5.0,0.6,0.0,0.08969320334452247,4.854410463256108,0.4999940114298077
4.04703688621521,1.4330541885467396,[2.41102513],5.0,0.6,0.0,0.08769298772532552,4.821229404581684,0.4999942755479361
4.0620646476745605,1.438720751332103,[2.41096163],5.0,0.6,0.0,0.0844355609402198,4.791728539658208,0.49999469292584076
4.077123641967773,1.4449735102676766,[2.41088441],5.0,0.6,0.0,0.08037899651756222,4.759113167758701,0.4999951906127619
4.092749118804932,1.4508354717697765,[2.41079325],5.0,0.6,0.0,0.07587130905778378,4.725830801420233,0.499995714909792
4.105458974838257,1.45591583840493,[2.41068791],5.0,0.6,0.0,0.07116436488864362,4.7010647678555735,0.4999962300968453
4.118794918060303,1.4609962050400835,[2.41056858],5.0,0.6,0.0,0.06643360707260852,4.673489584184939,0.49999671465550544
4.132864713668823,1.4664673691087102,[2.41043548],5.0,0.6,0.0,0.06179682196247861,4.644354426525825,0.4999971572561871
4.147048234939575,1.471938533177337,[2.41028882],5.0,0.6,0.0,0.057329723370941846,4.616306027780328,0.49999755338685237
4.166380167007446,1.4797544818468038,[2.41012797],5.0,0.6,0.0,0.05307805589041267,4.5640339841512265,0.4999979028196522
4.181443452835083,1.4856164433489039,[2.40995129],5.0,0.6,0.0,0.04906663737820689,4.535300077419387,0.4999982078329467
4.190266132354736,1.489133620250164,[2.40975916],5.0,0.6,0.0,0.0453059489025386,4.526209704118322,0.4999984720242089
4.209087133407593,1.4963633727694208,[2.40955296],5.0,0.6,0.0,0.041796854922295096,4.4783672906598015,0.49999869955102083
4.223021745681763,1.5018345368380475,[2.40933234],5.0,0.6,0.0,0.038533939966677144,4.4504502698511335,0.4999988946672749
4.2380664348602295,1.5076964983401473,[2.4090971],5.0,0.6,0.0,0.03550784121892267,4.420239835450515,0.499999061455636
4.252031087875366,1.513363061125511,[2.40884796],5.0,0.6,0.0,0.03270686195757312,4.390573461051293,0.49999920368648715
4.266910791397095,1.5192250226276112,[2.40858552],5.0,0.6,0.0,0.030118074887054785,4.358684978321056,0.49999932475589765
4.283523797988892,1.5256731802799213,[2.4083099],5.0,0.6,0.0,0.027728066346747925,4.320942143680355,0.4999994276712061
4.29573917388916,1.5301673507648645,[2.4080214],5.0,0.6,0.0,0.025523429319599875,4.3016800521092735,0.49999951506389934
4.306093454360962,1.534075325099598,[2.40772123],5.0,0.6,0.0,0.023491081803081827,4.280842319067967,0.49999958921693466
4.31710147857666,1.5387648943012782,[2.40741061],5.0,0.6,0.0,0.021618464555384846,4.254784800338386,0.49999965209856956
4.325390577316284,1.5418912737690649,[2.40709135],5.0,0.6,0.0,0.019893656156745983,4.249588149347177,0.49999970539795174
4.339253664016724,1.547167039120955,[2.40676566],5.0,0.6,0.0,0.018305431929324295,4.211862470500497,0.49999975055975254
4.348028659820557,1.5506842160222152,[2.40643435],5.0,0.6,0.0,0.016843285225069456,4.196933431655425,0.49999978881639956
4.362102031707764,1.5561553800908419,[2.40609798],5.0,0.6,0.0,0.015497423934438547,4.16462143452716,0.49999982121724534
4.377098083496094,1.5622127403096786,[2.40575652],5.0,0.6,0.0,0.014258751104961182,4.1256266729329,0.4999998486544744
4.393030643463135,1.5682701005285153,[2.40540847],5.0,0.6,0.0,0.013118835784329744,4.087748314691364,0.499999871885817
4.402054309844971,1.5715918787130385,[2.40505337],5.0,0.6,0.0,0.012069878263018072,4.07950218689841,0.49999989155428215
4.422588109970093,1.5794078273825054,[2.4046912],5.0,0.6,0.0,0.011104672543080292,4.021012710910451,0.49999990820518553
4.4336512088775635,1.5840973965841858,[2.40432078],5.0,0.6,0.0,0.010216567919396156,4.005462281270869,0.4999999223007736
4.444000482559204,1.5878099722021823,[2.40394313],5.0,0.6,0.0,0.00939943091216628,3.9926850147803323,0.49999993423273725
4.465075969696045,1.596212117021859,[2.40355918],5.0,0.6,0.0,0.008647608337809058,3.9300469085293575,0.4999999443328901
4.479166269302368,1.6018786798072226,[2.40316675],5.0,0.6,0.0,0.007955891999950964,3.901767192627472,0.4999999528822642
4.495097875595093,1.6077406413093227,[2.40276477],5.0,0.6,0.0,0.007319485270479183,3.8719255762984686,0.4999999601188438
4.50918173789978,1.6132118053779496,[2.40235384],5.0,0.6,0.0,0.006733971690215052,3.843333632590555,0.4999999662441356
4.527722597122192,1.620636956613943,[2.40193375],5.0,0.6,0.0,0.006195285624043326,3.796474263976638,0.49999997142874414
4.544351816177368,1.627085114266253,[2.40150279],5.0,0.6,0.0,0.005699684942390211,3.755510765850619,0.4999999758171008
4.552026271820068,1.6300160950173033,[2.40106109],5.0,0.6,0.0,0.005243725664810789,3.738406369086547,0.4999999795314729
4.573386192321777,1.6382228411202433,[2.40061039],5.0,0.6,0.0,0.00482423847412211,3.6821231407434767,0.4999999826753606
4.583257675170898,1.6421308154549765,[2.4001504],5.0,0.6,0.0,0.004438306999867039,3.6740587185004085,0.4999999853363749
4.595728635787964,1.6474065808068667,[2.39968157],5.0,0.6,0.0,0.004083247762463606,3.6488318563054767,0.49999998758867537
4.606151580810547,1.6517053525750736,[2.39920611],5.0,0.6,0.0,0.0037565916673534348,3.635755824801957,0.499999989495034
4.619093894958496,1.6563949217767535,[2.3987264],5.0,0.6,0.0,0.0034560669420277954,3.6115120439385313,0.49999999110858334
4.6358702182769775,1.6628430794290636,[2.39824303],5.0,0.6,0.0,0.0031795834123036293,3.56625277229758,0.4999999924742963
4.652570486068726,1.669291237081374,[2.39775374],5.0,0.6,0.0,0.0029252180173330276,3.522893655625642,0.4999999936302387
4.666738510131836,1.6747624011500006,[2.39725624],5.0,0.6,0.0,0.002691201470502895,3.496259197603119,0.4999999946086305
4.677027940750122,1.678670375484734,[2.39675111],5.0,0.6,0.0,0.002475905979085636,3.484775520624332,0.49999999543674256
4.6860175132751465,1.6823829511027306,[2.39624158],5.0,0.6,0.0,0.002277833939078283,3.4733259259701916,0.4999999961376574
4.6949076652526855,1.6860955267207276,[2.39573196],5.0,0.6,0.0,0.0020956075307906837,3.4633164150014344,0.4999999967309123
4.714063405990601,1.693520677956721,[2.39522409],5.0,0.6,0.0,0.0019279591431120091,3.401294050770288,0.4999999972330435
4.73593807220459,1.7021182214931343,[2.39471382],5.0,0.6,0.0,0.0017737225620276663,3.3350771577225715,0.49999999765804765
4.751020669937134,1.7081755817119713,[2.39419577],5.0,0.6,0.0,0.001631824862305076,3.3067811012408246,0.4999999980177713
4.7630109786987305,1.7128651509136512,[2.39366863],5.0,0.6,0.0,0.0015012789469373029,3.2840111864975867,0.49999999832224146
4.778083324432373,1.7189225111324882,[2.39313321],5.0,0.6,0.0,-0.2746571829959747,3.2535544316172404,0.4999438481317229
4.792157411575317,1.7245890739178515,[2.39259025],5.0,0.6,0.0,-0.3078922802558979,3.2240687535794623,0.4999294375537054
4.804092884063721,1.7286924469693217,[2.39204043],5.0,0.6,0.0,-0.2528966782454626,3.2017230034308626,0.4999523928427904
4.812098979949951,1.7318188264371084,[2.39148629],5.0,0.6,0.0,-0.17690519531308213,3.183302162109879,0.49997670419444756
4.829925060272217,1.739048578956365,[2.39093069],5.0,0.6,0.0,-0.1064685581371641,3.132420308918259,0.49999156187886
4.844310522079468,1.7447151417417284,[2.39037225],5.0,0.6,0.0,-0.0499259196605888,3.0976488437915535,0.49999814451256985
4.856658220291138,1.7494047109434088,[2.38980841],5.0,0.6,0.0,-0.008001139039864012,3.076245354399463,0.49999995234480077
4.864062786102295,1.7523356916944586,[2.38924084],5.0,0.6,0.0,0.021346996701794227,3.0587147941327433,0.499999660781059
4.8741455078125,1.7564390647459287,[2.38867404],5.0,0.6,0.0,0.040813143041103055,3.043368125298667,0.499998760044157
4.886260271072388,1.7615194313810822,[2.38810986],5.0,0.6,0.0,0.05290896327186673,3.011556774178903,0.4999979161604618
4.900095701217651,1.7667951967329725,[2.387547],5.0,0.6,0.0,0.059698425092631444,2.984182432362125,0.49999734703652116
4.914987087249756,1.7726571582350723,[2.3869843],5.0,0.6,0.0,0.0627728606582563,2.953251181198488,0.4999970667488972
4.933441877365112,1.7798869107543291,[2.38641988],5.0,0.6,0.0,0.06331364068435497,2.9016486786011324,0.4999970159922014
4.945966482162476,1.7845764799560093,[2.38585107],5.0,0.6,0.0,0.062176071733568594,2.8816241555101976,0.49999712225713705
4.964398622512817,1.7918062324752662,[2.38527609],5.0,0.6,0.0,0.0599680996520984,2.834396556456988,0.49999732301408667
4.980997800827026,1.7986451875610496,[2.38469346],5.0,0.6,0.0,0.05711535526218555,2.8013920921615467,0.4999975716494208
4.992979288101196,1.8033347567627296,[2.3841027],5.0,0.6,0.0,0.05391163135985138,2.777646552175157,0.4999978364313337
5.005969762802124,1.8086105221146198,[2.38350439],5.0,0.6,0.0,0.0505566600196795,2.7499990622454598,0.4999980973338187
5.020047664642334,1.8140816861832465,[2.38289903],5.0,0.6,0.0,0.047183751638927005,2.720558043180784,0.4999983427390621
5.029265880584717,1.8175988630845066,[2.38228864],5.0,0.6,0.0,0.04387971510382005,2.7172827544192355,0.4999985667113847
5.045101881027222,1.82385162202008,[2.38167488],5.0,0.6,0.0,0.0406990656633788,2.6610990264861707,0.4999987669660964
5.058411598205566,1.82912738737197,[2.38105592],5.0,0.6,0.0,0.03767408147314656,2.6325941746081662,0.4999989434463328
5.066039800643921,1.8318629694062836,[2.38043239],5.0,0.6,0.0,0.03482187951200129,2.6156815213914215,0.4999990973680535
5.0844128131866455,1.8385065257753306,[2.37980689],5.0,0.6,0.0,-0.24388899043173737,2.561843553989605,0.499955723647376
5.09238338470459,1.841632905243117,[2.37917925],5.0,0.6,0.0,-0.2795062586125603,2.56605367005124,0.4999418480218235
5.107303857803345,1.8478856641786905,[2.3785499],5.0,0.6,0.0,-0.22672603096806046,2.5241015398276305,0.4999617357832749
5.120525360107422,1.8531614295305805,[2.3779183],5.0,0.6,0.0,-0.15278934054864837,2.4920983874980505,0.4999826225822652
5.132237672805786,1.8578509987322607,[2.37728301],5.0,0.6,0.0,-0.08425476820878246,2.4708199735132363,0.4999947156283169
5.147089719772339,1.8635175615176243,[2.37664351],5.0,0.6,0.0,-0.02947018941656622,2.4326662497802314,0.49999935349446256
5.157816171646118,1.867620934569094,[2.37599939],5.0,0.6,0.0,0.010831463755691391,2.417870498251307,0.4999999126664852
5.178789138793945,1.8760230793887709,[2.37534896],5.0,0.6,0.0,0.03868232321053834,2.347595242397658,0.4999988861382505
5.194036483764648,1.8818850408908712,[2.37468828],5.0,0.6,0.0,0.056768175913521526,2.319210376527075,0.49999760108139457
5.208080291748047,1.8869654075260245,[2.37401539],5.0,0.6,0.0,0.0675921663177724,2.293379921281207,0.4999965990681465
5.2216315269470215,1.8924365715946512,[2.3733311],5.0,0.6,0.0,0.07321017288925702,2.2673831699824687,0.4999960102304861
5.235045671463013,1.8975169382298047,[2.37263614],5.0,0.6,0.0,0.07520590934334781,2.235583493696145,0.4999957897413136
5.249054431915283,1.902792703581695,[2.37193056],5.0,0.6,0.0,0.07475361398124034,2.2062621446280613,0.49999584023059923
5.2640380859375,1.9086546650837948,[2.37121446],5.0,0.6,0.0,0.07270194512533593,2.173521543541646,0.4999960654322534
5.279798269271851,1.915102822736105,[2.37048778],5.0,0.6,0.0,0.06965267174547006,2.1332989954276513,0.49999638855781653
5.291949272155762,1.9195969932210482,[2.36975053],5.0,0.6,0.0,0.06602569959020751,2.11192584341734,0.4999967548760539
5.310028791427612,1.9262405495900952,[2.36900218],5.0,0.6,0.0,0.06210952474366124,2.0603664147091534,0.49999712841391364
5.320120096206665,1.9301485239248286,[2.36824233],5.0,0.6,0.0,0.05809898555444145,2.053612997960171,0.49999748728817905
5.331032037734985,1.9344472956930354,[2.36747289],5.0,0.6,0.0,0.05412287566618594,2.0261749291185245,0.4999978194429409
5.342608213424683,1.938746067461242,[2.36669551],5.0,0.6,0.0,0.0502638383836219,1.99886223871059,0.49999811931024335
5.352029800415039,1.9424586430792388,[2.36591171],5.0,0.6,0.0,0.046572549503164196,1.990227604206179,0.49999838539608926
5.369988679885864,1.9492975981650225,[2.36512272],5.0,0.6,0.0,0.04307774990145041,1.930748553472084,0.49999861862339606
5.383998155593872,1.9547687622336491,[2.36432659],5.0,0.6,0.0,0.039793298772957085,1.8991666363105164,0.49999882123821504
5.398956060409546,1.9608261224524859,[2.36352164],5.0,0.6,0.0,0.03672310598200229,1.8645877204248045,0.4999989961124971
5.409719705581665,1.9651248942206925,[2.36270868],5.0,0.6,0.0,0.0338645637342123,1.84644843618194,0.49999914631575715
5.425040006637573,1.970986855722793,[2.36188838],5.0,0.6,0.0,0.03121092122362426,1.8020652184934685,0.4999992748639384
5.438033580780029,1.9756764249244727,[2.36105974],5.0,0.6,0.0,0.028752917450733474,1.7742176737823274,0.499999384582057
5.451038599014282,1.9805613928428896,[2.36022188],5.0,0.6,0.0,0.02647989505878169,1.7452239383498447,0.49999947803820416
5.459676504135132,1.9840785697441496,[2.35937667],5.0,0.6,0.0,0.02438055218534764,1.7418814010371118,0.49999955752067227
5.476261854171753,1.989745132529513,[2.35852566],5.0,0.6,0.0,0.0224434426364847,1.6840404217665101,0.4999996250410887
5.4894397258758545,1.9950208978814032,[2.35766689],5.0,0.6,0.0,0.020657301720859722,1.6587681559834133,0.4999996823502185
5.498234987258911,1.9985380747826633,[2.35680096],5.0,0.6,0.0,0.019011251858452483,1.6541131855045925,0.4999997309602053
5.5097339153289795,2.003032245267607,[2.35593181],5.0,0.6,0.0,0.017494925766730653,1.624722302409506,0.49999977217480573
5.524089574813843,2.0085034093362335,[2.35506078],5.0,0.6,0.0,0.016098533577425866,1.5858090059144245,0.4999998071161121
5.537263631820679,2.013583775971387,[2.35418687],5.0,0.6,0.0,0.014812892217688204,1.5543261556762793,0.49999983674618126
5.547950744628906,2.0176871490228567,[2.35330966],5.0,0.6,0.0,0.013629429776852355,1.5304710205458556,0.4999998618836036
5.560583591461182,2.0227675156580105,[2.35242933],5.0,0.6,0.0,0.012540173654266198,1.4986953385785176,0.4999998833020458
5.574022054672241,2.027847882293164,[2.35154521],5.0,0.6,0.0,0.011537728545659896,1.4619928634369084,0.49999990169839226
5.585287809371948,2.0321466540613704,[2.35065642],5.0,0.6,0.0,0.010615248411659044,1.4411428836971079,0.4999999176611075
5.598463296890259,2.037031621979787,[2.34976332],5.0,0.6,0.0,0.009766405243928118,1.4118332076322342,0.4999999321967495
5.613023281097412,2.0423073873316775,[2.34886482],5.0,0.6,0.0,0.008985356518297844,1.3645933640487018,0.49999994677380016
5.624100685119629,2.0468015578166208,[2.3479586],5.0,0.6,0.0,0.00826671258270746,1.346534118367342,0.4999999623808221
5.634026527404785,2.0507095321513544,[2.34704521],5.0,0.6,0.0,0.007605504786276269,1.328755102883052,0.4999999805187631
5.644947052001953,2.0552037026362977,[2.34612798],5.0,0.6,0.0,0.006997154850530958,1.3142160376649494,0.5000000080713563
5.661358833312988,2.0610656641383978,[2.34520743],5.0,0.6,0.0,-0.26960091390312807,1.2496460749695832,0.4999459935540583
5.670947551727295,2.0647782397563947,[2.34428134],5.0,0.6,0.0,-0.30324046840750607,1.2476498903160136,0.49993171733349384
5.692538738250732,2.0729849858593346,[2.34334662],5.0,0.6,0.0,-0.24861698034682367,1.1585854252722056,0.49995443814703605
5.703134059906006,2.077088358910805,[2.34239847],5.0,0.6,0.0,-0.1729678515476563,1.1531082602087497,0.49997849883024903
5.71983003616333,2.0835365165631146,[2.34143446],5.0,0.6,0.0,-0.10284618668390673,1.101637847939401,0.49999379698258434
5.734044313430786,2.0886168831982683,[2.3404532],5.0,0.6,0.0,-0.046593327291257106,1.0727113590213255,0.5000014833431806
5.74820613861084,2.0938926485501583,[2.33945345],5.0,0.6,0.0,-0.004935146617443459,1.0448915993072678,0.500005768147599
5.757127285003662,2.097605224168155,[2.33843749],5.0,0.6,0.0,0.024167714940286467,1.0377146278608487,0.5000087309704776
5.773844480514526,2.1040533818204654,[2.33740716],5.0,0.6,0.0,0.04340820746741192,0.9788781811567203,0.5000172262368848
5.782444953918457,2.1073751600049886,[2.33636411],5.0,0.6,0.0,0.055296425096913356,0.9934974356655821,0.5000256153689184
5.795377492904663,2.1124555266401424,[2.33531226],5.0,0.6,0.0,0.061894891758648166,0.9417136858141627,0.5000456929798126
5.805010557174683,2.116168102258139,[2.33425359],5.0,0.6,0.0,0.0647936112418655,0.9304436814594588,0.5000708148903871
5.82622504234314,2.124179449644342,[2.33318549],5.0,0.6,0.0,0.06517273209689986,0.8422324928792297,0.5001574202892921
5.835739850997925,2.1276966265456023,[2.33210422],5.0,0.6,0.0,0.06388643644605997,0.8484602023439661,0.500231828405499
5.850111961364746,2.1329723918974923,[2.33101021],5.0,0.6,0.0,0.06154163561659544,0.8033552226238561,0.5003893583446055
5.859970808029175,2.1370757649489627,[2.32990597],5.0,0.6,0.0,0.058563008649909466,0.7961544283222296,0.5005866750551118
5.872980117797852,2.1421561315841156,[2.32879393],5.0,0.6,0.0,0.05524347268678972,0.7585266979674923,0.5009404556101237
5.895665168762207,2.150362877687056,[2.32767082],5.0,0.6,0.0,0.05178195418768614,0.6660549699161561,0.5018571807488879
5.909987449645996,2.156224839189156,[2.32652761],5.0,0.6,0.0,0.04831102237645332,0.6381559533510229,0.5030239807704224
5.923948049545288,2.1622821994079926,[2.3253617],5.0,0.6,0.0,0.3209551639330214,0.6147097564337468,0.5048210460085768
5.93645715713501,2.166971768609673,[2.3241754],5.0,0.6,0.0,0.3508161505724308,0.5800802022744269,0.5070444380883127
5.950998306274414,2.1726383313950364,[2.32296915],5.0,0.6,0.0,0.29261758006019467,0.5461976472016614,0.5108266910591478
5.965996742248535,2.1785002928971364,[2.32174309],5.0,0.6,0.0,0.21361014958174124,0.5122731756589985,0.5164775068270372
5.980014324188232,2.183971456965763,[2.32049823],5.0,0.6,0.0,0.14035035619000788,0.4793450448686463,0.5240283207732375
5.991994142532349,2.1886610261674435,[2.31923567],5.0,0.6,0.0,0.08117645841043755,0.44960997940757275,0.5330380298318738
6.011815547943115,2.19647697483691,[2.31795401],5.0,0.6,0.0,0.3128455017738632,0.3814280053519475,0.552197091442408
6.023759126663208,2.200775746605117,[2.31665059],5.0,0.6,0.0,0.3143563482462234,0.3667063053662125,0.5681206441593027
6.037297487258911,2.2062469106737437,[2.31532667],5.0,0.6,0.0,0.2376969183110439,0.3358752759566357,0.5925382617809782
6.052014350891113,2.2123042708925804,[2.31398422],5.0,0.6,0.0,0.42361794771922817,0.2905807821329908,0.6263349064827024
6.067883014678955,2.218361631111417,[2.31262199],5.0,0.6,0.0,0.3776431143971066,0.24549821185161885,0.66903815629566
6.07599949836731,2.2216834092959403,[2.31124203],5.0,0.6,0.0,0.26120131423429765,0.25791534920936754,0.701009706288727
6.089998245239258,2.227349972081304,[2.30985147],5.0,0.6,0.0,0.14105867700889263,0.2159121608495926,0.7563126352870373
6.111068248748779,2.2351659207507706,[2.30844932],5.0,0.6,0.0,-0.2351795924807208,0.12147656902553074,0.8415668577645636
6.119001388549805,2.238096901501821,[2.30703137],5.0,0.6,0.0,-0.6195732292465675,0.15208638002693803,0.8863036589814118
6.1388163566589355,2.2451312553043414,[2.30559863],5.0,0.6,0.0,-0.9261232245387951,0.0579623925829194,0.9806637682267109
6.152973890304565,2.2500162232227576,[2.30414702],5.0,0.6,0.0,-1.6903263088339215,0.03430285245294985,1.0544106580259391
6.163409471511841,2.2533380014072812,[2.3026755],5.0,0.6,0.0,-2.4364111860660103,0.03547945351305471,1.1101674278929097
6.179985046386719,2.2582229693256983,[2.30118844],5.0,0.6,0.0,-3.557745659074198,-0.013673827520709992,1.1819487054319162
6.194908380508423,2.262130943660431,[2.29968564],5.0,0.6,0.0,-5.0,-0.0370390833751409,1.2359521333215793
6.207998275756836,2.2652573231282185,[2.2981667],5.0,0.6,0.0,-5.0,-0.055669333975002754,1.2869796809127014
6.222978115081787,2.2681883038792683,[2.29663347],5.0,0.6,0.0,-5.0,-0.07320365730284577,1.3323216746602182
6.23590612411499,2.2701422910466347,[2.29508784],5.0,0.6,0.0,-5.0,-0.08722830847422428,1.3647091374172773
6.2479588985443115,2.271705480780528,[2.29353188],5.0,0.6,0.0,-5.0,-0.09597286227319608,1.3908519549167573
6.2594640254974365,2.272487075647475,[2.29196761],5.0,0.6,0.0,-5.0,-0.10734773375045203,1.4086425832336003
6.2691004276275635,2.2730732717976845,[2.29039812],5.0,0.6,0.0,-5.0,-0.09705095919517752,1.4234682684925168
6.2842676639556885,2.273659467947895,[2.28882677],5.0,0.6,0.0,-5.0,-0.11878482368113914,1.4367650320596481
6.2934486865997314,2.2734640692311583,[2.28725637],5.0,0.6,0.0,-5.0,-0.09772156732877083,1.4444011683390754
6.313772916793823,2.2730732717976845,[2.28568712],5.0,0.6,0.0,-5.0,-0.14437478788370928,1.4504112086478969
6.325960874557495,2.272487075647475,[2.28411545],5.0,0.6,0.0,-5.0,-0.1240056472045607,1.455050632482215
6.334010124206543,2.271900879497265,[2.28254659],5.0,0.6,0.0,-5.0,-0.12595359553044908,1.4593207753417246
6.341913223266602,2.2713146833470548,[2.28099716],5.0,0.6,0.0,-4.404448045665719,-0.12873147788471417,1.4671904232738204
6.349911212921143,2.2705330884801085,[2.27948423],5.0,0.6,0.0,-3.235937501317725,-0.13055788272512095,1.4763687483654553
6.357900857925415,2.269946892329898,[2.27802176],5.0,0.6,0.0,-1.7900816847168954,-0.13334958617570897,1.4846642884506238
6.365962505340576,2.268969898746215,[2.27662092],5.0,0.6,0.0,-0.5081523153882284,-0.1340401639998826,1.4881684611365356
6.373961448669434,2.2679929051625316,[2.27529034],5.0,0.6,0.0,0.4835239855310225,-0.13442630377763234,1.4892320077926877
6.381949424743652,2.267015911578848,[2.2740364],5.0,0.6,0.0,1.1875180134213748,-0.13446215534251105,1.48914231290171
6.389945030212402,2.2660389179951648,[2.27286353],5.0,0.6,0.0,1.650869267936212,-0.13410933000560246,1.488703520433159
6.397955417633057,2.2648665256947447,[2.27177441],5.0,0.6,0.0,2.2049247395297598,-0.13254223914831714,1.4868956504680826
6.40596079826355,2.2634987346775883,[2.27077021],5.0,0.6,0.0,2.3804189728668392,-0.12949774732309013,1.485280526013003
6.413955450057983,2.262130943660431,[2.26985084],5.0,0.6,0.0,2.6481459151555815,-0.12614310081749402,1.4829583204058252
6.421971082687378,2.2607631526432748,[2.26901511],5.0,0.6,0.0,2.586887560031334,-0.12227023843745771,1.481516578556289
6.429971933364868,2.259395361626118,[2.26826094],5.0,0.6,0.0,2.67633073557204,-0.11810127258381933,1.4790995942679106
6.437964677810669,2.258027570608961,[2.26758551],5.0,0.6,0.0,2.765189631807246,-0.11359598139391376,1.4762354459334095
6.445957660675049,2.2564643808750677,[2.26698542],5.0,0.6,0.0,2.8037949242397078,-0.1077753901367637,1.4722870033732856
6.453963041305542,2.2549011911411747,[2.2664568],5.0,0.6,0.0,2.7852380115946413,-0.10160191331045294,1.4679055237703218
6.461921691894531,2.2531426026905446,[2.26599549],5.0,0.6,0.0,2.7183778261780276,-0.09413162034487224,1.4620298556209286
6.469950199127197,2.2513840142399144,[2.26559705],5.0,0.6,0.0,2.616046888244015,-0.08634060665342815,1.4553345951593122
6.47794771194458,2.249820824506021,[2.26525696],5.0,0.6,0.0,2.4903446835479173,-0.07922659228372612,1.4488674211724284
6.485955476760864,2.2480622360553912,[2.26497061],5.0,0.6,0.0,2.6271545733228034,-0.07105032779385573,1.439313873712444
6.493951797485352,2.2463036476047615,[2.26473341],5.0,0.6,0.0,2.790973623580242,-0.06270223407047147,1.428559694287347
6.501899242401123,2.2443496604373943,[2.26454085],5.0,0.6,0.0,2.8988723204811953,-0.053205284066828805,1.415482190783729
6.50990104675293,2.2425910719867646,[2.26438854],5.0,0.6,0.0,3.2095158030230615,-0.0446487231982677,1.4017398279813125
6.517924785614014,2.2406370848193973,[2.26427223],5.0,0.6,0.0,3.2118682955434106,-0.03488471129119134,1.3866704164475525
6.525898218154907,2.238683097652031,[2.26418787],5.0,0.6,0.0,3.0759616961514205,-0.024914747662337658,1.37101495298993
6.533887624740601,2.236924509201401,[2.26413163],5.0,0.6,0.0,3.1604847423730438,-0.015916263582318638,1.355011300210371
6.541886329650879,2.2351659207507706,[2.2640999],5.0,0.6,0.0,3.2620009387916347,-0.00687894251134898,1.3379730883702055
6.549957513809204,2.233211933583404,[2.2640893],5.0,0.6,0.0,3.3105568409886112,0.0031942262278219467,1.3183028221439916
6.557960271835327,2.231453345132774,[2.2640967],5.0,0.6,0.0,3.5691455846156304,0.01221814870302893,1.2986675792294657
6.565945148468018,2.229694756682144,[2.26411924],5.0,0.6,0.0,3.5273649351999286,0.02137905986144419,1.2798073899883122
6.573944330215454,2.228131566948251,[2.26415428],5.0,0.6,0.0,3.6305136450697217,0.029508967879483122,1.2617002017451333
6.581969499588013,2.2265683772143574,[2.26419945],5.0,0.6,0.0,3.993203549692015,0.03745180343847079,1.2416242604677765
6.58994722366333,2.2248097887637273,[2.26425258],5.0,0.6,0.0,4.322636194550114,0.04628603054245864,1.2188887545679958
6.597933769226074,2.223441997746571,[2.26431177],5.0,0.6,0.0,4.5268961649064785,0.0531679783174736,1.2009808180923474
6.605896234512329,2.222074206729414,[2.26437532],5.0,0.6,0.0,4.873756745405387,0.05986025770175938,1.181786092372943
6.613870620727539,2.2207064157122574,[2.26444172],5.0,0.6,0.0,5.0,0.06646894068264998,1.163848188255423
6.621944904327393,2.2193386246951006,[2.26450968],5.0,0.6,0.0,5.0,0.07303656963956738,1.1466545399259824
6.629892349243164,2.218166232394681,[2.26457807],5.0,0.6,0.0,5.0,0.07845142517134263,1.1317132917474515
6.637869358062744,2.217189238810997,[2.26464595],5.0,0.6,0.0,5.0,0.08279131986447251,1.1190874310572418
6.645880937576294,2.2164076439440503,[2.26471251],5.0,0.6,0.0,5.0,0.08609989885057531,1.108817776571528
6.653874158859253,2.2154306503603673,[2.2647771],5.0,0.6,0.0,5.0,0.09033219598742107,1.09619028228428
6.661889553070068,2.2146490554934206,[2.26483917],5.0,0.6,0.0,5.0,0.09341905288389797,1.0859564848571301
6.66996431350708,2.213867460626474,[2.26489833],5.0,0.6,0.0,5.0,0.0965557933361852,1.0757594522123541
6.677890062332153,2.213281264476264,[2.26495424],5.0,0.6,0.0,5.0,0.09858434530114249,1.0679760173021509
6.68588399887085,2.212695068326054,[2.26500669],5.0,0.6,0.0,4.988407139559699,0.10068529125198783,1.0603241419323999
6.6938958168029785,2.2123042708925804,[2.26505553],5.0,0.6,0.0,4.997698297359361,0.10168885014920556,1.0549379716385132
6.701864004135132,2.2121088721758437,[2.26510069],5.0,0.6,0.0,4.675938049803366,0.10180279756459173,1.0542669432955707
6.709951877593994,2.2117180747423704,[2.26514214],5.0,0.6,0.0,4.528640799839488,0.10274683062091491,1.0500225018870917
6.717890977859497,2.211522676025634,[2.26517993],5.0,0.6,0.0,4.135125063316687,0.10282216579458567,1.0496754654758698
6.7259368896484375,2.2113272773088974,[2.26521413],5.0,0.6,0.0,3.687473463301442,0.10292523018076687,1.0494535856167035
6.733949184417725,2.2111318785921603,[2.26524485],5.0,0.6,0.0,3.2631942376849095,0.10303844458922135,1.0488836724443857
6.741976261138916,2.2109364798754236,[2.26527223],5.0,0.6,0.0,2.88789563863966,0.10314877466853493,1.0478942652170522
6.749951362609863,2.2111318785921603,[2.26529644],5.0,0.6,0.0,2.565020787505296,0.101315665523317,1.0512525575589982
6.758427381515503,2.2111318785921603,[2.26531764],5.0,0.6,0.0,2.289592355463724,0.10041887294336425,1.0519837472196247
6.7659382820129395,2.2111318785921603,[2.26533602],5.0,0.6,0.0,1.7782596045136616,0.09968254735827857,1.0533009452731694
6.773945569992065,2.2111318785921603,[2.26535179],5.0,0.6,0.0,1.266779770301433,0.09901738614975157,1.054266247733342
6.781946659088135,2.2111318785921603,[2.26536514],5.0,0.6,0.0,0.837232386535482,0.09838222746027954,1.0547770168093487
6.789973020553589,2.2111318785921603,[2.26537628],5.0,0.6,0.0,0.5056344660903165,0.09775702191621652,1.0549741258358527
6.798082590103149,2.2113272773088974,[2.26538539],5.0,0.6,0.0,-0.013526095552706785,0.09632834684161667,1.0574088782066249
6.80596923828125,2.2113272773088974,[2.26539268],5.0,0.6,0.0,-0.21824064812395993,0.0957733129483708,1.0572856968470479
6.813969373703003,2.211522676025634,[2.26539834],5.0,0.6,0.0,-0.8322656523654561,0.0945400981897993,1.0590934333565956
6.8219358921051025,2.211522676025634,[2.26540253],5.0,0.6,0.0,-1.451436683410479,0.09440431299553906,1.0579924750784904
6.830042839050293,2.2117180747423704,[2.26540543],5.0,0.6,0.0,-1.6611666393080955,0.09321467211590531,1.059830330176458
6.83797812461853,2.2117180747423704,[2.26540721],5.0,0.6,0.0,-1.6792738777159908,0.09293052349965003,1.0597640315963137
6.845959901809692,2.2117180747423704,[2.26540801],5.0,0.6,0.0,-1.8881252989407953,0.09279112736074675,1.0592023560868533
6.853970289230347,2.211913473459107,[2.26540798],5.0,0.6,0.0,-2.0960570734126267,0.09175208287061995,1.0609480833804554
6.861976146697998,2.211913473459107,[2.26540724],5.0,0.6,0.0,-2.2390329995994103,0.09170290191652541,1.0604988364708778
6.8700408935546875,2.211913473459107,[2.26540592],5.0,0.6,0.0,-2.307059320667723,0.09167827695157336,1.0602864092059294
6.8779332637786865,2.2121088721758437,[2.26540411],5.0,0.6,0.0,-2.310342156036897,0.0906930822999384,1.0626566710098952
6.885915279388428,2.2121088721758437,[2.26540192],5.0,0.6,0.0,-2.264429744418366,0.09066800487137879,1.0628382481921572
6.8939595222473145,2.2121088721758437,[2.26539944],5.0,0.6,0.0,-2.184226664544294,0.09065326456176066,1.063131897361647
6.902040481567383,2.2123042708925804,[2.26539674],5.0,0.6,0.0,-2.0820098546934767,0.08967142663460186,1.0658478163605256
6.909862041473389,2.2123042708925804,[2.26539389],5.0,0.6,0.0,-1.9671416994054853,0.08964695425341124,1.0662263797605593
6.917949438095093,2.2123042708925804,[2.26539095],5.0,0.6,0.0,-1.8464190599985728,0.08963189027105664,1.0666027481231444
6.925947666168213,2.2123042708925804,[2.26538797],5.0,0.6,0.0,-1.7245915494726987,0.08961687417463074,1.0669610212968323
6.933948040008545,2.2123042708925804,[2.265385],5.0,0.6,0.0,-1.6048603988527645,0.08960196285093751,1.067292417146508
6.941932678222656,2.2123042708925804,[2.26538208],5.0,0.6,0.0,-1.765333229632779,0.08975064305856321,1.0669268632690048
6.949872970581055,2.2123042708925804,[2.26537923],5.0,0.6,0.0,-1.6883195461410954,0.08981968244404887,1.0671584015579887
6.95786190032959,2.2123042708925804,[2.26537649],5.0,0.6,0.0,-1.5292079703636565,0.08984759893721812,1.0675712286267367
6.96592903137207,2.2123042708925804,[2.26537386],5.0,0.6,0.0,-1.6315799367022321,0.09001862522898624,1.0673629969099832
6.973922252655029,2.2123042708925804,[2.26537137],5.0,0.6,0.0,-1.5030816110787284,0.09009988258861862,1.067691841833374
6.981853723526001,2.2123042708925804,[2.26536903],5.0,0.6,0.0,-1.3066207539789556,0.09013503494758882,1.0681298529761423
6.989898443222046,2.2123042708925804,[2.26536684],5.0,0.6,0.0,-1.109924075545033,0.09014752508015926,1.068509355479971
6.9978556632995605,2.2123042708925804,[2.26536481],5.0,0.6,0.0,-0.9372047426374204,0.09014909353433367,1.0687966623191911
7.005842208862305,2.2123042708925804,[2.26536294],5.0,0.6,0.0,-0.7937763313300755,0.09014560810387078,1.0690038373877002
7.013935565948486,2.2123042708925804,[2.26536124],5.0,0.6,0.0,-0.6775056789504523,0.0901399951825859,1.0691517063979186
7.021905422210693,2.2123042708925804,[2.26535969],5.0,0.6,0.0,-0.5839411807502788,0.0901337064464615,1.0692582362405214
7.02991509437561,2.2123042708925804,[2.26535829],5.0,0.6,0.0,-0.5084580246849166,0.09012745296544528,1.0693364584199814
7.037930488586426,2.2123042708925804,[2.26535704],5.0,0.6,0.0,-0.44703736414316514,0.09012157295188336,1.069395210993148
7.045907735824585,2.2123042708925804,[2.26535594],5.0,0.6,0.0,-0.39645030429323014,0.09011621625345713,1.069440339768255
7.053844213485718,2.2123042708925804,[2.26535496],5.0,0.6,0.0,-0.3542058015860291,0.09011143714793632,1.0694756979616051
7.061930179595947,2.2123042708925804,[2.26535412],5.0,0.6,0.0,-0.3184235881741237,0.09010724122219495,1.0695038493390747
7.069973707199097,2.2123042708925804,[2.26535339],5.0,0.6,0.0,-0.28769976940547626,0.09010360923074491,1.0695265305551396
7.077917098999023,2.2123042708925804,[2.26535277],5.0,0.6,0.0,-0.26098988204513585,0.09010050938567199,1.0695449464724052
7.085942268371582,2.2123042708925804,[2.26535224],5.0,0.6,0.0,-0.23751548061219302,0.09009790380821842,1.0695599568031402
7.0939106941223145,2.2123042708925804,[2.26535181],5.0,0.6,0.0,-0.2166928561527845,0.09009575201153062,1.0695721939631047
7.101926565170288,2.2123042708925804,[2.26535147],5.0,0.6,0.0,-0.19808008825230877,0.0900940128536804,1.0695821378374166
7.110028505325317,2.2123042708925804,[2.26535119],5.0,0.6,0.0,-0.18133835900587209,0.09009264568470862,1.0695901635967604
7.1179327964782715,2.2123042708925804,[2.26535099],5.0,0.6,0.0,-0.16620397245478796,0.09009161105378165,1.0695965726026333
7.125857830047607,2.2123042708925804,[2.26535084],5.0,0.6,0.0,-0.15246823602685655,0.09009087116340386,1.0696016126399046
7.133867979049683,2.2123042708925804,[2.26535074],5.0,0.6,0.0,-0.1399630360275647,0.09009039016798623,1.0696054913658568
7.141956090927124,2.2123042708925804,[2.26535069],5.0,0.6,0.0,-0.12855050032582932,0.09009013436898036,1.0696083854136855
7.149851560592651,2.2123042708925804,[2.26535068],5.0,0.6,0.0,-0.11811557830732705,0.09009007233604417,1.0696104466884053
7.1578569412231445,2.2123042708925804,[2.2653507],5.0,0.6,0.0,-0.10856069613865364,0.09009017497211504,1.0696118068317113
7.1659181118011475,2.2123042708925804,[2.26535075],5.0,0.6,0.0,-0.0998018860600087,0.09009041553419475,1.0696125804800571
7.17392110824585,2.2123042708925804,[2.26535082],5.0,0.6,0.0,-0.09176596247657565,0.0900907696184366,1.0696128677174526
7.181896448135376,2.2123042708925804,[2.26535091],5.0,0.6,0.0,-0.0843884422757342,0.0900912151162248,1.0696127559830066
7.189919710159302,2.2123042708925804,[2.26535102],5.0,0.6,0.0,-0.07761199549493819,0.09009173214680369,1.0696123216025906
7.197904348373413,2.2123042708925804,[2.26535113],5.0,0.6,0.0,-0.07138527529780904,0.0900923029711844,1.0696116310558166
7.205920219421387,2.2123042708925804,[2.26535125],5.0,0.6,0.0,-0.0656620205945011,0.09009291189148098,1.0696107420517196
7.213907718658447,2.2123042708925804,[2.26535138],5.0,0.6,0.0,-0.060400355926698304,0.09009354513927281,1.0696097044621462
7.221848011016846,2.2123042708925804,[2.26535151],5.0,0.6,0.0,-0.055562235266090346,0.09009419075618436,1.0696085611457211
7.229913949966431,2.2123042708925804,[2.26535164],5.0,0.6,0.0,-0.05111299187812146,0.09009483846941277,1.069607348684888
7.237908124923706,2.2123042708925804,[2.26535176],5.0,0.6,0.0,-0.04702096731311904,0.090095479564649,1.069606098051368
7.245918273925781,2.2123042708925804,[2.26535189],5.0,0.6,0.0,-0.04325720026870479,0.09009610675840707,1.0696048352110037
7.253816366195679,2.2123042708925804,[2.26535201],5.0,0.6,0.0,-0.039795161481134184,0.09009671407152255,1.069603581675748
7.261897087097168,2.2123042708925804,[2.26535213],5.0,0.6,0.0,-0.036610524624132085,0.09009729670527988,1.069602355008556
7.269852638244629,2.2123042708925804,[2.26535224],5.0,0.6,0.0,-0.03368096589611386,0.09009785092137695,1.0696011692855458
7.277901887893677,2.2123042708925804,[2.26535234],5.0,0.6,0.0,-0.030985986893198512,0.09009837392666696,1.0696000355189592
7.285863876342773,2.2123042708925804,[2.26535244],5.0,0.6,0.0,-0.02850675672960186,0.0900988637634572,1.069598962043711
7.293924331665039,2.2123042708925804,[2.26535253],5.0,0.6,0.0,-0.026225970342593934,0.0900993192059142,1.069597954870005
7.301900625228882,2.2123042708925804,[2.26535262],5.0,0.6,0.0,-0.024127720621068004,0.09009973966297395,1.0695970180041763
7.309838533401489,2.2123042708925804,[2.26535269],5.0,0.6,0.0,-0.02219738250546435,0.09010012508802094,1.0695961537397023
7.317901611328125,2.2123042708925804,[2.26535276],5.0,0.6,0.0,-0.02042150757886677,0.09010047589544784,1.0695953629202577
7.325973272323608,2.2123042708925804,[2.26535283],5.0,0.6,0.0,-0.018787727944236304,0.09010079288414419,1.0695946451764817
7.333929061889648,2.2123042708925804,[2.26535288],5.0,0.6,0.0,-0.017284668388868225,0.09010107716778362,1.0695939991382772
7.34190034866333,2.2123042708925804,[2.26535293],5.0,0.6,0.0,-0.01590186599387615,0.09010133011181537,1.0695934226241168
7.349895477294922,2.2123042708925804,[2.26535298],5.0,0.6,0.0,-0.014629696467647092,0.09010155327691302,1.0695929128090174
7.35791540145874,2.2123042708925804,[2.26535302],5.0,0.6,0.0,-0.013459306577531483,0.09010174836862113,1.0695924663726952
7.3658692836761475,2.2123042708925804,[2.26535305],5.0,0.6,0.0,-0.012382552130436021,0.09010191719289334,1.0695920796293934
7.373951435089111,2.2123042708925804,[2.26535308],5.0,0.6,0.0,-0.011391941015375943,0.09010206161721382,1.0695917486407607
7.38189172744751,2.2123042708925804,[2.2653531],5.0,0.6,0.0,-0.010480580872908159,0.09010218353689406,1.0695914693132997
7.389902353286743,2.2123042708925804,[2.26535312],5.0,0.6,0.0,-0.009642131000209065,0.09010228484623124,1.0695912374815968
7.397920608520508,2.2123042708925804,[2.26535314],5.0,0.6,0.0,-0.00887075813818583,0.09010236741412272,1.0695910489786946
7.405923366546631,2.2123042708925804,[2.26535315],5.0,0.6,0.0,-0.008161095819726398,0.09010243306377863,1.0695908996947932
7.413887977600098,2.2123042708925804,[2.26535316],5.0,0.6,0.0,-0.007508206986965081,0.090102483556153,1.069590785625472
7.421873092651367,2.2123042708925804,[2.26535317],5.0,0.6,0.0,-0.006907549610979629,0.09010252057674484,1.0695907029105072
7.429915189743042,2.2123042708925804,[2.26535318],5.0,0.6,0.0,-0.006354945070181493,0.09010254572540244,1.069590647864359
7.437940835952759,2.2123042708925804,[2.26535318],5.0,0.6,0.0,-0.005846549064223121,0.09010256050882667,1.0695906169992389
7.44584584236145,2.2123042708925804,[2.26535318],5.0,0.6,0.0,-0.0053788248588445865,0.09010256633543118,1.0695906070417132
7.453897953033447,2.2123042708925804,[2.26535318],5.0,0.6,0.0,-0.004948518673968534,0.09010256451226181,1.0695906149436891
7.4618871212005615,2.2123042708925804,[2.26535318],5.0,0.6,0.0,-0.0045526370427331165,0.09010255624371509,1.0695906378885045
7.469890356063843,2.2123042708925804,[2.26535318],5.0,0.6,0.0,-0.004188425983191906,0.0901025426317781,1.0695906732928817
7.477899074554443,2.2123042708925804,[2.26535317],5.0,0.6,0.0,-0.003853351837250764,0.09010252467756094,1.0695907188053666
7.4858598709106445,2.2123042708925804,[2.26535317],5.0,0.6,0.0,-0.0035450836431706535,0.0901025032839015,1.0695907723018476
7.493894577026367,2.2123042708925804,[2.26535316],5.0,0.6,0.0,-0.0032614769187469562,0.09010247925883404,1.069590831878708
7.501900672912598,2.2123042708925804,[2.26535316],5.0,0.6,0.0,-0.0030005587421681767,0.09010245331975869,1.06959089584405
7.5098958015441895,2.2123042708925804,[2.26535315],5.0,0.6,0.0,-0.002760514026639403,0.0901024260981391,1.0695909627074425
7.517892599105835,2.2123042708925804,[2.26535315],5.0,0.6,0.0,-0.0025396728931995315,0.09010239814457888,1.0695910311685837
7.525914430618286,2.2123042708925804,[2.26535314],5.0,0.6,0.0,-0.0023364990538274656,0.09010236993417906,1.0695911001051475
7.533901929855347,2.2123042708925804,[2.26535314],5.0,0.6,0.0,-0.0021495791239799934,0.0901023418720322,1.069591168560172
7.54192042350769,2.2123042708925804,[2.26535313],5.0,0.6,0.0,-0.0019776127901826998,0.09010231429878396,1.0695912357291903
7.549819231033325,2.2123042708925804,[2.26535313],5.0,0.6,0.0,-0.001819403764252861,0.09010228749616679,1.0695913009473377
7.557898998260498,2.2123042708925804,[2.26535312],5.0,0.6,0.0,-0.001673851461211978,0.09010226169244306,1.0695913636766075
7.56590461730957,2.2123042708925804,[2.26535312],5.0,0.6,0.0,-0.0015399433429845602,0.09010223706769797,1.0695914234934074
7.5738935470581055,2.2123042708925804,[2.26535311],5.0,0.6,0.0,-0.0014167478746144727,0.0901022137589528,1.069591480076498
7.581881761550903,2.2123042708925804,[2.26535311],5.0,0.6,0.0,-0.0013034080439933895,0.09010219186502803,1.0695915331954917
7.589900970458984,2.2123042708925804,[2.2653531],5.0,0.6,0.0,-0.0011991354000175708,0.09010217145116425,1.0695915826999
7.597885608673096,2.2123042708925804,[2.2653531],5.0,0.6,0.0,-0.0011032045676967212,0.09010215255335281,1.06959162850885
7.605854272842407,2.2123042708925804,[2.26535309],5.0,0.6,0.0,-0.0010149482020573718,0.09010213518239744,1.069591670601424
7.61389684677124,2.2123042708925804,[2.26535309],5.0,0.6,0.0,-0.0009337523457362551,0.09010211932765023,1.0695917090077631
7.621872425079346,2.2123042708925804,[2.26535309],5.0,0.6,0.0,-0.0008590521579677863,0.0901021049604671,1.0695917438008313
7.62986946105957,2.2123042708925804,[2.26535309],5.0,0.6,0.0,-0.0007903279852536644,0.09010209203735295,1.0695917750889108
7.637877702713013,2.2123042708925804,[2.26535308],5.0,0.6,0.0,-0.0007271017463796824,0.0901020805028201,1.0695918030087759
7.645976543426514,2.2123042708925804,[2.26535308],5.0,0.6,0.0,-0.000668933606631726,0.09010207029195796,1.0695918277195555
7.653879165649414,2.2123042708925804,[2.26535308],5.0,0.6,0.0,-0.00061541891807488,0.09010206133272951,1.0695918493972432
7.661885023117065,2.2123042708925804,[2.26535308],5.0,0.6,0.0,-0.000566185404610475,0.09010205354799909,1.0695918682298489
7.669804573059082,2.2123042708925804,[2.26535308],5.0,0.6,0.0,-0.0005208905722287457,0.0901020468573223,1.0695918844131187
7.67790675163269,2.2123042708925804,[2.26535308],5.0,0.6,0.0,-0.0004792193264414236,0.0901020411785004,1.0695918981468153
7.68587064743042,2.2123042708925804,[2.26535307],5.0,0.6,0.0,-0.00044088178031979257,0.09010203642891702,1.0695919096315216
7.69386887550354,2.2123042708925804,[2.26535307],5.0,0.6,0.0,-0.0004056112378897881,0.09010203252666828,1.069591919065938
7.701882600784302,2.2123042708925804,[2.26535307],5.0,0.6,0.0,-0.00037316233885550986,0.09010202939151264,1.0695919266446108
7.709864139556885,2.2123042708925804,[2.26535307],5.0,0.6,0.0,-0.0003433093517449028,0.09010202694565869,1.0695919325560488
7.717879056930542,2.2123042708925804,[2.26535307],5.0,0.6,0.0,-0.00031584460360379387,0.09010202511439944,1.0695919369812097
7.725866079330444,2.2123042708925804,[2.26535307],5.0,0.6,0.0,-0.0002905770353144287,0.09010202382659134,1.0695919400923568
7.733796834945679,2.2123042708925804,[2.26535307],5.0,0.6,0.0,-0.0002673308724885309,0.09010202301503273,1.0695919420521578
7.741807460784912,2.2123042708925804,[2.26535307],5.0,0.6,0.0,-0.0002459444026889285,0.09010202261672487,1.0695919430130658
7.749847888946533,2.2123042708925804,[2.26535307],5.0,0.6,0.0,-0.00022626885047344992,0.09010202257303716,1.0695919431169294
7.75787353515625,2.2123042708925804,[2.26535307],5.0,0.6,0.0,-0.00020816734243531907,0.09010202282979893,1.0695919424947786
7.765892744064331,2.2123042708925804,[2.26535307],5.0,0.6,0.0,-0.0001915139550403151,0.09010202333731145,1.069591941266804
7.77388334274292,2.2123042708925804,[2.26535307],5.0,0.6,0.0,-0.00017619283863696509,0.0901020240502951,1.0695919395424898
7.7819249629974365,2.2123042708925804,[2.26535307],5.0,0.6,0.0,-0.00016209741154592054,0.09010202492779672,1.0695919374208434
7.789808988571167,2.2123042708925804,[2.26535307],5.0,0.6,0.0,-0.0001491296186221856,0.09010202593305662,1.06959193499072
7.797850131988525,2.2123042708925804,[2.26535307],5.0,0.6,0.0,-0.00013719924913236796,0.09010202703333152,1.0695919323312553
7.805855751037598,2.2123042708925804,[2.26535307],5.0,0.6,0.0,-0.00012622330920174875,0.09010202819970148,1.0695919295123353
7.813894510269165,2.2123042708925804,[2.26535307],5.0,0.6,0.0,-0.00011612544446558789,0.09010202940685469,1.0695919265951175
7.821887254714966,2.2123042708925804,[2.26535307],5.0,0.6,0.0,-0.00010683540890832617,0.09010203063285897,1.0695919236325866
7.829867124557495,2.2123042708925804,[2.26535307],5.0,0.6,0.0,-9.828857619564972e-05,0.09010203185891988,1.0695919206701412
7.837924957275391,2.2123042708925804,[2.26535307],5.0,0.6,0.0,-9.042549009999061e-05,0.09010203306914741,1.0695919177461573
7.845913648605347,2.2123042708925804,[2.26535307],5.0,0.6,0.0,-8.319145089198617e-05,0.09010203425030754,1.069591914892591
7.853881359100342,2.2123042708925804,[2.26535307],5.0,0.6,0.0,-7.653613482062388e-05,0.09010203539158446,1.0695919121355548
7.861878395080566,2.2123042708925804,[2.26535307],5.0,0.6,0.0,-7.041324403497134e-05,0.09010203648434964,1.0695919094958748
7.869868040084839,2.2123042708925804,[2.26535308],5.0,0.6,0.0,-6.478018451217202e-05,0.09010203752193524,1.0695919069896402
7.877868890762329,2.2123042708925804,[2.26535308],5.0,0.6,0.0,-5.959776975119698e-05,0.0901020384994209,1.0695919046287177
7.885822772979736,2.2123042708925804,[2.26535308],5.0,0.6,0.0,-5.482994817110039e-05,0.09010203941341825,1.0695919024212739
7.893873929977417,2.2123042708925804,[2.26535308],5.0,0.6,0.0,-5.044355231741181e-05,0.09010204026188863,1.0695919003722159
7.901939153671265,2.2123042708925804,[2.26535308],5.0,0.6,0.0,-4.640806813201845e-05,0.09010204104395433,1.0695918984836457
7.909807443618774,2.2123042708925804,[2.26535308],5.0,0.6,0.0,-4.269542268145667e-05,0.09010204175973188,1.069591896755266
7.918898820877075,2.2123042708925804,[2.26535308],5.0,0.6,0.0,-3.927978886693992e-05,0.09010204241018308,1.0695918951847383
7.926864862442017,2.2123042708925804,[2.26535308],5.0,0.6,0.0,-3.613740575758462e-05,0.090102042996964,1.0695918937680475
7.9348413944244385,2.2123042708925804,[2.26535308],5.0,0.6,0.0,-3.3246413296977804e-05,0.0901020435222983,1.06959189249981
7.942937850952148,2.2123042708925804,[2.26535308],5.0,0.6,0.0,-3.058670023321952e-05,0.09010204398886802,1.0695918913735352
7.950865983963013,2.2123042708925804,[2.26535308],5.0,0.6,0.0,-2.8139764214561885e-05,0.09010204439970063,1.0695918903819
7.958871841430664,2.2123042708925804,[2.26535308],5.0,0.6,0.0,-2.5888583077396885e-05,0.09010204475807536,1.0695918895169745
7.9668731689453125,2.2123042708925804,[2.26535308],5.0,0.6,0.0,-2.3817496431205082e-05,0.0901020450674477,1.069591888770404
7.974862098693848,2.2123042708925804,[2.26535308],5.0,0.6,0.0,-2.1912096716708674e-05,0.09010204533137157,1.0695918881335968
7.98291277885437,2.2123042708925804,[2.26535308],5.0,0.6,0.0,-2.0159128979371943e-05,0.0901020455534437,1.06959188759786
7.990886926651001,2.2123042708925804,[2.26535308],5.0,0.6,0.0,-1.8546398661022178e-05,0.09010204573724796,1.0695918871545322
7.998853921890259,2.2123042708925804,[2.26535308],5.0,0.6,0.0,-1.7062686768140417e-05,0.09010204588631103,1.0695918867950907
8.006831169128418,2.2123042708925804,[2.26535308],5.0,0.6,0.0,-1.56976718266892e-05,0.09010204600406448,1.069591886511244
8.014839172363281,2.2123042708925804,[2.26535308],5.0,0.6,0.0,-1.444185808055405e-05,0.09010204609381575,1.0695918862950005
8.022871255874634,2.2123042708925804,[2.26535308],5.0,0.6,0.0,-1.3286509434109712e-05,0.09010204615872605,1.0695918861387237
8.030919313430786,2.2123042708925804,[2.26535308],5.0,0.6,0.0,-1.2223588679380949e-05,0.09010204620178804,1.0695918860351838
8.038825511932373,2.2123042708925804,[2.26535308],5.0,0.6,0.0,-1.1245701585030475e-05,0.09010204622581458,1.0695918859775864
8.04685354232788,2.2123042708925804,[2.26535308],5.0,0.6,0.0,-1.0346045458228032e-05,0.09010204623343215,1.0695918859595877
8.054873704910278,2.2123042708925804,[2.26535308],5.0,0.6,0.0,-9.518361821569789e-06,0.09010204622707627,1.069591885975305
8.062902927398682,2.2123042708925804,[2.26535308],5.0,0.6,0.0,-8.75689287584422e-06,0.09010204620898712,1.069591886019329
8.070868253707886,2.2123042708925804,[2.26535308],5.0,0.6,0.0,-8.05634144577666e-06,0.09010204618120951,1.0695918860867208
8.078837871551514,2.2123042708925804,[2.26535308],5.0,0.6,0.0,-7.411834130114528e-06,0.09010204614559719,1.069591886173005
8.086852073669434,2.2123042708925804,[2.26535308],5.0,0.6,0.0,-6.818887399705371e-06,0.0901020461038218,1.0695918862741451
8.094856262207031,2.2123042708925804,[2.26535308],5.0,0.6,0.0,-6.273376407728944e-06,0.09010204605737727,1.0695918863865344
8.102873802185059,2.2123042708925804,[2.26535308],5.0,0.6,0.0,-5.7715062951106236e-06,0.09010204600758649,1.0695918865069796
8.110883712768555,2.2123042708925804,[2.26535308],5.0,0.6,0.0,-5.309785791501777e-06,0.09010204595561015,1.0695918866326788
8.118906497955322,2.2123042708925804,[2.26535308],5.0,0.6,0.0,-4.885002928181641e-06,0.09010204590245789,1.0695918867611955
8.126845836639404,2.2123042708925804,[2.26535308],5.0,0.6,0.0,-4.494202693927105e-06,0.09010204584900151,1.0695918868904253
8.134890794754028,2.2123042708925804,[2.26535308],5.0,0.6,0.0,-4.134666478412946e-06,0.09010204579597952,1.0695918870185868
8.142793416976929,2.2123042708925804,[2.26535308],5.0,0.6,0.0,-3.8038931601399047e-06,0.09010204574401046,1.0695918871441874
8.15085506439209,2.2123042708925804,[2.26535308],5.0,0.6,0.0,-3.499581707328715e-06,0.09010204569360607,1.069591887265993
8.158846855163574,2.2123042708925804,[2.26535308],5.0,0.6,0.0,-3.2196151707424153e-06,0.09010204564517596,1.0695918873830161
8.16677451133728,2.2123042708925804,[2.26535308],5.0,0.6,0.0,-2.9620459570830197e-06,0.09010204559904297,1.0695918874944783
8.174867153167725,2.2123042708925804,[2.26535308],5.0,0.6,0.0,-2.7250822805163806e-06,0.09010204555545215,1.069591887599789
8.182776927947998,2.2123042708925804,[2.26535308],5.0,0.6,0.0,-2.5070756980750724e-06,0.09010204551457299,1.0695918876985404
8.190797805786133,2.2123042708925804,[2.26535308],5.0,0.6,0.0,-2.3065096422290626e-06,0.09010204547651711,1.0695918877904644
8.198830366134644,2.2123042708925804,[2.26535308],5.0,0.6,0.0,-2.1219888708507394e-06,0.09010204544134279,1.0695918878754216
8.206780672073364,2.2123042708925804,[2.26535308],5.0,0.6,0.0,-1.952229761182677e-06,0.09010204540905938,1.0695918879533899
8.214786052703857,2.2123042708925804,[2.26535308],5.0,0.6,0.0,-1.7960513802880643e-06,0.09010204537964062,1.0695918880244342
8.222901821136475,2.2123042708925804,[2.26535308],5.0,0.6,0.0,-1.6523672698650182e-06,0.09010204535302689,1.0695918880886992
8.230967283248901,2.2123042708925804,[2.26535308],5.0,0.6,0.0,-1.5201778882758195e-06,0.09010204532912745,1.069591888146405
8.23885178565979,2.2123042708925804,[2.26535308],5.0,0.6,0.0,-1.398563657213754e-06,0.0901020453078315,1.0695918881978204
8.246862411499023,2.2123042708925804,[2.26535308],5.0,0.6,0.0,-1.2866785646366546e-06,0.09010204528901483,1.0695918882432456
8.255266189575195,2.2123042708925804,[2.26535308],5.0,0.6,0.0,-1.1837442794657212e-06,0.09010204527253989,1.0695918882830133
8.262779951095581,2.2123042708925804,[2.26535308],5.0,0.6,0.0,-1.0890447371084618e-06,0.09010204525826024,1.069591888317478
8.270779132843018,2.2123042708925804,[2.26535308],5.0,0.6,0.0,-1.0019211581397863e-06,0.0901020452460205,1.0695918883470155
8.278799057006836,2.2123042708925804,[2.26535308],5.0,0.6,0.0,-9.217674654886032e-07,0.0901020452356631,1.0695918883720064
8.286835670471191,2.2123042708925804,[2.26535308],5.0,0.6,0.0,-8.480260682495148e-07,0.09010204522703254,1.0695918883928268
8.294799089431763,2.2123042708925804,[2.26535308],5.0,0.6,0.0,-7.801839827895523e-07,0.09010204521997342,1.0695918884098525
8.302786111831665,2.2123042708925804,[2.26535308],5.0,0.6,0.0,-7.177692641663886e-07,0.09010204521433249,1.0695918884234539
8.311158418655396,2.2123042708925804,[2.26535308],5.0,0.6,0.0,-6.603477230330783e-07,0.09010204520996312,1.0695918884339848
8.318790435791016,2.2123042708925804,[2.26535308],5.0,0.6,0.0,-6.075199051904323e-07,0.09010204520673198,1.0695918884417677
8.326781749725342,2.2123042708925804,[2.26535308],5.0,0.6,0.0,-5.589183127751969e-07,0.09010204520450142,1.0695918884471354
8.334793090820312,2.2123042708925804,[2.26535308],5.0,0.6,0.0,-5.14204847753181e-07,0.09010204520314259,1.0695918884503985
8.342802286148071,2.2123042708925804,[2.26535308],5.0,0.6,0.0,-4.7306845993292665e-07,0.09010204520253988,1.0695918884518372
8.35077428817749,2.2123042708925804,[2.26535308],5.0,0.6,0.0,-4.352229831382932e-07,0.0901020452025866,1.0695918884517084
8.358772277832031,2.2123042708925804,[2.26535308],5.0,0.6,0.0,-4.0040514448722895e-07,0.0901020452031828,1.0695918884502538
8.366801500320435,2.2123042708925804,[2.26535308],5.0,0.6,0.0,-3.6837273292825093e-07,0.09010204520423512,1.069591888447699
8.374787330627441,2.2123042708925804,[2.26535308],5.0,0.6,0.0,-3.3890291429399056e-07,0.0901020452056591,1.0695918884442477
8.382782459259033,2.2123042708925804,[2.26535308],5.0,0.6,0.0,-3.117906811504715e-07,0.09010204520737698,1.069591888440088
8.390801668167114,2.2123042708925804,[2.26535308],5.0,0.6,0.0,-2.868474266584337e-07,0.09010204520932642,1.06959188843537
8.398819923400879,2.2123042708925804,[2.26535308],5.0,0.6,0.0,-2.6389963252575956e-07,0.09010204521144305,1.0695918884302493
8.40678596496582,2.2123042708925804,[2.26535308],5.0,0.6,0.0,-2.427876619236988e-07,0.09010204521367124,1.0695918884248605
8.414753675460815,2.2123042708925804,[2.26535308],5.0,0.6,0.0,-2.2336464896980257e-07,0.09010204521596651,1.0695918884193105
8.42279863357544,2.2123042708925804,[2.26535308],5.0,0.6,0.0,-2.0549547705221832e-07,0.09010204521829102,1.0695918884136908
8.430800914764404,2.2123042708925804,[2.26535308],5.0,0.6,0.0,-1.8905583888804122e-07,0.09010204522060702,1.0695918884080924
8.438794136047363,2.2123042708925804,[2.26535308],5.0,0.6,0.0,-1.7393137177699795e-07,0.09010204522288778,1.0695918884025801
8.446775674819946,2.2123042708925804,[2.26535308],5.0,0.6,0.0,-1.600168620348382e-07,0.09010204522510884,1.0695918883972126
8.454792976379395,2.2123042708925804,[2.26535308],5.0,0.6,0.0,-1.4721551307205108e-07,0.09010204522724795,1.0695918883920439
8.462759494781494,2.2123042708925804,[2.26535308],5.0,0.6,0.0,-1.3543827202628685e-07,0.09010204522929392,1.0695918883871003
8.47077465057373,2.2123042708925804,[2.26535308],5.0,0.6,0.0,-1.246032102641838e-07,0.09010204523123344,1.0695918883824147
8.47874927520752,2.2123042708925804,[2.26535308],5.0,0.6,0.0,-1.1463495344304901e-07,0.09010204523305979,1.0695918883780025
8.486773490905762,2.2123042708925804,[2.26535308],5.0,0.6,0.0,-1.0546415716760516e-07,0.0901020452347663,1.0695918883738802
8.494767189025879,2.2123042708925804,[2.26535308],5.0,0.6,0.0,-9.702702459419689e-08,0.09010204523634852,1.0695918883700586
8.502772808074951,2.2123042708925804,[2.26535308],5.0,0.6,0.0,-8.926486262666115e-08,0.09010204523780418,1.069591888366543
8.51076602935791,2.2123042708925804,[2.26535308],5.0,0.6,0.0,-8.212367361652824e-08,0.09010204523913329,1.069591888363333
8.518763065338135,2.2123042708925804,[2.26535308],5.0,0.6,0.0,-7.555377972720598e-08,0.09010204524033803,1.0695918883604238
8.526772737503052,2.2123042708925804,[2.26535308],5.0,0.6,0.0,-6.950947734902944e-08,0.09010204524142502,1.0695918883577993
8.534781694412231,2.2123042708925804,[2.26535308],5.0,0.6,0.0,-6.394871916110715e-08,0.09010204524239653,1.0695918883554536
8.542759418487549,2.2123042708925804,[2.26535308],5.0,0.6,0.0,-5.883282162821864e-08,0.09010204524326135,1.0695918883533657
8.550763130187988,2.2123042708925804,[2.26535308],5.0,0.6,0.0,-5.41261958979611e-08,0.0901020452440218,1.06959188835153
8.558746576309204,2.2123042708925804,[2.26535308],5.0,0.6,0.0,-4.979610022612427e-08,0.09010204524468228,1.0695918883499358
8.566761255264282,2.2123042708925804,[2.26535308],5.0,0.6,0.0,-4.5812412208034335e-08,0.09010204524525384,1.0695918883485565
8.574774980545044,2.2123042708925804,[2.26535308],5.0,0.6,0.0,-4.214741923139152e-08,0.09010204524573877,1.0695918883473863
8.582764625549316,2.2123042708925804,[2.26535308],5.0,0.6,0.0,-3.877562569288017e-08,0.0901020452461459,1.0695918883464042
8.590773344039917,2.2123042708925804,[2.26535308],5.0,0.6,0.0,-3.56735756374498e-08,0.0901020452464841,1.0695918883455882
8.5989408493042,2.2123042708925804,[2.26535308],5.0,0.6,0.0,-3.2819689586453765e-08,0.09010204524675787,1.0695918883449282
8.606770753860474,2.2123042708925804,[2.26535308],5.0,0.6,0.0,-3.019411441953746e-08,0.09010204524697603,1.069591888344402
8.614784240722656,2.2123042708925804,[2.26535308],5.0,0.6,0.0,-2.7778585265974477e-08,0.09010204524714088,1.069591888344005
8.622766494750977,2.2123042708925804,[2.26535308],5.0,0.6,0.0,-2.5556298444696532e-08,0.09010204524725685,1.0695918883437256
8.630900382995605,2.2123042708925804,[2.26535308],5.0,0.6,0.0,-2.3511794569120874e-08,0.09010204524733273,1.0695918883435431
8.638770580291748,2.2123042708925804,[2.26535308],5.0,0.6,0.0,-2.163085100359118e-08,0.09010204524737306,1.0695918883434468
8.646771430969238,2.2123042708925804,[2.26535308],5.0,0.6,0.0,-1.9900382923303886e-08,0.09010204524738226,1.0695918883434252
8.654758214950562,2.2123042708925804,[2.26535308],5.0,0.6,0.0,-1.8308352289439596e-08,0.09010204524736477,1.069591888343468
8.662827491760254,2.2123042708925804,[2.26535308],5.0,0.6,0.0,-1.6843684106284437e-08,0.09010204524732722,1.0695918883435596
8.670781135559082,2.2123042708925804,[2.26535308],5.0,0.6,0.0,-1.5496189377781654e-08,0.09010204524727189,1.0695918883436937
8.678772211074829,2.2123042708925804,[2.26535308],5.0,0.6,0.0,-1.4256494227559138e-08,0.09010204524720099,1.0695918883438653
8.686759948730469,2.2123042708925804,[2.26535308],5.0,0.6,0.0,-1.3115974689354384e-08,0.09010204524711894,1.069591888344064
8.694792032241821,2.2123042708925804,[2.26535308],5.0,0.6,0.0,-1.206669671420604e-08,0.090102045247028,1.069591888344284
8.702774047851562,2.2123042708925804,[2.26535308],5.0,0.6,0.0,-1.1101360977069553e-08,0.09010204524693037,1.0695918883445201
8.710931539535522,2.2123042708925804,[2.26535308],5.0,0.6,0.0,-1.0213252098903988e-08,0.09010204524682827,1.069591888344767
8.71876072883606,2.2123042708925804,[2.26535308],5.0,0.6,0.0,-9.396191930991668e-09,0.09010204524672615,1.069591888345014
8.726747989654541,2.2123042708925804,[2.26535308],5.0,0.6,0.0,-8.644496576512343e-09,0.09010204524662399,1.0695918883452609
8.734771013259888,2.2123042708925804,[2.26535308],5.0,0.6,0.0,-7.952936850391351e-09,0.09010204524652404,1.0695918883455025
8.74276614189148,2.2123042708925804,[2.26535308],5.0,0.6,0.0,-7.316701902360048e-09,0.09010204524642412,1.069591888345744
8.750744819641113,2.2123042708925804,[2.26535308],5.0,0.6,0.0,-6.731365750171237e-09,0.09010204524632641,1.0695918883459803
8.758742094039917,2.2123042708925804,[2.26535308],5.0,0.6,0.0,-6.1928564901575385e-09,0.09010204524623311,1.0695918883462054
8.766756772994995,2.2123042708925804,[2.26535308],5.0,0.6,0.0,-5.697427970944941e-09,0.09010204524614425,1.0695918883464204
8.774840354919434,2.2123042708925804,[2.26535308],5.0,0.6,0.0,-5.24163373326935e-09,0.09010204524606202,1.069591888346619
8.782775402069092,2.2123042708925804,[2.26535308],5.0,0.6,0.0,-4.822303034607797e-09,0.09010204524598427,1.0695918883468067
8.790830850601196,2.2123042708925804,[2.26535308],5.0,0.6,0.0,-4.436518791839179e-09,0.09010204524591313,1.0695918883469786
8.798836946487427,2.2123042708925804,[2.26535308],5.0,0.6,0.0,-4.081597288492039e-09,0.09010204524584647,1.0695918883471396
8.806811094284058,2.2123042708925804,[2.26535308],5.0,0.6,0.0,-3.755069505412675e-09,0.09010204524578426,1.06959188834729
8.814809799194336,2.2123042708925804,[2.26535308],5.0,0.6,0.0,-3.454663944979665e-09,0.09010204524572649,1.0695918883474294
8.822833061218262,2.2123042708925804,[2.26535308],5.0,0.6,0.0,-3.178290829381291e-09,0.09010204524567755,1.0695918883475475
8.830846548080444,2.2123042708925804,[2.26535308],5.0,0.6,0.0,-2.9240275630307854e-09,0.09010204524563309,1.069591888347655
8.838868618011475,2.2123042708925804,[2.26535308],5.0,0.6,0.0,-2.690105357988323e-09,0.09010204524559308,1.0695918883477513
8.846818923950195,2.2123042708925804,[2.26535308],5.0,0.6,0.0,-2.4748969293492566e-09,0.09010204524555972,1.069591888347832
8.854808330535889,2.2123042708925804,[2.26535308],5.0,0.6,0.0,-2.2769051750013147e-09,0.0901020452455308,1.0695918883479016
8.862784147262573,2.2123042708925804,[2.26535308],5.0,0.6,0.0,-2.0947527610012123e-09,0.09010204524550633,1.0695918883479607
8.870824813842773,2.2123042708925804,[2.26535308],5.0,0.6,0.0,-1.9271725401211148e-09,0.09010204524548629,1.069591888348009
8.878756761550903,2.2123042708925804,[2.26535308],5.0,0.6,0.0,-1.7729987369114264e-09,0.09010204524547291,1.0695918883480413
8.886760234832764,2.2123042708925804,[2.26535308],5.0,0.6,0.0,-1.6311588379585143e-09,0.09010204524546178,1.069591888348068
8.894771814346313,2.2123042708925804,[2.26535308],5.0,0.6,0.0,-1.5006661309218306e-09,0.09010204524545068,1.069591888348095
8.902849674224854,2.2123042708925804,[2.26535308],5.0,0.6,0.0,-1.3806128404480844e-09,0.09010204524544177,1.0695918883481164
8.910758018493652,2.2123042708925804,[2.26535308],5.0,0.6,0.0,-1.2701638132122388e-09,0.0901020452454329,1.069591888348138
8.918798446655273,2.2123042708925804,[2.26535308],5.0,0.6,0.0,-1.1685507081552596e-09,0.0901020452454284,1.0695918883481486
8.926806688308716,2.2123042708925804,[2.26535308],5.0,0.6,0.0,-1.0750666515028385e-09,0.09010204524542617,1.069591888348154
8.934765338897705,2.2123042708925804,[2.26535308],5.0,0.6,0.0,-9.890613193826116e-10,0.09010204524542614,1.069591888348154
8.942824363708496,2.2123042708925804,[2.26535308],5.0,0.6,0.0,-9.099364138320012e-10,0.09010204524542834,1.0695918883481486
8.950783729553223,2.2123042708925804,[2.26535308],5.0,0.6,0.0,-8.371415007254427e-10,0.09010204524543276,1.069591888348138
8.958865880966187,2.2123042708925804,[2.26535308],5.0,0.6,0.0,-7.701701806674057e-10,0.0901020452454394,1.0695918883481217
8.96683955192566,2.2123042708925804,[2.26535308],5.0,0.6,0.0,-7.085565662140137e-10,0.09010204524544387,1.069591888348111
8.97484016418457,2.2123042708925804,[2.26535308],5.0,0.6,0.0,-6.518720409168937e-10,0.0901020452454461,1.0695918883481057
8.982856273651123,2.2123042708925804,[2.26535308],5.0,0.6,0.0,-5.997222776435417e-10,0.09010204524544833,1.0695918883481004
8.990827322006226,2.2123042708925804,[2.26535308],5.0,0.6,0.0,-5.51744495432059e-10,0.09010204524545054,1.069591888348095
8.99881887435913,2.2123042708925804,[2.26535308],5.0,0.6,0.0,-5.076049357974945e-10,0.09010204524545497,1.0695918883480842
9.006766319274902,2.2123042708925804,[2.26535308],5.0,0.6,0.0,-4.669965409336944e-10,0.09010204524545941,1.0695918883480735
9.014837741851807,2.2123042708925804,[2.26535308],5.0,0.6,0.0,-4.296368176589982e-10,0.09010204524546604,1.0695918883480573
9.02284860610962,2.2123042708925804,[2.26535308],5.0,0.6,0.0,-3.9526587224627826e-10,0.09010204524547051,1.0695918883480466
9.030744552612305,2.2123042708925804,[2.26535308],5.0,0.6,0.0,-3.6364460246657593e-10,0.09010204524547274,1.0695918883480413
9.038838386535645,2.2123042708925804,[2.26535308],5.0,0.6,0.0,-3.3455303426925047e-10,0.09010204524547497,1.069591888348036
9.046830892562866,2.2123042708925804,[2.26535308],5.0,0.6,0.0,-3.0778879152771007e-10,0.09010204524547719,1.0695918883480307
9.054823637008667,2.2123042708925804,[2.26535308],5.0,0.6,0.0,-2.8316568820549364e-10,0.0901020452454794,1.0695918883480253
9.062807559967041,2.2123042708925804,[2.26535308],5.0,0.6,0.0,-2.6051243314905414e-10,0.09010204524548164,1.0695918883480198
9.070749998092651,2.2123042708925804,[2.26535308],5.0,0.6,0.0,-2.3967143849712994e-10,0.09010204524548604,1.069591888348009
9.0788414478302,2.2123042708925804,[2.26535308],5.0,0.6,0.0,-2.2049772341735917e-10,0.09010204524549048,1.0695918883479982
9.086751461029053,2.2123042708925804,[2.26535308],5.0,0.6,0.0,-2.0285790554397024e-10,0.09010204524549274,1.069591888347993
9.094826698303223,2.2123042708925804,[2.26535308],5.0,0.6,0.0,-1.8662927310045276e-10,0.09010204524549495,1.0695918883479876
9.102829456329346,2.2123042708925804,[2.26535308],5.0,0.6,0.0,-1.7169893125241677e-10,0.09010204524549498,1.0695918883479876
9.110817193984985,2.2123042708925804,[2.26535308],5.0,0.6,0.0,-1.5796301675222347e-10,0.09010204524549498,1.0695918883479876
9.11871337890625,2.2123042708925804,[2.26535308],5.0,0.6,0.0,-1.453259754120456e-10,0.09010204524549498,1.0695918883479876
9.126717805862427,2.2123042708925804,[2.26535308],5.0,0.6,0.0,-1.3369989737908199e-10,0.09010204524549498,1.0695918883479876
9.134723424911499,2.2123042708925804,[2.26535308],5.0,0.6,0.0,-1.2300390558875522e-10,0.09010204524549498,1.0695918883479876
9.143738269805908,2.2123042708925804,[2.26535308],5.0,0.6,0.0,-1.131635931416547e-10,0.09010204524549498,1.0695918883479876
9.151835441589355,2.2123042708925804,[2.26535308],5.0,0.6,0.0,-1.0411050569032255e-10,0.09010204524549498,1.0695918883479876
9.15983510017395,2.2123042708925804,[2.26535308],5.0,0.6,0.0,-9.578166523509693e-11,0.09010204524549498,1.0695918883479876
9.16780400276184,2.2123042708925804,[2.26535308],5.0,0.6,0.0,-8.8119132016289e-11,0.09010204524549498,1.0695918883479876
9.175811290740967,2.2123042708925804,[2.26535308],5.0,0.6,0.0,-8.106960145498584e-11,0.09010204524549498,1.0695918883479876
9.183788776397705,2.2123042708925804,[2.26535308],5.0,0.6,0.0,-7.458403333858711e-11,0.09010204524549498,1.0695918883479876
9.191805601119995,2.212499669609317,[2.26535308],5.0,0.6,0.0,-6.861731067150013e-11,0.08913482159764839,1.0719541039642397
9.199820756912231,2.2123042708925804,[2.26535308],5.0,0.6,0.0,-6.312792581778004e-11,0.09009237300901651,1.0695918883479876
9.207865715026855,2.2123042708925804,[2.26535308],5.0,0.6,0.0,-5.807769175235766e-11,0.0901019485231302,1.0695918883479876
9.215787887573242,2.2123042708925804,[2.26535308],5.0,0.6,0.0,-5.3431476412169135e-11,0.09010204427827133,1.0695918883479876
9.223782539367676,2.2123042708925804,[2.26535308],5.0,0.6,0.0,-4.915695829919561e-11,0.09010204523582274,1.0695918883479876
9.231783390045166,2.2123042708925804,[2.26535308],5.0,0.6,0.0,-4.52244016352599e-11,0.09010204524539825,1.0695918883479876
9.239733457565308,2.2123042708925804,[2.26535308],5.0,0.6,0.0,-4.16064495044391e-11,0.090102045245494,1.0695918883479876
9.24777889251709,2.2123042708925804,[2.26535308],5.0,0.6,0.0,-3.827793354408399e-11,0.09010204524549496,1.0695918883479876
9.25578761100769,2.2123042708925804,[2.26535308],5.0,0.6,0.0,-3.521569886055728e-11,0.09010204524549498,1.0695918883479876
9.263805866241455,2.2123042708925804,[2.26535308],5.0,0.6,0.0,-3.2398442951712704e-11,0.09010204524549498,1.0695918883479876
9.271752834320068,2.2123042708925804,[2.26535308],5.0,0.6,0.0,-2.9806567515575653e-11,0.09010204524549498,1.0695918883479876
9.279790163040161,2.2123042708925804,[2.26535308],5.0,0.6,0.0,-2.7422042114329596e-11,0.09010204524549498,1.0695918883479876
9.28779125213623,2.2123042708925804,[2.26535308],5.0,0.6,0.0,-2.522827874518324e-11,0.09010204524549498,1.0695918883479876
9.29578447341919,2.2123042708925804,[2.26535308],5.0,0.6,0.0,-2.3210016445568614e-11,0.09010204524549498,1.0695918883479876
9.303799867630005,2.2123042708925804,[2.26535308],5.0,0.6,0.0,-2.135321512992313e-11,0.09010204524549498,1.0695918883479876
9.31172490119934,2.212499669609317,[2.26535308],5.0,0.6,0.0,-1.964495791952927e-11,0.08913482159764839,1.0719541039642397
9.319823503494263,2.2123042708925804,[2.26535308],5.0,0.6,0.0,-1.8073361285966914e-11,0.09009237300901651,1.0695918883479876
9.327750444412231,2.2123042708925804,[2.26535308],5.0,0.6,0.0,-1.6627492383089557e-11,0.0901019485231302,1.0695918883479876
9.335829257965088,2.2123042708925804,[2.26535308],5.0,0.6,0.0,-1.5297292992442396e-11,0.09010204427827133,1.0695918883479876
9.343823194503784,2.2123042708925804,[2.26535308],5.0,0.6,0.0,-1.4073509553047032e-11,0.09010204523582274,1.0695918883479876
9.35173749923706,2.2123042708925804,[2.26535308],5.0,0.6,0.0,-1.2947628788803274e-11,0.09010204524539825,1.0695918883479876
9.359720706939697,2.2123042708925804,[2.26535308],5.0,0.6,0.0,-1.1911818485698988e-11,0.090102045245494,1.0695918883479876
9.367793560028076,2.2123042708925804,[2.26535308],5.0,0.6,0.0,-1.0958873006843067e-11,0.09010204524549496,1.0695918883479876
9.375803709030151,2.2123042708925804,[2.26535308],5.0,0.6,0.0,-1.0082163166295628e-11,0.09010204524549498,1.0695918883479876
9.383746147155762,2.2123042708925804,[2.26535308],5.0,0.6,0.0,-9.275590112991978e-12,0.09010204524549498,1.0695918883479876
9.391789436340332,2.2123042708925804,[2.26535308],5.0,0.6,0.0,-8.533542903952612e-12,0.09010204524549498,1.0695918883479876
9.399719953536987,2.2123042708925804,[2.26535308],5.0,0.6,0.0,-7.850859471636412e-12,0.09010204524549498,1.0695918883479876
9.407849788665771,2.2123042708925804,[2.26535308],5.0,0.6,0.0,-7.222790713905498e-12,0.09010204524549498,1.0695918883479876
9.415782690048218,2.212499669609317,[2.26535308],5.0,0.6,0.0,-6.644967456793052e-12,0.08913482159764839,1.0719541039642397
9.423760414123535,2.212499669609317,[2.26535308],5.0,0.6,0.0,-6.1133700602496045e-12,0.08912514936116993,1.0719541039642397
9.431803703308105,2.212499669609317,[2.26535308],5.0,0.6,0.0,-5.6243004554296394e-12,0.08912505263880514,1.0719541039642397
9.439815521240234,2.212499669609317,[2.26535308],5.0,0.6,0.0,-5.174356418995268e-12,0.0891250516715815,1.0719541039642397
9.447796106338501,2.212499669609317,[2.26535308],5.0,0.6,0.0,-4.760407905475651e-12,0.08912505166190926,1.0719541039642397
9.45583438873291,2.212499669609317,[2.26535308],5.0,0.6,0.0,-4.379575273037598e-12,0.08912505166181253,1.0719541039642397
9.463781833648682,2.212695068326054,[2.26535308],5.0,0.6,0.0,-4.029209251194591e-12,0.08815782801396498,1.0743173449855061
9.471785306930542,2.212695068326054,[2.26535308],5.0,0.6,0.0,0.2760383596749741,0.08798482010558917,1.0742606269842536
9.47975778579712,2.212695068326054,[2.26535308],5.0,0.6,0.0,0.3091629628367124,0.08790142219055674,1.0742461989513488
9.487849950790405,2.2128904670427905,[2.26535308],5.0,0.6,0.0,0.2540657062451205,0.08689253064558548,1.0766334950295913
9.495784282684326,2.2128904670427905,[2.26535308],5.0,0.6,0.0,0.17798070109041725,0.08686202477114859,1.0766579633995819
9.503735065460205,2.213085865759527,[2.26535308],5.0,0.6,0.0,0.10745802346470085,0.08588428758506406,1.079038034847141
9.511787176132202,2.213085865759527,[2.26535308],5.0,0.6,0.0,0.32687458744930875,0.08570607030155909,1.0789670999001353
9.519811391830444,2.213281264476264,[2.26535308],5.0,0.6,0.0,0.318001585347293,0.08465284452505539,1.0813372660565326
9.52773642539978,2.213281264476264,[2.26535308],5.0,0.6,0.0,0.5095275540192813,0.08443686661748195,1.0812193152228555
9.535728454589844,2.2134766631930005,[2.26535308],5.0,0.6,0.0,0.44703936690590795,0.08336476036565545,1.0836304543526545
9.543724775314331,2.2134766631930005,[2.26535308],5.0,0.6,0.0,0.30926690477831853,0.08330267789068511,1.083708002471746
9.551709651947021,2.213672061909737,[2.26535308],5.0,0.6,0.0,0.1697184710430541,0.08230915271186277,1.0861250949853392
9.559831380844116,2.213672061909737,[2.26535308],5.0,0.6,0.0,0.05407575520730165,0.08228637710696153,1.0861443597442368
9.5677969455719,2.213867460626474,[2.26535308],5.0,0.6,0.0,-0.03254611251850309,0.08131250552650943,1.0885137001730372
9.575794696807861,2.213867460626474,[2.26535308],5.0,0.6,0.0,-0.09297455893477899,0.08129955672242664,1.0885080539215106
9.583763599395752,2.2140628593432106,[2.26535308],5.0,0.6,0.0,0.14366673551560488,0.08016726287050276,1.0908676185768613
9.59178376197815,2.2142582580599472,[2.26535308],5.0,0.6,0.0,0.15324028007461016,0.07910624592611867,1.093234468616724
9.599689245223999,2.2142582580599472,[2.26535308],5.0,0.6,0.0,0.08604015234148663,0.07905440057766575,1.0932464380606315
9.60776400566101,2.2144536567766835,[2.26535308],5.0,0.6,0.0,0.005854444571492173,0.07806604088683226,1.0956212902326752
9.615761280059814,2.2146490554934206,[2.26535308],5.0,0.6,0.0,-0.06334758882893231,0.07707862484732286,1.0979880257069476
9.623770713806152,2.2146490554934206,[2.26535308],5.0,0.6,0.0,-0.11510432167032836,0.07706359628955162,1.0979811504465713
9.631756067276001,2.215039852926894,[2.26535308],5.0,0.6,0.0,0.12600972304687158,0.07496308583769534,1.1027192928705387
9.639761686325073,2.215039852926894,[2.26535308],5.0,0.6,0.0,0.13806601328642848,0.07485912429788406,1.1027169229293257
9.64777398109436,2.215039852926894,[2.26535308],5.0,0.6,0.0,0.07241821927923225,0.07481660646483962,1.1027272087399105
9.655768632888794,2.2154306503603673,[2.26535308],5.0,0.6,0.0,-0.006646227625401152,0.07286099488199282,1.1074716418980075
9.663694620132446,2.2156260490771036,[2.26535308],5.0,0.6,0.0,-0.07492883711962493,0.07186384556390837,1.1098377695500155
9.671700239181519,2.2158214477938407,[2.26535308],5.0,0.6,0.0,-0.12586685311835918,0.07088146564567298,1.1122003284659838
9.679787635803223,2.2158214477938407,[2.26535308],5.0,0.6,0.0,0.11600707494431746,0.07070571378599037,1.112202103690982
9.687730073928833,2.2160168465105774,[2.26535308],5.0,0.6,0.0,0.12877995808484385,0.06965376858929685,1.1145697745254979
9.695771217346191,2.2162122452273136,[2.26535308],5.0,0.6,0.0,0.06381009746672248,0.06863454347436045,1.116948839406778
9.703783988952637,2.2164076439440503,[2.26535308],5.0,0.6,0.0,-0.014614374293843074,0.06763638656780199,1.1193211410294919
9.71176028251648,2.216603042660787,[2.26535308],5.0,0.6,0.0,-0.08229520871624196,0.06664881084710852,1.12168529341741
9.719761371612549,2.216603042660787,[2.26535308],5.0,0.6,0.0,-0.13266969087090175,0.06663374983801099,1.1216772326397453
9.727739810943604,2.216798441377524,[2.26535308],5.0,0.6,0.0,-0.16630833969551057,0.06566378295412591,1.1240383123155164
9.735809087753296,2.217189238810997,[2.26535308],5.0,0.6,0.0,-0.18617100683482404,0.06371833967662344,1.1287685291620317
9.743766069412231,2.217189238810997,[2.26535308],5.0,0.6,0.0,-0.19558984903298166,0.06369823708736208,1.1287658526326256
9.751758337020874,2.2173846375277337,[2.26535308],5.0,0.6,0.0,-0.19750912139404403,0.06273048833537972,1.1311320039981811
9.759766817092896,2.2175800362444704,[2.26535308],5.0,0.6,0.0,-0.19427876106223163,0.06175342516089174,1.1334988916095865
9.767838478088379,2.217775434961207,[2.26535308],5.0,0.6,0.0,-0.18767264233360828,0.06077634986173948,1.1358658726361683
9.775691509246826,2.217970833677944,[2.26535308],5.0,0.6,0.0,-0.17898262025164888,0.059799314951121,1.138232428986765
9.783688306808472,2.217970833677944,[2.26535308],5.0,0.6,0.0,-0.1691248940424674,0.05978952434712461,1.1382349833180445
9.791698694229126,2.218166232394681,[2.26535308],5.0,0.6,0.0,-0.1587346363555553,0.058822192665790744,1.1406007097026667
9.799689292907715,2.218361631111417,[2.26535308],5.0,0.6,0.0,-0.14824223685706048,0.057845290637410486,1.1429652279557683
9.807726621627808,2.218557029828154,[2.26535308],5.0,0.6,0.0,-0.13793159675766634,0.05686829543741881,1.1453283988230003
9.815763473510742,2.218947827261627,[2.26535308],5.0,0.6,0.0,-0.12798332564257436,0.0549240769237951,1.150048572317008
9.823752880096436,2.219143225978364,[2.26535308],5.0,0.6,0.0,-0.11850610894458524,0.053937410457846946,1.1524073874770024
9.83176326751709,2.219143225978364,[2.26535308],5.0,0.6,0.0,-0.10955916963418406,0.05392754347670483,1.1524089063865708
9.839678764343262,2.2193386246951006,[2.26535308],5.0,0.6,0.0,-0.1011681880759557,0.052960221000805476,1.1547658455248524
9.847780227661133,2.2195340234118373,[2.26535308],5.0,0.6,0.0,-0.09333649315307602,0.05198332404907925,1.1571210716805345
9.855762481689453,2.2195340234118373,[2.26535308],5.0,0.6,0.0,-0.08605287264428854,0.05197355504000164,1.1571220443056267
9.863760948181152,2.219729422128574,[2.26535308],5.0,0.6,0.0,-0.07929698552177879,0.051006233682284116,1.1594753598658898
9.871768951416016,2.21992482084531,[2.26535308],5.0,0.6,0.0,-0.34908144295534527,0.05019267248286982,1.1617401358739787
9.879767417907715,2.21992482084531,[2.26535308],5.0,0.6,0.0,-0.37642550742944725,0.05026620470187933,1.1617253711232922
9.887853622436523,2.2201202195620473,[2.26535308],5.0,0.6,0.0,-0.3159912870313698,0.04934055029172245,1.1641055496177206
9.89575481414795,2.2201202195620473,[2.26535308],5.0,0.6,0.0,-0.23498306533570598,0.049351710705371754,1.1641387709485032
9.903727531433105,2.220315618278784,[2.26535308],5.0,0.6,0.0,-0.15992178056036938,0.04839480714053716,1.1665080273120827
9.911688566207886,2.2205110169955207,[2.26535308],5.0,0.6,0.0,-0.09911799221396522,0.04742311869647996,1.1688650235146998
9.919767141342163,2.2205110169955207,[2.26535308],5.0,0.6,0.0,-0.05326842159692875,0.04741595393175824,1.1688702244817626
9.927695512771606,2.2207064157122574,[2.26535308],5.0,0.6,0.0,-0.02030630644682091,0.04644993469612386,1.1712153026561625
9.935771942138672,2.2207064157122574,[2.26535308],5.0,0.6,0.0,0.002486921841777078,0.04644091253369723,1.1712156050027573
9.943760633468628,2.2207064157122574,[2.26535308],5.0,0.6,0.0,-0.2583931475546488,0.04660447699893516,1.1711659106725572
9.951884508132935,2.2207064157122574,[2.26535308],5.0,0.6,0.0,-0.2819097281709936,0.04668793998701868,1.1711564532923098
9.959756135940552,2.220901814428994,[2.26535308],5.0,0.6,0.0,-0.22114419834499305,0.04576246464076849,1.1735204014955658
9.967779874801636,2.2210972131457307,[2.26535308],5.0,0.6,0.0,-0.14213154924335847,0.04480644307531714,1.1758808060319377
9.975687265396118,2.2210972131457307,[2.26535308],5.0,0.6,0.0,-0.07055015247336245,0.04480711127759154,1.1758921386129004
9.983809232711792,2.2212926118624674,[2.26535308],5.0,0.6,0.0,-0.29015384218945195,0.04400834419262949,1.1781699804272292
9.99175763130188,2.2212926118624674,[2.26535308],5.0,0.6,0.0,-0.28227422292305027,0.044084581462210774,1.1781733376476053
9.99975323677063,2.221488010579204,[2.26535308],5.0,0.6,0.0,-0.19925481514982535,0.04316023265727543,1.180537581900274
10.007765531539917,2.221488010579204,[2.26535308],5.0,0.6,0.0,-0.10542302517251778,0.04317204540433379,1.180558862365428
10.015750169754028,2.2216834092959403,[2.26535308],5.0,0.6,0.0,-0.02467261191911349,0.04221546800151388,1.1828987768353059
10.02378535270691,2.2216834092959403,[2.26535308],5.0,0.6,0.0,0.0368190908540742,0.04221116628626261,1.1828982208376495
10.031694173812866,2.2218788080126775,[2.26535308],5.0,0.6,0.0,0.07998423623548107,0.041246531650649766,1.1852240884165346
10.039756298065186,2.2218788080126775,[2.26535308],5.0,0.6,0.0,0.10808704167943828,0.04123820131898786,1.185220154066622
10.047740459442139,2.222074206729414,[2.26535308],5.0,0.6,0.0,0.12470319612903266,0.04027155237517178,1.1875443420040044
10.055706262588501,2.222074206729414,[2.26535308],5.0,0.6,0.0,0.13296714125947157,0.040262214889407184,1.1875427569364247
10.063723087310791,2.222269605446151,[2.26535308],5.0,0.6,0.0,0.41141427939792374,0.0391317266966424,1.1897543693128991
10.071734428405762,2.222269605446151,[2.26535308],5.0,0.6,0.0,0.44298011840719603,0.039038836229684466,1.1897342985331685
10.079790830612183,2.2224650041628875,[2.26535308],5.0,0.6,0.0,0.3837369082642267,0.038029890884653146,1.1920924686666372
10.087745666503906,2.222660402879624,[2.26535308],5.0,0.6,0.0,0.30190455132222604,0.037032181387098705,1.1944531550195634
10.095680236816406,2.2228558015963604,[2.26535308],5.0,0.6,0.0,0.22472378231405077,0.036044782446149976,1.1967994618296722
10.10371994972229,2.2228558015963604,[2.26535308],5.0,0.6,0.0,0.16100848534435286,0.0360298093576761,1.1968177559550104
10.111736297607422,2.223051200313097,[2.26535308],5.0,0.6,0.0,0.11180287497115568,0.035059886429412594,1.1991408475695753
10.11972689628601,2.223246599029834,[2.26535308],5.0,0.6,0.0,0.07527681515328333,0.03408168877751726,1.2014559985757045
10.127690076828003,2.223246599029834,[2.26535308],5.0,0.6,0.0,0.048870200197782564,0.03407126941361526,1.2014584389311493
10.135729551315308,2.223441997746571,[2.26535308],5.0,0.6,0.0,0.3061912206058184,0.032940287206538604,1.2036973806836513
10.143743515014648,2.2236373964633076,[2.26535308],5.0,0.6,0.0,0.3262688913974367,0.031879926553826814,1.2059916819839682
10.151817321777344,2.2236373964633076,[2.26535308],5.0,0.6,0.0,0.2622242194653916,0.03182840935590247,1.20601973466796
10.159696817398071,2.2238327951800443,[2.26535308],5.0,0.6,0.0,0.18011395020982768,0.030840213740378035,1.2083472448885693
10.167739868164062,2.2240281938967805,[2.26535308],5.0,0.6,0.0,0.10562614237213266,0.02985287973852912,1.210660205224726
10.175663232803345,2.224223592613517,[2.26535308],5.0,0.6,0.0,0.0464779368916867,0.02887066855173939,1.2129605797038563
10.18368148803711,2.224223592613517,[2.26535308],5.0,0.6,0.0,0.002949507168860957,0.028858289340409158,1.2129621812782914
10.191664218902588,2.2246143900469906,[2.26535308],5.0,0.6,0.0,-0.0273143471987023,0.026922439702871528,1.21753834348767
10.199674606323242,2.2246143900469906,[2.26535308],5.0,0.6,0.0,-0.047229103805646766,0.026902441931630553,1.2175372384165974
10.20767068862915,2.2248097887637273,[2.26535308],5.0,0.6,0.0,-0.05946089793268766,0.025934698668638807,1.2198191378302483
10.215686559677124,2.2248097887637273,[2.26535308],5.0,0.6,0.0,-0.06618120648186865,0.025924861417292482,1.2198185092966012
10.223656415939331,2.2252005861972006,[2.26535308],5.0,0.6,0.0,-0.06905578357285164,0.02399023583972765,1.2243725844507218
10.23168683052063,2.2253959849139373,[2.26535308],5.0,0.6,0.0,-0.06931719608413342,0.023003625981426308,1.2266438878298502
10.239666938781738,2.225591383630674,[2.26535308],5.0,0.6,0.0,-0.06785569487060009,0.02202651625765718,1.2289113570167294
10.247668743133545,2.225591383630674,[2.26535308],5.0,0.6,0.0,-0.0653028323297995,0.022016735171749707,1.2289116100631636
10.255690813064575,2.2257867823474107,[2.26535308],5.0,0.6,0.0,-0.06209996133641269,0.021049408718709174,1.2311751415402061
10.263685703277588,2.2257867823474107,[2.26535308],5.0,0.6,0.0,-0.058551133574000665,0.021039732957011337,1.2311754602684206
10.271681308746338,2.2259821810641474,[2.26535308],5.0,0.6,0.0,-0.05486257140393178,0.020072411302964024,1.2334348252262535
10.27975869178772,2.226177579780884,[2.26535308],5.0,0.6,0.0,-0.05117149071006484,0.019095513814285127,1.235689913944934
10.287737369537354,2.2263729784976207,[2.26535308],5.0,0.6,0.0,-0.04756684649484648,0.018118520879405818,1.237940638027471
10.295743465423584,2.2263729784976207,[2.26535308],5.0,0.6,0.0,-0.04410411506870724,0.01810875079398407,1.237940874323221
10.303710222244263,2.2265683772143574,[2.26535308],5.0,0.6,0.0,-0.04081574915079437,0.017141429367246764,1.2401871209821684
10.311736345291138,2.2265683772143574,[2.26535308],5.0,0.6,0.0,-0.037718529461124015,0.01713175611396118,1.2401873020481848
10.319751977920532,2.2265683772143574,[2.26535308],5.0,0.6,0.0,-0.31085706792313345,0.01729499503381655,1.24011643327133
10.327663898468018,2.226763775931094,[2.26535308],5.0,0.6,0.0,-0.34127855370844007,0.01641107160136261,1.2423432037742428
10.33584213256836,2.226763775931094,[2.26535308],5.0,0.6,0.0,-0.28366972358814185,0.01644306628013514,1.242370000154879
10.343749761581421,2.2269591746478308,[2.26535308],5.0,0.6,0.0,-0.205256772786037,0.015496579535624779,1.2446354880593875
10.351818799972534,2.2269591746478308,[2.26535308],5.0,0.6,0.0,-0.13258027450335952,0.01549732314645395,1.244653764374569
10.35975193977356,2.2269591746478308,[2.26535308],5.0,0.6,0.0,-0.35000684499028456,0.015665770493596725,1.2445756646089419
10.367759466171265,2.2271545733645675,[2.26535308],5.0,0.6,0.0,-0.33929711340994373,0.014784451274738826,1.246813443589362
10.375761985778809,2.2271545733645675,[2.26535308],5.0,0.6,0.0,-0.2530907762032873,0.014817748060308849,1.2468514532606454
10.383753061294556,2.2271545733645675,[2.26535308],5.0,0.6,0.0,-0.15591664673978156,0.014839136017043848,1.246881037469284
10.391747951507568,2.2271545733645675,[2.26535308],5.0,0.6,0.0,-0.3478413326854423,0.015013213062948208,1.2468090739361106
10.39976191520691,2.227349972081304,[2.26535308],5.0,0.6,0.0,-0.3161776911922701,0.014134661768729148,1.2490522579334873
10.407663583755493,2.227349972081304,[2.26535308],5.0,0.6,0.0,-0.21474056785319054,0.014169342047371237,1.2490923431316556
10.415767431259155,2.227349972081304,[2.26535308],5.0,0.6,0.0,-0.10753254997991812,0.014191421745949772,1.2491180612610124
