t_s,q_rad,q_des_rad,K,B,jerk,tau_Nm,ilc_ff_Nm
0.005197763442993164,0.00019539871673667023,[0.00396021],0.005,0.1,0.0,9.998999999999999,0
0.01808643341064453,0.0,[0.01913848],0.005,0.1,0.0,10.098989999999999,0
0.032851457595825195,0.0,[0.04756691],0.005,0.1,0.0,10.099989899999999,0
0.047631263732910156,0.00019539871673667023,[0.08683212],0.005,0.1,0.0,10.099999898999998,0
0.06768012046813965,0.0,[0.13475289],0.005,0.1,0.0,10.099999998989999,0
0.08180379867553711,0.0,[0.18937259],0.005,0.1,0.0,10.0999999999899,0
0.09467339515686035,0.0,[0.2489498],0.005,0.1,0.0,10.099999999999898,0
0.10978150367736816,0.0,[0.31194767],0.005,0.1,0.0,10.099999999999998,0
0.12273454666137695,0.00019539871673667023,[0.37702223],0.005,0.1,0.0,7.325113209092813,0
0.13819575309753418,0.00019539871673667023,[0.4430101],0.005,0.1,0.0,4.224792786858335,0
0.15242266654968262,0.0037125756179967346,[0.50891565],0.005,0.1,2.484345237108129,2.4265085615920645,0
0.1670396327972412,0.009574537120096843,[0.57389802],0.005,0.1,5.0,1.4291387965954923,0
0.18650484085083008,0.017195087072826982,[0.63725826],0.005,0.1,5.0,0.9035412184554185,0
0.2017049789428711,0.023447846008400428,[0.69842645],0.005,0.1,5.0,0.6551383064966319,0
0.21671748161315918,0.029700604943973877,[0.75694908],0.005,0.1,5.0,0.5648972970094207,0
0.2344820499420166,0.036539560029757334,[0.8124771],0.005,0.1,5.0,0.5688938658307297,0
0.24477410316467285,0.04044753436449074,[0.86475429],0.005,0.1,5.0,0.6291895641759597,0
0.2587270736694336,0.04591869843311751,[0.91360615],0.005,0.1,5.0,0.7140596183881147,0
0.2817268371582031,0.05471164068626767,[0.9589302],0.005,0.1,3.0687134533367555,0.8042044172321834,0
0.2931535243988037,0.059401209887947753,[1.00068616],0.005,0.1,0.05723462319107586,0.9081667509421791,0
0.3086872100830078,0.06584936754025787,[1.03888622],0.005,0.1,-2.4545336003079044,1.0078648988246997,0
0.31940579414367676,0.07014813930846461,[1.07358688],0.005,0.1,-4.574743002476859,1.1110312358602983,0
0.335432767868042,0.0762054995273014,[1.10488163],0.005,0.1,-5.0,1.202768614960768,0
0.34887051582336426,0.08167666359592816,[1.13289434],0.005,0.1,-5.0,1.2891792005303384,0
0.36371564865112305,0.08773402381476494,[1.15777268],0.005,0.1,-5.0,1.3647320327539627,0
0.3776712417602539,0.0932051878833917,[1.17968225],0.005,0.1,-5.0,1.4332347388336115,0
0.3905947208404541,0.09809015580180845,[1.19880195],0.005,0.1,-5.0,1.4945344948961434,0
0.4046518802642822,0.1037567185871719,[1.21531962],0.005,0.1,-5.0,1.542612463512415,0
0.41866326332092285,0.10922788265579866,[1.22942815],0.005,0.1,-5.0,1.58169625230329,0
0.43366217613220215,0.11587143902484545,[1.24132225],0.005,0.1,-5.0,1.6059615971888341,0
0.44767165184020996,0.12134260309347221,[1.2511956],0.005,0.1,-5.0,1.6264947768026052,0
0.4658317565917969,0.12837695689599235,[1.25923919],0.005,0.1,-5.0,1.632365607288874,0
0.47666287422180176,0.1326757286641991,[1.26563852],0.005,0.1,-5.0,1.6413407778368923,0
0.49736833572387695,0.14107787348387593,[1.27057254],0.005,0.1,-4.927461986080715,1.6294364533253787,0
0.5126662254333496,0.1471352337027127,[1.27421372],0.005,0.1,-4.707295102716801,1.6176393835710816,0
0.5286681652069092,0.15338799263828612,[1.27672386],0.005,0.1,-4.4249358899982765,1.6002082474397599,0
0.5416579246520996,0.15846835927343958,[1.2782529],0.005,0.1,-4.123099766964083,1.5839212444861996,0
0.5557546615600586,0.164134922058803,[1.27894051],0.005,0.1,-3.8228637449812,1.561516575469235,0
0.5654377937316895,0.1680428963935364,[1.27891591],0.005,0.1,-3.5343134347738543,1.543987640404543,0
0.579627513885498,0.17390485789563648,[1.27829775],0.005,0.1,-3.261938721480314,1.5155550905680844,0
0.5935866832733154,0.17957142068099996,[1.27719423],0.005,0.1,-3.2834188409396345,1.48622101226246,0
0.6085851192474365,0.18543338218310007,[1.27570326],0.005,0.1,-3.0799996080782464,1.4548175181792984,0
0.6226546764373779,0.19070914753499016,[1.27391278],0.005,0.1,-2.805852442716307,1.425064299506415,0
0.6365857124328613,0.19637571032035359,[1.27190114],0.005,0.1,-2.527348615195355,1.3932416796603337,0
0.6506292819976807,0.202042273105717,[1.26973754],0.005,0.1,-2.2700294863057593,1.361279741573321,0
0.6718924045562744,0.21044441792539384,[1.26748475],0.005,0.1,-2.0411821110289474,1.3268991605613767,0
0.6876587867736816,0.21630637942749392,[1.26519932],0.005,0.1,-2.1165278160643375,1.292400804897606,0
0.7026598453521729,0.22275453707980408,[1.2629274],0.005,0.1,-1.6980329558532712,1.2566908923990365,0
0.7166581153869629,0.22881189729864085,[1.26070553],0.005,0.1,-1.7317357809602558,1.2239493927072385,0
0.7306532859802246,0.23428306136726765,[1.2585638],0.005,0.1,-1.607823534918973,1.1945899980199408,0
0.7437427043914795,0.2397542254358944,[1.25652654],0.005,0.1,-1.437408680296838,1.1663184586798645,0
0.7576916217803955,0.2450299907877845,[1.25461284],0.005,0.1,-1.267149903926315,1.1397653655357962,0
0.7716958522796631,0.2506965535731479,[1.2528371],0.005,0.1,-1.1140847534160947,1.1128323050045712,0
0.7884795665740967,0.2573401099421947,[1.25121024],0.005,0.1,-0.7062309523100906,1.0854414850097387,0
0.8008425235748291,0.26222507786061144,[1.24973981],0.005,0.1,-0.5613910161733907,1.0618173441793435,0
0.8211829662322998,0.27043182396355164,[1.24843058],0.005,0.1,-0.798062799907455,1.0337383211668527,0
0.8356449604034424,0.276098386748915,[1.24728532],0.005,0.1,-0.5509602455740712,1.0088621958344308,0
0.8516325950622559,0.2825465444012252,[1.24630277],0.005,0.1,-0.46445867643815575,0.9832511782261034,0
0.8687798976898193,0.28977629692048196,[1.24547858],0.005,0.1,-0.44053241855435166,0.9578125873314342,0
0.8796424865722656,0.29387966997195203,[1.24480698],0.005,0.1,-0.4360150108690447,0.9406275930214522,0
0.8926510810852051,0.29915543532384214,[1.2442801],0.005,0.1,-0.4333733802774302,0.9223663034524162,0
0.9106311798095703,0.306385187843099,[1.24389024],0.005,0.1,-0.4266371791590453,0.9006323913790723,0
0.9249539375305176,0.3122471493451991,[1.24363071],0.005,0.1,-0.13870439871489168,0.8821226849391854,0
0.9382131099700928,0.3173275159803524,[1.24349367],0.005,0.1,-0.08930745490637158,0.8660523811257029,0
0.9485304355621338,0.3216262877485592,[1.24346931],0.005,0.1,-0.40107114003797384,0.8518838835531377,0
0.9585537910461426,0.32514346464981925,[1.24354692],0.005,0.1,-0.4890422341541489,0.8418809351728886,0
0.9735584259033203,0.33120082486865604,[1.24371692],0.005,0.1,-0.20633073959275694,0.8255392047804763,0
0.9865667819976807,0.3362811915038095,[1.24397126],0.005,0.1,-0.4075753859261459,0.812383580876285,0
1.0005638599395752,0.34214315300590964,[1.24430258],0.005,0.1,-0.16944980283572378,0.7974642514155683,0
1.019413709640503,0.34956830424190305,[1.24470517],0.005,0.1,-0.10909582870270589,0.7820583835225454,0
1.0319750308990479,0.3548440695937931,[1.24517461],0.005,0.1,-0.11614241779487963,0.7678763346643688,0
1.0450069904327393,0.3599244362289466,[1.24570497],0.005,0.1,-0.14215942730445058,0.7555672732186587,0
1.0617167949676514,0.36656799259799333,[1.2462905],0.005,0.1,-0.1676357672539779,0.7426006239588419,0
1.0706298351287842,0.3700851694992534,[1.24692522],0.005,0.1,-0.18608587780768332,0.7295797949237223,0
1.0839569568634033,0.37555633356788015,[1.24760135],0.005,0.1,-0.19653499095707438,0.719220082732339,0
1.098144769668579,0.38122289635324363,[1.24831346],0.005,0.1,-0.20006403155238708,0.7077806112590599,0
1.109649419784546,0.38532626940471365,[1.24905762],0.005,0.1,-0.19829352269357522,0.697937406305601,0
1.126723289489746,0.39216522449049723,[1.24982986],0.005,0.1,-0.1927734333212966,0.6862190207226039,0
1.1466426849365234,0.4003719705934373,[1.25062954],0.005,0.1,-0.184781514804649,0.6744213625036688,0
1.162635326385498,0.4068201282457474,[1.25145719],0.005,0.1,-0.17529475364398517,0.6582054074778105,0
1.1853272914886475,0.41600386793237093,[1.25231271],0.005,0.1,0.11101275894985671,0.6478798377636362,0
1.1996641159057617,0.4216704307177344,[1.25319636],0.005,0.1,0.1546876133263606,0.6310492954270696,0
1.2128443717956543,0.42733699350309784,[1.2541052],0.005,0.1,-0.16595808161323056,0.6165167582701951,0
1.2247276306152344,0.4318311639880412,[1.25503295],0.005,0.1,0.011075904942540113,0.6035701052521247,0
1.2353858947753906,0.4361299357562479,[1.25597211],0.005,0.1,0.03855502095626701,0.5924053083782809,0
1.2531585693359375,0.4429688908420314,[1.25691756],0.005,0.1,-0.26384458331725047,0.5848049235821016,0
1.2659313678741455,0.4484400549106582,[1.25786818],0.005,0.1,-0.05976635635420577,0.5724916208051389,0
1.2761006355285645,0.4523480292453916,[1.2588208],0.005,0.1,-0.006698294258336006,0.5626167750629097,0
1.2932782173156738,0.45899158561443837,[1.25977136],0.005,0.1,-0.012258057516844886,0.5540673979272617,0
1.3071825504302979,0.4648535471165385,[1.26071907],0.005,0.1,-0.035492528830144976,0.5427139465531461,0
1.321068286895752,0.47012931246842854,[1.261663],0.005,0.1,-0.0595777962415725,0.532986949088131,0
1.3356268405914307,0.475795875253792,[1.26260106],0.005,0.1,-0.07864588563358008,0.5227869332640737,0
1.3506124019622803,0.4818532354726288,[1.26353157],0.005,0.1,-0.09153175609122355,0.5120587779089198,0
1.3646166324615479,0.4877151969747289,[1.26445322],0.005,0.1,-0.09888025559190151,0.5019533063327263,0
1.3880712985992432,0.4970943353780891,[1.26536752],0.005,0.1,-0.10186294367227824,0.492510618945066,0
1.398482322692871,0.5011977084295592,[1.26627735],0.005,0.1,-0.10165077441595236,0.48081008417969395,0
1.4148836135864258,0.5078412647986059,[1.26718292],0.005,0.1,-0.09923036396287882,0.4722476988273516,0
1.429630994796753,0.514289422450916,[1.26808418],0.005,0.1,-0.09536801346302849,0.46061500614512196,0
1.4425182342529297,0.5193697890860695,[1.26898119],0.005,0.1,-0.09063078870149471,0.45185934207419415,0
1.456636905670166,0.5248409531546963,[1.26987318],0.005,0.1,-0.0854243576680422,0.4434339843914839,0
1.4715232849121094,0.5307029146567964,[1.27075993],0.005,0.1,-0.3560693314979146,0.43430697244676264,0
1.4840707778930664,0.5357832812919499,[1.27164108],0.005,0.1,-0.38380472100954033,0.4257816345781465,0
1.4986114501953125,0.5412544453605765,[1.27251647],0.005,0.1,-0.323447843711344,0.41913201158859753,0
1.513564109802246,0.5473118055794133,[1.27338702],0.005,0.1,-0.2423116890625694,0.4102252196612848,0
1.5340781211853027,0.5559093491158269,[1.27425577],0.005,0.1,0.10904562345728813,0.40372984359958547,0
1.550004243850708,0.562357506768137,[1.275128],0.005,0.1,0.20330935227266758,0.3957967979336648,0
1.563687801361084,0.5678286708367637,[1.27600724],0.005,0.1,0.19443912643309422,0.3860927731894249,0
1.5785224437713623,0.5740814297723372,[1.27689369],0.005,0.1,0.15171184058690457,0.37609925911617426,0
1.5925402641296387,0.5797479925577007,[1.27778676],0.005,0.1,-0.17165813603631544,0.3677726968607825,0
1.602996587753296,0.584242163042644,[1.27868474],0.005,0.1,-0.24585650622024857,0.3580594563866025,0
1.6177089214324951,0.5895179283945341,[1.2795863],0.005,0.1,-0.22277365072115435,0.35599327037738815,0
1.6279382705688477,0.5936213014460042,[1.28049152],0.005,0.1,-0.44611705896701914,0.3466018348215372,0
1.6375975608825684,0.5977246744974742,[1.2813974],0.005,0.1,-0.4249827121857391,0.33850172621498714,0
1.6579163074493408,0.6057360218836778,[1.2823031],0.005,0.1,-0.32404226162792604,0.33964467017071837,0
1.6682546138763428,0.6096439962184113,[1.28321302],0.005,0.1,-0.21269442412053532,0.32909946450981414,0
1.6775660514831543,0.6135519705531445,[1.28412626],0.005,0.1,-0.11659916405228188,0.32044725991911943,0
1.6981279850006104,0.6219541153728214,[1.28504191],0.005,0.1,-0.04227414336383474,0.3226797590271915,0
1.7061409950256348,0.6252758935573448,[1.28596333],0.005,0.1,0.01142639603390256,0.30886129360504544,0
1.7215163707733154,0.6317240512096549,[1.28689043],0.005,0.1,0.048145633218107706,0.30609677970905286,0
1.7388637065887451,0.6387584050121751,[1.28782521],0.005,0.1,0.0718424884258525,0.3037803392515063,0
1.7523350715637207,0.6438387716473285,[1.28877247],0.005,0.1,0.08598162428663872,0.29664873122117447,0
1.7675857543945312,0.6498961318661652,[1.28973359],0.005,0.1,0.09332495921270517,0.2888909132979958,0
1.7835803031921387,0.656539688235212,[1.29070817],0.005,0.1,0.09596491309129343,0.28090027637080633,0
1.7985858917236328,0.6625970484540489,[1.29169581],0.005,0.1,0.09543720807856645,0.27407923405544854,0
1.8202648162841797,0.671389990707199,[1.29269982],0.005,0.1,0.09284453435837464,0.28039033505889105,0
1.8331360816955566,0.6766657560590891,[1.29372579],0.005,0.1,0.08896541430880511,0.266142327258462,0
1.8476371765136719,0.6823323188444524,[1.29477471],0.005,0.1,0.08434150637897171,0.26199124935725554,0
1.8604342937469482,0.6878034829130792,[1.29584523],0.005,0.1,0.07934422118174753,0.25431077500802146,0
1.8755838871002197,0.6936654444151793,[1.29693609],0.005,0.1,0.35026242171646815,0.2471107136456226,0
1.8915493488311768,0.6997228046340161,[1.29804529],0.005,0.1,0.10227108213723762,0.24050781538093238,0
1.906522512435913,0.7059755635695895,[1.29917105],0.005,0.1,0.00912033185446489,0.23419565347156532,0
1.9185867309570312,0.7108605314880063,[1.30031179],0.005,0.1,0.25945580957525455,0.22975182955787396,0
1.931565284729004,0.7165270942733698,[1.30146619],0.005,0.1,0.017639922874008687,0.22481019062043364,0
1.9550895690917969,0.7259062326767299,[1.30263718],0.005,0.1,0.21516135558500216,0.2347453403390405,0
1.9686949253082275,0.7315727954620934,[1.30383116],0.005,0.1,0.23800003698588484,0.2235397892528348,0
1.9821670055389404,0.7376301556809302,[1.30504869],0.005,0.1,0.19739552255500015,0.2123346391874003,0
1.9995720386505127,0.7440783133332403,[1.30628643],0.005,0.1,0.14170841053745786,0.20918273048655223,0
2.0201821327209473,0.7520896607194437,[1.30754618],0.005,0.1,0.09004475245387865,0.21639668862129904,0
2.030545949935913,0.7563884324876504,[1.30883035],0.005,0.1,0.04841220454347569,0.19759764591643783,0
2.0431671142578125,0.7614687991228039,[1.31013466],0.005,0.1,0.2933772714359036,0.19230662392106923,0
2.055525064468384,0.7663537670412206,[1.31145309],0.005,0.1,0.3045245206494376,0.18484414804322183,0
2.0762345790863037,0.7747559118608975,[1.31278616],0.005,0.1,0.23461016097193982,0.1992694835052878,0
2.085813283920288,0.7790546836291042,[1.31413662],0.005,0.1,0.1490623696386812,0.17724775756518074,0
2.105571746826172,0.7866752335818344,[1.3155032],0.005,0.1,0.07294594522985245,0.18556046964810488,0
2.1205153465270996,0.7927325938006711,[1.31688648],0.005,0.1,0.013453190265692576,0.17744145899404562,0
2.1440114974975586,0.8021117322040313,[1.31829119],0.005,0.1,-0.02954455797731841,0.19053667672490107,0
2.15958571434021,0.8083644911396048,[1.31972239],0.005,0.1,-0.0587068071942428,0.17672361205193082,0
2.173567056655884,0.814226452641705,[1.32117968],0.005,0.1,-0.07716871668721086,0.16680806321577074,0
2.187565565109253,0.8198930154270683,[1.32265803],0.005,0.1,-0.08775132938516791,0.15945590334752788,0
2.202554702758789,0.8263411730793784,[1.32415304],0.005,0.1,-0.09273309614990077,0.15300734363329982,0
2.2175512313842773,0.8322031345814787,[1.32566092],0.005,0.1,-0.09385205768502741,0.1480954962993294,0
2.2385947704315186,0.8406052794011555,[1.32718287],0.005,0.1,-0.09238836855228325,0.162675067108034,0
2.2556467056274414,0.8472488357702022,[1.32872472],0.005,0.1,0.1867758532615712,0.15365332059405792,0
2.268575429916382,0.8519384049718822,[1.33028755],0.005,0.1,0.22403877453628215,0.1464861333961743,0
2.2845938205718994,0.858581961340929,[1.33186768],0.005,0.1,0.17364105670082508,0.13987699064869277,0
2.307589054107666,0.8681564984610259,[1.33346687],0.005,0.1,0.10250848678012087,0.15902736764744382,0
2.323577404022217,0.8744092573965994,[1.33509188],0.005,0.1,0.03698438093155955,0.1465698046581899,0
2.3387670516967773,0.8812482124823828,[1.33674391],0.005,0.1,-0.014728031945674014,0.13922900829477616,0
2.3563272953033447,0.8878917688514296,[1.33842152],0.005,0.1,-0.0519909848561908,0.1433425853683751,0
2.37203049659729,0.894144527787003,[1.34012693],0.005,0.1,-0.07689735878607232,0.1431099844838125,0
2.3804562091827393,0.8976617046882631,[1.34185678],0.005,0.1,-0.09216993493214892,0.11533844471044871,0
2.396359920501709,0.9037190649070999,[1.34360144],0.005,0.1,-0.10033259950480333,0.12041555784986853,0
2.408489465713501,0.9087994315422533,[1.34535544],0.005,0.1,-0.37948933476677355,0.11195977104755545,0
2.429273843765259,0.9173969750786667,[1.3471213],0.005,0.1,-0.4122741493949381,0.13770158326953413,0
2.4444739818573,0.9232589365807669,[1.34890695],0.005,0.1,-0.3545508010069834,0.12780536408674847,0
2.458477020263672,0.9287301006493937,[1.35071479],0.005,0.1,-0.550435010388049,0.1207255422350412,0
2.4714467525482178,0.9340058660012838,[1.35254106],0.005,0.1,-0.5081192737850437,0.11555037657726518,0
2.4854736328125,0.9396724287866473,[1.35438246],0.005,0.1,-0.39104571324435455,0.11132703940067185,0
2.5043585300445557,0.9470975800226407,[1.35623926],0.005,0.1,-0.5434899210182298,0.12245647493011003,0
2.5160021781921387,0.9513963517908475,[1.35811324],0.005,0.1,-0.1951558523027967,0.10817673029308078,0
2.528536796569824,0.9564767184260008,[1.35999981],0.005,0.1,-0.025451141064668392,0.0985140274711635,0
2.5481626987457275,0.9640972683787309,[1.36189784],0.005,0.1,-0.22124192405556006,0.1256780588258825,0
2.564534902572632,0.9707408247477777,[1.3638163],0.005,0.1,-0.49486710433112024,0.12148478877892536,0
2.5795562267303467,0.9764073875331412,[1.36576027],0.005,0.1,-1.01166613070672,0.11563595650678422,0
2.602898120880127,0.9853957285030279,[1.36773582],0.005,0.1,-0.944358607589312,0.1568642401729995,0
2.6185433864593506,0.9912576900051281,[1.36975576],0.005,0.1,-0.9664632613151241,0.142968535506675,0
2.6335318088531494,0.9971196515072283,[1.371825],0.005,0.1,-1.0015611926407173,0.13521612109674588,0
2.6492085456848145,1.0033724104428017,[1.37394214],0.005,0.1,-0.4700788987326193,0.13566311696399014,0
2.667677164077759,1.0104067642453218,[1.37611352],0.005,0.1,-0.1275368210355969,0.17608382832189926,0
2.6836977005004883,1.0164641244641586,[1.37835399],0.005,0.1,0.09061395413137295,0.19004481774825324,0
2.6978485584259033,1.0223260859662586,[1.38067409],0.005,0.1,0.5022130748311245,0.17921791148022928,0
2.7125418186187744,1.028578844901832,[1.38307517],0.005,0.1,0.6158338132828591,0.17408536767178595,0
2.7285242080688477,1.035222401270879,[1.38555621],0.005,0.1,1.1566042859427779,0.17253000923678327,0
2.751192092895508,1.0442107422407658,[1.38812882],0.005,0.1,1.442252972102331,0.28259950144651713,0
2.7665393352508545,1.0504635011763392,[1.39081544],0.005,0.1,1.5741721569733698,0.2545176582776463,0
2.7825706005096436,1.057107057545386,[1.39362395],0.005,0.1,1.6126357314201627,0.23696980622635996,0
2.8055830001831055,1.0660953985152728,[1.39656251],0.005,0.1,1.0422701720311862,0.3687422658469366,0
2.8196358680725098,1.071957360017373,[1.39965116],0.005,0.1,0.6477622054452064,0.32137387254210814,0
2.8329641819000244,1.0770377266525264,[1.40289348],0.005,0.1,0.653102110606425,0.29224612718770127,0
2.847893238067627,1.0832904855880998,[1.40627879],0.005,0.1,0.22626450380512314,0.2741834022302713,0
2.863518238067627,1.0901294406738833,[1.40979727],0.005,0.1,0.290726428755692,0.26308269231889436,0
2.877485752105713,1.0954052060257735,[1.41343991],0.005,0.1,0.22161196036609038,0.2587101013693457,0
2.8895106315612793,1.1002901739441902,[1.41719851],0.005,0.1,-0.15608006088804824,0.2582915262541954,0
2.9132471084594727,1.109864711064287,[1.42108079],0.005,0.1,-0.2834612497169882,0.43182188554322243,0
2.928544282913208,1.1159220712831237,[1.42510809],0.005,0.1,-0.3026383896309385,0.38017125848962185,0
2.9418985843658447,1.121197836635014,[1.42928265],0.005,0.1,-0.27969850853509015,0.34757191387906067,0
2.9540064334869385,1.1260828045534306,[1.43358853],0.005,0.1,-0.24419914197977685,0.30849789180683934,0
2.9695560932159424,1.132335563489004,[1.43801132],0.005,0.1,-0.20847011104830476,0.321207458341948,0
2.984503746032715,1.1381975249911043,[1.44254161],0.005,0.1,0.09908435694649378,0.3125607428439389,0
2.999494791030884,1.1446456826434142,[1.44717078],0.005,0.1,0.15850389479471044,0.3071728052189724,0
3.02351713180542,1.1540248210467743,[1.45190578],0.005,0.1,0.12483222620698001,0.5094168804359408,0
3.037461519241333,1.1598867825488746,[1.45676853],0.005,0.1,0.06608481946410644,0.4440169521769744,0
3.0544254779815674,1.1669211363513945,[1.4617619],0.005,0.1,0.009632014482890035,0.4225380531496576,0
3.075324058532715,1.1753232811710714,[1.4668851],0.005,0.1,-0.035471479958476326,0.5539122769079674,0
3.0924482345581055,1.1817714388233818,[1.47214957],0.005,0.1,-0.06792517470266951,0.5093421444002352,0
3.104360580444336,1.1864610080250617,[1.47755163],0.005,0.1,-0.089324329846541,0.44767484283193537,0
3.1205108165740967,1.1931045643941083,[1.48307151],0.005,0.1,-0.10202619180355481,0.40485328803958365,0
3.1334609985351562,1.1983803297459985,[1.48868867],0.005,0.1,0.16774850239772468,0.37832187838550685,0
3.149522066116333,1.2050238861150453,[1.49438466],0.005,0.1,-0.07686624560245738,0.35934080367303006,0
3.17171573638916,1.2140122270849323,[1.50015978],0.005,0.1,0.11236152243324335,0.5625705226013409,0
3.18544340133667,1.219483391153559,[1.50603082],0.005,0.1,0.12794660675775013,0.49293287855775547,0
3.199442148208618,1.2253453526556592,[1.5119947],0.005,0.1,-0.19291613805427665,0.43670420497991846,0
3.2145395278930664,1.2315981115912327,[1.5180302],0.005,0.1,-0.006759449319771446,0.398634816592645,0
3.229440450668335,1.237264674376596,[1.5241178],0.005,0.1,0.031330479870155394,0.37371905100506964,0
3.241438627243042,1.241954243578276,[1.53024021],0.005,0.1,0.014129860182259885,0.35800738780004054,0
3.258175849914551,1.2489885973807964,[1.53638671],0.005,0.1,-0.017775756825778068,0.39723140557280684,0
3.2684333324432373,1.2528965717155296,[1.54254777],0.005,0.1,-0.048141006657421936,0.32326204907448475,0
3.2868151664733887,1.2607125203849965,[1.54871354],0.005,0.1,-0.07166316871042211,0.40690230780525827,0
3.305016040802002,1.2679422729042533,[1.55489236],0.005,0.1,-0.08765268768413059,0.49645208346976955,0
3.3131563663482666,1.2710686523720398,[1.5610813],0.005,0.1,-0.09712685472905638,0.26025048330858375,0
3.3300740718841553,1.2777122087410866,[1.56725576],0.005,0.1,-0.10153746445756637,0.3954062584308676,0
3.340616464614868,1.2820109805092936,[1.57340475],0.005,0.1,-0.10226114330835923,0.2855495297976392,0
3.3514275550842285,1.286505150994237,[1.57951091],0.005,0.1,-0.10043299771514966,0.2407101059450576,0
3.3755388259887695,1.296079688114334,[1.58556725],0.005,0.1,-0.09692531634111262,0.4358302850662497,0
3.3915112018585205,1.3023324470499071,[1.59159649],0.005,0.1,-0.09238018011063939,0.3851770518679867,0
3.4134514331817627,1.3115161867365306,[1.59762147],0.005,0.1,-0.36329435681757244,0.5481678029337895,0
3.4276418685913086,1.3177689456721042,[1.60365982],0.005,0.1,-0.3910348467554258,0.4480682502429706,0
3.4434938430786133,1.323630907174204,[1.60970925],0.005,0.1,-0.3305102983045015,0.3804237614147769,0
3.466231107711792,1.3328146468608277,[1.61576301],0.005,0.1,-0.24909794811829916,0.47881060796864466,0
3.4745025634765625,1.3359410263286144,[1.62181444],0.005,0.1,-0.17343889693133277,0.26523843337208536,0
3.49088716506958,1.3425845826976612,[1.62784197],0.005,0.1,-0.11192636098448464,0.34617086421325993,0
3.50734806060791,1.3496189365001814,[1.63384109],0.005,0.1,-0.06531326844303856,0.36121481266415484,0
3.518134593963623,1.353917708268388,[1.63980614],0.005,0.1,-0.03157052503968022,0.22071901550799738,0
3.5347890853881836,1.3605612646374348,[1.64571747],0.005,0.1,-0.008004309004948126,0.3047746000054944,0
3.549490213394165,1.366423226139535,[1.65157198],0.005,0.1,0.00790353587846337,0.2715365537804313,0
3.564270496368408,1.3726759850751085,[1.65736725],0.005,0.1,0.01822805229282982,0.24714345426952147,0
3.5764877796173096,1.3779517504269985,[1.66309216],0.005,0.1,0.024574342193946844,0.2306762675131162,0
3.5893890857696533,1.3828367183454155,[1.66873784],0.005,0.1,0.028138955970231274,0.21918798625075325,0
3.6026647090911865,1.3883078824140422,[1.67429744],0.005,0.1,-0.246245433733407,0.21042614224586803,0
3.61472487449646,1.392997451615722,[1.67976454],0.005,0.1,-0.27900306363052174,0.19205863137605028,0
3.628047466278076,1.3982732169676122,[1.68513264],0.005,0.1,-0.500423250104551,0.1868565125116519,0
3.6354832649230957,1.4012041977186624,[1.69038702],0.005,0.1,-0.4584795056864467,0.10986239104340502,0
3.6574795246124268,1.4099971399718125,[1.69552039],0.005,0.1,-0.33420013289217115,0.23019772501756358,0
3.6725001335144043,1.416054500190649,[1.700553],0.005,0.1,-0.20301136699702485,0.21528826477496457,0
3.687478542327881,1.4223072591262227,[1.70550111],0.005,0.1,-0.09208750563946175,0.2034118729938192,0
3.7019598484039307,1.4283646193450594,[1.71036663],0.005,0.1,-0.0076594271332902225,0.19881059867223588,0
3.7232820987701416,1.4371575615982095,[1.71516515],0.005,0.1,0.05228758750417314,0.30556067311083607,0
3.738489866256714,1.4432149218170465,[1.71992268],0.005,0.1,0.3683726754234008,0.2609550878491688,0
3.7555110454559326,1.4496630794693566,[1.72464858],0.005,0.1,0.42641922445102937,0.23020815001937076,0
3.7774155139923096,1.4588468191559802,[1.72935161],0.005,0.1,0.38523148894676806,0.33292151738822245,0
3.790602684020996,1.464317983224607,[1.73405006],0.005,0.1,0.3152932057017299,0.25363536175523693,0
3.7991974353790283,1.467835160125867,[1.73873441],0.005,0.1,0.24560200143238142,0.14999931760528207,0
3.8139779567718506,1.4738925203447035,[1.74337996],0.005,0.1,0.18628446138705268,0.1784425902875691,0
3.8334686756134033,1.4815130702974335,[1.74799052],0.005,0.1,0.13934216029395607,0.2460399061961952,0
3.8484885692596436,1.4879612279497438,[1.75258486],0.005,0.1,-0.1724067422511506,0.21918316406102067,0
3.8624658584594727,1.4934323920183705,[1.75716708],0.005,0.1,0.04395452128421573,0.20123031404365824,0
3.8764805793762207,1.498512758653524,[1.76173222],0.005,0.1,-0.16334555538704204,0.1896545825326031,0
3.893488645553589,1.5053517137393075,[1.76627984],0.005,0.1,0.08635929698475694,0.20773466090192713,0
3.914403200149536,1.5141446559924576,[1.77082318],0.005,0.1,0.15870114331524487,0.27714504047902994,0
3.92938494682312,1.5203974149280313,[1.77538001],0.005,0.1,0.15828273717784164,0.23824193982838818,0
3.9433934688568115,1.5262593764301313,[1.77995209],0.005,0.1,0.13261563406579996,0.21225706830916538,0
3.957369327545166,1.5317305404987582,[1.78453097],0.005,0.1,0.10210381251036306,0.19515000649290207,0
3.9693851470947266,1.5368109071339113,[1.78910946],0.005,0.1,0.07460399196159154,0.1837409557800551,0
3.9843852519989014,1.5428682673527483,[1.79368144],0.005,0.1,0.05240375373774371,0.17494421055382658,0
3.997382879257202,1.5479486339879014,[1.79824176],0.005,0.1,0.3115375409188027,0.16903105813211175,0
4.012950420379639,1.5540059942067386,[1.80278759],0.005,0.1,0.056210294867485175,0.17463567254657653,0
4.02819299697876,1.5604541518590485,[1.80732044],0.005,0.1,0.23514096868402584,0.18476783906767263,0
4.040744304656982,1.565339119777465,[1.81184106],0.005,0.1,0.24104581336995945,0.16340174206685795,0
4.058993101119995,1.5725688722967222,[1.81635141],0.005,0.1,0.18722187082515057,0.20764194836262578,0
4.066606521606445,1.5756952517645089,[1.82085059],0.005,0.1,0.12214514542557788,0.1320882951926135,0
4.082738637924194,1.5823388081335557,[1.8253267],0.005,0.1,0.06434386002763967,0.14957840394192143,0
4.094790935516357,1.5872237760519723,[1.82977257],0.005,0.1,0.019095384215474454,0.1407892386638789,0
4.106457233428955,1.5917179465369158,[1.83418471],0.005,0.1,-0.01374302111631944,0.12554940875571333,0
4.122022867202759,1.5981661041892261,[1.8385589],0.005,0.1,-0.03618117048704046,0.14289815350753846,0
4.139515399932861,1.605200457991746,[1.84290396],0.005,0.1,-0.05057301501198462,0.18456464526010402,0
4.147515058517456,1.6083268374595328,[1.84722511],0.005,0.1,-0.05903262273663872,0.11227585765291415,0
4.162043571472168,1.6143841976783697,[1.85151143],0.005,0.1,-0.06326633327117208,0.13022626531646342,0
4.173448085784912,1.6190737668800494,[1.85575622],0.005,0.1,-0.06457570390966452,0.11595898321242372,0
4.1874425411224365,1.624740329665413,[1.85995829],0.005,0.1,-0.06391974823336562,0.1184002190398371,0
4.200445890426636,1.63021149373404,[1.86411698],0.005,0.1,-0.06198855208340698,0.11969910602078236,0
4.215811729431152,1.6362688539528767,[1.86823521],0.005,0.1,-0.059269793144437824,0.1249941172634231,0
4.226396322250366,1.64017682828761,[1.87231576],0.005,0.1,-0.33214112534671125,0.11866468153204189,0
4.249767541885376,1.649165169257497,[1.87637145],0.005,0.1,-0.3618828605951692,0.19703603341654388,0
4.260310649871826,1.6532685423089668,[1.88041895],0.005,0.1,-0.5793817012789427,0.1295420839765676,0
4.275679588317871,1.6593259025278038,[1.88445695],0.005,0.1,-0.5330226100889004,0.1363712107824196,0
4.291025400161743,1.6655786614633772,[1.88848397],0.005,0.1,-0.40411322084050383,0.1488071029813464,0
4.298469305038452,1.668509642214427,[1.89249476],0.005,0.1,-0.2682660609244699,0.07603427982457137,0
4.3184404373168945,1.676325590883894,[1.89647928],0.005,0.1,-0.1527767065063995,0.1466944747908682,0
4.333399772644043,1.6823829511027306,[1.90044823],0.005,0.1,-0.06395222231998005,0.13063968802219675,0
4.348446846008301,1.6884403113215678,[1.90440981],0.005,0.1,0.00017694832421126516,0.1179854287636901,0
4.372241735458374,1.697624051008191,[1.9083693],0.005,0.1,0.04416756220555489,0.1721199361162561,0
4.387460470199585,1.7030952150768177,[1.91234083],0.005,0.1,-0.20325302625334368,0.13988418738027916,0
4.400444269180298,1.708370980428708,[1.91632388],0.005,0.1,-0.4950590737435725,0.11719023614613311,0
4.416394472122192,1.7150145367977547,[1.92030571],0.005,0.1,-0.463735021455137,0.0999833073387328,0
4.432359457015991,1.7210718970165915,[1.9242743],0.005,0.1,-0.3287498267153026,0.08717702619856686,0
4.455255508422852,1.7298648392697418,[1.92822717],0.005,0.1,-0.45812629286487566,0.11952297062612975,0
4.4704344272613525,1.735531402055105,[1.9321695],0.005,0.1,-0.3665098100592574,0.0941042619371752,0
4.490298509597778,1.7429565532910987,[1.93609988],0.005,0.1,-0.4927809713812004,0.09829343742765748,0
4.506184101104736,1.7488185147931987,[1.94001417],0.005,0.1,-0.6593070618043645,0.08845597773189057,0
4.521435260772705,1.7542896788618254,[1.94390503],0.005,0.1,-0.7992435974761123,0.06840970201093037,0
4.529422760009766,1.7570252608961388,[1.94775032],0.005,0.1,-1.1704777912492474,0.06886573063466583,0
4.550476789474487,1.764645810848869,[1.95152795],0.005,0.1,-1.2555712409404904,0.08092748898100598,0
4.563755512237549,1.7695307787672858,[1.95523284],0.005,0.1,-1.2172927607046418,0.060887570093439224,0
4.576629877090454,1.7738295505354924,[1.95886073],0.005,0.1,-1.407992276827458,0.04800732645276259,0
4.59049129486084,1.7787145184539093,[1.96240131],0.005,0.1,-1.8953322520710263,0.039391400807520995,0
4.602081537246704,1.782427094071906,[1.9658463],0.005,0.1,-1.8107751534730134,0.033747328793389146,0
4.614269971847534,1.7863350684066395,[1.96918892],0.005,0.1,-1.8124421036687934,0.028763681687914718,0
4.622400760650635,1.7886798530074792,[1.97241862],0.005,0.1,-1.5437688121160296,0.016467620512764895,0
4.636422872543335,1.7929786247756863,[1.9755224],0.005,0.1,-2.0486837414061316,0.016973629322536755,0
4.65464973449707,1.7982543901275763,[1.97849928],0.005,0.1,-2.4061376766668747,0.024168800545658658,0
4.672223806381226,1.8033347567627296,[1.98136144],0.005,0.1,-3.4474343510666277,0.028669673523467866,0
4.695419549942017,1.8091967182648299,[1.98412564],0.005,0.1,-3.6415977280843297,0.03930373897846564,0
4.710587501525879,1.813104692599563,[1.98680673],0.005,0.1,-3.758432328653458,0.032554108485423235,0
4.7244203090667725,1.8162310720673498,[1.98941019],0.005,0.1,-3.507028941475292,0.028307734513754533,0
4.74042820930481,1.82033444511882,[1.99193619],0.005,0.1,-3.1427352185087933,0.025386651391245796,0
4.75341534614563,1.8234608245866066,[1.99438593],0.005,0.1,-2.773593792159938,0.023631747623922648,0
4.767408609390259,1.82678260277113,[1.99676149],0.005,0.1,-2.4397451508223273,0.022454574404193052,0
4.781412124633789,1.829908982238917,[1.99906564],0.005,0.1,-2.1514150863026225,0.021715291562080297,0
4.798093318939209,1.833426159140177,[2.00130378],0.005,0.1,-1.9067077347414034,0.025436661355290737,0
4.815346956253052,1.8367479373247004,[2.00348597],0.005,0.1,-1.423622441053804,0.02931288046520592,0
4.824715852737427,1.838701924492067,[2.0056186],0.005,0.1,-1.2145205461882622,0.019830808245207294,0
4.836839437484741,1.841046709092907,[2.00769948],0.005,0.1,-0.8427580595349281,0.019242145031478655,0
4.857750654220581,1.8443684872774304,[2.00973256],0.005,0.1,-0.47914063807557966,0.029481809925393152,0
4.865583419799805,1.8457362782945872,[2.01172488],0.005,0.1,-0.45752190970778006,0.016454804099494034,0
4.886411666870117,1.8490580564791106,[2.01367838],0.005,0.1,-0.2686056963102197,0.027838995918863157,0
4.900434255599976,1.8512074423632139,[2.01560087],0.005,0.1,-0.33452886460149633,0.02526413701504205,0
4.917099714279175,1.8539430243975272,[2.01749939],0.005,0.1,-0.46597056544605264,0.023981070283382654,0
4.932849884033203,1.8562878089983674,[2.01937621],0.005,0.1,-0.31190530414825357,0.024821068776238315,0
4.952436208724976,1.8588279923159439,[2.02123708],0.005,0.1,-0.09143633703746001,0.029257807266982964,0
4.967408657073975,1.8607819794833107,[2.02308773],0.005,0.1,0.10962275563858004,0.024606152706513135,0
4.981384038925171,1.8623451692172042,[2.02492759],0.005,0.1,0.26491516807047155,0.021239179151969413,0
4.9964094161987305,1.864103757667834,[2.02675215],0.005,0.1,0.09674780940618,0.01866514441763233,0
5.0191569328308105,1.866643940985411,[2.02856017],0.005,0.1,0.1312555885609228,0.0226511525729489,0
5.034416675567627,1.868207130719304,[2.03035314],0.005,0.1,0.22289321699130638,0.018630844050993106,0
5.047283411026001,1.8697703204531975,[2.03212766],0.005,0.1,0.5888791485614229,0.015172152766233418,0
5.062412738800049,1.8711381114703542,[2.03387598],0.005,0.1,0.966601356961475,0.012637337561931004,0
5.077375888824463,1.872505902487511,[2.0355904],0.005,0.1,0.9886978509425508,0.010719232116902186,0
5.100297927856445,1.8744598896548776,[2.03726534],0.005,0.1,0.8802201568129977,0.011176721338854645,0
5.109569787979126,1.8750460858050875,[2.0388957],0.005,0.1,0.739745694114698,0.007909849578546806,0
5.124690055847168,1.8762184781055076,[2.04047364],0.005,0.1,0.6067814715205214,0.007273504507709322,0
5.1412599086761475,1.8773908704059277,[2.04199213],0.005,0.1,0.7702557305532449,0.006580663612508567,0
5.156397819519043,1.8783678639896109,[2.04344584],0.005,0.1,0.7128416430082616,0.005755828240732226,0
5.169200658798218,1.8789540601398211,[2.04482886],0.005,0.1,0.5866560847827139,0.005250645955431623,0
5.185382843017578,1.8799310537235043,[2.04613557],0.005,0.1,0.4552614960434925,0.004915577355848595,0
5.206236839294434,1.8807126485904508,[2.04736094],0.005,0.1,0.3416914333867934,0.004709351625447648,0
5.214734077453613,1.8811034460239244,[2.04850077],0.005,0.1,0.5273772425114736,0.004714892619346114,0
5.227381229400635,1.8814942434573978,[2.04955219],0.005,0.1,0.49177625202724307,0.004767325417627418,0
5.23834753036499,1.8820804396076078,[2.05051317],0.005,0.1,0.6618221449153029,0.004865642321587636,0
5.251377105712891,1.882666635757818,[2.05138218],0.005,0.1,0.8578357488615602,0.005019469649107219,0
5.265340805053711,1.8830574331912913,[2.05215828],0.005,0.1,0.7386359823537012,0.005226674316745512,0
5.278315544128418,1.883252831908028,[2.05284116],0.005,0.1,0.8077601940865868,0.005482818520168137,0
5.29337739944458,1.8834482306247644,[2.05343107],0.005,0.1,0.6386596445760003,0.005756438412316401,0
5.306366920471191,1.883643629341501,[2.05392877],0.005,0.1,0.41731591061711076,0.006041742654512475,0
5.329779624938965,1.8838390280582376,[2.05433355],0.005,0.1,0.49223574946934123,0.007639516066603466,0
5.342406749725342,1.8840344267749745,[2.05464378],0.005,0.1,0.6424108603911945,0.007407293566075471,0
5.356934309005737,1.8840344267749745,[2.0548604],0.005,0.1,0.780575967519622,0.007936037116044027,0
5.364800214767456,1.8840344267749745,[2.05498775],0.005,0.1,0.8792555714619298,0.006775423647390129,0
5.3754003047943115,1.8840344267749745,[2.05503264],0.005,0.1,0.9359206517717271,0.006855580508875609,0
5.391603231430054,1.8838390280582376,[2.05500009],0.005,0.1,0.9570596423917251,0.007877147660836999,0
5.402382850646973,1.8840344267749745,[2.05489286],0.005,0.1,0.9512581082051206,0.00753729173798882,0
5.415345668792725,1.8840344267749745,[2.05471492],0.005,0.1,1.2025072789064555,0.007887711460709473,0
5.435635566711426,1.8840344267749745,[2.05446867],0.005,0.1,1.4743593468015816,0.009809190458174074,0
5.4513373374938965,1.8840344267749745,[2.05415383],0.005,0.1,1.6835013425314111,0.01022261464356816,0
5.465073823928833,1.8840344267749745,[2.05377219],0.005,0.1,1.8125116997249715,0.009635925176110312,0
5.4803760051727295,1.8840344267749745,[2.05332892],0.005,0.1,1.8694575610463748,0.009119863176146556,0
5.493335485458374,1.8840344267749745,[2.05283026],0.005,0.1,1.8699454503133257,0.00863278288009533,0
5.509372711181641,1.8840344267749745,[2.05228277],0.005,0.1,1.829721828214256,0.0081445029165915,0
5.523313522338867,1.8840344267749745,[2.05169323],0.005,0.1,1.7620749257155828,0.007640621847555102,0
5.537393808364868,1.8840344267749745,[2.05106869],0.005,0.1,1.6773057392943995,0.007118692913276967,0
5.550380229949951,1.8840344267749745,[2.05041648],0.005,0.1,1.5830016539986616,0.006585795500996837,0
5.56435227394104,1.8840344267749745,[2.04974413],0.005,0.1,1.4845490876235186,0.00605666151429383,0
5.5854811668396,1.8840344267749745,[2.04905906],0.005,0.1,1.3856521089006035,0.0057285163534814216,0
5.599503993988037,1.8840344267749745,[2.04836891],0.005,0.1,1.2887746300522542,0.005071846539707692,0
5.614000558853149,1.8840344267749745,[2.04768256],0.005,0.1,1.1954888555840724,0.004612813404903805,0
5.628356456756592,1.8840344267749745,[2.0470097],0.005,0.1,1.1067380408082523,0.004365172292677734,0
5.643366575241089,1.8840344267749745,[2.04635987],0.005,0.1,1.023029281371078,0.004314737533276758,0
5.65837836265564,1.8840344267749745,[2.04574242],0.005,0.1,0.9445723766695584,0.004458883654585355,0
5.675050258636475,1.8840344267749745,[2.04516692],0.005,0.1,0.8713785125661733,0.005015642306459145,0
5.694379806518555,1.8840344267749745,[2.04464519],0.005,0.1,0.8033296395642375,0.00693759852732297,0
5.70927882194519,1.8840344267749745,[2.04418997],0.005,0.1,0.7402267838925641,0.007669644595647952,0
5.725349187850952,1.8840344267749745,[2.04381077],0.005,0.1,0.6818233669721439,0.008562545604317167,0
5.739376068115234,1.8840344267749745,[2.04351428],0.005,0.1,0.6278479381408395,0.009610918100987836,0
5.7543580532073975,1.8840344267749745,[2.04330644],0.005,0.1,0.57801947769449,0.010791758608427236,0
5.775290489196777,1.8840344267749745,[2.043197],0.005,0.1,0.5320575148205667,0.01935116022900107,0
5.79026460647583,1.8840344267749745,[2.04319894],0.005,0.1,0.48968864693316405,0.01917526140995493,0
5.8053905963897705,1.8840344267749745,[2.04331878],0.005,0.1,0.4506505767668302,0.01943668766004854,0
5.818358898162842,1.8840344267749745,[2.0435571],0.005,0.1,0.4146944498770811,0.020051525727894294,0
5.830349683761597,1.8840344267749745,[2.04391373],0.005,0.1,0.3815860394329199,0.020906358961102534,0
5.84349513053894,1.8840344267749745,[2.04438608],0.005,0.1,0.3511061591954339,0.018711692254453616,0
5.860374927520752,1.8840344267749745,[2.04497118],0.005,0.1,0.32305056901927365,0.024078757922288908,0
5.872348785400391,1.8840344267749745,[2.04566916],0.005,0.1,0.2972295555481006,0.025022460471441764,0
5.88737154006958,1.8840344267749745,[2.04647928],0.005,0.1,0.2734673136688782,0.026050444169892543,0
5.910467147827148,1.8840344267749745,[2.0474045],0.005,0.1,0.2516012144352901,0.04335023010172551,0
5.925835609436035,1.8840344267749745,[2.04845265],0.005,0.1,0.23148101741475433,0.03995306981478339,0
5.942381143569946,1.8840344267749745,[2.04962353],0.005,0.1,0.21296806613174657,0.03861399204201441,0
5.957456111907959,1.8840344267749745,[2.050911],0.005,0.1,0.1959344919264127,0.04024262814626024,0
5.978269815444946,1.8840344267749745,[2.05231541],0.005,0.1,0.18026244233598632,0.05764395769721536,0
5.994626522064209,1.8840344267749745,[2.0538406],0.005,0.1,0.16584334378570947,0.0514392665190788,0
6.00732946395874,1.8840344267749745,[2.05548183],0.005,0.1,0.152577204069485,0.04754265559913631,0
6.021345376968384,1.8840344267749745,[2.05722806],0.005,0.1,0.1403719571950744,0.04528224211187369,0
6.040778875350952,1.8840344267749745,[2.05907201],0.005,0.1,0.12914285123552477,0.05450128318400352,0
6.055291175842285,1.8840344267749745,[2.06100916],0.005,0.1,0.11881187856804853,0.04913305306882339,0
6.068572998046875,1.8840344267749745,[2.06303124],0.005,0.1,0.10930724708462353,0.04832393534381334,0
6.083422660827637,1.8840344267749745,[2.0651293],0.005,0.1,0.10056289047929874,0.05170504644932805,0
6.101293087005615,1.8840344267749745,[2.06729949],0.005,0.1,0.09251801545398225,0.060445067172032386,0
6.115448236465454,1.8840344267749745,[2.06953909],0.005,0.1,0.08511668356679065,0.05625113863933939,0
6.129427671432495,1.8840344267749745,[2.07184066],0.005,0.1,0.07830742542584006,0.053578876948926324,0
6.144364356994629,1.8840344267749745,[2.07419414],0.005,0.1,0.07204288497284989,0.051994611885092766,0
6.1584131717681885,1.8840344267749745,[2.07659036],0.005,0.1,0.0662794916817767,0.0511260424263399,0
6.171270370483398,1.8840344267749745,[2.07902098],0.005,0.1,0.06097715860196354,0.050728665856268736,0
6.188700437545776,1.8840344267749745,[2.0814809],0.005,0.1,0.05609900429211698,0.059360580426567965,0
6.204112768173218,1.8840344267749745,[2.08396936],0.005,0.1,0.05161109681356511,0.06295084026468632,0
6.216007232666016,1.8840344267749745,[2.0864831],0.005,0.1,0.047482218073852125,0.054476597597471935,0
6.229064702987671,1.8840344267749745,[2.08901296],0.005,0.1,0.043683646931704526,0.051754911649735946,0
6.24744725227356,1.8840344267749745,[2.09155458],0.005,0.1,0.040188959589800594,0.06910073940647542,0
6.260135650634766,1.8840344267749745,[2.09410922],0.005,0.1,0.03697384591145931,0.05986127697650451,0
6.270854473114014,1.8840344267749745,[2.09667071],0.005,0.1,0.0340159404007325,0.05100499137660806,0
6.281025648117065,1.8840344267749745,[2.09922548],0.005,0.1,0.03129466668220686,0.04213499580502088,0
6.293277263641357,1.8840344267749745,[2.10176118],0.005,0.1,0.028791094407103396,0.04277010475677358,0
6.3063414096832275,1.8840344267749745,[2.10427136],0.005,0.1,0.026487807596166205,0.04579449772332252,0
6.3193359375,1.8840344267749745,[2.1067543],0.005,0.1,0.02436878350761474,0.048019733449578564,0
6.333348989486694,1.8840344267749745,[2.10920941],0.005,0.1,0.022419281190404816,0.04960176870155399,0
6.358338832855225,1.8840344267749745,[2.11164285],0.005,0.1,0.020625738949551924,0.0772788790440681,0
6.373327732086182,1.8840344267749745,[2.11406636],0.005,0.1,0.018975680011653416,0.06937932206639749,0
6.386320114135742,1.8840344267749745,[2.11648289],0.005,0.1,0.01745762573536709,0.06380567912499836,0
6.401275157928467,1.8840344267749745,[2.11888796],0.005,0.1,0.016061015763789863,0.05995789666105934,0
6.414243459701538,1.8840344267749745,[2.12127757],0.005,0.1,0.014776134563763194,0.05722028545624357,0
6.428234577178955,1.8840344267749745,[2.12364813],0.005,0.1,0.013594043841415715,0.05519675636878479,0
6.438387393951416,1.8838390280582376,[2.12599642],0.005,0.1,0.012506520364029943,0.053695464253560775,0
6.4522178173065186,1.8840344267749745,[2.12831956],0.005,0.1,0.011505998755856783,0.052350391371066944,0
6.4662230014801025,1.8840344267749745,[2.13061495],0.005,0.1,0.010585518870052723,0.051248749061718765,0
6.480219125747681,1.8840344267749745,[2.13288026],0.005,0.1,0.009738677370713645,0.05025840236597732,0
6.493242502212524,1.8840344267749745,[2.1351134],0.005,0.1,0.008959583188242129,0.04933844178624719,0
6.507237195968628,1.8840344267749745,[2.1373125],0.005,0.1,0.008242816538212667,0.04846719033784668,0
6.520242929458618,1.8840344267749745,[2.13947588],0.005,0.1,0.007583391218676599,0.047634956698066014,0
6.532520055770874,1.8840344267749745,[2.14160207],0.005,0.1,0.006976719923647127,0.046839409505579646,0
6.547300815582275,1.8840344267749745,[2.14368982],0.005,0.1,0.006418582331480627,0.04608252456519583,0
6.562255144119263,1.8840344267749745,[2.14573804],0.005,0.1,0.005905095746169859,0.04536853224401087,0
6.576317310333252,1.8840344267749745,[2.14774586],0.005,0.1,0.005432688087321652,0.044702281097724485,0
6.597571134567261,1.8840344267749745,[2.14971651],0.005,0.1,0.004998073040927682,0.057286830131101515,0
6.605306386947632,1.8840344267749745,[2.15165276],0.005,0.1,0.004598227198067701,0.040308832543980974,0
6.617511510848999,1.8840344267749745,[2.15354772],0.005,0.1,0.004230369022512245,0.036753876899510846,0
6.633235692977905,1.8840344267749745,[2.15539571],0.005,0.1,0.003891939500914234,0.04213135825422373,0
6.655300617218018,1.8840344267749745,[2.15720319],0.005,0.1,0.0035805843409831848,0.05538848923488182,0
6.663655996322632,1.8840344267749745,[2.15897669],0.005,0.1,0.003294137593803987,0.04078425668046319,0
6.684450626373291,1.8840344267749745,[2.16071598],0.005,0.1,0.003030606586369289,0.049889697772783806,0
6.699306964874268,1.8840344267749745,[2.16242301],0.005,0.1,0.0027881580595084817,0.04657134134969435,0
6.713302850723267,1.8840344267749745,[2.16409951],0.005,0.1,0.0025651054147819196,0.04419374287598007,0
6.734785556793213,1.8840344267749745,[2.16574743],0.005,0.1,0.0023598969816232464,0.05394789246616949,0
6.7476396560668945,1.8840344267749745,[2.16737134],0.005,0.1,0.002171105223110103,0.04658578124772932,0
6.7633116245269775,1.8840344267749745,[2.16897125],0.005,0.1,0.0019974168052729942,0.045543481976049925,0
6.776043176651001,1.8840344267749745,[2.17054458],0.005,0.1,0.001837623460859345,0.042611346168110076,0
6.791322231292725,1.8840344267749745,[2.17208916],0.005,0.1,0.001690613583996328,0.04126525834197104,0
6.804309368133545,1.8840344267749745,[2.17360283],0.005,0.1,0.0015553644972806364,0.04000736930771938,0
6.819391489028931,1.8840344267749745,[2.17508384],0.005,0.1,0.0014309353375009963,0.03912184923218209,0
6.834304332733154,1.8840344267749745,[2.17653072],0.005,0.1,0.0013164605105028832,0.0384905589394423,0
6.850701808929443,1.8840344267749745,[2.17794259],0.005,0.1,0.0012111436696640298,0.038531339597225156,0
6.872322082519531,1.8840344267749745,[2.17932177],0.005,0.1,0.0011142521760918703,0.04463157151477378,0
6.8863139152526855,1.8838390280582376,[2.18067273],0.005,0.1,0.0010251120020051943,0.0419490710379008,0
6.900273084640503,1.8840344267749745,[2.18199627],0.005,0.1,0.0009431030418452519,0.03999114807934397,0
6.91422176361084,1.8838390280582376,[2.18329037],0.005,0.1,0.0008676547984979629,0.038732314405329184,0
6.928199529647827,1.8840344267749745,[2.18455331],0.005,0.1,0.0007982424146183587,0.03769978589890455,0
6.9519031047821045,1.8840344267749745,[2.18578586],0.005,0.1,0.0007343830214490515,0.041838696081958865,0
6.96521782875061,1.8840344267749745,[2.18699067],0.005,0.1,0.0006756323797332394,0.03910767359254845,0
6.9792160987854,1.8840344267749745,[2.18816712],0.005,0.1,0.0006215817893546603,0.03710923288750754,0
6.994210481643677,1.8838390280582376,[2.18931193],0.005,0.1,0.0005718552462063426,0.03566831477535351,0
7.003652095794678,1.8840344267749745,[2.19042095],0.005,0.1,0.0005261068265098747,0.03309924419763008,0
7.020427465438843,1.8840344267749745,[2.19149018],0.005,0.1,0.00048401828038911206,0.03378209701208336,0
7.035224199295044,1.8838390280582376,[2.1925177],0.005,0.1,0.000445296817958001,0.03298645125941139,0
7.049203634262085,1.8840344267749745,[2.19350146],0.005,0.1,0.00040967307252137426,0.03219242912932671,0
7.063198566436768,1.8840344267749745,[2.19443832],0.005,0.1,0.00037689922671967367,0.03164272236695868,0
7.078221321105957,1.8838390280582376,[2.19532512],0.005,0.1,0.00034674728858210706,0.03132746376810948,0
7.092686414718628,1.8838390280582376,[2.19615865],0.005,0.1,0.00031900750549554305,0.031090333182949948,0
7.1042022705078125,1.8838390280582376,[2.19693585],0.005,0.1,0.00029348690505590276,0.031093254016498966,0
7.121428728103638,1.8838390280582376,[2.19765363],0.005,0.1,0.00027000795265143273,0.031217333119723346,0
7.131206035614014,1.8838390280582376,[2.19830914],0.005,0.1,0.00024840731643931954,0.03145209051498729,0
7.1458189487457275,1.8838390280582376,[2.19890028],0.005,0.1,0.00022853473112417514,0.03191333801155045,0
7.1640191078186035,1.8840344267749745,[2.1994242],0.005,0.1,0.00021025195263424176,0.03285488675664289,0
7.172274827957153,1.8838390280582376,[2.19987858],0.005,0.1,0.0001934317964235033,0.03270723926115813,0
7.1834540367126465,1.8838390280582376,[2.20026364],0.005,0.1,0.00017795725270962343,0.033379846237323506,0
7.197265148162842,1.8838390280582376,[2.20057951],0.005,0.1,0.00016372067249285376,0.034106493637429534,0
7.211275339126587,1.8838390280582376,[2.20082555],0.005,0.1,0.00015062301869342567,0.03485052282040742,0
7.229424476623535,1.8838390280582376,[2.20100055],0.005,0.1,0.00013857317719795164,0.0368621041027415,0
7.238186836242676,1.8838390280582376,[2.20110389],0.005,0.1,0.00012748732302211583,0.03595235054401082,0
7.255712032318115,1.8838390280582376,[2.20113639],0.005,0.1,0.00011728833718034637,0.038198206347827474,0
7.265190839767456,1.8838390280582376,[2.20109922],0.005,0.1,0.0001079052702059188,0.0370625376242081,0
7.280186653137207,1.8838390280582376,[2.20099478],0.005,0.1,9.927284858944523e-05,0.03787346968966229,0
7.302203893661499,1.8838390280582376,[2.20082272],0.005,0.1,9.13310207022898e-05,0.044196345543176606,0
7.317000389099121,1.8838390280582376,[2.20057922],0.005,0.1,8.40245390461065e-05,0.04365602649794316,0
7.330326557159424,1.8838390280582376,[2.2002645],0.005,0.1,7.730257592241803e-05,0.04247839754957045,0
7.343274116516113,1.8838390280582376,[2.19988182],0.005,0.1,7.111836984862454e-05,0.043923196881359476,0
7.356558084487915,1.8838390280582376,[2.19943331],0.005,0.1,6.542890026073472e-05,0.044224957175859614,0
7.371259927749634,1.8838390280582376,[2.19892106],0.005,0.1,6.0194588239876e-05,0.04473371460334693,0
7.38282036781311,1.8838390280582376,[2.19834746],0.005,0.1,5.537902118068594e-05,0.04542643509655102,0
7.392116069793701,1.8838390280582376,[2.19771645],0.005,0.1,5.094869948623094e-05,0.04222514003454294,0
7.40374231338501,1.8838390280582376,[2.19703452],0.005,0.1,4.6872803527332495e-05,0.041086389453309294,0
7.418627500534058,1.8838390280582376,[2.19630556],0.005,0.1,4.312297924514589e-05,0.046795001868726364,0
7.43444299697876,1.8838390280582376,[2.19552779],0.005,0.1,3.967314090553419e-05,0.050121105301283914,0
7.449348449707031,1.8838390280582376,[2.19469956],0.005,0.1,3.649928963309143e-05,0.049253123365988465,0
7.461503267288208,1.8838390280582376,[2.19382132],0.005,0.1,3.3579346462444087e-05,0.05309818312322143,0
7.478168487548828,1.8838390280582376,[2.19289112],0.005,0.1,3.089299874544858e-05,0.05937190122851377,0
7.493207931518555,1.8838390280582376,[2.19190561],0.005,0.1,2.8421558845812767e-05,0.05959334834901615,0
7.507181167602539,1.8838390280582376,[2.190864],0.005,0.1,2.6147834138147754e-05,0.06026750752390445,0
7.520191669464111,1.8838390280582376,[2.18976699],0.005,0.1,2.4056007407095927e-05,0.06131445199954463,0
7.533166885375977,1.8838390280582376,[2.18861509],0.005,0.1,2.2131526814528218e-05,0.06263209036194121,0
7.546207666397095,1.8838390280582376,[2.18740872],0.005,0.1,2.0361004669365955e-05,0.06414571090416589,0
7.559188604354858,1.8838390280582376,[2.18614815],0.005,0.1,1.8732124295816704e-05,0.06579904394123451,0
7.575162887573242,1.8838390280582376,[2.18483357],0.005,0.1,1.723355435215137e-05,0.06754844928362926,0
7.589183807373047,1.8838390280582376,[2.18346511],0.005,0.1,1.5854870003979236e-05,0.06935927150821974,0
7.602191686630249,1.8838390280582376,[2.18204286],0.005,0.1,1.458648040366089e-05,0.0712034842699057,0
7.619779109954834,1.8838390280582376,[2.18056432],0.005,0.1,1.341956197136803e-05,0.08480644887293003,0
7.629197835922241,1.8838390280582376,[2.17902743],0.005,0.1,1.2345997013658598e-05,0.07168002493001815,0
7.640204191207886,1.8838390280582376,[2.17743567],0.005,0.1,1.1358317252565922e-05,0.07429033899532864,0
7.655203104019165,1.8838390280582376,[2.17579205],0.005,0.1,1.044965187236064e-05,0.07676079468387156,0
7.6672751903533936,1.8838390280582376,[2.17409661],0.005,0.1,9.613679722571788e-06,0.07899159555741865,0
7.681351900100708,1.8838390280582376,[2.17234943],0.005,0.1,8.84458534476606e-06,0.08102499999524518,0
7.6947712898254395,1.8838390280582376,[2.17055093],0.005,0.1,8.137018517184778e-06,0.08152132074561187,0
7.709362268447876,1.8838390280582376,[2.1687016],0.005,0.1,7.486057035809983e-06,0.08502464037223406,0
7.724248170852661,1.8838390280582376,[2.16680135],0.005,0.1,6.887172472945182e-06,0.08651788767316497,0
7.743508577346802,1.8838390280582376,[2.16484473],0.005,0.1,6.3361986751095704e-06,0.11806237525734142,0
7.759716272354126,1.8838390280582376,[2.16281952],0.005,0.1,5.829302781100804e-06,0.12559429105239323,0
7.770463466644287,1.8838390280582376,[2.16072335],0.005,0.1,5.362958558612738e-06,0.09014910169363755,0
7.7883641719818115,1.8838390280582376,[2.1585622],0.005,0.1,4.933921873923721e-06,0.11979511998834383,0
7.804263114929199,1.8838390280582376,[2.15633413],0.005,0.1,4.539208124009827e-06,0.1128823764332745,0
7.816270589828491,1.8838390280582376,[2.15403825],0.005,0.1,4.17607147408904e-06,0.10814763853452405,0
7.831262588500977,1.8838390280582376,[2.15167931],0.005,0.1,3.841985756161913e-06,0.10509506804456768,0
7.849462985992432,1.8838390280582376,[2.14925798],0.005,0.1,3.5346268956689572e-06,0.12467364446748008,0
7.859253168106079,1.8838390280582376,[2.14677524],0.005,0.1,3.251856744015443e-06,0.09623285828025287,0
7.875753879547119,1.8838390280582376,[2.14423696],0.005,0.1,2.9917082044942075e-06,0.11215960649298455,0
7.893370628356934,1.8838390280582376,[2.14164109],0.005,0.1,2.7523715481346747e-06,0.13592637511955513,0
7.906105279922485,1.8838390280582376,[2.13898096],0.005,0.1,2.532181824283902e-06,0.12303892019911894,0
7.922008275985718,1.8838390280582376,[2.13625642],0.005,0.1,2.3296072783411858e-06,0.1313212868280584,0
7.937358140945435,1.8838390280582376,[2.13346945],0.005,0.1,2.143238696073892e-06,0.12218261791899016,0
7.951356887817383,1.8838390280582376,[2.13062424],0.005,0.1,1.9717796003879818e-06,0.11588838358691454,0
7.967179775238037,1.8838390280582376,[2.12772723],0.005,0.1,1.814037232356943e-06,0.11159423800030535,0
7.989689826965332,1.8838390280582376,[2.12477443],0.005,0.1,1.6689142537683878e-06,0.169490943460853,0
7.998517274856567,1.8838390280582376,[2.12176206],0.005,0.1,1.5354011134669155e-06,0.09577071621242832,0
8.012548685073853,1.8838390280582376,[2.11870266],0.005,0.1,1.4125690243895618e-06,0.11534233848357256,0
8.02527642250061,1.8838390280582376,[2.11560399],0.005,0.1,1.2995635024383956e-06,0.11343375326829805,0
8.04258418083191,1.8838390280582376,[2.11246212],0.005,0.1,1.1955984222433249e-06,0.13659114114162121,0
8.052821397781372,1.8838390280582376,[2.10927731],0.005,0.1,1.0999505484638588e-06,0.10206050749935994,0
8.063204765319824,1.8838390280582376,[2.10606288],0.005,0.1,1.011954504586751e-06,0.08413287746682366,0
8.076140880584717,1.8838390280582376,[2.10283564],0.005,0.1,9.309981442198094e-07,0.08119883963075025,0
8.092226266860962,1.8838390280582376,[2.09959915],0.005,0.1,8.565182926822248e-07,0.10803427458438292,0
8.101142644882202,1.8838390280582376,[2.09635112],0.005,0.1,7.87996829267648e-07,0.0839834298307832,0
8.115220546722412,1.8838390280582376,[2.09309667],0.005,0.1,7.249570829262367e-07,0.08783139604737125,0
8.129167795181274,1.8838390280582376,[2.08983989],0.005,0.1,6.669605162921375e-07,0.09060128465456811,0
8.143701791763306,1.8838390280582376,[2.08657876],0.005,0.1,6.136036749887665e-07,0.09627410716095593,0
8.16766619682312,1.8838390280582376,[2.08330059],0.005,0.1,5.645153809896657e-07,0.15009395630186767,0
8.183289289474487,1.8838390280582376,[2.07998492],0.005,0.1,5.193541505104931e-07,0.13520070227131778,0
8.200841903686523,1.8838390280582376,[2.07662189],0.005,0.1,4.778058184696532e-07,0.13861720476038758,0
8.222344875335693,1.8838390280582376,[2.07320228],0.005,0.1,4.3958135299208046e-07,0.1744229650021001,0
8.237305641174316,1.8838390280582376,[2.06971345],0.005,0.1,4.0441484475271387e-07,0.1478328147911992,0
8.251843690872192,1.8838390280582376,[2.06615621],0.005,0.1,3.7206165717249724e-07,0.13216405902974404,0
8.271935939788818,1.8838390280582376,[2.06253244],0.005,0.1,3.42296724598698e-07,0.1601365793565282,0
8.296321392059326,1.8838390280582376,[2.0588311],0.005,0.1,3.149129866308018e-07,0.1730841401011977,0
8.322006702423096,1.8838390280582376,[2.05503665],0.005,0.1,2.897199477003375e-07,0.19587275910295576,0
8.338929891586304,1.8838390280582376,[2.05113239],0.005,0.1,2.665423518843105e-07,0.21808558613454776,0
8.352956533432007,1.8838390280582376,[2.04711073],0.005,0.1,2.4521896373356565e-07,0.17021453340175996,0
8.367699384689331,1.8838390280582376,[2.0429801],0.005,0.1,2.2560144663488043e-07,0.16670484338816488,0
8.381445407867432,1.883643629341501,[2.0387531],0.005,0.1,2.075533309040904e-07,0.1392840303452057,0
8.395941972732544,1.8838390280582376,[2.03444536],0.005,0.1,1.9094906443176315e-07,0.12050954233509002,0
8.412223100662231,1.8838390280582376,[2.03007544],0.005,0.1,1.7567313927722201e-07,0.10772912785252943,0
8.427204370498657,1.8838390280582376,[2.02565949],0.005,0.1,1.6161928813504423e-07,0.0986173496617466,0
8.443624019622803,1.8838390280582376,[2.02120588],0.005,0.1,1.486897450842404e-07,0.11546110055015384,0
8.455297946929932,1.8838390280582376,[2.01671947],0.005,0.1,1.367945654775013e-07,0.08938832403070382,0
8.46614408493042,1.8838390280582376,[2.01221585],0.005,0.1,1.2585100023930127e-07,0.07569644091121483,0
8.476674795150757,1.883643629341501,[2.00771665],0.005,0.1,1.1578292022015714e-07,0.06199539840940765,0
8.491188049316406,1.8838390280582376,[2.00323418],0.005,0.1,1.0652028660254469e-07,0.07617603650560795,0
8.506109476089478,1.8838390280582376,[1.99876837],0.005,0.1,9.79986636743409e-08,0.07323844334053582,0
8.521675109863281,1.8838390280582376,[1.99431766],0.005,0.1,9.01587705803937e-08,0.07340971463120756,0
8.534108638763428,1.8838390280582376,[1.9898841],0.005,0.1,8.294606893396221e-08,0.06684964073447347,0
8.545130252838135,1.8838390280582376,[1.98547086],0.005,0.1,7.631038341924527e-08,0.06449027038378571,0
8.560115337371826,1.8838390280582376,[1.98108009],0.005,0.1,7.020555274570563e-08,0.062134673757032945,0
8.583560466766357,1.883643629341501,[1.97669867],0.005,0.1,6.458910852604909e-08,0.09959553917144504,0
8.597350835800171,1.883643629341501,[1.97230162],0.005,0.1,5.942197984396517e-08,0.08353143106413942,0
8.608196496963501,1.883643629341501,[1.96788758],0.005,0.1,5.466822145644806e-08,0.05549603413581788,0
8.625262975692749,1.883643629341501,[1.96347125],0.005,0.1,5.029476373993216e-08,0.06201669638861948,0
8.638498067855835,1.8834482306247644,[1.95905174],0.005,0.1,-0.27603831340749835,0.06214409305065972,0
8.651738405227661,1.8834482306247644,[1.9546241],0.005,0.1,-0.3091629202706346,0.053096868575945345,0
8.666137456893921,1.883252831908028,[1.9501905],0.005,0.1,-0.2540656670843289,0.05046750739679497,0
8.67932915687561,1.8830574331912913,[1.94575361],0.005,0.1,-0.17798066506248905,0.044879049261634586,0
8.690339803695679,1.8830574331912913,[1.94131856],0.005,0.1,-0.3834963499976879,0.03682786109816213,0
8.698120355606079,1.8828620344745544,[1.9369034],0.005,0.1,-0.35999916011671246,0.020647957650020584,0
8.714811086654663,1.8822758383243443,[1.9325245],0.005,0.1,-0.5389426603795942,0.030803152222214195,0
8.72640609741211,1.8818850408908712,[1.92817796],0.005,0.1,-0.7426054858942954,0.02614014986042176,0
8.738958597183228,1.8816896421741343,[1.9238583],0.005,0.1,-0.9066207314615581,0.024485252874287655,0
8.750121355056763,1.8812988447406611,[1.91956758],0.005,0.1,-1.0158271108504264,0.020154108825234954,0
8.769312620162964,1.8807126485904508,[1.91529846],0.005,0.1,-1.0744458979157603,0.027110522671030566,0
8.784678220748901,1.880126452440241,[1.91102825],0.005,0.1,-1.092744559935516,0.02603062762969811,0
8.79211974143982,1.880126452440241,[1.90675132],0.005,0.1,-1.0814704611876156,0.012681030994861278,0
8.80522871017456,1.879540256290031,[1.90248722],0.005,0.1,-0.773800007021698,0.011717732582041089,0
8.827107429504395,1.8787586614230845,[1.89822892],0.005,0.1,-0.6959000722971245,0.016558332855885274,0
8.8367600440979,1.8783678639896109,[1.89395022],0.005,0.1,-0.4223980718840836,0.009066289082831795,0
8.847646474838257,1.8781724652728744,[1.88965435],0.005,0.1,-0.13280880953522728,0.005100114232677224,0
8.861002206802368,1.8775862691226646,[1.88535482],0.005,0.1,0.1085322970251032,0.0026003598349017337,0
8.870127439498901,1.8773908704059277,[1.88105583],0.005,0.1,0.01114193993207932,-0.0001742732846936772,0
8.886160612106323,1.8768046742557176,[1.87676179],0.005,0.1,0.09908887578985136,-0.002884482399481535,0
8.895363092422485,1.876609275538981,[1.87248227],0.005,0.1,0.22881543565532234,-0.0033895269455613323,0
8.905288696289062,1.8762184781055076,[1.8682311],0.005,0.1,0.3446012028489684,-0.006313986382858098,0
8.916260242462158,1.8758276806720344,[1.86401446],0.005,0.1,0.7058018842799872,-0.007753466330355931,0
8.93545413017273,1.8752414845218242,[1.85981565],0.005,0.1,0.7928900563335028,-0.023021789450137057,0
8.943459749221802,1.8750460858050875,[1.85561339],0.005,0.1,0.7656525670012977,-0.013905209923877638,0
8.961820363998413,1.8744598896548776,[1.8514012],0.005,0.1,0.6975895068719916,-0.031126534729513506,0
8.971369504928589,1.8740690922214043,[1.84717063],0.005,0.1,0.6209415202881243,-0.023808080122071806,0
8.982836246490479,1.8732874973544575,[1.84292484],0.005,0.1,0.2726026469146877,-0.023772496712658513,0
8.997118473052979,1.8723105037707743,[1.83867099],0.005,0.1,-0.37634589750569997,-0.032894974475444184,0
9.010576248168945,1.8711381114703542,[1.83440022],0.005,0.1,-1.2703127414719446,-0.03609164862194034,0
9.02515172958374,1.8695749217364608,[1.83010331],0.005,0.1,-2.3341163843193837,-0.04166294865341032,0
9.03520941734314,1.868402529436041,[1.82578239],0.005,0.1,-2.946437027975041,-0.031056088270658477,0
9.050869464874268,1.8662531435519374,[1.8214428],0.005,0.1,-4.365835417975394,-0.046753572253879494,0
9.069488763809204,1.8635175615176243,[1.81706706],0.005,0.1,-5.0,-0.06723798581812894,0
9.079811573028564,1.8617589730669941,[1.81263596],0.005,0.1,-5.0,-0.05008446311813905,0
9.089502573013306,1.860000384616364,[1.80816233],0.005,0.1,-4.8476336699071565,-0.03959073926051057,0
9.099163293838501,1.8580463974489976,[1.80366967],0.005,0.1,-4.309290561825007,-0.03921456050773218,0
9.114084243774414,1.8551154166979473,[1.799168],0.005,0.1,-4.801390073738731,-0.04430699991978297,0
9.127114057540894,1.8523798346636338,[1.79465634],0.005,0.1,-5.0,-0.04869545900217072,0
9.150365114212036,1.8467132718782704,[1.79011476],0.005,0.1,-5.0,-0.09009165550233102,0
9.164543628692627,1.8431960949770103,[1.78551043],0.005,0.1,-4.8315783138079365,-0.0806808068162839,0
9.179100036621094,1.8394835193590138,[1.78083211],0.005,0.1,-4.2738602545977376,-0.07429781341002813,0
9.19508695602417,1.8347939501573334,[1.77608704],0.005,0.1,-4.749622310185208,-0.06918383491858358,0
9.217818021774292,1.8281503937882868,[1.77126556],0.005,0.1,-4.5826596254176,-0.10987428633961223,0
9.22963261604309,1.82385162202008,[1.76634867],0.005,0.1,-3.9094322091778566,-0.0796214438801458,0
9.237599611282349,1.8211160399857669,[1.76135222],0.005,0.1,-2.878149212300775,-0.05152575801480945,0
9.249089241027832,1.8170126669342965,[1.75631352],0.005,0.1,-2.169016656996243,-0.050479542613827644,0
9.264117240905762,1.8117369015824063,[1.75125168],0.005,0.1,-1.6723235295019265,-0.0533339653345537,0
9.27608060836792,1.8076335285309364,[1.74617131],0.005,0.1,-1.8704164289898007,-0.056379009901845085,0
9.293646097183228,1.8017715670288363,[1.74106822],0.005,0.1,-1.4040327020792909,-0.07289138703272223,0
9.30507206916809,1.7970819978271562,[1.73593701],0.005,0.1,-0.5194136574778613,-0.059386259214962045,0
9.31709098815918,1.7925878273422127,[1.7307856],0.005,0.1,-0.21404421452190708,-0.056454868437854515,0
9.332477331161499,1.7869212645568493,[1.72562191],0.005,0.1,0.4014319124742737,-0.06424283455423499,0
9.350009202957153,1.780082309471066,[1.72043739],0.005,0.1,0.4429280252949824,-0.07888815146003592,0
9.381844758987427,1.7667951967329725,[1.71519478],0.005,0.1,0.010364816133116267,-0.13530334708315586,0
9.397144079208374,1.7603470390806621,[1.70984613],0.005,0.1,-0.21674450308131576,-0.11000335286818058,0
9.412904262542725,1.7538988814283523,[1.7043797],0.005,0.1,0.49616911399105545,-0.09354630189066321,0
9.432015180587769,1.7460829327588854,[1.69879853],0.005,0.1,1.3703624999361748,-0.11188188572740257,0
9.441476821899414,1.742174958424152,[1.69310633],0.005,0.1,1.8379085184507935,-0.06978968008690777,0
9.462074518203735,1.7337728136044748,[1.68731693],0.005,0.1,2.6157021582709774,-0.09643396034413936,0
9.475797176361084,1.727910852102375,[1.68143169],0.005,0.1,3.038187955007818,-0.08261146458135009,0
9.490048885345459,1.722048890600275,[1.67545662],0.005,0.1,3.229534069431704,-0.07363562232083559,0
9.504493474960327,1.715991530381438,[1.6694114],0.005,0.1,3.5473813952557434,-0.06775018456313578,0
9.517439842224121,1.7103249675960746,[1.66331395],0.005,0.1,3.8030025425010545,-0.06300401659346408,0
9.533071041107178,1.7036814112270278,[1.65717981],0.005,0.1,3.9443828117573183,-0.061898010409417205,0
9.547587156295776,1.6980148484416642,[1.65101961],0.005,0.1,3.9747826734013945,-0.06382132273995406,0
9.560162782669067,1.6927390830897744,[1.64484239],0.005,0.1,3.915973478001167,-0.06002998112857164,0
9.575683832168579,1.686486324154201,[1.63865574],0.005,0.1,3.792621031622634,-0.06726080907141513,0
9.586139917373657,1.6819921536692575,[1.63246589],0.005,0.1,3.6264111708616014,-0.059305715462120205,0
9.605630159378052,1.6733946101328439,[1.62627584],0.005,0.1,3.4344641621636236,-0.07449301736823781,0
9.627341270446777,1.6647970665964305,[1.62006928],0.005,0.1,3.229486153536592,-0.09427040704273834,0
9.641089916229248,1.6587397063775937,[1.61382542],0.005,0.1,3.0205041507291774,-0.08279407420453361,0
9.663615703582764,1.6493605679742336,[1.60753014],0.005,0.1,2.8136933925202734,-0.10985523455313587,0
9.67569875717163,1.64428020133908,[1.60116827],0.005,0.1,2.61311149842152,-0.09220765537892801,0
9.685245037078857,1.6407630244378202,[1.59475469],0.005,0.1,2.4212885204639756,-0.0590834801026997,0
9.704643964767456,1.6329470757683533,[1.58831279],0.005,0.1,2.2396768170702845,-0.09475469907385958,0
9.718107461929321,1.6272805129829897,[1.58183526],0.005,0.1,2.0689832459260824,-0.08498912456237462,0
9.726672649383545,1.623567937364993,[1.57533653],0.005,0.1,1.9094092929325406,-0.0456092076830073,0
9.745424270629883,1.6153611912620527,[1.56884428],0.005,0.1,1.760821996537021,-0.08577643980435345,0
9.760078191757202,1.6093038310432162,[1.56234926],0.005,0.1,1.6228741259228394,-0.07954916942808582,0
9.775134325027466,1.6030510721076425,[1.55584351],0.005,0.1,1.4950877563158582,-0.07502811966389082,0
9.791489362716675,1.596212117021859,[1.54933288],0.005,0.1,1.3769117471826826,-0.08007074418728365,0
9.811734676361084,1.5878099722021823,[1.54280367],0.005,0.1,1.2677607748912259,-0.11292451083782687,0
9.827164649963379,1.5817526119833456,[1.53623215],0.005,0.1,1.1670414198995227,-0.09950084238327542,0
9.84015941619873,1.576281447914719,[1.52961713],0.005,0.1,1.0741692260878821,-0.08787153797832616,0
9.853690385818481,1.5704194864126186,[1.52297724],0.005,0.1,0.9885795042874155,-0.07473270770085613,0
9.86710786819458,1.5645575249105188,[1.51632771],0.005,0.1,0.9097338315652266,-0.08228418028729245,0
9.883108615875244,1.5581093672582085,[1.5096742],0.005,0.1,1.1131619741632994,-0.07825891061552898,0
9.896119832992554,1.5526382031895818,[1.50302212],0.005,0.1,1.0794346348322794,-0.07691264044450434,0
9.909113883972168,1.5475578365544282,[1.4963795],0.005,0.1,0.9627982091749551,-0.07701563868324651,0
9.924102544784546,1.5411096789021181,[1.48975287],0.005,0.1,0.83007240008536,-0.07591740458692635,0
9.938122749328613,1.535247717400018,[1.48314744],0.005,0.1,0.7074228444565553,-0.07601906426609625,0
9.951043844223022,1.5297765533313914,[1.47656722],0.005,0.1,0.6028321838781363,-0.0769223729612137,0
9.971301078796387,1.5213744085117145,[1.47000498],0.005,0.1,0.516694726809313,-0.10218531546846511,0
9.984181642532349,1.5160986431598242,[1.46344626],0.005,0.1,0.4466649813919446,-0.08923431781150792,0
9.995275020599365,1.5112136752414076,[1.45689323],0.005,0.1,0.6658059506576277,-0.08142555388872567,0
10.014476299285889,1.5026161317049942,[1.45034388],0.005,0.1,0.6523950748042189,-0.11811514488895028,0
10.027025699615479,1.497926562503314,[1.44378103],0.005,0.1,0.558821830336923,-0.09903659389798887,0
10.041840553283691,1.4922599997179506,[1.4372019],0.005,0.1,0.4505093576606486,-0.10262049389918873,0
10.057034015655518,1.4856164433489039,[1.43061231],0.005,0.1,0.35262411101769064,-0.09542044174892,0
10.07203984260559,1.4791682856965935,[1.4240172],0.005,0.1,0.2724631386874238,-0.09078470195304109,0
10.085063934326172,1.4738925203447035,[1.41742369],0.005,0.1,0.20997040976441161,-0.08939293149852653,0
10.098026275634766,1.4684213562760768,[1.41083772],0.005,0.1,0.1625208287966183,-0.08871503319677386,0
10.108832597732544,1.4639271857911336,[1.40427589],0.005,0.1,0.12698031190882667,-0.059025552720997694,0
10.127041101455688,1.45591583840493,[1.39775186],0.005,0.1,0.10050344812045679,-0.09708328622496032,0
10.140105724334717,1.4504446743363033,[1.39125312],0.005,0.1,0.08076964337249551,-0.0950686417712685,0
10.16224217414856,1.441651732083153,[1.38475027],0.005,0.1,0.06598729081718849,-0.15088007591912303,0
10.178206205368042,1.4350081757141062,[1.37821032],0.005,0.1,0.05481610536367485,-0.13392956376330528,0
10.194120645523071,1.4283646193450594,[1.37162272],0.005,0.1,0.04627244768871219,-0.11731718977150031,0
10.20809292793274,1.422111860409486,[1.36499903],0.005,0.1,0.03964287954437133,-0.10706453135199741,0
10.223026037216187,1.415663702757176,[1.35835092],0.005,0.1,0.03441355162184628,-0.10009501326612325,0
10.238449573516846,1.4096063425383392,[1.3516834],0.005,0.1,0.030215710736530243,-0.11233879891970777,0
10.2492196559906,1.4051121720533957,[1.34500093],0.005,0.1,0.026785009916580477,-0.09134496003272408,0
10.270764350891113,1.3957330336500358,[1.33829784],0.005,0.1,0.02393174123441021,-0.15351137627624092,0
10.284849405288696,1.3900664708646722,[1.33154968],0.005,0.1,0.021519345855467664,-0.13322866483923543,0
10.293875932693481,1.386549293963412,[1.32476733],0.005,0.1,0.01944903465187791,-0.07343820329218549,0
10.312028408050537,1.3789287440106817,[1.31798041],0.005,0.1,0.017648845265647924,-0.12814687488757306,0
10.327086210250854,1.3724805863583718,[1.31118151],0.005,0.1,-0.25997247473398266,-0.11667908967748927,0
10.34300947189331,1.3656416312725883,[1.30436452],0.005,0.1,-0.2945021186155743,-0.10809220552871861,0
10.357027769088745,1.3595842710537516,[1.29754074],0.005,0.1,-0.24066158502637797,-0.10347268539883682,0
10.371086835861206,1.3537223095516515,[1.29071985],0.005,0.1,-0.1657076166531222,-0.10090135835978356,0
10.385814428329468,1.3476649493328146,[1.28390848],0.005,0.1,-0.09620788487052026,-0.10397403286616874,0
10.400876760482788,1.3414121903972414,[1.27710475],0.005,0.1,-0.04051487169042025,-0.12147863536037085,0
10.419828176498413,1.3335962417277742,[1.27028993],0.005,0.1,0.0006368840558300289,-0.1581694668110766,0
10.435109853744507,1.3269526853587275,[1.26344318],0.005,0.1,0.02927987870784326,-0.13725826749178283,0
10.450022459030151,1.320895325139891,[1.25656571],0.005,0.1,-0.22793683491952085,-0.12426449325163864,0
10.464003086090088,1.3154241610712643,[1.24967153],0.005,0.1,-0.24955559732584826,-0.11690604426511693,0
10.478038311004639,1.3089760034189541,[1.24277265],0.005,0.1,-0.18820958741397237,-0.11099357528704495,0
10.493231773376465,1.3025278457666438,[1.23587635],0.005,0.1,-0.10954614764986403,-0.11735347294076662,0
10.506200551986694,1.2972520804147536,[1.22898797],0.005,0.1,-0.03893799525679237,-0.10593377787335978,0
10.52000617980957,1.2915855176293904,[1.22211784],0.005,0.1,0.01612806159122024,-0.10300698420895119,0
10.533012866973877,1.2863097522775002,[1.21527593],0.005,0.1,0.05553347613356325,-0.10446304439040599,0
10.555133819580078,1.2767352151574034,[1.20844734],0.005,0.1,0.35778109305546923,-0.1778530060335635,0
10.564805507659912,1.2730226395394069,[1.20161265],0.005,0.1,0.13086675945443713,-0.10473127654930667,0
10.582525253295898,1.2659882857368865,[1.19477547],0.005,0.1,0.327182319413108,-0.15740910277826198,0
10.595873355865479,1.2601263242347864,[1.18793078],0.005,0.1,0.3425134011942254,-0.14216955126231373,0
10.610524415969849,1.2540689640159497,[1.18107442],0.005,0.1,0.016506054970694517,-0.13150840710376205,0
10.624019861221313,1.2485977999473228,[1.17421713],0.005,0.1,-0.08163058226878749,-0.12551521707035745,0
10.639992237091064,1.2417588448615395,[1.16736801],0.005,0.1,-0.08676732315269874,-0.11988547946956016,0
10.654019355773926,1.2358968833594395,[1.16053469],0.005,0.1,-0.05994090876438393,-0.1173642059500294,0
10.67666482925415,1.2267131436728156,[1.15370428],0.005,0.1,-0.027200086206893008,-0.19116510181629595,0
10.689934492111206,1.2210465808874524,[1.14684601],0.005,0.1,0.0015508205295421164,-0.16874024547908298,0
10.701743364334106,1.215966214252299,[1.13996084],0.005,0.1,0.0235356922453168,-0.11919616830568959,0
10.717081546783447,1.2097134553167255,[1.13307069],0.005,0.1,0.03888234675149778,-0.1455472422171211,0
10.72591233253479,1.2061962784154654,[1.1261935],0.005,0.1,0.048709042799057245,-0.08792131119766348,0
10.735989332199097,1.2018975066472588,[1.11936269],0.005,0.1,0.05430673146024555,-0.08041423386894819,0
10.750787734985352,1.1956447477116852,[1.11260308],0.005,0.1,0.05682743811997029,-0.09578934495769938,0
10.764981508255005,1.1893919887761117,[1.10591573],0.005,0.1,0.057196493052329864,-0.0971172641292861,0
10.784877300262451,1.1813806413899082,[1.09927882],0.005,0.1,0.05611623777478145,-0.18416964423086912,0
10.797067880630493,1.1763002747547546,[1.09265956],0.005,0.1,0.054101158258989576,-0.13896510664258904,0
10.808886528015137,1.171610705553075,[1.08605642],0.005,0.1,0.05151871654744253,-0.12525949662065353,0
10.82468056678772,1.164967149184028,[1.07947618],0.005,0.1,0.04862602353550355,-0.1568068363912952,0
10.831977844238281,1.1620361684329779,[1.07292797],0.005,0.1,0.04559952899463745,-0.16330860823433957,0
10.848912477493286,1.1548064159137212,[1.0664352],0.005,0.1,0.04255778997629908,-0.19438572965681997,0
10.859978675842285,1.1501168467120408,[1.0600055],0.005,0.1,0.039578379169993294,-0.13073821667315666,0
10.879979372024536,1.1419101006091008,[1.05362447],0.005,0.1,0.31274854522981327,-0.21818780584925734,0
10.894094944000244,1.135852740390264,[1.04726082],0.005,0.1,0.3431452012676891,-0.18259663994505348,0
10.90799856185913,1.1301861776049007,[1.04089817],0.005,0.1,0.2854756800160703,-0.16615615939143324,0
10.922981977462769,1.124128817386064,[1.03454079],0.005,0.1,0.20698035055488226,-0.15137268207115473,0
10.933967113494873,1.1196346469011205,[1.0281924],0.005,0.1,0.13420945924118668,-0.14365266652924336,0
10.947993755340576,1.1137726853990204,[1.02185692],0.005,0.1,0.07549779284968824,-0.13695381157642697,0
10.9619882106781,1.1081061226136568,[1.01553764],0.005,0.1,0.03156243998332582,-0.13260462766359188,0
10.975988149642944,1.1020487623948203,[1.00923728],0.005,0.1,0.00035402783683945865,-0.12914707252597069,0
10.988994836807251,1.0969683957596668,[1.00295804],0.005,0.1,-0.020830959424006517,-0.12792031588327576,0
11.003981828689575,1.0907156368240933,[0.99670167],0.005,0.1,0.24152507489966893,-0.12590278376844244,0
11.018988132476807,1.084267479171783,[0.9904695],0.005,0.1,-0.009641348604163533,-0.12398477909178454,0
11.031988382339478,1.0786009163864199,[0.98426247],0.005,0.1,-0.10228632720082237,-0.1233632607163866,0
11.043737411499023,1.073715948468003,[0.97808961],0.005,0.1,-0.1250574186775362,-0.09120306980137373,0
11.05660605430603,1.0684401831161128,[0.97196108],0.005,0.1,0.1565364375818047,-0.12264439120677127,0
11.07039213180542,1.0623828228972763,[0.9658703],0.005,0.1,-0.07132218228556403,-0.12549593290062205,0
11.086978673934937,1.055934665244966,[0.95980577],0.005,0.1,0.13300122385396643,-0.13270903292639158,0
11.111475229263306,1.045773931974659,[0.95374311],0.005,0.1,-0.11600693884254283,-0.21426482877645497,0
11.12596344947815,1.0397165717558223,[0.94764591],0.005,0.1,0.08979248683165991,-0.18155026446614275,0
11.145670890808105,1.0313144269361456,[0.94149326],0.005,0.1,0.1258221955624338,-0.21489813689889967,0
11.155002117156982,1.0276018513181489,[0.93528714],0.005,0.1,-0.1772078152468792,-0.12986854990001134,0
11.172889471054077,1.019785902648682,[0.92904466],0.005,0.1,0.022363859446111342,-0.16112905882654305,0
11.190333843231201,1.012165352695952,[0.92276254],0.005,0.1,-0.20649042699172726,-0.18814464576923243,0
11.206052303314209,1.006107992477115,[0.9164265],0.005,0.1,0.024739045990913255,-0.1619662220577196,0
11.222795963287354,0.9990736386745949,[0.91004056],0.005,0.1,0.08384666140966893,-0.15814914969080182,0
11.243240356445312,0.9902806964214448,[0.90360049],0.005,0.1,-0.20074392785244216,-0.20815403575501493,0
11.257982015609741,0.9844187349193447,[0.89709237],0.005,0.1,0.012552519429704131,-0.17308611871852586,0
11.27176809310913,0.9787521721339812,[0.89052391],0.005,0.1,-0.2065850820950591,-0.15011973740194787,0
11.286550760269165,0.9724994131984078,[0.8839176],0.005,0.1,-0.2448129223820418,-0.13421246785762317,0
11.299996852874756,0.9666374516963077,[0.87729326],0.005,0.1,0.06145158485126191,-0.12398529458573047,0
11.310608386993408,0.9621432812113643,[0.87067612],0.005,0.1,-0.13236176676377792,-0.08910220182404001,0
11.324787616729736,0.9562813197092642,[0.86409364],0.005,0.1,-0.172748951241315,-0.09978770428431377,0
11.338982105255127,0.9506147569239006,[0.85755324],0.005,0.1,0.12205200224378804,-0.12370738285212717,0
11.353442430496216,0.9445573967050639,[0.85104929],0.005,0.1,-0.08476998839366337,-0.11665760524536516,0
11.366966724395752,0.9390862326364372,[0.84458481],0.005,0.1,-0.1367627892780478,-0.11200717839306601,0
11.378008604049683,0.9345920621514938,[0.83817254],0.005,0.1,-0.12738080542254504,-0.09284105236859455,0
11.39207148551941,0.928534701932657,[0.83182296],0.005,0.1,-0.09849014814828028,-0.11176883149107149,0
11.406179666519165,0.9226727404305568,[0.82553559],0.005,0.1,-0.3436634008162115,-0.10799585068955596,0
11.418818712234497,0.9175923737954035,[0.81931334],0.005,0.1,-0.3503399939901519,-0.09157540293516638,0
11.4287748336792,0.91309820331046,[0.81317203],0.005,0.1,-0.2747480301760901,-0.07490319947498536,0
11.438674688339233,0.9087994315422533,[0.80713049],0.005,0.1,-0.18373108777444033,-0.06819386740300612,0
11.44993281364441,0.9041098623405732,[0.80120168],0.005,0.1,-0.10283574827056399,-0.06737551582223571,0
11.46581745147705,0.8976617046882631,[0.79538602],0.005,0.1,-0.039335650426340456,-0.08409144671299008,0
11.476982593536377,0.8933629329200563,[0.78967523],0.005,0.1,0.0069701888182684656,-0.08042112893383936,0
11.490938901901245,0.8875009714179563,[0.78406311],0.005,0.1,0.03885772507149321,-0.08509260935870683,0
11.510547637939453,0.8790988265982794,[0.77853252],0.005,0.1,0.3356160028511581,-0.1294161375849359,0
11.52089548110962,0.8748000548300726,[0.77306277],0.005,0.1,0.10517447523269027,-0.0884868065068887,0
11.540958404541016,0.8667887074438692,[0.76764208],0.005,0.1,0.02353476649934011,-0.1381023349177714,0
11.553937673568726,0.8611221446585058,[0.76225008],0.005,0.1,0.28107673058708205,-0.12483576110175039,0
11.56195616722107,0.8576049677572457,[0.75688978],0.005,0.1,0.04345258002212676,-0.1268899836500866,0
11.577342987060547,0.8509614113881988,[0.75158755],0.005,0.1,-0.03294954213527451,-0.13640051767688607,0
11.587504148483276,0.8472488357702022,[0.74634666],0.005,0.1,0.2335119862487925,-0.11249314790671695,0
11.597948789596558,0.843145462718732,[0.74116387],0.005,0.1,0.28090741620063425,-0.09433107275089922,0
11.61110234260559,0.8378696973668419,[0.73604192],0.005,0.1,-0.030650817906717753,-0.09204655054838941,0
11.622267484664917,0.8331801281651618,[0.7309825],0.005,0.1,-0.12218989786720956,-0.07253264918441095,0
11.637932538986206,0.8269273692295884,[0.72598358],0.005,0.1,0.1520142534532773,-0.09392547971420247,0
11.651939392089844,0.8208700090107517,[0.72103242],0.005,0.1,0.2140264057751677,-0.09022377309524282,0
11.665929555892944,0.814812648791915,[0.7161179],0.005,0.1,0.1933621086091022,-0.08694214875666492,0
11.680937767028809,0.8085598898563414,[0.71123567],0.005,0.1,0.14768186586609144,-0.08396096685531769,0
11.692941904067993,0.8034795232211881,[0.70638195],0.005,0.1,0.10085355237812324,-0.08227045841384995,0
11.703935861587524,0.7987899540195079,[0.70155343],0.005,0.1,0.06134269704437195,-0.08110590173744751,0
11.71793508529663,0.7931233912341445,[0.69674727],0.005,0.1,0.030959013385275375,-0.0792924277442775,0
11.730916261672974,0.7878476258822544,[0.69196106],0.005,0.1,0.008915670739932744,-0.07788806829251682,0
11.742177486419678,0.7829626579638376,[0.68719503],0.005,0.1,-0.006360835045198616,-0.06971386255926529,0
11.75072455406189,0.7796408797793143,[0.68246112],0.005,0.1,-0.01647955324164455,-0.04508843814201787,0
11.765358924865723,0.7733881208437408,[0.67777258],0.005,0.1,-0.02281715273831931,-0.06302428370583593,0
11.776147365570068,0.7688939503587974,[0.67312959],0.005,0.1,-0.026459282276383132,-0.05190403822073082,0
11.7879319190979,0.763813583723644,[0.66853352],0.005,0.1,-0.0282239544882621,-0.05124801268974197,0
11.800929546356201,0.7587332170884905,[0.66398628],0.005,0.1,-0.02871011026700341,-0.056565128081566836,0
11.822388172149658,0.7499402748353403,[0.65946876],0.005,0.1,-0.028347692833102858,-0.10002640254555162,0
11.83105206489563,0.7462276992173437,[0.65495971],0.005,0.1,0.24859763785556085,-0.058000090027343826,0
11.845090389251709,0.7405611364319802,[0.65046431],0.005,0.1,0.28296152244842254,-0.060938267110824645,0
11.858492612838745,0.7348945736466168,[0.64599141],0.005,0.1,0.22928950505638768,-0.05543066600463246,0
11.870936155319214,0.7298142070114633,[0.64154182],0.005,0.1,0.15471613646898622,-0.05449124728544363,0
11.883931875228882,0.7245384416595733,[0.63711565],0.005,0.1,0.08572487919072853,-0.05630756039819729,0
11.898934364318848,0.7180902840072632,[0.63270966],0.005,0.1,0.030610702086618598,-0.05650599830261804,0
11.9134042263031,0.7120329237884264,[0.62831526],0.005,0.1,-0.00993068997671099,-0.06956900731130308,0
11.926801443099976,0.7059755635695895,[0.62391946],0.005,0.1,-0.037957612485189376,-0.06769142779048708,0
11.943907737731934,0.6991366084838061,[0.61951063],0.005,0.1,-0.05617426917056254,-0.07570178607726895,0
11.954801082611084,0.6946424379988627,[0.61508364],0.005,0.1,-0.06709676426059161,-0.06003698257485686,0
11.964925289154053,0.6907344636641293,[0.6106509],0.005,0.1,-0.07279010407870051,-0.040705200823782504,0
11.983609437942505,0.6829185149946625,[0.60622121],0.005,0.1,-0.07484444008490257,-0.06945311284035742,0
11.997997760772705,0.6770565534925623,[0.6017809],0.005,0.1,-0.07443855974146019,-0.062352974759597474,0
12.013896465301514,0.6704129971235157,[0.59731942],0.005,0.1,0.20361401539689755,-0.06430435567809226,0
12.029006242752075,0.6643556369046788,[0.59283627],0.005,0.1,0.23975710911945428,-0.05751251944243006,0
12.041796684265137,0.6586890741193153,[0.58833469],0.005,0.1,0.18826107670947384,-0.052747817185497634,0
12.058009147644043,0.651850119033532,[0.58382106],0.005,0.1,0.11607035892217243,-0.04837904154969179,0
12.071979284286499,0.6463789549649053,[0.5793012],0.005,0.1,0.0495393445159381,-0.0457348314219415,0
12.084290266036987,0.6412985883297517,[0.57478041],0.005,0.1,-0.003122824798699367,-0.043853598664870035,0
12.09788990020752,0.6358274242611249,[0.57026351],0.005,0.1,0.23476241975234935,-0.042098831618649565,0
12.113367080688477,0.6295746653255516,[0.56575431],0.005,0.1,0.24215022638760503,-0.041063826501128414,0
12.125885725021362,0.6244942986903982,[0.56125624],0.005,0.1,0.44704673171538534,-0.03869650540983021,0
12.148988246917725,0.6147243628535647,[0.55676029],0.005,0.1,0.6712461412291959,-0.06215594685141276,0
12.162999153137207,0.6092531987849378,[0.55224609],0.005,0.1,0.5749698847099172,-0.051788753976365634,0
12.177982330322266,0.6033912372828377,[0.54770971],0.005,0.1,0.6629316735288642,-0.044343919918430966,0
12.191975831985474,0.5977246744974742,[0.54316164],0.005,0.1,0.5095118333100638,-0.03926593048071844,0
12.20366096496582,0.5928397065790576,[0.53861119],0.005,0.1,0.3014027361828832,-0.036073510087503015,0
12.217801094055176,0.5873685425104307,[0.5340666],0.005,0.1,0.11160759395126765,-0.033391579718905454,0
12.229581117630005,0.5828743720254873,[0.52953509],0.005,0.1,-0.03756866890743153,-0.03184060703366322,0
12.24393892288208,0.5772078092401239,[0.5250229],0.005,0.1,-0.14487133863802604,-0.030015624723940447,0
12.25708818435669,0.5717366451714971,[0.52053542],0.005,0.1,-0.21656474806887463,-0.028558206460216402,0
12.270776510238647,0.5660700823861337,[0.51607901],0.005,0.1,0.01546690876420595,-0.024635946779966753,0
12.284912347793579,0.5604035196007703,[0.51165899],0.005,0.1,0.024988059552102385,-0.026701101775961543,0
12.297721862792969,0.5557139503990901,[0.50727605],0.005,0.1,-0.039248047970929296,-0.02580282766673719,0
12.312509536743164,0.54985198889699,[0.50293107],0.005,0.1,0.16148020401362057,-0.023850390855201836,0
12.324934005737305,0.5447716222618366,[0.49862645],0.005,0.1,0.131412489755774,-0.023701305432079562,0
12.338917255401611,0.5394958569099465,[0.49436314],0.005,0.1,0.3072027498785069,-0.022727759665761387,0
12.351549863815308,0.5348062877082664,[0.49014214],0.005,0.1,0.23615433565118252,-0.021521726538340204,0
12.365913152694702,0.529139724922903,[0.48596455],0.005,0.1,0.3723275746371926,-0.021144614074803822,0
12.373897552490234,0.5260133454551164,[0.48184187],0.005,0.1,0.2688469799762626,-0.02160565188653334,0
12.396970987319946,0.5176112006354395,[0.47778345],0.005,0.1,0.10463300010682944,-0.03434223913112761,0
12.408987522125244,0.5127262327170228,[0.47377371],0.005,0.1,-0.04919206962578508,-0.02831019128927405,0
12.421963453292847,0.5076458660818692,[0.46979915],0.005,0.1,-0.1698548422096644,-0.023991222784695086,0
12.435982704162598,0.5021747020132425,[0.46585996],0.005,0.1,0.02116318946444523,-0.020760086477695706,0
12.455819129943848,0.49494494949398576,[0.46194827],0.005,0.1,0.27599505581807593,-0.026122030948801226,0
12.466553926467896,0.4910369751592523,[0.4580541],0.005,0.1,0.2236066219827462,-0.017377688378053355,0
12.485636472702026,0.48361182392325885,[0.45417553],0.005,0.1,0.3556021341302343,-0.02027651950818307,0
12.496935844421387,0.4795084508717888,[0.45031076],0.005,0.1,0.2415845442879075,-0.015288742768527382,0
12.505905628204346,0.4761866726872654,[0.44646939],0.005,0.1,0.06711506314334467,-0.009247085586689407,0
12.527899265289307,0.46837072401779856,[0.44265931],0.005,0.1,0.18156225333801435,-0.016619673990638868,0
12.5391526222229,0.46446274968306517,[0.43886981],0.005,0.1,0.08907853884812428,-0.012339377280493065,0
12.5548837184906,0.4584053894642284,[0.43509597],0.005,0.1,0.22250439601544333,-0.012488778750442906,0
12.569885969161987,0.4529342253956016,[0.43133916],0.005,0.1,0.12461380996368528,-0.010596250308109624,0
12.583886623382568,0.4480492574771848,[0.42760063],0.005,0.1,0.2453815345043737,-0.009346939367088376,0
12.597885131835938,0.44277349212529477,[0.42388438],0.005,0.1,0.4106667889789838,-0.00820848841893895,0
12.611321449279785,0.43808392292361464,[0.42019383],0.005,0.1,0.27791612859571235,-0.007445846810070627,0
12.625245094299316,0.43378515115540794,[0.41653153],0.005,0.1,0.34712389523665976,-0.007099630573916246,0
12.637874841690063,0.4294863793872012,[0.41289965],0.005,0.1,0.4640473129746293,-0.0064188060289284005,0
12.649654626846313,0.4253830063357311,[0.4093007],0.005,0.1,0.29251279356136367,-0.006070845592488532,0
12.663902044296265,0.420107240983841,[0.40573676],0.005,0.1,0.3332145832298361,-0.005383408072044004,0
12.673418760299683,0.41678546279931766,[0.40221487],0.005,0.1,0.43052454938689505,-0.00336669323031742,0
12.690886735916138,0.41092350129721755,[0.39874079],0.005,0.1,0.7984455198894009,-0.0050635684877906205,0
12.7048819065094,0.4064293308122741,[0.39530752],0.005,0.1,0.8979785434783725,-0.0044682922659279685,0
12.720881700515747,0.401153565460384,[0.39190894],0.005,0.1,0.8814036311574873,-0.0036937776595798322,0
12.737257242202759,0.3958778001084939,[0.38854064],0.005,0.1,1.0960527129195028,-0.004235519081400167,0
12.74588394165039,0.39275142064070717,[0.38519882],0.005,0.1,1.0551816030076067,-0.002642848113334259,0
12.76139783859253,0.3880618514390271,[0.38188929],0.005,0.1,0.9271363230239288,-0.0024184420028477505,0
12.775861501693726,0.38356768095408367,[0.37861515],0.005,0.1,1.0602622872763525,-0.002227697834760219,0
12.789712190628052,0.37965970661935033,[0.3753743],0.005,0.1,0.963429951838884,-0.0018425816092997513,0
12.801876544952393,0.3759471310013535,[0.37216824],0.005,0.1,0.7993880282123692,-0.00153266691278673,0
12.815877199172974,0.3718437579498835,[0.36899939],0.005,0.1,0.6352799263394173,-0.0013154526779916506,0
12.837901592254639,0.3659817964477834,[0.36585896],0.005,0.1,1.3228227743469663,-0.0015088571674495867,0
12.851890563964844,0.36266001826325994,[0.36272953],0.005,0.1,2.138090213802449,-0.001127829528626665,0
12.864983797073364,0.35972903751220986,[0.35960553],0.005,0.1,3.0899654353207175,-0.0010051632983547121,0
12.875027418136597,0.35757965162810657,[0.35649689],0.005,0.1,3.5918541256721053,-0.0006803725020146481,0
12.891913175582886,0.3542578734435831,[0.35341207],0.005,0.1,4.362462771670369,-0.0011687843233334982,0
12.907873153686523,0.35132689269253303,[0.35034717],0.005,0.1,5.0,-0.001095265295757696,0
12.920886993408203,0.3491775068084297,[0.3472989],0.005,0.1,5.0,-0.0012636159278495954,0
12.934862613677979,0.3470281209243264,[0.34426996],0.005,0.1,4.617818657588849,-0.0014295407718339821,0
12.946889877319336,0.34526953247369635,[0.34126267],0.005,0.1,4.117748002762241,-0.001694179667862848,0
12.961395025253296,0.34331554530632963,[0.33827988],0.005,0.1,4.177394157079054,-0.0017618100710928876,0
12.974853992462158,0.3417523555724363,[0.3353239],0.005,0.1,4.079769265056284,-0.0022659148023449083,0
12.98984694480896,0.33999376712180623,[0.33239477],0.005,0.1,3.0729795153797186,-0.0024999642496809217,0
13.002860307693481,0.3384305773879129,[0.32949241],0.005,0.1,2.2038913394713218,-0.0027722399078670577,0
13.016850709915161,0.33706278637075615,[0.32661758],0.005,0.1,1.5178231276652363,-0.0030831919055944127,0
13.02557110786438,0.3362811915038095,[0.32377768],0.005,0.1,0.7267880673325932,-0.0018516054476106483,0
13.04250979423523,0.3347180017699161,[0.32097877],0.005,0.1,0.31956724610824766,-0.004399664404675945,0
13.05027985572815,0.33413180561970607,[0.3182193],0.005,0.1,-0.1665666007225153,-0.002452454606534691,0
13.063136100769043,0.3331548120360227,[0.31550211],0.005,0.1,-0.3077078520134213,-0.004109430190033796,0
13.07462739944458,0.33237321716907614,[0.31282696],0.005,0.1,-0.30725215557103835,-0.004170578781445611,0
13.094857931137085,0.33120082486865604,[0.31018466],0.005,0.1,-0.5336401580943906,-0.007079000461229478,0
13.107097148895264,0.330614628718446,[0.30756369],0.005,0.1,-0.507616069629494,-0.006976748516555595,0
13.12226414680481,0.32983303385149937,[0.30495868],0.005,0.1,-0.6752068315178122,-0.006913323205825095,0
13.134849548339844,0.3292468377012893,[0.30237063],0.005,0.1,-0.8651968484828889,-0.00698345591300991,0
13.149863719940186,0.3290514389845527,[0.29980047],0.005,0.1,-0.7398806004988119,-0.007207415052734598,0
13.162896156311035,0.3286606415510793,[0.29724904],0.005,0.1,-0.8040056147908101,-0.007416547532497468,0
13.170916080474854,0.3284652428343427,[0.2947244],0.005,0.1,-1.183337255121406,-0.007963785617378852,0
13.186385869979858,0.328269844117606,[0.29223701],0.005,0.1,-1.02581565095478,-0.01072101392105445,0
13.197202444076538,0.3280744454008694,[0.28978787],0.005,0.1,-0.9890849787189537,-0.007970610240235113,0
13.216868162155151,0.32787904668413265,[0.28737017],0.005,0.1,-1.2623971542236916,-0.013883146970268113,0
13.226453065872192,0.32748824925065934,[0.28497546],0.005,0.1,-1.5684650475043185,-0.009313525535869435,0
13.243875980377197,0.327097451817186,[0.28260029],0.005,0.1,-2.084144161294093,-0.0125914389141524,0
13.25887155532837,0.32670665438371266,[0.2802409],0.005,0.1,-2.5443293265322264,-0.011712561567185073,0
13.272850275039673,0.325925059516766,[0.27789418],0.005,0.1,-3.1447166667017616,-0.011021539183351189,0
13.288830995559692,0.32514346464981925,[0.27556145],0.005,0.1,-4.190515631923948,-0.010530426709038216,0
13.306184768676758,0.3237756736326626,[0.27324025],0.005,0.1,-5.0,-0.013456622347976411,0
13.316526174545288,0.32318947748245264,[0.27092714],0.005,0.1,-5.0,-0.010193038891805208,0
13.330602884292603,0.32221248389876916,[0.26862477],0.005,0.1,-5.0,-0.010269561760756106,0
13.344257831573486,0.32104009159834923,[0.26633697],0.005,0.1,-5.0,-0.00946922597239545,0
13.35485577583313,0.32006309801466587,[0.2640672],0.005,0.1,-5.0,-0.00814818092542368,0
13.368860483169556,0.3186953069975092,[0.26181982],0.005,0.1,-5.0,-0.00832269421410867,0
13.380863904953003,0.3173275159803524,[0.25959651],0.005,0.1,-4.803405324046402,-0.008429442605891029,0
13.392864227294922,0.3161551236799325,[0.25739722],0.005,0.1,-4.1937367637153145,-0.008514737330317155,0
13.408514738082886,0.31420113651256576,[0.25522136],0.005,0.1,-3.792608957591664,-0.008816259616829053,0
13.420856475830078,0.31283334549540903,[0.25306838],0.005,0.1,-3.48933424999521,-0.008287778588865953,0
13.433834791183472,0.31127015576151573,[0.25093867],0.005,0.1,-3.2333184235678836,-0.008226263916492773,0
13.44681453704834,0.3097069660276223,[0.2488325],0.005,0.1,-2.7263247831367345,-0.008152001460411711,0
13.460246562957764,0.3079483775769923,[0.24674958],0.005,0.1,-2.202129180880607,-0.008035559637324172,0
13.472405433654785,0.30618978912636224,[0.24468962],0.005,0.1,-2.021604520853641,-0.00789365348037886,0
13.48429274559021,0.3046265993924689,[0.24265231],0.005,0.1,-1.6857439757006396,-0.0077734909740968024,0
13.495908498764038,0.3026726122251022,[0.24063883],0.005,0.1,-1.6194882110864253,-0.006444485867249134,0
13.508044242858887,0.3009140237744722,[0.23865284],0.005,0.1,-1.6331999225493399,-0.005705344606086491,0
13.519174098968506,0.29915543532384214,[0.23669809],0.005,0.1,-1.6504575370605323,-0.0053208089645577295,0
13.53086519241333,0.29759224558994873,[0.23477771],0.005,0.1,-1.369734135472782,-0.004528511797613176,0
13.53921890258789,0.2964198532895288,[0.23289814],0.005,0.1,-1.0299614833771364,-0.0026365224228961917,0
13.556840658187866,0.29368427125521535,[0.23106161],0.005,0.1,-0.4473338790369247,-0.0064277413719393195,0
13.57518744468689,0.290948689220902,[0.22925594],0.005,0.1,0.10816178164983287,-0.008551485151138117,0
13.59255051612854,0.28821310718658855,[0.22746533],0.005,0.1,0.2720404798912408,-0.00983802682521278,0
13.599837064743042,0.2870407148861686,[0.22568657],0.005,0.1,0.5514554374793432,-0.009940544820026414,0
13.617301225662231,0.28410973413511853,[0.22392418],0.005,0.1,0.532328403706903,-0.011612811716464045,0
13.62977147102356,0.28215574696775186,[0.22217574],0.005,0.1,0.41431704428867033,-0.00950142043502309,0
13.638900995254517,0.28039715851712177,[0.22044087],0.005,0.1,0.2819152857704775,-0.005547131537635848,0
13.661909103393555,0.2764891841823884,[0.21872109],0.005,0.1,0.16665316943129885,-0.009020100112254204,0
13.672370433807373,0.27473059573175834,[0.21701162],0.005,0.1,0.07680998194507067,-0.005871425094149454,0
13.688894271850586,0.2717996149807083,[0.21531014],0.005,0.1,0.2873385350671795,-0.007055446766153342,0
13.701226472854614,0.2694548303798682,[0.21361509],0.005,0.1,0.2750999414724976,-0.00616995244070163,0
13.712326049804688,0.26750084321250156,[0.21192686],0.005,0.1,0.19015446012030485,-0.004551856666228601,0
13.724006175994873,0.2651560586116615,[0.21025098],0.005,0.1,0.09565514884569612,-0.003799177963706491,0
13.739545345306396,0.2624204765773481,[0.20858958],0.005,0.1,0.014886511692095303,-0.004914737462994058,0
13.749807119369507,0.2606618881267181,[0.20694225],0.005,0.1,-0.046293445475658675,-0.003281573273189938,0
13.76427149772644,0.25792630609240474,[0.20531074],0.005,0.1,0.18705222519827283,-0.003994683773012038,0
13.772835969924927,0.2563631163585114,[0.20369753],0.005,0.1,0.4686548439068115,-0.0025887294681201643,0
13.789551019668579,0.2532367368907246,[0.20210427],0.005,0.1,0.7066678442010054,-0.0036894286508813504,0
13.80274772644043,0.2508919522898846,[0.20052927],0.005,0.1,0.8769425031794353,-0.0033248282161197043,0
13.813897609710693,0.24893796512251787,[0.19897206],0.005,0.1,0.7064915613314757,-0.0026870538373777544,0
13.836031198501587,0.24463919335431117,[0.19743039],0.005,0.1,0.7262731159112326,-0.004905116427978458,0
13.850888729095459,0.24209901003673442,[0.19589596],0.005,0.1,0.7948357615796151,-0.004185354366038035,0
13.866889238357544,0.2391680292856844,[0.19436509],0.005,0.1,1.1325793464412883,-0.003630123490609181,0
13.877914190292358,0.23721404211831768,[0.19283939],0.005,0.1,1.2031986007635012,-0.003288454177344126,0
13.891870737075806,0.2344784600840043,[0.19132035],0.005,0.1,1.15994777912162,-0.002974375331639061,0
13.905816555023193,0.23193827676642756,[0.18980933],0.005,0.1,1.0743290757817672,-0.002732872381017601,0
13.920873641967773,0.2292026947321142,[0.1883076],0.005,0.1,0.7024051595817294,-0.002512931941454594,0
13.942617893218994,0.22509932168064412,[0.18681224],0.005,0.1,0.5765660066823889,-0.0039047637173597305,0
13.957817792892456,0.22216834092959406,[0.18531682],0.005,0.1,0.8229951542152358,-0.003121603346663974,0
13.972820520401001,0.21923736017854403,[0.18382037],0.005,0.1,0.8565588549267606,-0.002571294152953637,0
13.985890626907349,0.21650177814423063,[0.18232643],0.005,0.1,0.8049240723674962,-0.0021920309619080395,0
13.999876737594604,0.21396159482665392,[0.18083822],0.005,0.1,0.7260068980128956,-0.0019219606138543804,0
14.01479983329773,0.21142141150907717,[0.17935856],0.005,0.1,0.6445869738514165,-0.0017134555351556373,0
14.02989411354065,0.20927202562497385,[0.17788997],0.005,0.1,0.8461342658352993,-0.0015690683758484937,0
14.04763412475586,0.2067318423073971,[0.17643249],0.005,0.1,1.3663877644296774,-0.002031897788670233,0
14.056875228881836,0.2055594500069771,[0.17498619],0.005,0.1,2.1500582033252233,-0.0012426968257170956,0
14.075807332992554,0.20321466540613706,[0.17355443],0.005,0.1,3.1198891748463717,-0.0014865495768963404,0
14.093820571899414,0.20126067823877036,[0.17213653],0.005,0.1,3.9279572831857763,-0.0019868220346084277,0
14.108814716339111,0.19969748850487698,[0.17072876],0.005,0.1,4.7593076812766455,-0.0017064850933589308,0
14.123798131942749,0.19832969748772028,[0.16933164],0.005,0.1,4.831009989497535,-0.0015172173844216444,0
14.136806726455688,0.1969619064705636,[0.16794806],0.005,0.1,4.310471694665668,-0.0013808123434313683,0
14.152031421661377,0.19598491288688025,[0.16658037],0.005,0.1,4.198485260690246,-0.0013328547993848498,0
14.173917293548584,0.19461712186972355,[0.16522737],0.005,0.1,4.1889481252376415,-0.002063892436442909,0
14.189976930618286,0.1938355270027769,[0.16388512],0.005,0.1,4.439982701821205,-0.0017693212450781994,0
14.205873489379883,0.19324933085256688,[0.16255363],0.005,0.1,4.121868288350333,-0.0015798513498801842,0
14.224446535110474,0.19266313470235683,[0.16123423],0.005,0.1,3.3554288595025237,-0.001950202927358762,0
14.240431785583496,0.19227233726888354,[0.15992502],0.005,0.1,2.826025480549038,-0.0020804748018588524,0
14.255843877792358,0.19207693855214686,[0.158625],0.005,0.1,2.4396220458961198,-0.0018236557956117032,0
14.269676446914673,0.1918815398354102,[0.15733639],0.005,0.1,1.8673674216625982,-0.0016591978313968186,0
14.282872200012207,0.1916861411186735,[0.15606224],0.005,0.1,1.3215886839285576,-0.0015592345175664826,0
14.297871112823486,0.19149074240193684,[0.154805],0.005,0.1,0.5961357179309613,-0.0014989074170750065,0
14.311821460723877,0.1910999449684635,[0.15356658],0.005,0.1,-0.056489914643085226,-0.0014592531928811138,0
14.32588529586792,0.1909045462517268,[0.15234836],0.005,0.1,-0.837026756368674,-0.0014443267844206527,0
14.34429407119751,0.19070914753499016,[0.15114999],0.005,0.1,-1.5004046864367648,-0.0018286617307528247,0
14.353872776031494,0.1905137488182535,[0.14997091],0.005,0.1,-1.982010784000966,-0.0013483282342286933,0
14.373461246490479,0.19031835010151682,[0.14881091],0.005,0.1,-2.013758703875027,-0.002036454730993712,0
14.381874561309814,0.19031835010151682,[0.14766955],0.005,0.1,-2.146493440988971,-0.00128666175715625,0
14.403047323226929,0.18992755266804345,[0.14654606],0.005,0.1,-2.2607684119106315,-0.002334491471381276,0
14.417805671691895,0.18992755266804345,[0.14543653],0.005,0.1,-2.320257872700341,-0.002146290917133249,0
14.428144931793213,0.1897321539513068,[0.14433963],0.005,0.1,-2.046921947526422,-0.0015852119350610364,0
14.444005012512207,0.18953675523457011,[0.14325697],0.005,0.1,-1.9698253701636341,-0.0020917562087497342,0
14.458742618560791,0.18934135651783346,[0.14218699],0.005,0.1,-1.946928308052994,-0.002021330722283289,0
14.475940465927124,0.1891459578010968,[0.14112772],0.005,0.1,-1.9224707919579291,-0.002147563900127315,0
14.48788070678711,0.18895055908436015,[0.1400786],0.005,0.1,-1.879088088234445,-0.0019265281211464323,0
14.500789642333984,0.18875516036762346,[0.1390399],0.005,0.1,-1.815305130743262,-0.0019460121883233426,0
14.515772342681885,0.18875516036762346,[0.13801164],0.005,0.1,-1.7352883918932864,-0.001984678539491045,0
14.527167320251465,0.18855976165088678,[0.13699321],0.005,0.1,-1.6444240951245528,-0.002020810538197446,0
14.540863752365112,0.18855976165088678,[0.13598391],0.005,0.1,-1.5475980119505475,-0.002069244136586679,0
14.555786848068237,0.18816896421741344,[0.134983],0.005,0.1,-1.4486780132136978,-0.0021030264521816095,0
14.565665483474731,0.18816896421741344,[0.13399155],0.005,0.1,-1.3504944372670442,-0.0015029405681104312,0
14.584571361541748,0.18797356550067676,[0.13300961],0.005,0.1,-1.254996935641499,-0.002717456294955874,0
14.596771717071533,0.18797356550067676,[0.13203337],0.005,0.1,-1.1634489120285045,-0.002330664866168782,0
14.616411685943604,0.18777816678394008,[0.13105847],0.005,0.1,-1.0766053578776815,-0.0034820413788602483,0
14.628908634185791,0.18777816678394008,[0.13008105],0.005,0.1,-0.9948576538877998,-0.0029539786484624026,0
14.638745546340942,0.18758276806720342,[0.12910133],0.005,0.1,-0.9183445855611656,-0.002255244642945857,0
14.651833057403564,0.18758276806720342,[0.12812352],0.005,0.1,-0.847034417873423,-0.002057244117234821,0
14.663431406021118,0.1873873693504668,[0.12715007],0.005,0.1,-0.7807841030375922,-0.0022041934335676246,0
14.679373502731323,0.1871919706337301,[0.12618022],0.005,0.1,-0.44334285172375343,-0.002689368294268082,0
14.689796924591064,0.1871919706337301,[0.12521256],0.005,0.1,-0.35341020207162177,-0.0023380474335404316,0
14.698735475540161,0.18699657191699343,[0.12424996],0.005,0.1,-0.6320599628422858,-0.001502611792837301,0
14.717774868011475,0.18680117320025674,[0.12329481],0.005,0.1,-0.692826725989876,-0.002852105718959772,0
14.7320876121521,0.1866057744835201,[0.1223432],0.005,0.1,-0.6635755581929149,-0.002890179873330069,0
14.744868040084839,0.1866057744835201,[0.12139182],0.005,0.1,-0.602933431814917,-0.002814976345547682,0
14.758838415145874,0.1864103757667834,[0.12044054],0.005,0.1,-0.5364702196038649,-0.0028182692625881604,0
14.770812749862671,0.18621497705004675,[0.1194893],0.005,0.1,-0.4743229854394237,-0.0028287351646588844,0
14.784773349761963,0.18621497705004675,[0.11853795],0.005,0.1,-0.41968159487196266,-0.0028528389966156298,0
14.798819780349731,0.18621497705004675,[0.1175864],0.005,0.1,-0.09676441133339968,-0.002886370472153414,0
14.812219619750977,0.18621497705004675,[0.11663453],0.005,0.1,0.25234448560553036,-0.0029810483175400186,0
14.824781656265259,0.18601957833331006,[0.11568226],0.005,0.1,0.2644899303350327,-0.002927711526898389,0
14.847406148910522,0.18601957833331006,[0.11472695],0.005,0.1,0.16265162979047737,-0.004641957899154874,0
14.860291957855225,0.18601957833331006,[0.11376402],0.005,0.1,0.04150802081365142,-0.0038587177886937434,0
14.867767572402954,0.18582417961657338,[0.11279551],0.005,0.1,-0.0633327080225301,-0.0023537732544436224,0
14.889143228530884,0.18562878089983675,[0.11182539],0.005,0.1,-0.41828253815696065,-0.004025910372614061,0
14.897986650466919,0.18562878089983675,[0.11085328],0.005,0.1,-0.5052692810473218,-0.0027190147421476516,0
14.913134098052979,0.18543338218310007,[0.10988055],0.005,0.1,-0.48338119732335605,-0.0031401870019881904,0
14.925901889801025,0.18523798346636342,[0.10890867],0.005,0.1,-0.7008319406479311,-0.0030987203802150236,0
14.934773683547974,0.18523798346636342,[0.10793963],0.005,0.1,-0.6695858020840106,-0.0021871643055889935,0
14.949557065963745,0.1850425847496267,[0.10697722],0.005,0.1,-0.5561610042541315,-0.002626493471510377,0
14.969160318374634,0.1850425847496267,[0.10602047],0.005,0.1,-0.15511309799855894,-0.0037706467535178947,0
14.980651617050171,0.1850425847496267,[0.10506643],0.005,0.1,-0.011826655521171167,-0.002950110864819569,0
14.989738941192627,0.18484718603289005,[0.10411807],0.005,0.1,0.021378091415190918,-0.002057845448780811,0
15.003747701644897,0.18465178731615337,[0.10318091],0.005,0.1,0.012571093372452342,-0.002184984389077111,0
15.021745681762695,0.18465178731615337,[0.10225567],0.005,0.1,-0.008241210045906897,-0.0029792812969123813,0
15.037127494812012,0.18465178731615337,[0.10133914],0.005,0.1,-0.02886598962517502,-0.0032054163028168584,0
15.051747798919678,0.18465178731615337,[0.10042961],0.005,0.1,0.2308730731459866,-0.002881817131740963,0
15.065828323364258,0.1844563885994167,[0.09952827],0.005,0.1,0.25273003467103383,-0.0026227509628165982,0
15.079834699630737,0.18426098988268005,[0.09863724],0.005,0.1,0.19080337648902107,-0.0024181304978199,0
15.092837572097778,0.18426098988268005,[0.09775852],0.005,0.1,0.11137481729804874,-0.0022591509030637936,0
15.1067533493042,0.18406559116594334,[0.09689399],0.005,0.1,-0.23597278525778131,-0.0021126634229824957,0
15.11975646018982,0.18387019244920672,[0.09604537],0.005,0.1,-0.3247242421897132,-0.001990197152951988,0
15.128432273864746,0.18406559116594334,[0.09521572],0.005,0.1,-0.30944827250740714,-0.0014058858583695,0
15.148847818374634,0.18387019244920672,[0.09440769],0.005,0.1,-0.2598645264248649,-0.0019723228181125416,0
15.163888454437256,0.18387019244920672,[0.09362046],0.005,0.1,0.07050214589865056,-0.0018993457851629978,0
15.175859212875366,0.18387019244920672,[0.09285334],0.005,0.1,0.1516268673008253,-0.001751703600912987,0
15.190815925598145,0.18387019244920672,[0.09210738],0.005,0.1,0.4113008207109869,-0.0016860044584727206,0
15.213820219039917,0.18387019244920672,[0.09138212],0.005,0.1,0.3981556061525763,-0.0021213759805077128,0
15.227811574935913,0.18387019244920672,[0.09067565],0.005,0.1,0.2948823430005525,-0.001902657917570964,0
15.240781307220459,0.18387019244920672,[0.08998768],0.005,0.1,0.1786711800842634,-0.0017535993463217434,0
15.254809379577637,0.18387019244920672,[0.08931923],0.005,0.1,0.07823008023696454,-0.0016537656690835635,0
15.269815683364868,0.18387019244920672,[0.08867101],0.005,0.1,0.0010119887060233354,-0.0015858008578461973,0
15.283778190612793,0.18367479373247003,[0.08804351],0.005,0.1,-0.05406900062064331,-0.001531938950669219,0
15.29387378692627,0.18367479373247003,[0.08743715],0.005,0.1,-0.09090762705801997,-0.0014405482623280888,0
15.309837579727173,0.18387019244920672,[0.08685216],0.005,0.1,-0.11378198209724692,-0.0014964443948442747,0
15.32474684715271,0.18367479373247003,[0.08628815],0.005,0.1,-0.12644833050364965,-0.0014652520194532459,0
15.343862056732178,0.18387019244920672,[0.08574397],0.005,0.1,-0.13190371461102285,-0.001632550922828234,0
15.355589151382446,0.18367479373247003,[0.08521841],0.005,0.1,-0.13241780065837488,-0.0014735858075002833,0
15.367045640945435,0.18387019244920672,[0.08471157],0.005,0.1,-0.12965409877350326,-0.0013682703215104034,0
15.379833221435547,0.18367479373247003,[0.08422418],0.005,0.1,-0.12480420334729919,-0.0013535087451434452,0
15.396988868713379,0.18367479373247003,[0.08375595],0.005,0.1,-0.11870638329159704,-0.001404326480371823,0
15.416029453277588,0.18387019244920672,[0.0833054],0.005,0.1,-0.1119408407162808,-0.0015235009047095736,0
15.425811052322388,0.18367479373247003,[0.08287128],0.005,0.1,-0.10490245449036345,-0.0013546496069557496,0
15.443564176559448,0.18367479373247003,[0.08245324],0.005,0.1,-0.0978546765379926,-0.0014406107212850462,0
15.459785223007202,0.18387019244920672,[0.08205058],0.005,0.1,-0.09096869614219824,-0.0014015393096762812,0
15.473732948303223,0.18367479373247003,[0.08166267],0.005,0.1,-0.08435152648111607,-0.0013637558497734772,0
15.486825466156006,0.18387019244920672,[0.08128934],0.005,0.1,-0.07806595779444342,-0.0013499997476744017,0
15.5017831325531,0.18367479373247003,[0.08093035],0.005,0.1,-0.07214463117846517,-0.0013305953215201971,0
15.51386570930481,0.18367479373247003,[0.08058535],0.005,0.1,-0.06659990699214471,-0.0013228118242865454,0
15.528448343276978,0.18367479373247003,[0.08025387],0.005,0.1,-0.06143074749966929,-0.0013313413999355747,0
15.539788961410522,0.18387019244920672,[0.07993538],0.005,0.1,-0.056627491172186156,-0.0013198069837980126,0
15.552323818206787,0.18367479373247003,[0.0796295],0.005,0.1,-0.05217514447198621,-0.0013099848694549845,0
15.566792488098145,0.18367479373247003,[0.07933579],0.005,0.1,-0.04805563481114557,-0.0013158422529285657,0
15.579783916473389,0.18367479373247003,[0.07905364],0.005,0.1,-0.04424933789480466,-0.0013166404453002808,0
15.594777822494507,0.18367479373247003,[0.07878249],0.005,0.1,-0.04073609984155972,-0.0013172374391022077,0
15.612221956253052,0.18367479373247003,[0.07852157],0.005,0.1,-0.03749590877424952,-0.0013495795035836998,0
15.621776819229126,0.18367479373247003,[0.07827018],0.005,0.1,-0.03450932423390826,-0.0013087233717733269,0
15.637613773345947,0.18387019244920672,[0.07802806],0.005,0.1,-0.031757740167108924,-0.001324969175074417,0
15.649782419204712,0.18387019244920672,[0.07779495],0.005,0.1,-0.029223534343476687,-0.0013154358559429185,0
15.670721292495728,0.18367479373247003,[0.0775701],0.005,0.1,-0.026890141008512582,-0.0013639136959530762,0
15.685581684112549,0.18367479373247003,[0.07735248],0.005,0.1,-0.024742072336440716,-0.0013503082999426156,0
15.701778888702393,0.18387019244920672,[0.07714152],0.005,0.1,-0.022764906385476503,-0.0013375647994344994,0
15.715783596038818,0.18367479373247003,[0.07693724],0.005,0.1,-0.020945253764766435,-0.0013173278710482043,0
15.732946634292603,0.18387019244920672,[0.07673965],0.005,0.1,-0.019270711389155898,-0.0013274552153073737,0
15.74278211593628,0.18367479373247003,[0.07654875],0.005,0.1,-0.017729809027163583,-0.001298412298765537,0
15.756791114807129,0.18387019244920672,[0.0763648],0.005,0.1,-0.016311952490008875,-0.0013018996332131915,0
15.770780324935913,0.18387019244920672,[0.07618801],0.005,0.1,-0.015007366020631189,-0.0013001252079874583,0
15.793025970458984,0.18387019244920672,[0.07601818],0.005,0.1,-0.013807035550011885,-0.0013215511674592511,0
15.80784559249878,0.18367479373247003,[0.07585489],0.005,0.1,-0.01270265387381029,-0.0013064216848261154,0
15.821789503097534,0.18367479373247003,[0.07569802],0.005,0.1,-0.01168656838140377,-0.001302569425922548,0
15.836782932281494,0.18387019244920672,[0.07554765],0.005,0.1,-0.010751731683159682,-0.0013089382666768188,0
15.850782632827759,0.18387019244920672,[0.07540377],0.005,0.1,-0.009891655289104347,-0.0013108765348969497,0
15.86279010772705,0.18367479373247003,[0.07526623],0.005,0.1,-0.009100366364399065,-0.0013077031428922197,0
15.877724409103394,0.18387019244920672,[0.07513479],0.005,0.1,-0.008372367504145687,-0.001319895550540921,0
15.889383316040039,0.18387019244920672,[0.07500906],0.005,0.1,-0.007702599418044246,-0.001326901299167991,0
15.902785062789917,0.18367479373247003,[0.07488855],0.005,0.1,-0.007086406384562458,-0.001328551607112668,0
15.914881706237793,0.18387019244920672,[0.07477262],0.005,0.1,-0.006519504317770984,-0.0013459417937261107,0
15.93061351776123,0.18387019244920672,[0.07466053],0.005,0.1,-0.005997951283130918,-0.0013586440644003503,0
15.95415472984314,0.18387019244920672,[0.07455091],0.005,0.1,-0.00551812029802766,-0.0014357998102273051,0
15.961776494979858,0.18387019244920672,[0.07444237],0.005,0.1,-0.0050766742564685285,-0.001440563881560802,0
15.982794046401978,0.18387019244920672,[0.07433394],0.005,0.1,-0.004670542823549225,-0.001552044733711113,0
15.997740030288696,0.18367479373247003,[0.0742239],0.005,0.1,-0.0042969011529840236,-0.001538402978961183,0
16.013502597808838,0.18367479373247003,[0.07411064],0.005,0.1,-0.003953150289468429,-0.0015390161568576632,0
16.0347797870636,0.18367479373247003,[0.07399248],0.005,0.1,-0.0036368991264171427,-0.0017130777544245182,0
16.04791498184204,0.18367479373247003,[0.07386718],0.005,0.1,-0.0033459477983780947,-0.001674500178118123,0
16.055763959884644,0.18367479373247003,[0.07373418],0.005,0.1,-0.0030782723959598773,-0.0015425549081662803,0
16.077765226364136,0.18387019244920672,[0.07359329],0.005,0.1,-0.002832010899299515,-0.001807313332807795,0
16.08708667755127,0.18367479373247003,[0.07344318],0.005,0.1,-0.002605450233867046,-0.0016660843360340575,0
16.09676456451416,0.18367479373247003,[0.07328379],0.005,0.1,-0.002397014359715733,-0.0016228404885749886,0
16.109771251678467,0.18367479373247003,[0.07311605],0.005,0.1,-0.002205253312129109,-0.0016345582711148035,0
16.122687816619873,0.18387019244920672,[0.07294013],0.005,0.1,-0.002028833117992221,-0.0016850734297257153,0
16.139610528945923,0.18387019244920672,[0.07275536],0.005,0.1,-0.0018665265181362551,-0.001824816342382575,0
16.158045768737793,0.18387019244920672,[0.07256021],0.005,0.1,-0.0017172044313937408,-0.001964302633344859,0
16.171886920928955,0.18387019244920672,[0.07235349],0.005,0.1,-0.0015798281011781112,-0.001907460699722855,0
16.18575358390808,0.18387019244920672,[0.07213537],0.005,0.1,-0.0014534418700909721,-0.0018648976592085076,0
16.20074152946472,0.18387019244920672,[0.07190681],0.005,0.1,-0.0013371665323886704,-0.0018325950155991823,0
16.214748859405518,0.18387019244920672,[0.07166886],0.005,0.1,-0.0012301932181310608,-0.001806930424233856,0
16.227701902389526,0.18387019244920672,[0.07142263],0.005,0.1,-0.0011317777665140142,-0.0017858212144144243,0
16.242746114730835,0.18387019244920672,[0.07116931],0.005,0.1,-0.0010412355492763002,-0.0017681288570533529,0
16.26065969467163,0.18387019244920672,[0.07090987],0.005,0.1,-0.0009579367081925821,-0.0018031712552557672,0
16.27318525314331,0.18387019244920672,[0.07064531],0.005,0.1,-0.0008813017735380457,-0.0017388428434506875,0
16.2857449054718,0.18387019244920672,[0.07037707],0.005,0.1,-0.0008107976330556121,-0.0017186969095422965,0
16.306030750274658,0.18387019244920672,[0.07010594],0.005,0.1,-0.0007459338233915887,-0.0018615395583407137,0
16.320815563201904,0.18367479373247003,[0.06983186],0.005,0.1,-0.0006862591182065597,-0.0017994595737809177,0
16.330225944519043,0.18387019244920672,[0.06955599],0.005,0.1,-0.0006313583892304439,-0.0016874766624844168,0
16.347103357315063,0.18387019244920672,[0.06928004],0.005,0.1,-0.000580849718428294,-0.0017792219697123138,0
16.355848789215088,0.18387019244920672,[0.06900495],0.005,0.1,-0.0005343817411894307,-0.0016975672646953558,0
16.36575698852539,0.18367479373247003,[0.06873216],0.005,0.1,-0.0004916312020590565,-0.0016558715945554595,0
16.38393259048462,0.18367479373247003,[0.06846279],0.005,0.1,-0.0004523007060096789,-0.0017503577486427553,0
16.39495587348938,0.18387019244920672,[0.06819697],0.005,0.1,-0.0004161166496096471,-0.0017146882144899345,0
16.407029628753662,0.18387019244920672,[0.06793518],0.005,0.1,-0.0003828273176973948,-0.001724143449991553,0
16.420291900634766,0.18387019244920672,[0.06767802],0.005,0.1,-0.0003522011323211664,-0.001731679979586746,0
16.44052004814148,0.18387019244920672,[0.06742505],0.005,0.1,-0.0003240250417631677,-0.0018730678641252288,0
16.452839136123657,0.18387019244920672,[0.06717522],0.005,0.1,-0.00029810303844149974,-0.001825023761916482,0
16.46120524406433,0.18387019244920672,[0.06692864],0.005,0.1,-0.00027425479537975,-0.001763275680827533,0
16.477526426315308,0.18387019244920672,[0.06668589],0.005,0.1,-0.00025231441175886996,-0.0018438497099256624,0
16.489222764968872,0.18387019244920672,[0.06644675],0.005,0.1,-0.00023212925882480965,-0.0018071412735732387,0
16.50251078605652,0.18387019244920672,[0.06621121],0.005,0.1,-0.00021355891812347946,-0.0018186007899162694,0
16.516335487365723,0.18387019244920672,[0.06597925],0.005,0.1,-0.00019647420467685937,-0.001850715636195257,0
16.52909779548645,0.18387019244920672,[0.06575048],0.005,0.1,-0.00018075626830499163,-0.0018578485999135863,0
16.543718099594116,0.18387019244920672,[0.06552457],0.005,0.1,-0.00016629576684218866,-0.0018764438764682213,0
16.561583757400513,0.18387019244920672,[0.06530051],0.005,0.1,-0.0001529921054959315,-0.002037430936155786,0
16.575778245925903,0.18387019244920672,[0.06507656],0.005,0.1,-0.0001407527370570393,-0.002039543839256515,0
16.591434240341187,0.18387019244920672,[0.06485176],0.005,0.1,-0.00012949251809302368,-0.0020157804154170822,0
16.60671353340149,0.18387019244920672,[0.06462607],0.005,0.1,-0.00011913311664596494,-0.0020011018251499374,0
16.62948513031006,0.18387019244920672,[0.06439892],0.005,0.1,-0.0001096024673145561,-0.002164668362471089,0
16.645719528198242,0.18387019244920672,[0.06416918],0.005,0.1,-0.00010083426992957953,-0.002097718170978886,0
16.65851092338562,0.18387019244920672,[0.06393687],0.005,0.1,-9.276752833534465e-05,-0.0020246031827510147,0
16.673726558685303,0.18387019244920672,[0.06370282],0.005,0.1,-8.534612606860904e-05,-0.0020290803626087004,0
16.688733339309692,0.18367479373247003,[0.06346762],0.005,0.1,-7.851843598318477e-05,-0.0019961812296977986,0
16.70362663269043,0.18387019244920672,[0.06323175],0.005,0.1,-7.223696110457496e-05,-0.0020085207722636152,0
16.71672534942627,0.18387019244920672,[0.06299586],0.005,0.1,-6.645800421624054e-05,-0.0019680738683758624,0
16.728728532791138,0.18387019244920672,[0.06276084],0.005,0.1,-6.114136387896348e-05,-0.001959060913974946,0
16.73975133895874,0.18387019244920672,[0.06252754],0.005,0.1,-5.625005476866189e-05,-0.0019515797605430935,0
16.755171060562134,0.18387019244920672,[0.06229668],0.005,0.1,-5.175005038717975e-05,-0.0019424070952979021,0
16.778529405593872,0.18387019244920672,[0.06206857],0.005,0.1,-4.761004635621294e-05,-0.0020084451203966147,0
16.793720722198486,0.18387019244920672,[0.06184312],0.005,0.1,-4.3801242647721194e-05,-0.0019745123174955788,0
16.80971598625183,0.18387019244920672,[0.06162082],0.005,0.1,-4.029714323590718e-05,-0.0019518369374576547,0
16.82371425628662,0.18387019244920672,[0.06140266],0.005,0.1,-3.7073371777037225e-05,-0.001937132691370696,0
16.84681510925293,0.18387019244920672,[0.06118926],0.005,0.1,-3.4107502034876104e-05,-0.001960458332815899,0
16.86068058013916,0.18387019244920672,[0.06098098],0.005,0.1,-3.137890187208735e-05,-0.0019386390440372435,0
16.87665295600891,0.18387019244920672,[0.06077852],0.005,0.1,-2.8868589722321217e-05,-0.0019255201608679598,0
16.889413595199585,0.18387019244920672,[0.06058282],0.005,0.1,-2.655910254453615e-05,-0.0019168164008090951,0
16.9114248752594,0.18387019244920672,[0.06039464],0.005,0.1,-2.443437434097371e-05,-0.0019212947293408174,0
16.919710397720337,0.18387019244920672,[0.06021462],0.005,0.1,-2.247962439369615e-05,-0.0019123494448697934,0
16.940102577209473,0.18387019244920672,[0.06004349],0.005,0.1,-2.0681254442200644e-05,-0.0019146776474602072,0
16.950652360916138,0.18387019244920672,[0.05988191],0.005,0.1,-1.902675408682477e-05,-0.0019155801141341451,0
