t_s,q_rad,q_des_rad,K,B,Kff,jerk,tau_Nm,reward
0.0050776004791259766,0.0,[-9.50394487e-06],9.825212432529046,0.9790254919034855,1.9737818648793566,0.0,-9.998999999999999,1.4999999819350065
0.0173952579498291,0.0,[-4.5929629e-05],9.650424865058092,0.9580509838069711,1.9475637297587132,0.0,-10.098989999999999,1.4999995780939257
0.0265500545501709,0.0,[-0.00011415],9.475637297587138,0.9370764757104565,1.92134559463807,0.0,-10.028404814912307,1.499997393793134
0.034300804138183594,0.00019539871673667023,[-0.00020838],9.300849730116184,0.9161019676139419,1.8951274595174268,0.0,-6.957236106259905,1.4999673924462307
0.04654240608215332,0.0,[-0.00032339],9.12606216264523,0.8951274595174274,1.8689093243967834,0.0,-4.803076086441333,1.4999790845638556
0.05995321273803711,0.0,[-0.00045446],8.951274595174274,0.8741529514209129,1.84269118927614,0.0,-0.11011241272763694,1.499958693561344
0.06830883026123047,0.0,[-0.00059744],8.77648702770332,0.8531784433243983,1.8164730541554968,0.0,2.166546287419667,1.4999286165631056
0.08023214340209961,0.00019539871673667023,[-0.00074862],8.601699460232366,0.8322039352278838,1.7902549190348536,0.0,3.039335781273249,1.499821782675733
0.08937454223632812,0.0013677910171566918,[-0.00090478],8.426911892761412,0.8112294271313693,1.7640367839142101,0.276038359678681,3.1512070879035714,1.498910898872969
0.09929513931274414,0.0042987717682067455,[-0.00106313],8.252124325290458,0.7902549190348547,1.7378186487935667,1.9653931209122082,2.8775192544725257,1.4913992962274756
0.11138248443603516,0.00840214481967682,[-0.00122129],8.077336757819502,0.7692804109383402,1.7116005136729235,5.0,2.440123285147467,1.463380445812986
0.12131786346435547,0.012114720437673556,[-0.00137723],7.902549190348549,0.7483059028418256,1.6853823785522803,5.0,1.9723705464602497,1.4459802830385895
0.13081598281860352,0.01582729605567029,[-0.00152927],7.727761622877595,0.727331394745311,1.659164243431637,5.0,1.531052195094968,1.423261117810463
0.14044618606567383,0.019735270390403698,[-0.00167605],7.55297405540664,0.7063568866487966,1.6329461083109935,5.0,1.1399462623658787,1.3941210014812253
0.15334630012512207,0.02442483959208378,[-0.00181647],7.378186487935686,0.685382378552282,1.6067279731903503,5.0,0.8035772741564501,1.3530735508505598
0.16132330894470215,0.027355820343133833,[-0.00194971],7.203398920464732,0.6644078704557674,1.5805098380697071,5.0,0.5400191108457317,1.3239109574099268
0.17539215087890625,0.0328269844117606,[-0.00207514],7.028611352993777,0.643433362359253,1.5542917029490637,5.0,0.3111923843602554,1.2655083575740864
0.18628644943237305,0.03751655361344069,[-0.00219234],6.853823785522822,0.6224588542627384,1.5280735678284203,5.0,0.13401489667152627,1.2112588086635352
0.19834661483764648,0.04220612281512077,[-0.00230107],6.679036218051868,0.6014843461662238,1.501855432707777,4.904603373382985,-0.005603866073586149,1.1552971263256322
0.2092907428741455,0.046309495866590854,[-0.00240122],6.504248650580913,0.6,1.475637297587134,2.261875041816773,-0.11253094450985766,1.118373069758408
0.22049808502197266,0.050217470201324256,[-0.00249282],6.329461083109958,0.6,1.4494191624664907,-0.7261182162472908,-0.19486585806588005,1.073292617373017
0.23241877555847168,0.05412544453605766,[-0.002576],6.154673515639004,0.6,1.4232010273458477,-3.8009313623738747,-0.2586710951568835,1.0150676356064408
0.2448563575744629,0.05725182400384438,[-0.00265099],5.97988594816805,0.6,1.3969828922252046,-5.0,-0.30323187779872224,0.9696200082492752
0.25243091583251953,0.05920581117121108,[-0.00271808],5.805098380697095,0.6,1.3707647571045614,-5.0,-0.3299014815111436,0.9461763216880086
0.2614569664001465,0.060769000905104446,[-0.00277762],5.63031081322614,0.6,1.3445466219839184,-5.0,-0.3459183499658532,0.9276436288239367
0.2698493003845215,0.06194139320552447,[-0.00283],5.455523245755186,0.6,1.3183284868632752,-5.0,-0.35364906574021865,0.9138456739224474
0.2792792320251465,0.06291838678920783,[-0.00287565],5.280735678284231,0.6,1.292110351742632,-5.0,-0.3548226784888274,0.9024590504640423
0.28966593742370605,0.06389538037289116,[-0.00291502],5.105948110813277,0.6,1.2658922166219888,-5.0,-0.35283389953360184,0.8912699130643248
0.29732513427734375,0.06409077908962785,[-0.00294857],5.0,0.6,1.2396740815013456,-5.0,-0.34866823945896613,0.8887676122817956
0.306718111038208,0.06409077908962785,[-0.00297675],5.0,0.6,1.2134559463807026,-5.0,-0.34910746553735195,0.8884600176308559
0.3148012161254883,0.06389538037289116,[-0.00300004],5.0,0.6,1.1872378112600595,-5.0,-0.347398543677645,0.8903398803812411
0.32642245292663574,0.06330918422268116,[-0.00301889],5.0,0.6,1.1610196761394163,-5.0,-0.34201331337821944,0.8965636749644981
0.3385894298553467,0.06213679192226114,[-0.00303373],5.0,0.6,1.1348015410187733,-5.0,-0.33298809555553677,0.9093866587711227
0.348569393157959,0.060964399621841116,[-0.003045],5.0,0.6,1.10858340589813,-5.0,-0.3237849928964534,0.9224101327303644
0.357372522354126,0.0597920073214211,[-0.0030531],5.0,0.6,1.082365270777487,-5.0,-0.31475530275950014,0.9356215598553068
0.3664214611053467,0.05822881758752774,[-0.00305841],5.0,0.6,1.0561471356568437,-5.0,-0.30381131707147735,0.953520342385518
0.37633657455444336,0.05627483042016103,[-0.0030613],5.0,0.6,1.0299290005362005,-5.0,-0.2910437115538007,0.9762581569746489
0.38577914237976074,0.054320843252794335,[-0.00306211],5.0,0.6,1.0037108654155575,-5.0,-0.2786282546491796,0.9993279086283664
0.3962850570678711,0.05197605865195429,[-0.00306113],5.0,0.6,0.9774927302949143,-5.0,-0.26392848749483055,1.0273597305979383
0.4050254821777344,0.0498266727678509,[-0.00305867],5.0,0.6,0.9512745951742712,-5.0,-0.2504898882316132,1.0533000335639358
0.41630101203918457,0.04709109073353753,[-0.00305498],5.0,0.6,0.9250564600536281,-5.0,-0.23396539024550783,1.0864908181400943
0.4259459972381592,0.044550907415960815,[-0.0030503],5.0,0.6,0.898838324932985,-4.010322470490067,-0.21895224835785362,1.1237771518914657
0.43601274490356445,0.0420107240983841,[-0.00304484],5.0,0.6,0.8726201898123418,-2.92239232423449,-0.2040639538024701,1.1599924234088657
0.4446067810058594,0.03966593949754405,[-0.0030388],5.0,0.6,0.8464020546916986,-1.9744628552845584,-0.19019410957943447,1.1914842677745192
0.454592227935791,0.036734958746494004,[-0.00303234],5.0,0.6,0.8201839195710555,-0.6759499299067632,-0.17379600985706026,1.2285098098871265
0.4662761688232422,0.03302238312849727,[-0.00302561],5.0,0.6,0.7939657844504124,0.22080645209923017,-0.15351233225753516,1.2710989237032542
0.47590184211730957,0.03028680109418389,[-0.00301874],5.0,0.6,0.7677476493297692,1.3672405564905337,-0.1383704452673151,1.2996444623372847
0.483349084854126,0.027942016493343845,[-0.00301184],5.0,0.6,0.741529514209126,2.3598415209776564,-0.1253859530849297,1.3214854261926274
0.49485349655151367,0.024815637025557124,[-0.003005],5.0,0.6,0.715311379088483,3.3620342925900433,-0.10881044433246613,1.3482447645437148
0.5033066272735596,0.02247085242471708,[-0.00299831],5.0,0.6,0.6890932439678399,4.136554587979352,-0.09619616759933838,1.3657509552892744
0.5122895240783691,0.019930669107140364,[-0.00299183],5.0,0.6,0.6628751088471967,4.917005194523751,-0.08288956145458075,1.3825678839075939
0.5207993984222412,0.017195087072826982,[-0.0029856],5.0,0.6,0.6366569737265535,5.0,-0.06872700248824073,1.403508991921754
0.5312707424163818,0.014654903755250269,[-0.00297967],5.0,0.6,0.6104388386059104,5.0,-0.055753696016692084,1.4214310608769847
0.540341854095459,0.012114720437673556,[-0.00297408],5.0,0.6,0.5842207034852673,5.0,-0.0429083656729276,1.4372188192639788
0.5534989833831787,0.00840214481967682,[-0.00296884],5.0,0.6,0.5580025683646241,5.0,-0.024319867637785677,1.4562037229421079
0.5622799396514893,0.0062527589355734475,[-0.00296396],5.0,0.6,0.531784433243981,5.0,-0.013612862219958298,1.4648859951941646
0.5723683834075928,0.003907974334733405,[-0.00295945],5.0,0.6,0.5055662981233379,5.0,-0.0021189200656405996,1.47234409466631
0.584306001663208,0.0011723923004200215,[-0.00295532],5.0,0.6,0.4793481630026947,5.0,0.010924102512091452,1.4783302577377428
0.5964305400848389,-0.0015631897338933619,[-0.00295156],5.0,0.6,0.4531300278820516,5.0,0.023785110066906832,1.481346622991194
0.6059682369232178,-0.0035171769012600643,[-0.00294816],5.0,0.6,0.42691189276140845,5.0,0.03267578787220097,1.4816673073258508
0.6143929958343506,-0.004884967918416756,[-0.0029451],5.0,0.6,0.4006937576407653,5.0,0.03840365687776075,1.4809797305215655
0.6233081817626953,-0.0062527589355734475,[-0.00294239],5.0,0.6,0.3744756225201221,5.0,0.04364679467175679,1.4795427480531989
0.6363201141357422,-0.00820674610294015,[-0.00293999],5.0,0.6,0.3482574873994789,5.0,0.05155946060446014,1.4761996708516414
0.6453351974487305,-0.009379138403360172,[-0.00293789],5.0,0.6,0.3220393522788358,5.0,0.05568638181502089,1.4734684519458559
0.6561295986175537,-0.010551530703780192,[-0.00293607],5.0,0.6,0.2958212171581926,5.0,0.059461428428953626,1.4702000218381515
0.6665687561035156,-0.011137726853990204,[-0.00293451],5.0,0.6,0.2696030820375494,5.0,0.06051527760044337,1.4683636797497335
0.6786036491394043,-0.012310119154410226,[-0.0029332],5.0,0.6,0.24338494691690624,5.0,0.06419343813177943,1.4643004500999335
0.6892659664154053,-0.012896315304620235,[-0.0029321],5.0,0.6,0.21716681179626307,5.0,0.06521219798856037,1.4620708113766219
0.6972765922546387,-0.013091714021356905,[-0.00293121],5.0,0.6,0.19094867667561988,5.0,0.06437748216159746,1.4612965864975618
0.7088096141815186,-0.013482511454830247,[-0.0029305],5.0,0.6,0.16473054155497668,5.0,0.0645448369672156,1.4597091886978286
0.7206573486328125,-0.013873308888303588,[-0.00292995],5.0,0.6,0.13851240643433352,5.0,0.06474854715217035,1.458065196448501
0.728844165802002,-0.013873308888303588,[-0.00292954],5.0,0.6,0.11229427131369034,5.0,0.06320182604161925,1.4580634688574357
0.7402620315551758,-0.014068707605040257,[-0.00292927],5.0,0.6,0.08607613619304716,4.651888444016475,0.06269637693765726,1.4596358535305265
0.7506253719329834,-0.013873308888303588,[-0.0029291],5.0,0.6,0.05985800107240398,4.422546267544165,0.060141634745515614,1.4619797933698333
0.7602760791778564,-0.013873308888303588,[-0.00292903],5.0,0.6,0.0336398659517608,3.393837210557619,0.0589831888281863,1.467828220113031
0.7693507671356201,-0.013873308888303588,[-0.00292905],5.0,0.6,0.0074217308311176206,2.53849905202493,0.05789252050090343,1.4715553220494264
0.7801666259765625,-0.013873308888303588,[-0.00292913],5.0,0.6,0.0,1.8710385842913104,0.05682929710549109,1.4737304348615967
0.7910060882568359,-0.013677910171566917,[-0.00292927],5.0,0.6,0.0,1.0924013991741883,0.05498319316499948,1.4762707395022925
0.7997281551361084,-0.013482511454830247,[-0.00292946],5.0,0.6,0.0,0.13675919976306827,0.053392003748370984,1.4779589241285758
0.8073041439056396,-0.013482511454830247,[-0.00292969],5.0,0.6,0.0,-0.9719860664384525,0.05307268918718781,1.477270994021804
0.8201627731323242,-0.013287112738093578,[-0.00292994],5.0,0.6,0.0,-1.355628367413567,0.05160827392290705,1.477408166025751
0.8293137550354004,-0.013091714021356905,[-0.00293022],5.0,0.6,0.0,-1.9687046553489034,0.05037867453838225,1.476683728548597
0.8391690254211426,-0.012896315304620235,[-0.0029305],5.0,0.6,0.0,-2.2395113768348445,0.04910373987125349,1.4766129330268165
0.8472917079925537,-0.012700916587883566,[-0.0029308],5.0,0.6,0.0,-2.3217798843197404,0.04780450450461236,1.4770933005419233
0.8572561740875244,-0.012700916587883566,[-0.0029311],5.0,0.6,0.0,-2.5758850715410118,0.04763112987808525,1.4761762856012501
0.8679330348968506,-0.012505517871146895,[-0.0029314],5.0,0.6,0.0,-2.8061310632068706,0.046581244250614,1.4760068214052948
0.8757970333099365,-0.012310119154410226,[-0.0029317],5.0,0.6,0.0,-2.6752357230502053,0.045391543176956664,1.4772635457054544
0.8863494396209717,-0.011919321720936885,[-0.00293198],5.0,0.6,0.0,-2.6968585196785293,0.0433385212188126,1.4785904754910764
0.89803147315979,-0.011723923004200214,[-0.00293226],5.0,0.6,0.0,-2.7311215227560965,0.04229677220509586,1.4791384103864913
0.9092419147491455,-0.011528524287463544,[-0.00293252],5.0,0.6,0.0,-2.4541328837738297,0.04112071404071636,1.4808670960405401
0.9193630218505859,-0.011528524287463544,[-0.00293277],5.0,0.6,0.0,-2.376137822528321,0.04100916237557519,1.4811459586264484
0.9272646903991699,-0.011333125570726873,[-0.002933],5.0,0.6,0.0,-2.348524101080356,0.03999038490548014,1.4818977278297165
0.9372560977935791,-0.011137726853990204,[-0.00293322],5.0,0.6,0.0,-2.314197488909347,0.03898725225961319,1.4826566478996703
0.9488787651062012,-0.010942328137253534,[-0.00293343],5.0,0.6,0.0,-2.256461012371102,0.037996675519279835,1.48347755765743
0.9610090255737305,-0.010551530703780192,[-0.00293361],5.0,0.6,0.0,-2.175078957900417,0.03604524099333988,1.4849511960305968
0.9692697525024414,-0.010356131987043523,[-0.00293378],5.0,0.6,0.0,-2.07544467019011,0.035054581449018435,1.4858459980866785
0.97763991355896,-0.010160733270306851,[-0.00293394],5.0,0.6,0.0,-1.9639583419993265,0.03407514816651469,1.4867460196644002
0.990429162979126,-0.009965334553570182,[-0.00293407],5.0,0.6,0.0,-1.8462705590260828,0.033096673441315526,1.487629978017507
0.9986658096313477,-0.009965334553570182,[-0.0029342],5.0,0.6,0.0,-1.7267913396694905,0.03308589037248234,1.4879466044420762
1.0083370208740234,-0.009574537120096843,[-0.00293431],5.0,0.6,0.0,-1.6087148333991794,0.031150599463678985,1.489297466515606
1.0212464332580566,-0.009379138403360172,[-0.0029344],5.0,0.6,0.0,-1.4942199589332206,0.030163449642600298,1.490068229580763
1.030268907546997,-0.009183739686623501,[-0.00293449],5.0,0.6,0.0,-1.3847017565495956,0.029185891577341222,1.4907945178945194
1.0422537326812744,-0.009183739686623501,[-0.00293456],5.0,0.6,0.0,-1.5570164396294568,0.02934653386498117,1.4904185766859053
1.050281047821045,-0.00879294225315016,[-0.00293462],5.0,0.6,0.0,-1.4926189650891528,0.02749877718555957,1.491503808517831
1.058281421661377,-0.00879294225315016,[-0.00293467],5.0,0.6,0.0,-1.3463242683767431,0.027522739449687986,1.4918121655397625
1.0662727355957031,-0.008597543536413491,[-0.00293472],5.0,0.6,0.0,-1.1852987672797528,0.02657689340482264,1.4925622578374826
1.0801787376403809,-0.008597543536413491,[-0.00293475],5.0,0.6,0.0,-1.0359012071719982,0.02657794025336754,1.492808902279934
1.0932598114013672,-0.00840214481967682,[-0.00293478],5.0,0.6,0.0,-0.906202565997188,0.02561593230864385,1.493428479804741
1.1022958755493164,-0.00820674610294015,[-0.0029348],5.0,0.6,0.0,-0.7966152877500324,0.024641658144413905,1.4939845582661613
1.1123442649841309,-0.00820674610294015,[-0.00293481],5.0,0.6,0.0,-0.9808044274582219,0.024803978441505795,1.4937411744375724
1.1263949871063232,-0.008011347386203481,[-0.00293482],5.0,0.6,0.0,-0.9367856243952959,0.02392439993860698,1.4942061967456017
1.1392796039581299,-0.00781594866946681,[-0.00293482],5.0,0.6,0.0,-1.0924443685279663,0.023162189976373045,1.4943586534335889
1.1492419242858887,-0.00781594866946681,[-0.00293482],5.0,0.6,0.0,-0.9936764293713929,0.023261480279735982,1.4945117837107338
1.1644573211669922,-0.00781594866946681,[-0.00293482],5.0,0.6,0.0,-0.819824889482976,0.023315943635785305,1.4947461836704978
1.1752650737762451,-0.0076205499527301395,[-0.00293482],5.0,0.6,0.0,-0.6449903240639099,0.022376019482519993,1.4953088233269
1.1840324401855469,-0.0076205499527301395,[-0.00293481],5.0,0.6,0.0,-0.7713562676435105,0.02255082033880896,1.4951756783610086
1.1959483623504639,-0.0076205499527301395,[-0.0029348],5.0,0.6,0.0,-0.6854046109501546,0.02264469565288472,1.4952687944320417
1.2038214206695557,-0.0076205499527301395,[-0.00293479],5.0,0.6,0.0,-0.5391926464092421,0.022691727773505425,1.4954019846728097
1.211665153503418,-0.0076205499527301395,[-0.00293478],5.0,0.6,0.0,-0.6709251839259613,0.022886074921988804,1.49528336205388
1.2202861309051514,-0.0076205499527301395,[-0.00293476],5.0,0.6,0.0,-0.5830372070912665,0.022984989241042388,1.4953653297731835
1.2282679080963135,-0.0076205499527301395,[-0.00293475],5.0,0.6,0.0,-0.4341336937489145,0.02303449668894726,1.4954780086307653
1.2367730140686035,-0.0076205499527301395,[-0.00293474],5.0,0.6,0.0,-0.5647036005398376,0.023230082483814963,1.4953809376416825
1.2462646961212158,-0.0076205499527301395,[-0.00293473],5.0,0.6,0.0,-0.4776408634382415,0.023329616069058055,1.4954484396344732
1.2598316669464111,-0.0076205499527301395,[-0.00293471],5.0,0.6,0.0,-0.33131064469129823,0.023379431822391664,1.4955365110946408
1.2716751098632812,-0.0076205499527301395,[-0.0029347],5.0,0.6,0.0,-0.18972331068017637,0.023404370646003567,1.4955913973855062
1.280665397644043,-0.0076205499527301395,[-0.00293469],5.0,0.6,0.0,-0.07428809928794033,0.023416869502813353,1.4956140604473096
1.2883186340332031,-0.0076205499527301395,[-0.00293468],5.0,0.6,0.0,0.011684895647944782,0.02342314686599189,1.495618045138282
1.2994191646575928,-0.0076205499527301395,[-0.00293467],5.0,0.6,0.0,0.07169596909929174,0.023426311844770335,1.4956142996345596
1.3089320659637451,-0.0076205499527301395,[-0.00293466],5.0,0.6,0.0,0.11108484824767013,0.023427918905882535,1.4956089208520909
1.3162715435028076,-0.0076205499527301395,[-0.00293465],5.0,0.6,0.0,0.13501647561332866,0.023428745230717026,1.4956045184672604
1.3260109424591064,-0.0076205499527301395,[-0.00293464],5.0,0.6,0.0,0.14780366099811548,0.023429179389038414,1.495601809483534
1.3391900062561035,-0.0076205499527301395,[-0.00293463],5.0,0.6,0.0,0.15279912690997544,0.02342941567132679,1.4956006760512834
1.3493220806121826,-0.0076205499527301395,[-0.00293462],5.0,0.6,0.0,0.15250293110538007,0.023429551250780282,1.4956007290425668
1.3597908020019531,-0.0076205499527301395,[-0.00293461],5.0,0.6,0.0,0.14872906225769433,0.0234296347605028,1.4956015622342815
1.3673710823059082,-0.0076205499527301395,[-0.00293461],5.0,0.6,0.0,0.1427676690241011,0.023429690578632614,1.4956028440045124
1.376112937927246,-0.0076205499527301395,[-0.0029346],5.0,0.6,0.0,0.13552134562433965,0.02342973096778096,1.495604334569875
1.385420322418213,-0.0076205499527301395,[-0.0029346],5.0,0.6,0.0,0.12761182000953464,0.023429762141953237,1.4956058744631793
1.3972885608673096,-0.0076205499527301395,[-0.00293459],5.0,0.6,0.0,0.11946021130818411,0.023429787297524728,1.4956073654331419
1.4083170890808105,-0.0076205499527301395,[-0.00293459],5.0,0.6,0.0,0.11134593497052415,0.023429808126540726,1.4956087523404518
1.4200711250305176,-0.0076205499527301395,[-0.00293458],5.0,0.6,0.0,0.1034492409384816,0.023429825571458424,1.4956100087321138
1.4329235553741455,-0.0076205499527301395,[-0.00293458],5.0,0.6,0.0,0.09588158938367444,0.023429840200870876,1.4956111263092284
1.4412691593170166,-0.0076205499527301395,[-0.00293458],5.0,0.6,0.0,0.08870716422934613,0.023429852395964092,1.4956121076475428
1.451230764389038,-0.0076205499527301395,[-0.00293458],5.0,0.6,0.0,0.08195801278454229,0.02342986244256382,1.4956129613657758
1.4632666110992432,-0.0076205499527301395,[-0.00293458],5.0,0.6,0.0,0.0756446420953035,0.023429870576180938,1.4956136990294018
1.473862648010254,-0.0076205499527301395,[-0.00293457],5.0,0.6,0.0,0.06976339753516833,0.023429877003741287,1.4956143332372165
1.4812216758728027,-0.0076205499527301395,[-0.00293457],5.0,0.6,0.0,0.0643015732846084,0.02342988191382449,1.4956148764903825
1.494471788406372,-0.0076205499527301395,[-0.00293457],5.0,0.6,0.0,0.059240930101922565,0.023429885481306475,1.4956153405660602
1.5062158107757568,-0.0076205499527301395,[-0.00293457],5.0,0.6,0.0,0.05456009826657963,0.02342988786933608,1.4956157362082543
1.5152533054351807,-0.0076205499527301395,[-0.00293457],5.0,0.6,0.0,0.050236202554597126,0.023429889230095056,1.49561607301234
1.5242705345153809,-0.0076205499527301395,[-0.00293457],5.0,0.6,0.0,0.046245946028958373,0.02342988970505121,1.49561635942335
1.5355405807495117,-0.0076205499527301395,[-0.00293457],5.0,0.6,0.0,0.04256631870884604,0.023429889425045328,1.495616602797269
1.5472760200500488,-0.0076205499527301395,[-0.00293457],5.0,0.6,0.0,0.03917504735922843,0.023429888510369493,1.4956168094937579
1.5592682361602783,-0.0076205499527301395,[-0.00293457],5.0,0.6,0.0,0.03605086762022671,0.023429887070903477,1.4956169849811383
1.5682411193847656,-0.0076205499527301395,[-0.00293457],5.0,0.6,0.0,0.033173675118810905,0.02342988520633169,1.4956171339424098
1.5804200172424316,-0.0076205499527301395,[-0.00293457],5.0,0.6,0.0,0.030524594981741086,0.023429883006442206,1.4956172603760716
1.590252161026001,-0.0076205499527301395,[-0.00293457],5.0,0.6,0.0,0.028085997112253094,0.023429880551499412,1.4956173676886027
1.5982434749603271,-0.0076205499527301395,[-0.00293457],5.0,0.6,0.0,0.025841476162782005,0.02342987791267844,1.495617458777342
1.6075961589813232,-0.0076205499527301395,[-0.00293457],5.0,0.6,0.0,0.023775809248002582,0.023429875152548178,1.4956175361035922
1.615861177444458,-0.0076205499527301395,[-0.00293458],5.0,0.6,0.0,0.02187490033522592,0.023429872325590146,1.4956176017563858
1.625260829925537,-0.0076205499527301395,[-0.00293458],5.0,0.6,0.0,0.02012571738849895,0.02342986947874162,1.4956176575076676
1.6337394714355469,-0.0076205499527301395,[-0.00293458],5.0,0.6,0.0,0.018516226354056163,0.02342986665195227,1.4956177048597674
1.6412227153778076,-0.0076205499527301395,[-0.00293458],5.0,0.6,0.0,0.017035324695664326,0.02342986387874539,1.495617745086066
1.652355670928955,-0.0076205499527301395,[-0.00293458],5.0,0.6,0.0,0.015672776235107367,0.023429861186775605,1.4956177792657153
1.6622536182403564,-0.0076205499527301395,[-0.00293458],5.0,0.6,0.0,0.01441914839693779,0.0234298585983765,1.4956178083132177
1.6763434410095215,-0.0076205499527301395,[-0.00293458],5.0,0.6,0.0,0.013265752507665868,0.023430121789225995,1.4956178329585392
1.6873259544372559,-0.0076205499527301395,[-0.00293457],5.0,0.6,0.0,0.01220458749480871,0.02349964533955901,1.4956178419781792
1.696530818939209,-0.007425151235993469,[-0.00293454],5.0,0.6,0.0,0.01122828712666224,0.022578191668397883,1.4959749154188344
1.7076125144958496,-0.0076205499527301395,[-0.00293445],5.0,0.6,0.0,0.010330070798540505,0.023811890371158086,1.4956176378455082
1.7153425216674805,-0.0076205499527301395,[-0.00293421],5.0,0.6,0.0,0.009503697784067393,0.023977160544360825,1.4956172062377906
1.7241015434265137,-0.0076205499527301395,[-0.00293373],5.0,0.6,0.0,0.008743424815930202,0.024364910655919433,1.4956163188043337
1.7332394123077393,-0.0076205499527301395,[-0.00293285],5.0,0.6,0.0,0.008043966828868083,0.024953761183989388,1.4956146809159294
1.7412757873535156,-0.0076205499527301395,[-0.00293138],5.0,0.6,0.0,0.007400460681307521,0.025096386713818974,1.4956119467659028
1.7510340213775635,-0.0076205499527301395,[-0.00292913],5.0,0.6,0.0,0.0068084316659272875,0.02593616185798483,1.4956077533229075
1.7645318508148193,-0.0076205499527301395,[-0.00292575],5.0,0.6,0.0,0.006263762620040219,0.02750206178495668,1.4956014444285395
1.7723093032836914,-0.0076205499527301395,[-0.00292086],5.0,0.6,0.0,0.005762665451608022,0.02707670758907769,1.4955922994213462
1.7806994915008545,-0.0076205499527301395,[-0.00291436],5.0,0.6,0.0,0.005301654904299112,0.026591494057741707,1.4955801337906296
1.7913753986358643,-0.0076205499527301395,[-0.0029068],5.0,0.6,0.0,0.004877524394129012,0.021606058321560352,1.495565947428834
1.8045172691345215,-0.0076205499527301395,[-0.00289926],5.0,0.6,0.0,0.004487323760120371,0.020710247409218646,1.495551789037184
1.8151094913482666,-0.0076205499527301395,[-0.00289237],5.0,0.6,0.0,0.004128338781575919,0.02288610607000084,1.4955388247563501
1.8274667263031006,-0.007425151235993469,[-0.002886],5.0,0.6,0.0,0.0037980723246354743,0.022354458691182102,1.4958876828293
1.8384513854980469,-0.007425151235993469,[-0.00288],5.0,0.6,0.0,0.0034942269905745746,0.022481777177604367,1.495876839378767
1.8462591171264648,-0.007425151235993469,[-0.00287439],5.0,0.6,0.0,0.0032146891476655583,0.022582909411623917,1.4958666722948075
1.856215238571167,-0.007425151235993469,[-0.00286917],5.0,0.6,0.0,0.0029575142372881835,0.022660201997094495,1.4958572093617923
1.8682334423065186,-0.007425151235993469,[-0.00286436],5.0,0.6,0.0,0.0027209132533102384,0.02272013240446238,1.4958484651013193
1.8762547969818115,-0.0072297525192568,[-0.00285994],5.0,0.6,0.0,0.0025032403015490014,0.021800080536626125,1.4961882291690332
1.8852198123931885,-0.0072297525192568,[-0.00285592],5.0,0.6,0.0,0.2783413408320587,0.021657271382967486,1.4961235675216393
1.896200180053711,-0.0072297525192568,[-0.0028523],5.0,0.6,0.0,0.31128170555439694,0.021600522460920802,1.4961027835280263
1.90525221824646,-0.0072297525192568,[-0.00284904],5.0,0.6,0.0,0.25601494958260695,0.02158184337866006,1.4961204412350602
1.916193962097168,-0.0072297525192568,[-0.00284615],5.0,0.6,0.0,0.17977400498695645,0.021580572486422,1.4961401171197537
1.9252898693084717,-0.0072297525192568,[-0.00284359],5.0,0.6,0.0,0.10910786306775308,0.021586680291883462,1.4961508512021164
1.9373443126678467,-0.007034353802520129,[-0.00284136],5.0,0.6,0.0,0.05235408021820117,0.020628136655228325,1.4964878959463808
1.9473228454589844,-0.007034353802520129,[-0.00283943],5.0,0.6,0.0,0.010235046767873731,0.020627476489388116,1.4964866304283402
1.9593658447265625,-0.006643556369046789,[-0.00283778],5.0,0.6,0.0,-0.019291801581555995,0.018701287746192247,1.4971071252405694
1.9683871269226074,-0.006643556369046789,[-0.00283638],5.0,0.6,0.0,-0.03892236352312614,0.018689254636281807,1.4971041588115894
1.9774768352508545,-0.006643556369046789,[-0.00283523],5.0,0.6,0.0,-0.05116944611018973,0.018695228974188256,1.4971015794956672
1.988839864730835,-0.006643556369046789,[-0.00283428],5.0,0.6,0.0,-0.05809806930023782,0.01870027839060118,1.4970995834815113
2.0002734661102295,-0.006448157652310118,[-0.00283353],5.0,0.6,0.0,-0.061300533326734866,0.01773707286943498,1.4973875143872881
2.0102219581604004,-0.006448157652310118,[-0.00283296],5.0,0.6,0.0,-0.06195909953761333,0.017730488649870896,1.497386623607776
2.020167827606201,-0.0062527589355734475,[-0.00283254],5.0,0.6,0.0,-0.06092989387734424,0.016765432791590054,1.4976603883100597
2.0342962741851807,-0.0062527589355734475,[-0.00283225],5.0,0.6,0.0,-0.05882161602348866,0.016757303562968652,1.4976601862347674
2.0452535152435303,-0.006057360218836778,[-0.00283208],5.0,0.6,0.0,-0.05606059032324913,0.015790902998390588,1.4979193427484834
2.0552072525024414,-0.006057360218836778,[-0.00283202],5.0,0.6,0.0,0.2230971120630406,0.015610815516384664,1.497884549746928
2.0631794929504395,-0.006057360218836778,[-0.00283204],5.0,0.6,0.0,0.259499055865406,0.015523541626472083,1.4978715029630882
2.074234962463379,-0.006057360218836778,[-0.00283214],5.0,0.6,0.0,0.20770328741091376,0.01547951946187186,1.4978896394393917
2.0865767002105713,-0.005861961502100107,[-0.0028323],5.0,0.6,0.0,0.1348566121671357,0.014489745682637403,1.498152372400289
2.0981338024139404,-0.005861961502100107,[-0.0028325],5.0,0.6,0.0,0.06745413388751983,0.014468161746600719,1.4981627735113294
2.1092007160186768,-0.005666562785363437,[-0.00283275],5.0,0.6,0.0,0.013801708296840659,0.01349417517038374,1.4983950482578314
2.119246006011963,-0.005666562785363437,[-0.00283303],5.0,0.6,0.0,-0.025394859965333284,0.013480405580402158,1.4983950226767266
2.130074977874756,-0.005666562785363437,[-0.00283332],5.0,0.6,0.0,-0.05218455587833226,0.013477462650161833,1.4983938128802614
2.1412127017974854,-0.005471164068626767,[-0.00283364],5.0,0.6,0.0,-0.06926298200088696,0.012507998009668805,1.4986060864963495
2.153223991394043,-0.005471164068626767,[-0.00283396],5.0,0.6,0.0,-0.07913832250362235,0.01249638347926515,1.4986053336707694
2.165210485458374,-0.005275765351890096,[-0.00283428],5.0,0.6,0.0,-0.08386829487121272,0.01152727587770407,1.4988033058813042
2.179266929626465,-0.005275765351890096,[-0.0028346],5.0,0.6,0.0,-0.08503634441098948,0.011515908804861731,1.49880347305607
2.189600944519043,-0.005275765351890096,[-0.00283492],5.0,0.6,0.0,-0.08381508925472117,0.01151418866771216,1.4988039350016742
2.19985032081604,-0.005080366635153426,[-0.00283523],5.0,0.6,0.0,-0.08105073539496022,0.010545406067513068,1.4989874877823097
2.208224296569824,-0.005080366635153426,[-0.00283552],5.0,0.6,0.0,-0.07734212216129013,0.010534243754591542,1.4989881904560203
2.216179370880127,-0.005080366635153426,[-0.00283581],5.0,0.6,0.0,-0.07310598845768285,0.010532729918230961,1.4989889180684473
2.224332094192505,-0.005080366635153426,[-0.00283607],5.0,0.6,0.0,-0.06862758670494917,0.010531390000790475,1.4989896301584769
2.235867500305176,-0.005080366635153426,[-0.00283632],5.0,0.6,0.0,-0.34013689961163773,0.01070093228097264,1.498907246472429
2.246212959289551,-0.004884967918416756,[-0.00283656],5.0,0.6,0.0,-0.36880748471236885,0.009819645122602536,1.4990599125386865
2.260181188583374,-0.004884967918416756,[-0.00283677],5.0,0.6,0.0,-0.30941089847389447,0.009852460084989235,1.4990900719102418
2.271526336669922,-0.004884967918416756,[-0.00283697],5.0,0.6,0.0,-0.2292291036678194,0.009873153106941047,1.4991223812261993
2.2801666259765625,-0.004884967918416756,[-0.00283715],5.0,0.6,0.0,-0.15483826347211666,0.009883136163168625,1.4991437969586527
2.288224458694458,-0.004689569201680086,[-0.00283732],5.0,0.6,0.0,-0.09458831113647259,0.008920535501167257,1.499307409040008
2.297187328338623,-0.004884967918416756,[-0.00283747],5.0,0.6,0.0,-0.049204155901901706,0.009880069551741241,1.4991600970302181
2.311640739440918,-0.004689569201680086,[-0.0028376],5.0,0.6,0.0,-0.016639326957622144,0.00892312209894668,1.4993140702772285
2.320319175720215,-0.004689569201680086,[-0.00283772],5.0,0.6,0.0,0.005810033345261815,0.00891364140501173,1.4993143377475084
2.3313233852386475,-0.004689569201680086,[-0.00283782],5.0,0.6,0.0,0.02066711388792517,0.00891337279424552,1.4993141207957295
2.344543218612671,-0.004689569201680086,[-0.00283791],5.0,0.6,0.0,0.03000862967803646,0.008913096127794524,1.4993138343153318
2.356422185897827,-0.004689569201680086,[-0.00283798],5.0,0.6,0.0,-0.2405992176171122,0.009083596763995077,1.4992714713013011
2.367435932159424,-0.004689569201680086,[-0.00283805],5.0,0.6,0.0,-0.2710097185495504,0.009170421481877376,1.499259938887139
2.376192331314087,-0.004689569201680086,[-0.0028381],5.0,0.6,0.0,-0.21504656215343793,0.009213741589329793,1.499280225873666
2.384783983230591,-0.004689569201680086,[-0.00283815],5.0,0.6,0.0,-0.13932352906695206,0.00923531441487632,1.499300233113173
2.395193338394165,-0.004689569201680086,[-0.00283818],5.0,0.6,0.0,-0.06995330962379509,0.00924603310965982,1.4993110662996687
2.40620756149292,-0.004689569201680086,[-0.00283821],5.0,0.6,0.0,-0.014969598152504211,0.009251342256347382,1.4993145628204014
2.4147751331329346,-0.004689569201680086,[-0.00283823],5.0,0.6,0.0,0.025114387750130553,0.009253962094142676,1.499314275556467
2.4251837730407715,-0.004689569201680086,[-0.00283825],5.0,0.6,0.0,0.05248333204515595,0.009255250805529372,1.4993127054659858
2.4371988773345947,-0.004689569201680086,[-0.00283826],5.0,0.6,0.0,0.06992813354193461,0.009255885668370439,1.499311122656688
2.448052167892456,-0.004689569201680086,[-0.00283826],5.0,0.6,0.0,0.08002371117078647,0.009256203636363789,1.4993099990641838
2.4572246074676514,-0.004689569201680086,[-0.00283826],5.0,0.6,0.0,0.08487439443063452,0.00925637163132206,1.4993094039559391
2.4657788276672363,-0.004884967918416756,[-0.00283826],5.0,0.6,0.0,0.0860960991511247,0.010223695337207349,1.4991570285357927
2.4737637042999268,-0.004689569201680086,[-0.00283825],5.0,0.6,0.0,0.08488399569523503,0.009266215768824733,1.4993093961553647
2.481168270111084,-0.004689569201680086,[-0.00283824],5.0,0.6,0.0,0.08209989771482715,0.009256702572925404,1.4993097361326062
2.491396427154541,-0.004689569201680086,[-0.00283823],5.0,0.6,0.0,0.07835339734122398,0.009256667907046018,1.4993101761355927
2.5011770725250244,-0.004689569201680086,[-0.00283822],5.0,0.6,0.0,0.07406859769990198,0.009256730024584407,1.4993106537388545
2.5103096961975098,-0.004689569201680086,[-0.00283821],5.0,0.6,0.0,0.0695357544538269,0.009256795860535629,1.4993111289323438
2.5211713314056396,-0.004689569201680086,[-0.0028382],5.0,0.6,0.0,0.06494985233032947,0.009256864149899784,1.4993115781131023
2.5340893268585205,-0.004689569201680086,[-0.00283818],5.0,0.6,0.0,0.060438788423802736,0.009256934098468087,1.499311988912467
2.5458948612213135,-0.004689569201680086,[-0.00283817],5.0,0.6,0.0,0.056083659104295115,0.009257004782442343,1.49931235625743
2.55525803565979,-0.004689569201680086,[-0.00283815],5.0,0.6,0.0,0.051933211383262345,0.009257075291904048,1.4993126795728542
2.567486524581909,-0.004689569201680086,[-0.00283814],5.0,0.6,0.0,0.048014057667335686,0.009257144800014024,1.499312960885568
2.5767061710357666,-0.004689569201680086,[-0.00283813],5.0,0.6,0.0,0.0443378511350712,0.009257212590715273,1.499313203586966
2.586214303970337,-0.004689569201680086,[-0.00283811],5.0,0.6,0.0,0.04090629862345527,0.009257278065817422,1.4993134116535014
2.600447654724121,-0.004689569201680086,[-0.0028381],5.0,0.6,0.0,0.03771464410021379,0.00925734074200668,1.4993135891748208
2.6121389865875244,-0.004689569201680086,[-0.00283809],5.0,0.6,0.0,0.03475407535944221,0.009257400243102185,1.4993137400829883
2.622619867324829,-0.004884967918416756,[-0.00283808],5.0,0.6,0.0,0.03201337539705926,0.010224679938102775,1.4991616362737465
2.6340746879577637,-0.004689569201680086,[-0.00283807],5.0,0.6,0.0,0.029480045669405423,0.009267180927953098,1.4993139762240488
2.644906997680664,-0.004689569201680086,[-0.00283806],5.0,0.6,0.0,0.027141061257555776,0.00925765405352809,1.4993140676153958
2.6549036502838135,-0.004689569201680086,[-0.00283805],5.0,0.6,0.0,0.024983370340555852,0.009257603127289828,1.499314144707039
2.665170431137085,-0.004689569201680086,[-0.00283804],5.0,0.6,0.0,0.022994216759040835,0.009257643195452298,1.4993142096817516
2.6781749725341797,-0.004884967918416756,[-0.00283803],5.0,0.6,0.0,0.021161340778931316,0.010224904111882217,1.4991620291855394
2.691765308380127,-0.004884967918416756,[-0.00283803],5.0,0.6,0.0,0.019473096533348007,0.010234609974433784,1.4991620747562204
2.7019569873809814,-0.004884967918416756,[-0.00283802],5.0,0.6,0.0,0.017918512954542783,0.010234736799085238,1.4991621131075354
2.7132177352905273,-0.004884967918416756,[-0.00283801],5.0,0.6,0.0,0.016487316834958583,0.010234764498692437,1.49916214539456
2.722186326980591,-0.004689569201680086,[-0.00283801],5.0,0.6,0.0,0.015169930937945036,0.0092675643968592,1.4993144095990818
2.735302448272705,-0.004884967918416756,[-0.00283801],5.0,0.6,0.0,0.01395745608177651,0.010225136337048761,1.4991621955293943
2.747145175933838,-0.004884967918416756,[-0.002838],5.0,0.6,0.0,0.012841643330450767,0.010234729570574693,1.4991622148944261
2.7601821422576904,-0.004689569201680086,[-0.002838],5.0,0.6,0.0,0.01181486047967085,0.009267616792053483,1.4993144691077278
2.7689573764801025,-0.004689569201680086,[-0.002838],5.0,0.6,0.0,0.010870055672758835,0.009257958228417115,1.4993144831837426
2.77819561958313,-0.004689569201680086,[-0.00283799],5.0,0.6,0.0,0.010000720041212479,0.009257872037586294,1.499314495135701
2.7890610694885254,-0.004689569201680086,[-0.00283799],5.0,0.6,0.0,0.009200850613633113,0.0092578796013298,1.4993145053089596
2.8032054901123047,-0.004689569201680086,[-0.00283799],5.0,0.6,0.0,0.008464914287607608,0.009257886328263909,1.4993145139923187
2.812577962875366,-0.004884967918416756,[-0.00283799],5.0,0.6,0.0,0.007787813350776004,0.010225115108037539,1.4991622829118956
2.8241641521453857,-0.004689569201680086,[-0.00283799],5.0,0.6,0.0,0.007164852827053527,0.009267567405302966,1.4993145278141728
2.8343024253845215,-0.004689569201680086,[-0.00283799],5.0,0.6,0.0,0.006591709781934808,0.009257994348097851,1.4993145333215705
2.8461544513702393,-0.004689569201680086,[-0.00283799],5.0,0.6,0.0,0.006064404626115842,0.009257899959521237,1.4993145380887718
2.856213092803955,-0.004689569201680086,[-0.00283799],5.0,0.6,0.0,0.005579274394743613,0.009257899428786862,1.499314542231893
2.870378017425537,-0.004689569201680086,[-0.00283799],5.0,0.6,0.0,0.005132947940267031,0.009257899045806064,1.499314545847452
2.8801474571228027,-0.004689569201680086,[-0.00283799],5.0,0.6,0.0,0.004722322953018188,0.009257898000437925,1.4993145490156379
2.890181541442871,-0.004689569201680086,[-0.00283799],5.0,0.6,0.0,0.004344544710357749,0.009257896400544127,1.4993145518030604
2.898146629333496,-0.004689569201680086,[-0.00283799],5.0,0.6,0.0,0.0039969864490359604,0.009257894352364694,1.4993145542650541
2.908202886581421,-0.004884967918416756,[-0.00283799],5.0,0.6,0.0,0.0036772312539679296,0.010225115599473245,1.4991623179260476
2.9206907749176025,-0.004689569201680086,[-0.00283799],5.0,0.6,0.0,0.003383055358248915,0.009267561520327847,1.4993145583890037
2.9298248291015625,-0.004689569201680086,[-0.00283799],5.0,0.6,0.0,0.003112412752807908,0.009257983147175668,1.499314560121117
2.9433746337890625,-0.004689569201680086,[-0.00283799],5.0,0.6,0.0,0.00286342100883652,0.009257884408294068,1.499314561670589
2.9521446228027344,-0.004689569201680086,[-0.00283799],5.0,0.6,0.0,0.0026343482215068752,0.009257880400201134,1.499314563059734
2.960336923599243,-0.004884967918416756,[-0.00283799],5.0,0.6,0.0,0.0024236009891504227,0.010225100970958568,1.499162326014011
2.9701693058013916,-0.004689569201680086,[-0.00283799],5.0,0.6,0.0,0.0022297133477732524,0.009267546517366677,1.4993145654292042
2.9795217514038086,-0.004689569201680086,[-0.00283799],5.0,0.6,0.0,0.0020513365863798006,0.009257968022000048,1.4993145664388652
2.987431526184082,-0.004689569201680086,[-0.002838],5.0,0.6,0.0,0.0018872298739693026,0.009257869375706851,1.4993145673478312
2.9977197647094727,-0.004689569201680086,[-0.002838],5.0,0.6,0.0,0.0017362516342016793,0.009257865640649154,1.4993145681660367
3.009019136428833,-0.004884967918416756,[-0.002838],5.0,0.6,0.0,0.0015973516085704897,0.010225086633498841,1.4991623308323467
3.019591808319092,-0.004689569201680086,[-0.002838],5.0,0.6,0.0,0.001469563553458311,0.009267532722580638,1.4993145695636148
3.0276734828948975,-0.004884967918416756,[-0.002838],5.0,0.6,0.0,0.0013519985206830697,0.010225178512673334,1.4991623321629495
3.0361969470977783,-0.004689569201680086,[-0.002838],5.0,0.6,0.0,0.0012438386750794196,0.009267529164649825,1.4993145706889037
3.0466418266296387,-0.004689569201680086,[-0.002838],5.0,0.6,0.0,0.0011443316063087633,0.009257950676830816,1.4993145711639952
3.054224967956543,-0.004884967918416756,[-0.002838],5.0,0.6,0.0,0.00105278509546905,0.010225076709761097,1.499162333687317
3.065126895904541,-0.004884967918416756,[-0.002838],5.0,0.6,0.0,0.000968562300197018,0.010234746302699571,1.4991623340896214
3.0780863761901855,-0.004689569201680086,[-0.002838],5.0,0.6,0.0,0.0008910773248370996,0.00926761784253355,1.4993145722961612
3.0861213207244873,-0.004689569201680086,[-0.002838],5.0,0.6,0.0,0.0008197911449092223,0.009257945203799125,1.4993145725894181
3.098144292831421,-0.004689569201680086,[-0.002838],5.0,0.6,0.0,0.0007542078575578498,0.009257847271148596,1.4993145728466206
3.1092395782470703,-0.004689569201680086,[-0.002838],5.0,0.6,0.0,0.0006938712319221768,0.009257845226230568,1.499314573070987
3.1185076236724854,-0.004884967918416756,[-0.002838],5.0,0.6,0.0,0.0006383615354466701,0.010225067920798836,1.499162335487328
3.126207113265991,-0.004884967918416756,[-0.002838],5.0,0.6,0.0,0.0005872926140657246,0.010234739339269659,1.4991623356675412
3.1372931003570557,-0.004689569201680086,[-0.002838],5.0,0.6,0.0,0.0005403092059588178,0.00926761171276587,1.4993145735760196
3.1505322456359863,-0.004689569201680086,[-0.002838],5.0,0.6,0.0,0.0004970844701949579,0.009257939850418626,1.4993145736970297
3.1586720943450928,-0.004689569201680086,[-0.002838],5.0,0.6,0.0,0.00045731771307835304,0.009257842643586213,1.499314573798279
3.167125940322876,-0.004689569201680086,[-0.002838],5.0,0.6,0.0,0.00042073229638137967,0.009257841272399479,1.4993145738818678
3.17830228805542,-0.004689569201680086,[-0.002838],5.0,0.6,0.0,0.0003870737129153759,0.009257840940078551,1.499314573949746
3.189279556274414,-0.004689569201680086,[-0.002838],5.0,0.6,0.0,0.00035610781605329995,0.00925784069035603,1.4993145740037184
3.1997883319854736,-0.004884967918416756,[-0.002838],5.0,0.6,0.0,0.0003276191908888439,0.010225064153561815,1.4991623363259012
3.2101383209228516,-0.004689569201680086,[-0.002838],5.0,0.6,0.0,0.00030140965570160194,0.009267512614901033,1.4993145740764815
3.221172332763672,-0.004884967918416756,[-0.002838],5.0,0.6,0.0,0.0002772968833041797,0.010225160671485422,1.4991623363818345
3.234938859939575,-0.004689569201680086,[-0.002838],5.0,0.6,0.0,0.00025511313268093954,0.009267513471231469,1.4993145741119358
3.2461326122283936,-0.004689569201680086,[-0.002838],5.0,0.6,0.0,0.00023470408209523037,0.009257937002962884,1.4993145741188192
3.2571516036987305,-0.004884967918416756,[-0.002838],5.0,0.6,0.0,0.000215927755547748,0.010225064920853604,1.4991623364034596
3.2694480419158936,-0.004689569201680086,[-0.002838],5.0,0.6,0.0,0.00019865353511802338,0.009267512612672049,1.4993145741162126
3.2798612117767334,-0.004689569201680086,[-0.002838],5.0,0.6,0.0,0.00018276125231844845,0.009257937171075847,1.4993145741085412
3.2898306846618652,-0.004884967918416756,[-0.002838],5.0,0.6,0.0,0.00016814035213987932,0.0102250651626946,1.49916233637743
3.299161911010742,-0.004689569201680086,[-0.002838],5.0,0.6,0.0,0.00015468912397352378,0.009267512905804961,1.499314574084309
3.307129383087158,-0.004884967918416756,[-0.002838],5.0,0.6,0.0,0.00014231399405902588,0.010225161151553457,1.499162336345136
3.3156306743621826,-0.004689569201680086,[-0.002838],5.0,0.6,0.0,0.00013092887453667294,0.009267514113049265,1.4993145740523763
3.325003147125244,-0.004689569201680086,[-0.002838],5.0,0.6,0.0,0.00012045456457539746,0.009257937773329289,1.4993145740347995
3.337833881378174,-0.004689569201680086,[-0.002838],5.0,0.6,0.0,0.00011081819941052644,0.009257842142101187,1.4993145740166967
3.3516364097595215,-0.004884967918416756,[-0.002838],5.0,0.6,0.0,0.00010195274345849693,0.010225064965364237,1.4991623362662938
3.3633604049682617,-0.004689569201680086,[-0.002838],5.0,0.6,0.0,9.379652398238588e-05,0.009267513675400367,1.4993145739802083
3.3743162155151367,-0.004884967918416756,[-0.002838],5.0,0.6,0.0,8.629280206419313e-05,0.0102251619365598,1.4991623362262012
3.3849034309387207,-0.004689569201680086,[-0.002838],5.0,0.6,0.0,7.938937789933638e-05,0.009267514892995547,1.4993145739450022
3.3971192836761475,-0.004689569201680086,[-0.002838],5.0,0.6,0.0,7.303822766758444e-05,0.009257938538813577,1.4993145739283409
3.4101572036743164,-0.004689569201680086,[-0.002838],5.0,0.6,0.0,6.719516945431433e-05,0.009257842885438572,1.499314573912479
3.4225902557373047,-0.004689569201680086,[-0.002838],5.0,0.6,0.0,6.181955589806471e-05,0.009257842032497174,1.499314573897506
3.432715654373169,-0.004689569201680086,[-0.002838],5.0,0.6,0.0,5.687399142628656e-05,0.009257842120658463,1.4993145738834859
3.440798044204712,-0.004689569201680086,[-0.002838],5.0,0.6,0.0,5.2324072112230584e-05,0.009257842211141863,1.4993145738704585
3.449117660522461,-0.004884967918416756,[-0.002838],5.0,0.6,0.0,4.813814634328491e-05,0.010225065942339552,1.499162336110953
3.4593238830566406,-0.004689569201680086,[-0.002838],5.0,0.6,0.0,4.428709463584501e-05,0.009267514607132335,1.4993145738474463
3.473062753677368,-0.004689569201680086,[-0.002838],5.0,0.6,0.0,4.07441270649935e-05,0.009257939162111605,1.4993145738374536
3.484889030456543,-0.004689569201680086,[-0.002838],5.0,0.6,0.0,3.7484596899805315e-05,0.009257843469191424,1.4993145738284437
3.4958887100219727,-0.004689569201680086,[-0.002838],5.0,0.6,0.0,3.448582914782872e-05,0.009257842567243662,1.4993145738203837
3.5062785148620605,-0.004884967918416756,[-0.002838],5.0,0.6,0.0,3.172696281600793e-05,0.010225066254802111,1.4991623360608757
3.519312620162964,-0.004884967918416756,[-0.002838],5.0,0.6,0.0,2.918880579073117e-05,0.010234738534492508,1.4991623360539146
3.530164957046509,-0.004689569201680086,[-0.002838],5.0,0.6,0.0,2.685370132747536e-05,0.00926761164669972,1.4993145738014735
3.542046546936035,-0.004689569201680086,[-0.002838],5.0,0.6,0.0,2.470540522127923e-05,0.009257940409895894,1.4993145737967601
3.5530829429626465,-0.004689569201680086,[-0.002838],5.0,0.6,0.0,2.2728972803578214e-05,0.009257843724803712,1.4993145737927518
3.5622010231018066,-0.004884967918416756,[-0.002838],5.0,0.6,0.0,2.0910654979292877e-05,0.010225066428664206,1.4991623360344777
3.5731074810028076,-0.004689569201680086,[-0.002838],5.0,0.6,0.0,1.9237802580950113e-05,0.009267515026694878,1.4993145737866254
3.5841424465179443,-0.004689569201680086,[-0.002838],5.0,0.6,0.0,1.769877837447454e-05,0.009257939527864903,1.4993145737843965
3.596606969833374,-0.004689569201680086,[-0.002838],5.0,0.6,0.0,1.6282876104516894e-05,0.009257843784783892,1.499314573782652
3.6048405170440674,-0.004689569201680086,[-0.002838],5.0,0.6,0.0,1.4980246016155776e-05,0.009257842836330353,1.49931457378134
3.612212896347046,-0.004689569201680086,[-0.002838],5.0,0.6,0.0,1.3781826334863476e-05,0.009257842833229038,1.4993145737804112
3.6221001148223877,-0.004689569201680086,[-0.002838],5.0,0.6,0.0,1.2679280228074496e-05,0.009257842837304903,1.4993145737798188
3.6312224864959717,-0.004884967918416756,[-0.002838],5.0,0.6,0.0,1.1664937809828625e-05,0.010225066487320874,1.4991623360235409
3.6400458812713623,-0.004689569201680086,[-0.002838],5.0,0.6,0.0,1.073174278504238e-05,0.009267515076402798,1.4993145737794706
3.650297164916992,-0.004884967918416756,[-0.002838],5.0,0.6,0.0,9.873203362239031e-06,0.010225163209124923,1.4991623360236666
3.6601459980010986,-0.004689569201680086,[-0.002838],5.0,0.6,0.0,9.083347093259937e-06,0.00926751604038288,1.4993145737799791
3.669961929321289,-0.004884967918416756,[-0.002838],5.0,0.6,0.0,8.356679325799163e-06,0.010225163213326881,1.499162336024586
3.682110548019409,-0.004689569201680086,[-0.002838],5.0,0.6,0.0,7.688144979735226e-06,0.009267516033197178,1.4993145737810771
3.6924171447753906,-0.004884967918416756,[-0.002838],5.0,0.6,0.0,7.0730933813564345e-06,0.010225163204607332,1.4991623360260298
3.7021381855010986,-0.004689569201680086,[-0.002838],5.0,0.6,0.0,6.507245910847916e-06,0.009267516023373524,1.4993145737825455
3.7106170654296875,-0.004689569201680086,[-0.002838],5.0,0.6,0.0,5.9866662379800925e-06,0.009257939546131537,1.499314573783362
3.721108913421631,-0.004689569201680086,[-0.002838],5.0,0.6,0.0,5.507732938941693e-06,0.009257843775722217,1.499314573784209
3.7331318855285645,-0.004689569201680086,[-0.002838],5.0,0.6,0.0,5.06711430382635e-06,0.009257842812278982,1.4993145737850706
3.743711471557617,-0.004689569201680086,[-0.002838],5.0,0.6,0.0,4.661745159520254e-06,0.0092578427968933,1.4993145737859335
3.756530523300171,-0.004689569201680086,[-0.002838],5.0,0.6,0.0,4.288805546758635e-06,0.009257842791052455,1.4993145737867861
3.7654900550842285,-0.004689569201680086,[-0.002838],5.0,0.6,0.0,3.945701103017943e-06,0.009257842785435073,1.4993145737876195
3.777099609375,-0.004689569201680086,[-0.002838],5.0,0.6,0.0,3.63004501477651e-06,0.009257842780000195,1.4993145737884255
3.7870922088623047,-0.004689569201680086,[-0.002838],5.0,0.6,0.0,3.339641413594386e-06,0.009257842774789263,1.499314573789198
3.799098014831543,-0.004689569201680086,[-0.002838],5.0,0.6,0.0,3.0724701005068338e-06,0.009257842769835205,1.4993145737899323
3.812323570251465,-0.004689569201680086,[-0.002838],5.0,0.6,0.0,2.8266724924662884e-06,0.009257842765162554,1.4993145737906246
3.823380470275879,-0.004689569201680086,[-0.002838],5.0,0.6,0.0,2.600538693068981e-06,0.0092578427607884,1.4993145737912725
3.8323256969451904,-0.004689569201680086,[-0.002838],5.0,0.6,0.0,2.3924955976234624e-06,0.009257842756723332,1.4993145737918745
3.8410534858703613,-0.004689569201680086,[-0.002838],5.0,0.6,0.0,2.201095949813587e-06,0.009257842752972305,1.49931457379243
3.8512659072875977,-0.004689569201680086,[-0.002838],5.0,0.6,0.0,2.0250082738285023e-06,0.009257842749535438,1.4993145737929388
3.859821081161499,-0.004689569201680086,[-0.002838],5.0,0.6,0.0,1.8630076119222228e-06,0.00925784274640876,1.4993145737934015
3.8700718879699707,-0.004689569201680086,[-0.002838],5.0,0.6,0.0,1.7139670029684428e-06,0.009257842743584894,1.4993145737938196
3.8791587352752686,-0.004689569201680086,[-0.002838],5.0,0.6,0.0,1.576849642730971e-06,0.00925784274105368,1.4993145737941942
3.8926637172698975,-0.004884967918416756,[-0.002838],5.0,0.6,0.0,1.450701671312493e-06,0.010225066386649261,1.4991623360401198
3.900089979171753,-0.004689569201680086,[-0.002838],5.0,0.6,0.0,1.3346455376074923e-06,0.009267514973296438,1.4993145737948208
3.9101128578186035,-0.004689569201680086,[-0.002838],5.0,0.6,0.0,1.2278738945988922e-06,0.009257939457448785,1.4993145737950773
3.919934034347534,-0.004689569201680086,[-0.002838],5.0,0.6,0.0,1.1296439830309804e-06,0.009257843700808229,1.499314573795299
3.929657220840454,-0.004689569201680086,[-0.002838],5.0,0.6,0.0,1.0392724643885035e-06,0.009257842741975164,1.4993145737954885
3.937103033065796,-0.004689569201680086,[-0.002838],5.0,0.6,0.0,9.561306672374217e-07,0.009257842731318758,1.4993145737956484
3.949070453643799,-0.004689569201680086,[-0.002838],5.0,0.6,0.0,8.796402138584284e-07,0.00925784273032588,1.4993145737957811
3.9600844383239746,-0.004689569201680086,[-0.002838],5.0,0.6,0.0,8.092689967497562e-07,0.009257842729594828,1.499314573795889
3.9700746536254883,-0.004689569201680086,[-0.002838],5.0,0.6,0.0,7.44527477009775e-07,0.00925784272901543,1.4993145737959745
3.978101968765259,-0.004884967918416756,[-0.002838],5.0,0.6,0.0,6.849652788489927e-07,0.010225066376417504,1.4991623360417923
3.9901206493377686,-0.004689569201680086,[-0.002838],5.0,0.6,0.0,6.301680565410728e-07,0.009267514964724886,1.4993145737960882
4.00281548500061,-0.004884967918416756,[-0.002838],5.0,0.6,0.0,5.797546120177882e-07,0.010225163098238732,1.4991623360418809
4.015115737915039,-0.004689569201680086,[-0.002838],5.0,0.6,0.0,5.333742430563646e-07,0.009267515931602665,1.499314573796139
4.0264410972595215,-0.004689569201680086,[-0.002838],5.0,0.6,0.0,4.907043036118563e-07,0.00925793945989024,1.4993145737961462
4.035343170166016,-0.004689569201680086,[-0.002838],5.0,0.6,0.0,4.514479593229079e-07,0.009257843695194135,1.4993145737961429
4.045083522796631,-0.004689569201680086,[-0.002838],5.0,0.6,0.0,4.153321225770749e-07,0.009257842737624644,1.4993145737961315
4.054141044616699,-0.004689569201680086,[-0.002838],5.0,0.6,0.0,3.8210555277090833e-07,0.009257842728173156,1.4993145737961129
4.064664125442505,-0.004884967918416756,[-0.002838],5.0,0.6,0.0,3.515371085492354e-07,0.01022506637608728,1.4991623360418456
4.075412034988403,-0.004689569201680086,[-0.002838],5.0,0.6,0.0,3.2341413986529677e-07,0.009267514964911992,1.49931457379606
4.0837531089782715,-0.004689569201680086,[-0.002838],5.0,0.6,0.0,2.97541008676073e-07,0.009257939451015178,1.4993145737960278
4.094149351119995,-0.004689569201680086,[-0.002838],5.0,0.6,0.0,2.7373772798198724e-07,0.009257843696107685,1.4993145737959932
4.104501247406006,-0.004689569201680086,[-0.002838],5.0,0.6,0.0,2.518387097434283e-07,0.00925784273880107,1.499314573795957
4.11445164680481,-0.004689569201680086,[-0.002838],5.0,0.6,0.0,2.3169161296395373e-07,0.009257842729476617,1.4993145737959197
4.1257336139678955,-0.004884967918416756,[-0.002838],5.0,0.6,0.0,2.1315628392683796e-07,0.010225066377480484,1.4991623360416175
4.136362075805664,-0.004689569201680086,[-0.002838],5.0,0.6,0.0,1.9610378121269052e-07,0.009267514966363027,1.499314573795845
4.1481499671936035,-0.004689569201680086,[-0.002838],5.0,0.6,0.0,1.8041547871567535e-07,0.00925793945249632,1.4993145737958087
4.160172939300537,-0.004689569201680086,[-0.002838],5.0,0.6,0.0,1.659822404184216e-07,0.009257843697595101,1.4993145737957732
4.168182611465454,-0.004689569201680086,[-0.002838],5.0,0.6,0.0,1.5270366118494774e-07,0.009257842740274526,1.499314573795739
4.177852153778076,-0.004689569201680086,[-0.002838],5.0,0.6,0.0,1.4048736829015208e-07,0.009257842730919175,1.4993145737957063
4.18617057800293,-0.004689569201680086,[-0.002838],5.0,0.6,0.0,1.2924837882694004e-07,0.00925784273103171,1.4993145737956755
4.196014404296875,-0.004884967918416756,[-0.002838],5.0,0.6,0.0,1.1890850852078488e-07,0.010225066379072821,1.499162336041357
4.206179141998291,-0.004689569201680086,[-0.002838],5.0,0.6,0.0,1.0939582783912197e-07,0.009267514967887004,1.4993145737956195
4.218162775039673,-0.004689569201680086,[-0.002838],5.0,0.6,0.0,1.0064416161199214e-07,0.00925793945394195,1.4993145737955946
4.226266622543335,-0.004884967918416756,[-0.002838],5.0,0.6,0.0,9.259262868303267e-08,0.01022506734680226,1.4991623360412742
4.2347705364227295,-0.004689569201680086,[-0.002838],5.0,0.6,0.0,8.518521838839007e-08,0.009267514978024135,1.4993145737955509
4.244066953659058,-0.004689569201680086,[-0.002838],5.0,0.6,0.0,7.837040091731898e-08,0.009257939454462958,1.499314573795532
4.252172470092773,-0.004689569201680086,[-0.002838],5.0,0.6,0.0,7.210076884393344e-08,0.00925784369934116,1.499314573795515
4.261071681976318,-0.004689569201680086,[-0.002838],5.0,0.6,0.0,6.633270733641876e-08,0.009257842741891462,1.4993145737954996
4.271655797958374,-0.004689569201680086,[-0.002838],5.0,0.6,0.0,6.10260907495053e-08,0.009257842732406775,1.4993145737954863
4.279966115951538,-0.004689569201680086,[-0.002838],5.0,0.6,0.0,5.614400348954494e-08,0.009257842732390673,1.4993145737954745
4.293205499649048,-0.004689569201680086,[-0.002838],5.0,0.6,0.0,5.165248321038136e-08,0.00925784273245888,1.4993145737954643
4.302151203155518,-0.004689569201680086,[-0.002838],5.0,0.6,0.0,4.752028455355082e-08,0.009257842732518267,1.4993145737954556
4.31005072593689,-0.004689569201680086,[-0.002838],5.0,0.6,0.0,4.37186617892667e-08,0.009257842732568635,1.499314573795448
4.31822657585144,-0.004884967918416756,[-0.002838],5.0,0.6,0.0,4.022116884612538e-08,0.010225066380457231,1.4991623360411306
4.32706093788147,-0.004689569201680086,[-0.002838],5.0,0.6,0.0,3.7003475338435336e-08,0.009267514969123704,1.4993145737954368
4.339094638824463,-0.004689569201680086,[-0.002838],5.0,0.6,0.0,3.404319731136049e-08,0.009257939455037716,1.4993145737954325
4.349512338638306,-0.004689569201680086,[-0.002838],5.0,0.6,0.0,3.131974152645164e-08,0.009257843699918132,1.4993145737954294
4.358060121536255,-0.004689569201680086,[-0.002838],5.0,0.6,0.0,2.8814162204335503e-08,0.009257842742382803,1.4993145737954272
4.369579076766968,-0.004689569201680086,[-0.002838],5.0,0.6,0.0,2.6509029227988727e-08,0.009257842732818537,1.4993145737954254
4.379139184951782,-0.004689569201680086,[-0.002838],5.0,0.6,0.0,2.4388306889749637e-08,0.0092578427327298,1.4993145737954245
4.38714861869812,-0.004689569201680086,[-0.002838],5.0,0.6,0.0,2.2437242338569646e-08,0.009257842732732186,1.499314573795424
4.395046234130859,-0.004884967918416756,[-0.002838],5.0,0.6,0.0,2.064226295148406e-08,0.010225066380578893,1.4991623360411108
4.4045729637146,-0.004689569201680086,[-0.002838],5.0,0.6,0.0,1.8990881915365318e-08,0.009267514969208373,1.4993145737954243
4.413902997970581,-0.004689569201680086,[-0.002838],5.0,0.6,0.0,1.7471611362136123e-08,0.009257939455090005,1.499314573795425
4.422056674957275,-0.004689569201680086,[-0.002838],5.0,0.6,0.0,1.6073882453165245e-08,0.009257843699942363,1.4993145737954259
4.432446718215942,-0.004689569201680086,[-0.002838],5.0,0.6,0.0,1.4787971856912002e-08,0.009257842742382994,1.4993145737954272
4.440694332122803,-0.004689569201680086,[-0.002838],5.0,0.6,0.0,1.3604934108359053e-08,0.009257842732798397,1.4993145737954285
4.449057340621948,-0.004689569201680086,[-0.002838],5.0,0.6,0.0,1.2516539379690325e-08,0.009257842732692725,1.4993145737954299
4.461199760437012,-0.004884967918416756,[-0.002838],5.0,0.6,0.0,1.1515216229315114e-08,0.010225066380527793,1.4991623360411193
4.469176769256592,-0.004689569201680086,[-0.002838],5.0,0.6,0.0,1.0593998930969909e-08,0.009267514969148889,1.499314573795433
4.480340480804443,-0.004689569201680086,[-0.002838],5.0,0.6,0.0,9.746479016492311e-09,0.009257939455024207,1.4993145737954348
4.491049766540527,-0.004689569201680086,[-0.002838],5.0,0.6,0.0,8.96676069517292e-09,0.009257843699872082,1.4993145737954365
4.502430438995361,-0.004689569201680086,[-0.002838],5.0,0.6,0.0,8.24941983955908e-09,0.009257842742309834,1.4993145737954379
4.51015305519104,-0.004689569201680086,[-0.002838],5.0,0.6,0.0,7.589466252394372e-09,0.009257842732723748,1.4993145737954396
4.520342826843262,-0.004884967918416756,[-0.002838],5.0,0.6,0.0,6.982308952202813e-09,0.010225066380464304,1.4991623360411297
4.531057834625244,-0.004689569201680086,[-0.002838],5.0,0.6,0.0,6.423724236026581e-09,0.009267514969085525,1.4993145737954425
4.5430543422698975,-0.004884967918416756,[-0.002838],5.0,0.6,0.0,5.909826297144467e-09,0.010225163102809085,1.4991623360411328
4.554140567779541,-0.004689569201680086,[-0.002838],5.0,0.6,0.0,5.437040193372909e-09,0.009267515936291168,1.4993145737954452
4.566315650939941,-0.004884967918416756,[-0.002838],5.0,0.6,0.0,5.0020769779030714e-09,0.010225163112464436,1.4991623360411357
4.575954914093018,-0.004689569201680086,[-0.002838],5.0,0.6,0.0,4.60191081967083e-09,0.009267515936372159,1.4993145737954476
4.585325717926025,-0.004689569201680086,[-0.002838],5.0,0.6,0.0,4.233757954097158e-09,0.009257939464604339,1.4993145737954485
4.597082614898682,-0.004689569201680086,[-0.002838],5.0,0.6,0.0,3.895057317769387e-09,0.009257843699880348,1.4993145737954494
4.608041286468506,-0.004689569201680086,[-0.002838],5.0,0.6,0.0,3.58345273234784e-09,0.009257842742227376,1.4993145737954503
4.6170408725738525,-0.004689569201680086,[-0.002838],5.0,0.6,0.0,3.2967765137600117e-09,0.009257842732645677,1.4993145737954512
4.626047611236572,-0.004884967918416756,[-0.002838],5.0,0.6,0.0,3.0330343926592096e-09,0.01022506638039175,1.4991623360411417
4.635025262832642,-0.004689569201680086,[-0.002838],5.0,0.6,0.0,2.790391641246471e-09,0.009267514969018587,1.4993145737954525
4.647119522094727,-0.004689569201680086,[-0.002838],5.0,0.6,0.0,2.567160309946754e-09,0.009257939454901241,1.499314573795453
4.657137870788574,-0.004689569201680086,[-0.002838],5.0,0.6,0.0,2.3617874851510157e-09,0.00925784369975692,1.4993145737954534
4.666030406951904,-0.004689569201680086,[-0.002838],5.0,0.6,0.0,2.172844486338935e-09,0.009257842742202762,1.4993145737954539
4.67804479598999,-0.004689569201680086,[-0.002838],5.0,0.6,0.0,1.999016927431819e-09,0.009257842732624906,1.4993145737954543
4.687805414199829,-0.004689569201680086,[-0.002838],5.0,0.6,0.0,1.8390955732372721e-09,0.00925784273252718,1.4993145737954543
4.6990272998809814,-0.004689569201680086,[-0.002838],5.0,0.6,0.0,1.6919679273782932e-09,0.009257842732524594,1.4993145737954547
4.7099387645721436,-0.004689569201680086,[-0.002838],5.0,0.6,0.0,1.5566104931880316e-09,0.009257842732523265,1.4993145737954547
4.720927715301514,-0.004689569201680086,[-0.002838],5.0,0.6,0.0,1.4320816537329863e-09,0.009257842732522226,1.4993145737954552
4.734281778335571,-0.004689569201680086,[-0.002838],5.0,0.6,0.0,1.3175151214343456e-09,0.009257842732521435,1.4993145737954552
4.744043588638306,-0.004689569201680086,[-0.002838],5.0,0.6,0.0,1.2121139117195992e-09,0.009257842732520867,1.4993145737954552
4.756039619445801,-0.004689569201680086,[-0.002838],5.0,0.6,0.0,1.1151447987820305e-09,0.009257842732520496,1.4993145737954552
4.76637864112854,-0.004689569201680086,[-0.002838],5.0,0.6,0.0,1.0259332148794686e-09,0.009257842732520288,1.4993145737954552
4.775086402893066,-0.004689569201680086,[-0.002838],5.0,0.6,0.0,9.43858557689112e-10,0.009257842732520227,1.4993145737954552
4.786043882369995,-0.004689569201680086,[-0.002838],5.0,0.6,0.0,8.683498730739821e-10,0.009257842732520291,1.4993145737954552
4.79475736618042,-0.004689569201680086,[-0.002838],5.0,0.6,0.0,7.988818832280644e-10,0.009257842732520456,1.4993145737954552
4.8021485805511475,-0.004689569201680086,[-0.002838],5.0,0.6,0.0,7.349713325698189e-10,0.009257842732520706,1.4993145737954552
4.810035705566406,-0.004689569201680086,[-0.002838],5.0,0.6,0.0,6.761736259642329e-10,0.009257842732521029,1.4993145737954552
4.822766542434692,-0.004884967918416756,[-0.002838],5.0,0.6,0.0,6.220797358870945e-10,0.010225066380367924,1.4991623360411452
4.830118179321289,-0.004689569201680086,[-0.002838],5.0,0.6,0.0,5.723133570161274e-10,0.00926751496900029,1.4993145737954552
4.8390796184539795,-0.004689569201680086,[-0.002838],5.0,0.6,0.0,5.265282884548374e-10,0.009257939454887057,1.4993145737954552
4.851416349411011,-0.004884967918416756,[-0.002838],5.0,0.6,0.0,4.844060253784512e-10,0.010225067347592902,1.4991623360411452
4.860164403915405,-0.004689569201680086,[-0.002838],5.0,0.6,0.0,4.4565354334817525e-10,0.009267514978673912,1.4993145737954547
4.869473218917847,-0.004689569201680086,[-0.002838],5.0,0.6,0.0,4.100012598803214e-10,0.009257939454985192,1.4993145737954547
4.880033016204834,-0.004689569201680086,[-0.002838],5.0,0.6,0.0,3.7720115908989453e-10,0.009257843699748771,1.4993145737954547
4.891068458557129,-0.004884967918416756,[-0.002838],5.0,0.6,0.0,3.4702506636270306e-10,0.010225066390043383,1.4991623360411448
4.899574518203735,-0.004689569201680086,[-0.002838],5.0,0.6,0.0,3.1926306105368673e-10,0.009267514969100256,1.4993145737954547
4.9070916175842285,-0.004689569201680086,[-0.002838],5.0,0.6,0.0,2.937220161693917e-10,0.00925793945489125,1.4993145737954545
4.9182610511779785,-0.004689569201680086,[-0.002838],5.0,0.6,0.0,2.7022425487584045e-10,0.009257843699749566,1.4993145737954545
4.930387258529663,-0.004689569201680086,[-0.002838],5.0,0.6,0.0,2.486063144857735e-10,0.00925784274219853,1.4993145737954543
4.939523935317993,-0.004689569201680086,[-0.002838],5.0,0.6,0.0,2.2871780932691158e-10,0.009257842732623383,1.4993145737954543
4.950168609619141,-0.004884967918416756,[-0.002838],5.0,0.6,0.0,2.104203845807586e-10,0.010225066380374485,1.4991623360411443
4.960120677947998,-0.004884967918416756,[-0.002838],5.0,0.6,0.0,1.9358675381429803e-10,0.010234738616852304,1.4991623360411443
4.970462799072266,-0.004689569201680086,[-0.002838],5.0,0.6,0.0,1.7809981350915407e-10,0.009267611691370848,1.4993145737954543
4.980126142501831,-0.004689569201680086,[-0.002838],5.0,0.6,0.0,1.6385182842842202e-10,0.009257940422116293,1.4993145737954543
4.990873336791992,-0.004884967918416756,[-0.002838],5.0,0.6,0.0,1.507436821541482e-10,0.0102250673572705,1.4991623360411443
5.004540920257568,-0.004689569201680086,[-0.002838],5.0,0.6,0.0,1.3868418758181615e-10,0.009267514978775735,1.4993145737954543
5.0150368213653564,-0.004689569201680086,[-0.002838],5.0,0.6,0.0,1.2758945257527091e-10,0.009257939454990973,1.499314573795454
5.024025201797485,-0.004689569201680086,[-0.002838],5.0,0.6,0.0,1.1738229636924939e-10,0.009257843699753292,1.499314573795454
5.039351224899292,-0.004689569201680086,[-0.002838],5.0,0.6,0.0,1.0799171265970933e-10,0.009257842742201063,1.499314573795454
5.051018714904785,-0.004689569201680086,[-0.002838],5.0,0.6,0.0,9.935237564693262e-11,0.009257842732625667,1.499314573795454
5.061002969741821,-0.004689569201680086,[-0.002838],5.0,0.6,0.0,9.140418559517798e-11,0.009257842732530022,1.499314573795454
5.072005033493042,-0.004689569201680086,[-0.002838],5.0,0.6,0.0,8.409185074756383e-11,0.00925784273252916,1.499314573795454
5.0830113887786865,-0.004689569201680086,[-0.002838],5.0,0.6,0.0,7.736450268775873e-11,0.009257842732529229,1.4993145737954539
5.095021724700928,-0.004884967918416756,[-0.002838],5.0,0.6,0.0,7.1175342472738e-11,0.010225066380375814,1.4991623360411441
5.105009317398071,-0.004884967918416756,[-0.002838],5.0,0.6,0.0,6.548131507491888e-11,0.010234738616854328,1.4991623360411441
5.11522102355957,-0.004689569201680086,[-0.002838],5.0,0.6,0.0,6.024280986892541e-11,0.009267611691372631,1.4993145737954539
5.126015663146973,-0.004689569201680086,[-0.002838],5.0,0.6,0.0,5.542338507941136e-11,0.009257940422117842,1.4993145737954539
5.136016845703125,-0.004689569201680086,[-0.002838],5.0,0.6,0.0,5.098951427305845e-11,0.00925784370942531,1.4993145737954539
5.148009777069092,-0.004689569201680086,[-0.002838],5.0,0.6,0.0,4.691035313121379e-11,0.009257842742298393,1.4993145737954539
5.161776065826416,-0.004689569201680086,[-0.002838],5.0,0.6,0.0,4.315752488071672e-11,0.009257842732627126,1.4993145737954539
5.170610666275024,-0.004689569201680086,[-0.002838],5.0,0.6,0.0,3.97049228902594e-11,0.009257842732530412,1.4993145737954539
5.179910659790039,-0.004689569201680086,[-0.002838],5.0,0.6,0.0,3.652852905903861e-11,0.009257842732529439,1.4993145737954539
5.190704584121704,-0.004689569201680086,[-0.002838],5.0,0.6,0.0,3.360624673431556e-11,0.009257842732529418,1.4993145737954539
5.202266216278076,-0.004884967918416756,[-0.002838],5.0,0.6,0.0,3.091774699557026e-11,0.010225066380375923,1.4991623360411441
5.211732387542725,-0.004689569201680086,[-0.002838],5.0,0.6,0.0,2.844432723592467e-11,0.00926751496900785,1.4993145737954539
5.2201080322265625,-0.004689569201680086,[-0.002838],5.0,0.6,0.0,2.6168781057050672e-11,0.009257939454894152,1.4993145737954539
5.231135129928589,-0.004689569201680086,[-0.002838],5.0,0.6,0.0,2.407527857248662e-11,0.009257843699752995,1.4993145737954539
5.244030714035034,-0.004689569201680086,[-0.002838],5.0,0.6,0.0,2.2149256286687743e-11,0.009257842742201565,1.4993145737954539
5.255103588104248,-0.004689569201680086,[-0.002838],5.0,0.6,0.0,2.037731578375272e-11,0.009257842732626026,1.4993145737954539
5.264573574066162,-0.004689569201680086,[-0.002838],5.0,0.6,0.0,1.874713052105249e-11,0.009257842732530247,1.4993145737954539
5.275029182434082,-0.004689569201680086,[-0.002838],5.0,0.6,0.0,1.7247360079368283e-11,0.009257842732529265,1.4993145737954539
5.28637433052063,-0.004689569201680086,[-0.002838],5.0,0.6,0.0,1.5867571273018838e-11,0.009257842732529234,1.4993145737954539
5.295996904373169,-0.004689569201680086,[-0.002838],5.0,0.6,0.0,1.4598165571177335e-11,0.009257842732529213,1.4993145737954539
5.307035446166992,-0.004884967918416756,[-0.002838],5.0,0.6,0.0,1.3430312325483171e-11,0.010225066380375715,1.4991623360411441
5.316034555435181,-0.004884967918416756,[-0.002838],5.0,0.6,0.0,1.235588733944448e-11,0.010234738616854162,1.4991623360411441
5.324019432067871,-0.004689569201680086,[-0.002838],5.0,0.6,0.0,1.1367416352288917e-11,0.009267611691372416,1.499314573795454
5.333775520324707,-0.004689569201680086,[-0.002838],5.0,0.6,0.0,1.045802304410581e-11,0.00925794042211758,1.499314573795454
5.342010021209717,-0.004689569201680086,[-0.002838],5.0,0.6,0.0,9.621381200577347e-12,0.009257843709425015,1.499314573795454
5.352137088775635,-0.004689569201680086,[-0.002838],5.0,0.6,0.0,8.851670704531162e-12,0.009257842742298074,1.499314573795454
5.365030765533447,-0.004689569201680086,[-0.002838],5.0,0.6,0.0,8.14353704816866e-12,0.009257842732626788,1.499314573795454
5.3760175704956055,-0.004689569201680086,[-0.002838],5.0,0.6,0.0,7.492054084315167e-12,0.009257842732530063,1.499314573795454
5.385535717010498,-0.004689569201680086,[-0.002838],5.0,0.6,0.0,6.8926897575699596e-12,0.009257842732529088,1.499314573795454
5.396134614944458,-0.004689569201680086,[-0.002838],5.0,0.6,0.0,6.3412745769643576e-12,0.009257842732529071,1.499314573795454
5.409295558929443,-0.004689569201680086,[-0.002838],5.0,0.6,0.0,5.833972610807218e-12,0.009257842732529064,1.499314573795454
5.421178579330444,-0.004689569201680086,[-0.002838],5.0,0.6,0.0,5.367254801942634e-12,0.009257842732529057,1.499314573795454
5.431010961532593,-0.004689569201680086,[-0.002838],5.0,0.6,0.0,4.93787441778723e-12,0.009257842732529054,1.499314573795454
5.439454078674316,-0.004689569201680086,[-0.002838],5.0,0.6,0.0,4.5428444643642525e-12,0.009257842732529052,1.499314573795454
5.449766635894775,-0.004689569201680086,[-0.002838],5.0,0.6,0.0,4.179416907215112e-12,0.00925784273252905,1.499314573795454
5.459014892578125,-0.004689569201680086,[-0.002838],5.0,0.6,0.0,3.8450635546379e-12,0.009257842732529047,1.499314573795454
5.471426486968994,-0.004689569201680086,[-0.002838],5.0,0.6,0.0,3.537458470266864e-12,0.009257842732529045,1.499314573795454
5.480965614318848,-0.004689569201680086,[-0.002838],5.0,0.6,0.0,3.2544617926455162e-12,0.009257842732529043,1.499314573795454
5.489976167678833,-0.004689569201680086,[-0.002838],5.0,0.6,0.0,2.9941048492338768e-12,0.00925784273252904,1.499314573795454
5.4999799728393555,-0.004689569201680086,[-0.002838],5.0,0.6,0.0,2.7545764612951643e-12,0.009257842732529038,1.499314573795454
5.5099852085113525,-0.004689569201680086,[-0.002838],5.0,0.6,0.0,2.5342103443915512e-12,0.009257842732529036,1.499314573795454
5.519066572189331,-0.004884967918416756,[-0.002838],5.0,0.6,0.0,2.3314735168402284e-12,0.01022506638037555,1.4991623360411441
5.530584096908569,-0.004689569201680086,[-0.002838],5.0,0.6,0.0,2.144955635493011e-12,0.009267514969007493,1.499314573795454
5.538799047470093,-0.004689569201680086,[-0.002838],5.0,0.6,0.0,1.9733591846535672e-12,0.009257939454893813,1.499314573795454
5.548943281173706,-0.004689569201680086,[-0.002838],5.0,0.6,0.0,1.815490449881282e-12,0.00925784369975268,1.499314573795454
5.558006525039673,-0.004689569201680086,[-0.002838],5.0,0.6,0.0,1.6702512138907818e-12,0.009257842742201271,1.499314573795454
5.567607879638672,-0.004884967918416756,[-0.002838],5.0,0.6,0.0,1.536631116779517e-12,0.010225066380472278,1.4991623360411441
5.5769898891448975,-0.004689569201680086,[-0.002838],5.0,0.6,0.0,1.4137006274371557e-12,0.00926751496900847,1.499314573795454
5.586066246032715,-0.004689569201680086,[-0.002838],5.0,0.6,0.0,1.3006045772421827e-12,0.00925793945489383,1.499314573795454
5.595046758651733,-0.004689569201680086,[-0.002838],5.0,0.6,0.0,1.1965562110628096e-12,0.00925784369975268,1.499314573795454
5.603992462158203,-0.004689569201680086,[-0.002838],5.0,0.6,0.0,1.1008317141777849e-12,0.009257842742201264,1.499314573795454
5.6146135330200195,-0.004689569201680086,[-0.002838],5.0,0.6,0.0,1.0127651770435618e-12,0.00925784273262575,1.499314573795454
5.625993013381958,-0.004884967918416756,[-0.002838],5.0,0.6,0.0,9.31743962880078e-13,0.010225066380376516,1.4991623360411441
5.6350014209747314,-0.004689569201680086,[-0.002838],5.0,0.6,0.0,8.572044458496717e-13,0.00926751496900751,1.499314573795454
5.6479878425598145,-0.004689569201680086,[-0.002838],5.0,0.6,0.0,7.886280901816989e-13,0.009257939454893822,1.499314573795454
5.658451080322266,-0.004689569201680086,[-0.002838],5.0,0.6,0.0,7.255378429671621e-13,0.009257843699752685,1.499314573795454
5.66764760017395,-0.004689569201680086,[-0.002838],5.0,0.6,0.0,6.674948155297901e-13,0.009257842742201271,1.499314573795454
5.674997329711914,-0.004884967918416756,[-0.002838],5.0,0.6,0.0,6.140952302874068e-13,0.010225066380472271,1.4991623360411441
5.68399977684021,-0.004689569201680086,[-0.002838],5.0,0.6,0.0,5.649676118644142e-13,0.009267514969008461,1.499314573795454
5.694609642028809,-0.004689569201680086,[-0.002838],5.0,0.6,0.0,5.197702029152608e-13,0.009257939454893824,1.499314573795454
5.7039690017700195,-0.004689569201680086,[-0.002838],5.0,0.6,0.0,4.781885866820399e-13,0.00925784369975268,1.499314573795454
5.715295314788818,-0.004884967918416756,[-0.002838],5.0,0.6,0.0,4.399334997474769e-13,0.010225066390047789,1.4991623360411441
5.727770090103149,-0.004689569201680086,[-0.002838],5.0,0.6,0.0,4.047388197676783e-13,0.009267514969104225,1.499314573795454
5.73698353767395,-0.004884967918416756,[-0.002838],5.0,0.6,0.0,3.723597141862635e-13,0.01022516310274131,1.4991623360411441
5.745919942855835,-0.004689569201680086,[-0.002838],5.0,0.6,0.0,3.425709370513623e-13,0.009267515936231159,1.499314573795454
5.754993438720703,-0.004689569201680086,[-0.002838],5.0,0.6,0.0,3.1516526208725404e-13,0.009257939464566054,1.499314573795454
5.763990640640259,-0.004689569201680086,[-0.002838],5.0,0.6,0.0,2.8995204112027354e-13,0.009257843699849399,1.499314573795454
5.777953624725342,-0.004689569201680086,[-0.002838],5.0,0.6,0.0,2.667558778306519e-13,0.009257842742202232,1.499314573795454
5.785999536514282,-0.004689569201680086,[-0.002838],5.0,0.6,0.0,2.4541540760419983e-13,0.009257842732625764,1.499314573795454
5.796007871627808,-0.004689569201680086,[-0.002838],5.0,0.6,0.0,2.2578217499586401e-13,0.009257842732530002,1.499314573795454
5.804011821746826,-0.004689569201680086,[-0.002838],5.0,0.6,0.0,2.0771960099619465e-13,0.009257842732529047,1.499314573795454
5.819051504135132,-0.004689569201680086,[-0.002838],5.0,0.6,0.0,1.91102032916499e-13,0.009257842732529038,1.499314573795454
5.827972650527954,-0.004884967918416756,[-0.002838],5.0,0.6,0.0,1.758138702831792e-13,0.010225066380375554,1.4991623360411441
5.839020252227783,-0.004689569201680086,[-0.002838],5.0,0.6,0.0,1.617487606605248e-13,0.009267514969007497,1.499314573795454
5.848634481430054,-0.004884967918416756,[-0.002838],5.0,0.6,0.0,1.4880885980768288e-13,0.010225163102740333,1.4991623360411441
5.8559606075286865,-0.004689569201680086,[-0.002838],5.0,0.6,0.0,1.369041510230684e-13,0.009267515936231142,1.499314573795454
5.866032838821411,-0.004689569201680086,[-0.002838],5.0,0.6,0.0,1.2595181894122278e-13,0.009257939464566054,1.499314573795454
5.8760154247283936,-0.004689569201680086,[-0.002838],5.0,0.6,0.0,1.1587567342592488e-13,0.009257843699849406,1.499314573795454
5.885079622268677,-0.004689569201680086,[-0.002838],5.0,0.6,0.0,1.0660561955185115e-13,0.009257842742202241,1.499314573795454
5.896193742752075,-0.004689569201680086,[-0.002838],5.0,0.6,0.0,9.807716998770307e-14,0.00925784273262577,1.499314573795454
5.906595468521118,-0.004689569201680086,[-0.00283792],5.0,0.6,0.0,9.023099638868675e-14,0.010119636867471722,1.4993145158606267
5.916035890579224,-0.004689569201680086,[-0.00283731],5.0,0.6,0.0,8.301251667759183e-14,0.013269000949836655,1.4993140653133714
5.924013376235962,-0.004689569201680086,[-0.0028353],5.0,0.6,0.0,7.637151534338434e-14,0.015051360911953273,1.499312574857448
5.932007789611816,-0.004689569201680086,[-0.00283053],5.0,0.6,0.0,7.026179411591372e-14,0.021673726014801036,1.4993090344982134
5.942795991897583,-0.004689569201680086,[-0.00282014],5.0,0.6,0.0,6.464085058664052e-14,0.035359204355043194,1.4993012931424041
5.952823877334595,-0.004689569201680086,[-0.00279992],5.0,0.6,0.0,5.946958253970922e-14,0.042391801227319344,1.499286096679868
5.961953401565552,-0.004689569201680086,[-0.00276668],5.0,0.6,0.0,5.471201593653261e-14,0.04087278567952262,1.4992607690288025
5.9720141887664795,-0.004689569201680086,[-0.00271844],5.0,0.6,0.0,5.033505466161e-14,0.049739457397063286,1.4992232292694827
5.983946800231934,-0.004494170484943416,[-0.00265132],5.0,0.6,0.0,4.630825028868114e-14,0.06810681917940653,1.4993210141704543
5.99390983581543,-0.004494170484943416,[-0.00255975],5.0,0.6,0.0,4.2603590265586647e-14,0.07418558288390191,1.499251882863292
6.003036737442017,-0.0042987717682067455,[-0.00244052],5.0,0.6,0.0,3.919530304433975e-14,0.06706710795308471,1.499309621843879
6.016008615493774,-0.0042987717682067455,[-0.00229168],5.0,0.6,0.0,0.2760383596787171,0.08775162233585873,1.4991379193762346
6.0263190269470215,-0.003907974334733405,[-0.00210769],5.0,0.6,0.0,0.5852013225188369,0.10692874116161785,1.4990971408936287
6.0346691608428955,-0.0037125756179967346,[-0.00188354],5.0,0.6,0.0,0.839267028767092,0.09267084548397196,1.4988070893626544
6.0428831577301025,-0.0033217781845233945,[-0.00161882],5.0,0.6,0.0,1.0172477298603937,0.09681402632694772,1.4986504470380313
6.052966594696045,-0.0031263794677867237,[-0.00131338],5.0,0.6,0.0,1.1247057533277478,0.10236657335047428,1.4984020674110938
6.062035083770752,-0.0027355820343133836,[-0.00096725],5.0,0.6,0.0,1.175541981100816,0.09085525968683372,1.4983471636742067
6.071720838546753,-0.0021493858841033727,[-0.00058193],5.0,0.6,0.0,1.4604189632889133,0.09927033583753556,1.49792357740191
6.084715366363525,-0.0015631897338933619,[-0.00015535],5.0,0.6,0.0,1.7490054142234444,0.12478696369648526,1.4973317198156844
6.093982934951782,-0.0009769935836833512,[0.00031763],5.0,0.6,0.0,1.9629668234460866,0.12680660231806656,1.4968047040128216
6.103959798812866,-0.00019539871673667023,[0.00083795],5.0,0.6,0.0,1.81265233992516,0.10905146778362912,1.4973465493285274
6.114945411682129,0.0005861961502100108,[0.00140483],5.0,0.6,0.0,1.8278873024093611,0.13776208926407504,1.4973849829198713
6.126158952713013,0.0013677910171566918,[0.00202159],5.0,0.6,0.0,1.8715998960063052,0.14007554936959132,1.4973137499127827
6.1359703540802,0.002344784600840043,[0.00269116],5.0,0.6,0.0,1.8937176952860573,0.14210434351923118,1.4973135738254166
6.144466161727905,0.0029309807510500534,[0.00341415],5.0,0.6,0.0,1.605916616910405,0.1471142414893863,1.4980372063728558
6.154804468154907,0.004103373051470075,[0.00419112],5.0,0.6,0.0,1.5297712250968458,0.1499941257377405,1.4982594453372946
6.164920806884766,0.005080366635153426,[0.00502266],5.0,0.6,0.0,1.5178893340996855,0.15450169601683614,1.4982871821742965
6.174986124038696,0.005861961502100107,[0.00591188],5.0,0.6,0.0,1.51074317764568,0.18409411657739316,1.498303406001996
6.185817241668701,0.0072297525192568,[0.00686139],5.0,0.6,0.0,1.4883507793090809,0.1558459255488311,1.4983265910956385
6.195981740951538,0.00840214481967682,[0.00786822],5.0,0.6,0.0,1.4474434374185234,0.16197459232672876,1.4983858277216446
6.205251216888428,0.009574537120096843,[0.00892979],5.0,0.6,0.0,1.3909773574137898,0.1674959001284869,1.498478657397519
6.214984893798828,0.011137726853990204,[0.01004646],5.0,0.6,0.0,1.3235381906482204,0.171820152526757,1.4984595488947896
6.22295618057251,0.011919321720936885,[0.01121561],5.0,0.6,0.0,1.2494966733433417,0.15085161190028196,1.4987401225180472
6.231992959976196,0.013287112738093578,[0.01243206],5.0,0.6,0.0,1.1724031273726063,0.1639506130167044,1.4988316333432294
6.245474815368652,0.015241099905460279,[0.01369768],5.0,0.6,0.0,1.3709441240561142,0.20058379186604727,1.4981265458897075
6.256089925765991,0.016999688356090312,[0.01502374],5.0,0.6,0.0,1.6040653246157595,0.2269393778454877,1.4973077361867406
6.2669408321380615,0.018562878089983675,[0.01641665],5.0,0.6,0.0,1.5087411791431018,0.19160653061473745,1.4973875578451001
6.277033805847168,0.020516865257350376,[0.0178717],5.0,0.6,0.0,1.307664325738147,0.19346153902732444,1.4973303017066655
6.287225008010864,0.022275453707980408,[0.01938458],5.0,0.6,0.0,1.0950477306170614,0.19601739233471943,1.4974381295868948
6.299682378768921,0.02462023830882045,[0.02095821],5.0,0.6,0.0,1.1820102786476694,0.22373683801485006,1.496282547072818
6.309834241867065,0.026574225476187156,[0.02259789],5.0,0.6,0.0,1.058691943624861,0.21448030357333614,1.4960090974964129
6.323150157928467,0.02911440879376387,[0.02430718],5.0,0.6,0.0,1.1544277042683704,0.23257907320939422,1.4943976943403043
6.330959796905518,0.030872997244393897,[0.02608479],5.0,0.6,0.0,1.0126175970642537,0.19361407334164582,1.4946623863202195
6.339646816253662,0.0328269844117606,[0.02792145],5.0,0.6,0.0,0.8091102296172026,0.19071564192511242,1.4947116111627698
6.348436594009399,0.03517176901260064,[0.02980789],5.0,0.6,0.0,0.6146934214314992,0.18531808352148518,1.4939810928013761
6.359092712402344,0.03771195233017736,[0.03173846],5.0,0.6,0.0,0.7288050055046924,0.1781328402761841,1.4924936361017545
6.367993593215942,0.03986133821428073,[0.03370392],5.0,0.6,0.0,0.9118358708453134,0.144420547306629,1.4918273735040608
6.380422592163086,0.04279231896533078,[0.03569503],5.0,0.6,0.0,0.7953024902104899,0.16808844966005862,1.4895056640754833
6.391822338104248,0.04552790099964417,[0.03770857],5.0,0.6,0.0,0.8709454944883582,0.15473831512397046,1.4872817216876861
6.404942989349365,0.04865428046743089,[0.03971331],5.0,0.6,0.0,0.4315690586040957,-0.1444481312204479,1.4840003080758222
6.414480924606323,0.0511944637850076,[0.04164661],5.0,0.6,0.0,0.18069741678105503,-0.13014521104548715,1.4819086081479564
6.421946287155151,0.05275765351890097,[0.04347367],5.0,0.6,0.0,-0.516055157766596,-0.09899215007148592,1.4827110435890578
6.434791803359985,0.05549323555321435,[0.04519394],5.0,0.6,0.0,-1.2178057415943455,-0.04751318754594348,1.4779055995206662
6.448663711547852,0.0578380201540544,[0.04681276],5.0,0.6,0.0,-2.3252961239412695,-0.04835358569387338,1.4719730399674147
6.457010269165039,0.05920581117121108,[0.04833134],5.0,0.6,0.0,-3.601146354956823,-0.0562199266811274,1.4670656876049406
6.466598272323608,0.06057360218836778,[0.04974665],5.0,0.6,0.0,-4.6455831570911785,-0.062044423334155996,1.4610182314910123
6.475332975387573,0.061355197055314455,[0.05105646],5.0,0.6,0.0,-5.0,-0.062461986532111345,1.4607426886318589
6.4859747886657715,0.06252758935573448,[0.0522603],5.0,0.6,0.0,-5.0,-0.06358826210801935,1.4608693135706536
6.49492621421814,0.06330918422268116,[0.05335914],5.0,0.6,0.0,-5.0,-0.06279554729148364,1.4621261250951538
6.502936124801636,0.06389538037289116,[0.0543551],5.0,0.6,0.0,-5.0,-0.06090058705746109,1.463693346219944
6.513959646224976,0.06448157652310119,[0.05525129],5.0,0.6,0.0,-5.0,-0.058094626334633845,1.464836784029353
6.524962902069092,0.06487237395657452,[0.0560517],5.0,0.6,0.0,-5.0,-0.05465366619552321,1.4662916460140978
6.534961223602295,0.06526317139004786,[0.05676092],5.0,0.6,0.0,-5.0,-0.05164432249725446,1.4673784305496693
6.542932987213135,0.06526317139004786,[0.05738399],5.0,0.6,0.0,-5.0,-0.047555431904373,1.4693925352699468
6.5547332763671875,0.06545857010678453,[0.05792626],5.0,0.6,0.0,-5.0,-0.043953399642948233,1.4704490658234364
6.5639119148254395,0.06545857010678453,[0.05839332],5.0,0.6,0.0,-5.0,-0.040488694889803355,1.471798192332879
6.57577109336853,0.06545857010678453,[0.05879087],5.0,0.6,0.0,-5.0,-0.036808317643288756,1.472879828186373
6.588137626647949,0.0650677726733112,[0.05912463],5.0,0.6,0.0,-4.34332022811774,-0.031801342952551805,1.4791133845278739
6.596088409423828,0.06526317139004786,[0.05940031],5.0,0.6,0.0,-3.48948574457068,-0.030445264065747997,1.4841664059673698
6.608613729476929,0.06487237395657452,[0.05962342],5.0,0.6,0.0,-2.692522166806607,-0.026296981397878887,1.4891372015958255
6.619954586029053,0.06467697523983784,[0.05979931],5.0,0.6,0.0,-1.756945474799519,-0.023651066718764213,1.4929603987405082
6.628957986831665,0.0642861778063645,[0.05993313],5.0,0.6,0.0,-0.6573732261112234,-0.02049610810228937,1.4958957776920578
6.637096643447876,0.06409077908962785,[0.06002971],5.0,0.6,0.0,0.017936983612288182,-0.0186124764073975,1.4967067399806402
6.648013114929199,0.06389538037289116,[0.06009365],5.0,0.6,0.0,0.7041489928170055,-0.016689975711390317,1.4967445917273532
6.655948162078857,0.06350458293941783,[0.06012927],5.0,0.6,0.0,1.2550413117919685,-0.014253876733393844,1.4965528931070415
6.664714097976685,0.06330918422268116,[0.06014056],5.0,0.6,0.0,1.6426306541662037,-0.013000144254792971,1.495989438856691
6.676029443740845,0.06291838678920783,[0.0601312],5.0,0.6,0.0,2.1603212548525894,-0.010867178056632145,1.49498545645028
6.68396782875061,0.06272298807247115,[0.06010458],5.0,0.6,0.0,2.3195810318481653,-0.009849243404611713,1.4946405069506747
6.69296407699585,0.06233219063899781,[0.06006377],5.0,0.6,0.0,2.305331753603964,-0.007867546336953541,1.495030831702661
6.700994253158569,0.06213679192226114,[0.06001155],5.0,0.6,0.0,2.4862943010743774,-0.007009799126190174,1.494516555733674
6.712913990020752,0.06174599448878779,[0.05995044],5.0,0.6,0.0,2.665896640792634,-0.005124777504652326,1.4940928391406159
6.723398208618164,0.061355197055314455,[0.05988271],5.0,0.6,0.0,2.5029074297000258,-0.0033872646217572248,1.4949247990491925
6.730947494506836,0.06115979833857779,[0.05981033],5.0,0.6,0.0,2.506575159876202,-0.002765021064275112,1.4949806490734594
6.74299168586731,0.060769000905104446,[0.059735],5.0,0.6,0.0,2.5331306544889385,-0.0011272000824673945,1.4950323012652593
6.753550291061401,0.06037820347163111,[0.05965822],5.0,0.6,0.0,2.531612897419962,0.0003844161943478085,1.4951481077158555
6.76194953918457,0.06018280475489443,[0.05958125],5.0,0.6,0.0,2.4909645723835343,0.0009145772530584947,1.4953299628151673
6.7699294090271,0.059987406038157755,[0.05950516],5.0,0.6,0.0,2.41554781134991,0.001576068506924598,1.4956288186918452
6.779672384262085,0.059987406038157755,[0.05943086],5.0,0.6,0.0,2.314278224785376,0.0011926094827540647,1.4959669842879526
6.789559602737427,0.0597920073214211,[0.05935909],5.0,0.6,0.0,2.47219227082841,0.0015937740934949753,1.4954335755458783
6.799740791320801,0.05959660860468442,[0.05929044],5.0,0.6,0.0,2.653893470572961,0.001954618531785767,1.4947657200938045
6.809914588928223,0.05959660860468442,[0.05922536],5.0,0.6,0.0,2.7768841842110614,0.0013161936183700344,1.4942651223060879
6.820036172866821,0.05959660860468442,[0.05916418],5.0,0.6,0.0,3.1003176351997936,0.0005361013485430312,1.4928584003237093
6.830526351928711,0.05959660860468442,[0.05910715],5.0,0.6,0.0,3.1135991206264917,-0.0002502710608174714,1.4927873263114375
6.837925672531128,0.05959660860468442,[0.0590544],5.0,0.6,0.0,2.9871250014636237,-0.0008478469781905765,1.4933429043848174
6.849955320358276,0.05959660860468442,[0.059006],5.0,0.6,0.0,2.8038341602462973,-0.0013601125652642617,1.4941122591232963
6.861983299255371,0.05959660860468442,[0.05896198],5.0,0.6,0.0,2.6034275844357717,-0.002125281477305946,1.4948993984207815
6.873755931854248,0.05959660860468442,[0.05892224],5.0,0.6,0.0,2.4043458604770067,-0.002645362119389401,1.4956242247743596
6.884504318237305,0.05959660860468442,[0.05888667],5.0,0.6,0.0,1.9386257563622689,-0.0029780930248471307,1.4971093577746504
6.891889572143555,0.05959660860468442,[0.05885514],5.0,0.6,0.0,1.452271404542761,-0.003263345256727172,1.4983225048753968
6.899952173233032,0.05959660860468442,[0.05882746],5.0,0.6,0.0,1.0342528949535104,-0.0035228637198307772,1.4990860536462889
6.910979270935059,0.05959660860468442,[0.05880341],5.0,0.6,0.0,0.7052510086449177,-0.0037492387012231358,1.4995040614382507
6.9219629764556885,0.05959660860468442,[0.05878274],5.0,0.6,0.0,0.45895982132759083,-0.0037833443329065132,1.4997107536436665
6.930966854095459,0.05959660860468442,[0.05876525],5.0,0.6,0.0,0.28058928681981254,-0.0038623533879928343,1.4998031735772046
6.942763566970825,0.059401209887947753,[0.05875069],5.0,0.6,0.0,0.15461253263134925,-0.0030317015869530486,1.4998975742960554
6.95380425453186,0.059401209887947753,[0.05873884],5.0,0.6,0.0,0.06758680860993685,-0.003033221090751113,1.4999088554799418
6.96335768699646,0.059401209887947753,[0.05872945],5.0,0.6,0.0,0.008827162163064103,-0.0030696678195146283,1.4999096927423112
6.9729323387146,0.05920581117121108,[0.05872229],5.0,0.6,0.0,-0.30581076010453884,-0.002077366943546013,1.4998836309146528
6.98495078086853,0.05920581117121108,[0.05871712],5.0,0.6,0.0,-0.36335219315563705,-0.00201732455134408,1.4998539683440355
6.997942209243774,0.05920581117121108,[0.05871372],5.0,0.6,0.0,-0.32281545808144424,-0.0019433255272580884,1.499874002766275
7.008918762207031,0.05901041245447442,[0.05871188],5.0,0.6,0.0,-0.5305641067167077,-0.0008049668686754695,1.4997726722779607
7.018578290939331,0.05901041245447442,[0.0587114],5.0,0.6,0.0,-0.4963832767064355,-0.0007339295987074757,1.4997987350678652
7.02990198135376,0.058619615021001076,[0.05871211],5.0,0.6,0.0,-0.3848389129537744,0.001314149271337783,1.4998880546615454
7.040931701660156,0.058619615021001076,[0.05871382],5.0,0.6,0.0,-0.2649588534936246,0.0012781419896714188,1.4999459683758185
7.051937818527222,0.058619615021001076,[0.05871638],5.0,0.6,0.0,-0.16199240507116847,0.0013364243465633454,1.4999785933408054
7.0628697872161865,0.0584242163042644,[0.05871964],5.0,0.6,0.0,-0.08209185574226266,0.002304984511041972,1.499977528669577
7.073885440826416,0.0584242163042644,[0.05872346],5.0,0.6,0.0,-0.023814528025064986,0.0023998487906213457,1.4999816681735072
7.082907676696777,0.0584242163042644,[0.05872773],5.0,0.6,0.0,0.016713204403196402,0.002259124011143702,1.499981367705785
7.0931642055511475,0.0584242163042644,[0.05873233],5.0,0.6,0.0,0.3196630992128934,0.0022056915322942014,1.4999049534668387
7.1049158573150635,0.0584242163042644,[0.05873714],5.0,0.6,0.0,0.3696781334263338,0.0020218474363947357,1.49987869560697
7.117311239242554,0.0584242163042644,[0.05874207],5.0,0.6,0.0,0.3243091484261107,0.0020617007363400016,1.4999015068478236
7.1259260177612305,0.0584242163042644,[0.05874705],5.0,0.6,0.0,0.25295490660801623,0.0020815991578274342,1.4999315265516162
7.1360321044921875,0.0584242163042644,[0.05875203],5.0,0.6,0.0,0.45979361883939024,0.001940125037688948,1.499821158819675
7.147976636886597,0.0584242163042644,[0.05875695],5.0,0.6,0.0,0.43535522384597836,0.0018666173051492233,1.4998367880414498
7.15789794921875,0.0584242163042644,[0.05876178],5.0,0.6,0.0,0.3358646326887824,0.0018037268225450781,1.4998932459048706
7.165908336639404,0.0584242163042644,[0.05876645],5.0,0.6,0.0,0.22708007109444933,0.001797938751129063,1.4999381913039258
7.173893213272095,0.0584242163042644,[0.05877095],5.0,0.6,0.0,0.13324695686914764,0.0018221268816401752,1.4999627387748458
7.184896945953369,0.0584242163042644,[0.05877525],5.0,0.6,0.0,0.060457536917052246,0.001846241013657767,1.4999726344041804
7.194890022277832,0.0584242163042644,[0.05877933],5.0,0.6,0.0,0.007548685868822635,0.0018426940198851978,1.4999747360441855
7.205896615982056,0.0584242163042644,[0.05878318],5.0,0.6,0.0,-0.02899652452362457,0.0017918331715069977,1.4999736029555926
7.213895320892334,0.0584242163042644,[0.05878678],5.0,0.6,0.0,-0.052981094356061444,0.0018705622741873905,1.4999716203798197
7.224921703338623,0.0584242163042644,[0.05879011],5.0,0.6,0.0,-0.06772829652773892,0.001781372729570813,1.4999698094283753
7.235700368881226,0.0584242163042644,[0.05879318],5.0,0.6,0.0,-0.0758863583417006,0.001843321649192481,1.4999684871517482
7.245952606201172,0.0584242163042644,[0.05879597],5.0,0.6,0.0,-0.07946204891572453,0.001872720154165832,1.499967659991184
7.259033918380737,0.0584242163042644,[0.0587985],5.0,0.6,0.0,-0.07992929015443531,0.0018842261695918884,1.4999672265330162
7.269894123077393,0.0584242163042644,[0.05880079],5.0,0.6,0.0,-0.07834768338996698,0.0019008356149046253,1.4999670698120005
7.281233072280884,0.0584242163042644,[0.05880283],5.0,0.6,0.0,-0.07546668065304442,0.0018929854275613678,1.4999670907997618
7.28992486000061,0.0584242163042644,[0.05880465],5.0,0.6,0.0,-0.07180906276517016,0.0019097767434457565,1.499967216204784
7.298587322235107,0.0584242163042644,[0.05880624],5.0,0.6,0.0,-0.06773461344420383,0.0018547045506512893,1.4999673966338944
7.30864691734314,0.0584242163042644,[0.05880761],5.0,0.6,0.0,-0.06348727441143474,0.0018479513490130006,1.4999676017962644
7.316890239715576,0.0584242163042644,[0.05880877],5.0,0.6,0.0,-0.05922941201475419,0.0018966930086164217,1.4999678132939915
7.326808214187622,0.0584242163042644,[0.05880972],5.0,0.6,0.0,-0.05506640200608623,0.0018800386475833926,1.499968019989786
7.339726686477661,0.0584242163042644,[0.0588105],5.0,0.6,0.0,-0.051064109543932416,0.0019169920363009305,1.4999682163148076
7.3518805503845215,0.0584242163042644,[0.05881112],5.0,0.6,0.0,-0.047261234385038126,0.001931217291791384,1.499968399601918
7.362332105636597,0.0584242163042644,[0.05881158],5.0,0.6,0.0,-0.04367798306536288,0.0018902657083976952,1.4999685695751404
7.374085187911987,0.0584242163042644,[0.05881191],5.0,0.6,0.0,-0.04032213257587002,0.0018843340561205148,1.4999687282672851
7.38190221786499,0.0584242163042644,[0.05881211],5.0,0.6,0.0,-0.037193251155789184,0.0018758651021368088,1.4999688780835436
7.390870571136475,0.0584242163042644,[0.05881219],5.0,0.6,0.0,-0.03428562223200488,0.0018912303793999585,1.4999690208293446
7.403606414794922,0.0584242163042644,[0.05881216],5.0,0.6,0.0,-0.031590258640763036,0.0019186547801974254,1.4999691573537968
7.41395115852356,0.0584242163042644,[0.05881204],5.0,0.6,0.0,-0.029096280465246614,0.0019048784832133593,1.4999692880707158
7.421904563903809,0.0584242163042644,[0.05881185],5.0,0.6,0.0,-0.026791848881358958,0.0018821293852123973,1.4999694141552764
7.430890321731567,0.0584242163042644,[0.05881158],5.0,0.6,0.0,-0.024664791114338076,0.0018709956899450428,1.4999695372636341
7.43933367729187,0.0584242163042644,[0.05881125],5.0,0.6,0.0,-0.022703011198710252,0.0018893411139824124,1.4999696583444329
7.447873592376709,0.0584242163042644,[0.05881086],5.0,0.6,0.0,-0.020894752800815736,0.0019026082058869378,1.4999697772588378
7.455892324447632,0.0584242163042644,[0.05881043],5.0,0.6,0.0,-0.01922876039362155,0.0019333045672664101,1.4999698930947716
7.464385271072388,0.05822881758752774,[0.05880997],5.0,0.6,0.0,-0.017694371068076267,0.0028356872388116926,1.499932220686807
7.471948623657227,0.0584242163042644,[0.05880949],5.0,0.6,0.0,-0.01628155945385864,0.0019047662571432832,1.499970115560745
7.483885288238525,0.0584242163042644,[0.05880899],5.0,0.6,0.0,-0.01498095135594358,0.0018652648796243633,1.4999702234408072
7.493813753128052,0.0584242163042644,[0.05880846],5.0,0.6,0.0,-0.013783816912610446,0.001858819734098174,1.4999703296765892
7.501911640167236,0.0584242163042644,[0.05880792],5.0,0.6,0.0,-0.012682050727334701,0.0018950891195462381,1.499970434258105
7.512901782989502,0.0584242163042644,[0.05880738],5.0,0.6,0.0,-0.0116681440876278,0.0018541887384823444,1.4999705366914804
7.521892547607422,0.0584242163042644,[0.05880682],5.0,0.6,0.0,-0.01073515275408682,0.0018838024670424993,1.4999706369729222
7.53649377822876,0.0584242163042644,[0.05880627],5.0,0.6,0.0,-0.009876662669455027,0.0018709657918425493,1.499970734810053
7.544886112213135,0.0584242163042644,[0.05880571],5.0,0.6,0.0,-0.009086755151018582,0.0018130183959735211,1.499970830717602
7.555866956710815,0.0584242163042644,[0.05880516],5.0,0.6,0.0,-0.008359972585587735,0.0018822503511205803,1.499970925374136
7.56590723991394,0.0584242163042644,[0.0588046],5.0,0.6,0.0,-0.007691285271429486,0.0018254312477573595,1.4999710183914532
7.5776543617248535,0.0584242163042644,[0.05880404],5.0,0.6,0.0,-0.00707605979461394,0.0018557440909911403,1.4999711098324606
7.586998462677002,0.0584242163042644,[0.05880349],5.0,0.6,0.0,-0.006510029152482321,0.0018267891936468116,1.4999711999155265
7.5953896045684814,0.0584242163042644,[0.05880293],5.0,0.6,0.0,-0.005989264719294153,0.0018500829096146892,1.4999712885977494
7.604917764663696,0.0584242163042644,[0.05880238],5.0,0.6,0.0,-0.005510150071060002,0.0017864745736719434,1.4999713763969045
7.614881277084351,0.0584242163042644,[0.05880182],5.0,0.6,0.0,-0.0050693566358928095,0.0018643294739997323,1.4999714636144654
7.622864007949829,0.0584242163042644,[0.05880128],5.0,0.6,0.0,-0.004663821104384225,0.001848761780258533,1.4999715491593675
7.635565996170044,0.0584242163042644,[0.05880074],5.0,0.6,0.0,-0.004290724515587737,0.0017839417239857228,1.4999716330789723
7.64588475227356,0.0584242163042644,[0.0588002],5.0,0.6,0.0,-0.003947472924028827,0.0018357416421455057,1.4999717164784205
7.655872344970703,0.0584242163042644,[0.05879966],5.0,0.6,0.0,-0.0036316795488882626,0.0017751101428412606,1.4999717996389765
7.6669392585754395,0.0584242163042644,[0.05879911],5.0,0.6,0.0,-0.0033411483061244534,0.0017959255243266234,1.499971883210818
7.676894903182983,0.0584242163042644,[0.05879855],5.0,0.6,0.0,-0.0030738586264375837,0.0017796052007669186,1.4999719676973824
7.68683648109436,0.0584242163042644,[0.05879799],5.0,0.6,0.0,-0.002827951465684749,0.0017689872139912543,1.4999720534272365
7.69486665725708,0.0584242163042644,[0.05879741],5.0,0.6,0.0,-0.0026017164189834933,0.0017662299003680275,1.499972140941674
7.704849720001221,0.0584242163042644,[0.05879682],5.0,0.6,0.0,-0.0023935798548522817,0.0018296907330616647,1.4999722295919438
7.71692156791687,0.0584242163042644,[0.05879622],5.0,0.6,0.0,-0.002202093991035328,0.0017279477074124102,1.4999723189195209
7.728857517242432,0.0584242163042644,[0.05879561],5.0,0.6,0.0,-0.002025926838952364,0.0017141687549884128,1.499972410763171
7.740999221801758,0.0584242163042644,[0.05879497],5.0,0.6,0.0,-0.0018638529488760784,0.001730996473680299,1.4999725066188838
7.753859043121338,0.0584242163042644,[0.05879429],5.0,0.6,0.0,-0.0017147448928939279,0.001699848497504829,1.4999726067196026
7.762842178344727,0.0584242163042644,[0.05879359],5.0,0.6,0.0,-0.0015775654274119665,0.0017071193190618579,1.499972711554712
7.771863698959351,0.0584242163042644,[0.05879284],5.0,0.6,0.0,-0.001451360281383694,0.0016944108675601643,1.499972821432972
7.7844414710998535,0.0584242163042644,[0.05879207],5.0,0.6,0.0,-0.0013352515205882784,0.0017001205202482013,1.49997293636466
7.791879415512085,0.0584242163042644,[0.05879125],5.0,0.6,0.0,-0.0012284314421419135,0.0017195399661111596,1.4999730558578686
7.801852703094482,0.0584242163042644,[0.05879041],5.0,0.6,0.0,-0.0011301569570110496,0.00170180463471921,1.4999731791769275
7.813561201095581,0.0584242163042644,[0.05878955],5.0,0.6,0.0,-0.0010397444216185057,0.0017052261685678762,1.4999733059940086
7.8248772621154785,0.0584242163042644,[0.05878866],5.0,0.6,0.0,-0.0009565648827068648,0.0016997360690988487,1.4999734360030987
7.835837364196777,0.0584242163042644,[0.05878775],5.0,0.6,0.0,-0.000880039702462803,0.0016947833511226323,1.499973568836352
7.844951629638672,0.0584242163042644,[0.05878681],5.0,0.6,0.0,-0.0008096365335265206,0.0016683343834401677,1.4999737045010841
7.852905988693237,0.0584242163042644,[0.05878586],5.0,0.6,0.0,-0.0007448656159269175,0.0017114362745508855,1.4999738426856253
7.860863924026489,0.0584242163042644,[0.05878489],5.0,0.6,0.0,-0.0006852763702105268,0.0016438009324997785,1.4999739829799028
7.870870590209961,0.0584242163042644,[0.0587839],5.0,0.6,0.0,-0.00063045426308412,0.0017034890078479335,1.4999741252794043
7.879823923110962,0.0584242163042644,[0.0587829],5.0,0.6,0.0,-0.0005800179237806941,0.001669536919886641,1.499974268851308
7.890825986862183,0.0584242163042644,[0.05878189],5.0,0.6,0.0,-0.0005336164910985514,0.0016576878288380706,1.4999744134073885
7.899856805801392,0.0584242163042644,[0.05878087],5.0,0.6,0.0,-0.0004909271726648858,0.0016506107810668514,1.4999745592597984
7.909773111343384,0.0584242163042644,[0.05877984],5.0,0.6,0.0,-0.0004516529994496478,0.0016750432298066357,1.4999747059927704
7.918846607208252,0.0584242163042644,[0.05877881],5.0,0.6,0.0,-0.0004155207599122428,0.0016221011546454776,1.4999748532947366
7.930843353271484,0.0584242163042644,[0.05877776],5.0,0.6,0.0,-0.0003822790994122608,0.0016236394045184576,1.4999750017354383
7.943174839019775,0.0584242163042644,[0.05877669],5.0,0.6,0.0,-0.0003516967716643784,0.0015846942174923494,1.499975152098307
7.952884674072266,0.0584242163042644,[0.05877562],5.0,0.6,0.0,-0.0003235610300747967,0.0016715545272348053,1.4999753039878756
7.962696552276611,0.05822881758752774,[0.05877453],5.0,0.6,0.0,-0.00029767614776931065,0.002605105811829982,1.4999404404885737
7.974421977996826,0.0584242163042644,[0.05877345],5.0,0.6,0.0,-0.00027386205601811467,0.0016446810178682655,1.4999756067182213
7.983894348144531,0.0584242163042644,[0.05877238],5.0,0.6,0.0,-0.0002519530915859093,0.0016350339979413636,1.4999757567518328
7.995050430297852,0.0584242163042644,[0.0587713],5.0,0.6,0.0,-0.00023179684429350738,0.0015612149004999242,1.4999759063671603
8.005733728408813,0.0584242163042644,[0.05877022],5.0,0.6,0.0,-0.0002132530967741564,0.0016331154250547484,1.4999760561608886
8.01589584350586,0.0584242163042644,[0.05876915],5.0,0.6,0.0,-0.00019619284904911485,0.001628391334984711,1.4999762050557388
8.025891304016113,0.0584242163042644,[0.05876808],5.0,0.6,0.0,-0.00018049742113700922,0.001607448048008715,1.4999763521465956
8.034439325332642,0.0584242163042644,[0.05876701],5.0,0.6,0.0,-0.00016605762745432482,0.0015435096404437787,1.4999764983576598
8.041853189468384,0.0584242163042644,[0.05876594],5.0,0.6,0.0,-0.0001527730172637724,0.001571266390190535,1.4999766449138434
8.051844835281372,0.0584242163042644,[0.05876487],5.0,0.6,0.0,-0.00014055117588672596,0.001576794106253648,1.499976791728436
8.063845872879028,0.0584242163042644,[0.05876379],5.0,0.6,0.0,-0.00012930708181862674,0.0015898175339097895,1.499976937984477
8.074862718582153,0.0584242163042644,[0.05876272],5.0,0.6,0.0,-0.00011896251527512382,0.0015172325924163394,1.4999770838799904
8.083089828491211,0.05822881758752774,[0.05876163],5.0,0.6,0.0,-0.00010944551405450494,0.0025286516835805344,1.4999432231062033
8.098718404769897,0.0584242163042644,[0.05876054],5.0,0.6,0.0,-0.00010068987293111818,0.0015320367530359735,1.4999773770974438
8.109313011169434,0.0584242163042644,[0.05875945],5.0,0.6,0.0,-9.263468309731026e-05,0.0015663266531588341,1.4999775241961406
8.118842601776123,0.0584242163042644,[0.05875835],5.0,0.6,0.0,-8.522390845000243e-05,0.001563233153848901,1.4999776706854258
8.129982948303223,0.0584242163042644,[0.05875726],5.0,0.6,0.0,-7.840599577433633e-05,0.0014978387836565282,1.4999778165223194
8.139611721038818,0.0584242163042644,[0.05875616],5.0,0.6,0.0,-7.213351611262319e-05,0.001470200895484828,1.499977963302604
8.148835897445679,0.0584242163042644,[0.05875504],5.0,0.6,0.0,-6.63628348237771e-05,0.001540671464217782,1.499978111484695
8.160837411880493,0.0584242163042644,[0.05875392],5.0,0.6,0.0,-6.105380803798949e-05,0.0015517877870942817,1.4999782594377105
8.170865297317505,0.0584242163042644,[0.0587528],5.0,0.6,0.0,-5.616950339503048e-05,0.0014837194773326206,1.4999784064820516
8.181667804718018,0.0584242163042644,[0.05875169],5.0,0.6,0.0,-5.1675943123484246e-05,0.0015640461514260275,1.49997855270778
8.191877365112305,0.0584242163042644,[0.05875058],5.0,0.6,0.0,-4.754186767364475e-05,0.0014639187300188841,1.4999786978277267
8.199826717376709,0.0584242163042644,[0.05874947],5.0,0.6,0.0,-4.373851825978069e-05,0.0015268509660926652,1.4999788421480038
8.211813688278198,0.05822881758752774,[0.05874836],5.0,0.6,0.0,-4.023943679901748e-05,0.002435721578605764,1.4999460155777788
8.22411036491394,0.0584242163042644,[0.05874726],5.0,0.6,0.0,-3.702028185510954e-05,0.0014886931994746943,1.499979128904965
8.235022783279419,0.0584242163042644,[0.05874615],5.0,0.6,0.0,-3.4058659306710225e-05,0.0014733946316426783,1.4999792718563918
8.243879795074463,0.0584242163042644,[0.05874504],5.0,0.6,0.0,-3.133396656218002e-05,0.0014851759229899595,1.499979414279022
8.253813982009888,0.0584242163042644,[0.05874394],5.0,0.6,0.0,-2.8827249237210277e-05,0.0014752887696745706,1.499979555817029
8.262838125228882,0.0584242163042644,[0.05874284],5.0,0.6,0.0,-2.65210692982367e-05,0.0014823719828537794,1.4999796961793797
8.275390148162842,0.0584242163042644,[0.05874175],5.0,0.6,0.0,-2.439938375438003e-05,0.0014706049876969884,1.4999798351379532
8.284622430801392,0.0584242163042644,[0.05874066],5.0,0.6,0.0,-2.244743305403117e-05,0.0014894393516493962,1.4999799723540062
8.294830799102783,0.0584242163042644,[0.05873959],5.0,0.6,0.0,-2.065163840970979e-05,0.001424059944725178,1.4999801079636361
8.303884506225586,0.0584242163042644,[0.05873852],5.0,0.6,0.0,-1.899950733693379e-05,0.00144125037989725,1.499980242787048
8.315087080001831,0.0584242163042644,[0.05873745],5.0,0.6,0.0,-1.7479546749979634e-05,0.0014177975952390574,1.4999803772985678
8.325014591217041,0.05822881758752774,[0.05873638],5.0,0.6,0.0,-1.6081183009981637e-05,0.0024058193124666095,1.4999484782754855
8.339128494262695,0.0584242163042644,[0.0587353],5.0,0.6,0.0,-1.4794688369183375e-05,0.0014339915490208883,1.499980645167475
8.349826335906982,0.0584242163042644,[0.05873423],5.0,0.6,0.0,-1.3611113299648898e-05,0.0014033777042452664,1.4999807784569628
8.361405372619629,0.0584242163042644,[0.05873316],5.0,0.6,0.0,-1.2522224235677081e-05,0.0014562931480985456,1.4999809111969056
8.369916915893555,0.0584242163042644,[0.0587321],5.0,0.6,0.0,-1.152044629682302e-05,0.0014711668488888033,1.4999810420418933
8.379295587539673,0.0584242163042644,[0.05873105],5.0,0.6,0.0,-1.0598810593077255e-05,0.0013785478219084104,1.4999811707227781
8.388835191726685,0.0584242163042644,[0.05873001],5.0,0.6,0.0,-9.750905745631129e-06,0.0014796671166884183,1.4999812976567508
8.400103569030762,0.0584242163042644,[0.058729],5.0,0.6,0.0,-8.970833285980674e-06,0.0014101831589259266,1.4999814221562842
8.409329414367676,0.0584242163042644,[0.05872799],5.0,0.6,0.0,-8.253166623102245e-06,0.0013629320707836956,1.4999815448714373
8.418993711471558,0.0584242163042644,[0.05872698],5.0,0.6,0.0,-7.592913293254065e-06,0.001418537793468966,1.499981666824701
8.429840564727783,0.0584242163042644,[0.05872599],5.0,0.6,0.0,-6.985480229793752e-06,0.0014508080151654672,1.4999817869172913
8.442960023880005,0.0584242163042644,[0.05872502],5.0,0.6,0.0,-6.426641811410261e-06,0.0014256305060605567,1.4999819039077444
8.455936670303345,0.0584242163042644,[0.05872406],5.0,0.6,0.0,-5.9125104664974466e-06,0.0013647535263880796,1.4999820183266321
8.469944953918457,0.0584242163042644,[0.05872311],5.0,0.6,0.0,-5.439509629177651e-06,0.001310211374201342,1.4999821321615174
8.482814311981201,0.0584242163042644,[0.05872216],5.0,0.6,0.0,-5.004348858843455e-06,0.001370300824795057,1.4999822466610087
8.492948055267334,0.0584242163042644,[0.05872119],5.0,0.6,0.0,-4.604000950135973e-06,0.0013793779780224222,1.4999823611572074
8.503957509994507,0.0584242163042644,[0.05872023],5.0,0.6,0.0,-4.235680874125102e-06,0.0013259506375450883,1.4999824753372224
8.51443362236023,0.0584242163042644,[0.05871926],5.0,0.6,0.0,-3.896826404195092e-06,0.0013450434661122625,1.4999825899044459
8.5263671875,0.0584242163042644,[0.05871829],5.0,0.6,0.0,-3.585080291859483e-06,0.0013625518560774186,1.4999827047494803
8.535660743713379,0.0584242163042644,[0.0587173],5.0,0.6,0.0,-3.298273868510727e-06,0.0012852105333593126,1.4999828199793974
8.545141458511353,0.0584242163042644,[0.05871631],5.0,0.6,0.0,-3.034411959029873e-06,0.0013741861255174529,1.4999829359458203
8.55591082572937,0.0584242163042644,[0.05871532],5.0,0.6,0.0,-2.79165900230748e-06,0.001358755223706427,1.4999830516009343
8.567813873291016,0.0584242163042644,[0.05871434],5.0,0.6,0.0,-2.5683262821228815e-06,0.0013574223584226991,1.499983166049791
8.57765007019043,0.0584242163042644,[0.05871336],5.0,0.6,0.0,-2.3628601795530527e-06,0.001376151015562465,1.4999832789078271
8.591472387313843,0.0584242163042644,[0.0587124],5.0,0.6,0.0,-2.1738313651888075e-06,0.0013309837399508048,1.499983389907796
8.599804401397705,0.0584242163042644,[0.05871146],5.0,0.6,0.0,-1.9999248559737044e-06,0.0013916958205556834,1.4999834988369904
8.6108078956604,0.0584242163042644,[0.05871053],5.0,0.6,0.0,-1.8399308674958107e-06,0.0013257288746467734,1.4999836052992555
8.621798753738403,0.0584242163042644,[0.05870962],5.0,0.6,0.0,-1.6927363980961438e-06,0.0013909738505939288,1.4999837090782187
8.635260581970215,0.0584242163042644,[0.05870874],5.0,0.6,0.0,-1.55731748624845e-06,0.001368034464132998,1.499983809499456
8.643567085266113,0.0584242163042644,[0.05870789],5.0,0.6,0.0,-1.4327320873485751e-06,0.0013299376456928009,1.4999839064904221
8.653427600860596,0.0584242163042644,[0.05870706],5.0,0.6,0.0,-1.3181135203606874e-06,0.001365761874041542,1.4999840004974043
8.662846088409424,0.0584242163042644,[0.05870625],5.0,0.6,0.0,-1.2126644387318329e-06,0.0013417653771897464,1.4999840913271552
8.672812461853027,0.0584242163042644,[0.05870547],5.0,0.6,0.0,-1.1156512836332877e-06,0.0013024149171704598,1.4999841794141615
8.68481707572937,0.0584242163042644,[0.05870471],5.0,0.6,0.0,-1.0263991809426249e-06,0.0014021133828771145,1.4999842647696013
8.697616815567017,0.0584242163042644,[0.05870398],5.0,0.6,0.0,-9.442872464672151e-07,0.0012970598385341782,1.4999843468180925
8.707840919494629,0.0584242163042644,[0.05870327],5.0,0.6,0.0,-8.687442667498364e-07,0.0013212949979023946,1.4999844263506503
8.717040300369263,0.0584242163042644,[0.05870258],5.0,0.6,0.0,-7.992447254098486e-07,0.0013874109474704744,1.4999845033025336
8.729950189590454,0.0584242163042644,[0.05870191],5.0,0.6,0.0,-7.353051473770617e-07,0.0013138092664151317,1.4999845768526552
8.740807294845581,0.0584242163042644,[0.05870127],5.0,0.6,0.0,-6.764807355868976e-07,0.0012664375683771154,1.499984648206905
8.752888202667236,0.0584242163042644,[0.05870063],5.0,0.6,0.0,-6.22362276739945e-07,0.0013079398527372386,1.499984718719686
8.764888286590576,0.0584242163042644,[0.0587],5.0,0.6,0.0,-5.725732946007501e-07,0.0012827805847603125,1.4999847884998
8.775821447372437,0.0584242163042644,[0.05869937],5.0,0.6,0.0,-5.267674310326903e-07,0.001219728964900455,1.4999848584112372
8.786143064498901,0.0584242163042644,[0.05869872],5.0,0.6,0.0,-4.84626036550075e-07,0.001291906122362833,1.499984929414933
8.793888807296753,0.0584242163042644,[0.05869807],5.0,0.6,0.0,-4.4585595362606866e-07,0.001282721897982613,1.4999850009872193
8.80687427520752,0.0584242163042644,[0.05869742],5.0,0.6,0.0,-4.1018747733598346e-07,0.0013076543088369993,1.4999850723718282
8.815789699554443,0.0584242163042644,[0.05869677],5.0,0.6,0.0,-3.773724791491054e-07,0.0013206319011729137,1.4999851429144762
8.825522422790527,0.0584242163042644,[0.05869613],5.0,0.6,0.0,-3.4718268081717673e-07,0.0012791002246096402,1.4999852123179644
8.835362434387207,0.0584242163042644,[0.0586955],5.0,0.6,0.0,-3.194080663518022e-07,0.0013111467935342073,1.499985280747528
8.847849130630493,0.0584242163042644,[0.05869488],5.0,0.6,0.0,-2.9385542104365864e-07,0.0013095431540798338,1.499985347844842
8.857849597930908,0.0584242163042644,[0.05869427],5.0,0.6,0.0,-2.70346987360166e-07,0.001232286334132721,1.4999854139150948
8.868687391281128,0.0584242163042644,[0.05869366],5.0,0.6,0.0,-2.4871922837135213e-07,0.001238120476361604,1.4999854803249753
8.87995195388794,0.0584242163042644,[0.05869304],5.0,0.6,0.0,-2.2882169010164437e-07,0.0013004137990656754,1.4999855471698407
8.88981294631958,0.0584242163042644,[0.05869242],5.0,0.6,0.0,-2.105159548935127e-07,0.0012611093358821542,1.4999856135842664
8.901752710342407,0.0584242163042644,[0.0586918],5.0,0.6,0.0,-1.936746785020317e-07,0.0011852240762540809,1.49998568033717
8.910822868347168,0.0584242163042644,[0.05869116],5.0,0.6,0.0,-1.7818070422186904e-07,0.0013122742375421567,1.4999857480091647
8.920793294906616,0.0584242163042644,[0.05869053],5.0,0.6,0.0,-1.639262478841195e-07,0.001211000375439927,1.4999858158556787
8.931392192840576,0.0584242163042644,[0.05868988],5.0,0.6,0.0,-1.5081214805338975e-07,0.0012241883440131168,1.4999858843444702
8.943790197372437,0.0584242163042644,[0.05868923],5.0,0.6,0.0,-1.3874717620911853e-07,0.0012697695777796028,1.4999859536691869
8.955777645111084,0.0584242163042644,[0.05868857],5.0,0.6,0.0,-1.2764740211238905e-07,0.0012278990726768697,1.499986023143435
8.964799880981445,0.0584242163042644,[0.05868792],5.0,0.6,0.0,-1.1743560994339801e-07,0.0012543551607223516,1.4999860926893227
8.973774433135986,0.0584242163042644,[0.05868725],5.0,0.6,0.0,-1.0804076114792646e-07,0.0012186689191505337,1.499986162352424
8.98600149154663,0.0584242163042644,[0.05868658],5.0,0.6,0.0,-9.93975002560923e-08,0.0011727335535426388,1.4999862328289704
8.994894981384277,0.0584242163042644,[0.05868589],5.0,0.6,0.0,-9.14457002356049e-08,0.0011963742602302205,1.4999863050248599
9.0063796043396,0.0584242163042644,[0.05868519],5.0,0.6,0.0,-8.41300442167566e-08,0.0012029443714530706,1.4999863788611416
9.015837669372559,0.0584242163042644,[0.05868447],5.0,0.6,0.0,-7.739964067941596e-08,0.0012577336511777936,1.4999864533976255
9.023754358291626,0.0584242163042644,[0.05868377],5.0,0.6,0.0,-7.120766942506276e-08,0.0013057910486011287,1.4999865268579566
9.03178095817566,0.05822881758752774,[0.05868308],5.0,0.6,0.0,-6.551105587105774e-08,0.00215907112991942,1.4999587308013176
9.040221691131592,0.0584242163042644,[0.05868239],5.0,0.6,0.0,-6.027017140137319e-08,0.0012110241750360145,1.4999866694195472
9.049928426742554,0.0584242163042644,[0.0586817],5.0,0.6,0.0,-5.544855768926326e-08,0.0011883088688796556,1.499986740528013
9.059840440750122,0.0584242163042644,[0.05868101],5.0,0.6,0.0,-5.101267307412208e-08,0.001237407027905528,1.4999868114426842
9.067790746688843,0.0584242163042644,[0.05868033],5.0,0.6,0.0,-4.6931659228192364e-08,0.0012411761911544092,1.4999868812207438
9.082034349441528,0.0584242163042644,[0.05867966],5.0,0.6,0.0,-4.317712648993705e-08,0.0011615559902750756,1.4999869498473135
9.091877937316895,0.0584242163042644,[0.058679],5.0,0.6,0.0,-3.972295637074209e-08,0.0012741178566770999,1.4999870175289154
9.100784063339233,0.0584242163042644,[0.05867835],5.0,0.6,0.0,-3.6545119861082705e-08,0.001218534269313134,1.499987083303743
9.10879397392273,0.0584242163042644,[0.05867772],5.0,0.6,0.0,-3.362151027219609e-08,0.001141802098575491,1.499987147642482
9.121507167816162,0.0584242163042644,[0.05867658],5.0,0.6,0.0,-3.0931789450420395e-08,-0.004278286044435942,1.4999872620937365
9.129440546035767,0.0584242163042644,[0.05867409],5.0,0.6,0.0,-2.8457246294386718e-08,-0.002280461147603486,1.4999875131631155
9.138819694519043,0.0584242163042644,[0.05867051],5.0,0.6,0.0,-2.6180666590835826e-08,0.0039627014048157026,1.499987867818967
9.150762796401978,0.0584242163042644,[0.0586679],5.0,0.6,0.0,-2.408621326356893e-08,0.012440444756267472,1.4999881239270536
9.161009073257446,0.0584242163042644,[0.05866945],5.0,0.6,0.0,-2.2159316202483406e-08,0.02196297849554685,1.499987972273379
9.17278003692627,0.0584242163042644,[0.05868001],5.0,0.6,0.0,-2.0386570906284746e-08,0.04158973549056991,1.4999869141800626
9.182547807693481,0.0584242163042644,[0.05870589],5.0,0.6,0.0,-1.8755645233781982e-08,0.051747865242566506,1.4999841324118446
9.190871238708496,0.0584242163042644,[0.05875185],5.0,0.6,0.0,-1.7255193615079456e-08,0.04951954893702067,1.4999785314642335
9.198796272277832,0.0584242163042644,[0.05882096],5.0,0.6,0.0,-1.587477812587308e-08,0.06297817918169384,1.4999685188120755
9.209974765777588,0.058619615021001076,[0.05891775],5.0,0.6,0.0,-1.4604795875803219e-08,0.07547337398689015,1.4999822238512657
9.223757266998291,0.05901041245447442,[0.05904977],5.0,0.6,0.0,-1.343641220573897e-08,0.10505106372435813,1.4999996902106976
9.231847286224365,0.05901041245447442,[0.05922435],5.0,0.6,0.0,0.27603834731718174,0.09478323311292665,1.4999341281651708
9.241767168045044,0.05920581117121108,[0.05944507],5.0,0.6,0.0,0.5852013111462244,0.10845024352232226,1.499733688505918
9.251857280731201,0.05959660860468442,[0.05971573],5.0,0.6,0.0,0.5632286586256078,0.1210822664128108,1.4997610739864127
9.264106750488281,0.059987406038157755,[0.06004447],5.0,0.6,0.0,0.984123117073173,0.15766985107419024,1.4992789175367816
9.271798849105835,0.06037820347163111,[0.0604388],5.0,0.6,0.0,1.4558413607425758,0.13803331977463007,1.4984240146474934
9.280820608139038,0.060769000905104446,[0.06090346],5.0,0.6,0.0,1.5607899409486337,0.1784057116740237,1.4981862603187803
9.292380809783936,0.061550595772051124,[0.06144576],5.0,0.6,0.0,1.7850073396676405,0.18285090376248558,1.4976315714708557
9.30190396308899,0.06213679192226114,[0.06206905],5.0,0.6,0.0,1.9836079041151933,0.16034068274323615,1.497078651462178
9.311759948730469,0.06291838678920783,[0.06277055],5.0,0.6,0.0,2.3884608055116017,0.17402583817987902,1.495766996505778
9.324533939361572,0.06409077908962785,[0.06355397],5.0,0.6,0.0,2.754143378474084,0.21265120646960772,1.4943276263841192
9.335724830627441,0.06526317139004786,[0.06442864],5.0,0.6,0.0,3.0046836962762837,0.21378814197689847,1.4931851463021153
9.345853090286255,0.06643556369046788,[0.06539932],5.0,0.6,0.0,3.1344893431791396,0.21581625993360268,1.492524741242578
9.354787588119507,0.06741255727415124,[0.06646646],5.0,0.6,0.0,3.163141481022712,0.2188935629716187,1.4924281221681293
9.365733861923218,0.0689757470080446,[0.0676297],5.0,0.6,0.0,3.3918589446653207,0.21906691633757694,1.491146513692268
9.374788761138916,0.07034353802520128,[0.0688878],5.0,0.6,0.0,3.3248004581084674,0.2200121055318132,1.491414775446152
9.38482117652893,0.07171132904235797,[0.07023868],5.0,0.6,0.0,3.4113839822145633,0.22073962506347322,1.4909779773070095
9.395836114883423,0.07346991749298801,[0.07167941],5.0,0.6,0.0,3.2140143967087127,0.21937592922128862,1.491728275858009
9.404792308807373,0.07522850594361805,[0.07320634],5.0,0.6,0.0,3.2001823180721223,0.21765142409027033,1.4916168011154771
9.418982744216919,0.07757329054445808,[0.07481871],5.0,0.6,0.0,3.2096752237714976,0.24017450568072576,1.490873291777613
9.428781509399414,0.07952727771182479,[0.07651815],5.0,0.6,0.0,3.186359019658911,0.22984788843817167,1.4906896924598803
9.439488410949707,0.08187206231266483,[0.0783012],5.0,0.6,0.0,2.5665953333750147,0.21983613789355216,1.4925733358314717
9.447758913040161,0.08382604948003153,[0.08015661],5.0,0.6,0.0,2.117769873904071,0.18453193331732293,1.4939831811003925
9.455843925476074,0.08578003664739824,[0.08207029],5.0,0.6,0.0,1.7838501222795107,0.1884560905496931,1.4948881757183776
9.464293241500854,0.08773402381476494,[0.08403309],5.0,0.6,0.0,1.2529302002441476,0.1914489426738678,1.4960971384200337
9.471755504608154,0.08968801098213164,[0.08603656],5.0,0.6,0.0,1.0204542057989523,0.16252783678080618,1.4965623703760116
9.482989311218262,0.09222819429970835,[0.08807314],5.0,0.6,0.0,0.9160021445128083,0.20076918307447725,1.4959288481682078
9.490803718566895,0.09418218146707506,[0.0901396],5.0,0.6,0.0,0.5855892959354023,0.1697799871733945,1.4964816360724331
9.50374698638916,0.0971131622181251,[0.09223304],5.0,0.6,0.0,0.5142068032073875,0.20365509122967393,1.4950514193817155
9.511769533157349,0.09906714938549181,[0.09435089],5.0,0.6,0.0,0.2575859173640021,0.17153148388737738,1.495511863334929
9.52096152305603,0.10141193398633185,[0.09648722],5.0,0.6,0.0,-0.2890531534393107,0.17795391597829174,1.49509898755497
9.53391146659851,0.10492911088759192,[0.09864068],5.0,0.6,0.0,-0.5457096588271533,0.20574966881948223,1.4919006957403678
9.54405689239502,0.10746929420516863,[0.10081747],5.0,0.6,0.0,-0.6536785262216014,0.2002941843146047,1.4908717002207272
9.55415415763855,0.11040027495621868,[0.10301929],5.0,0.6,0.0,-0.961450106741235,0.19445641848972653,1.4884757148258898
9.56473970413208,0.11313585699053208,[0.10524409],5.0,0.6,0.0,-0.987505799628885,0.19103378698321172,1.4868958600273818
9.575772762298584,0.1162622364583188,[0.10749023],5.0,0.6,0.0,-1.1820866851335488,0.18673403852743284,1.483689100295748
9.585878372192383,0.11880241977589551,[0.10975651],5.0,0.6,0.0,-1.1037389145146488,0.18632762495667493,1.4828614748007665
9.595768213272095,0.12173340052694555,[0.11204218],5.0,0.6,0.0,-1.2151876857461206,0.18466284406013855,1.4802933364151931
9.60474967956543,0.12427358384452228,[0.11434687],5.0,0.6,0.0,-1.0759550650117904,0.18549336164957522,1.4796239651121186
9.61276388168335,0.12642296972862566,[0.1166664],5.0,0.6,0.0,-1.145584132902488,0.1552808600282657,1.4801659706904233
9.62187671661377,0.12915855176293903,[0.11899332],5.0,0.6,0.0,-1.2554901320364462,0.16560911668911513,1.4783736917462242
9.63092565536499,0.13169873508051574,[0.12133002],5.0,0.6,0.0,-1.3424172816108109,0.2046139897237701,1.4773878131314016
9.640318632125854,0.13443431711482912,[0.12368292],5.0,0.6,0.0,-1.6653584355072095,0.16915164134690192,1.475086408718588
9.64777159690857,0.1365837029989325,[0.12604463],5.0,0.6,0.0,-1.706914618650205,0.1426182728975331,1.4758663654206419
9.655757904052734,0.13892848759977253,[0.12840466],5.0,0.6,0.0,-1.6294861909896419,0.15943796661127915,1.4761206877539226
9.665196180343628,0.1418594683508226,[0.13076279],5.0,0.6,0.0,-1.7849406452926648,0.16796823011801246,1.473307461887274
9.6753408908844,0.14498584781860932,[0.13312308],5.0,0.6,0.0,-1.6883893938481718,0.17132757910441535,1.4701297789500885
9.684775352478027,0.14791682856965938,[0.13548872],5.0,0.6,0.0,-1.7848147298799741,0.17263561936756378,1.4672149856752368
9.694805145263672,0.1510432080374461,[0.13786197],5.0,0.6,0.0,-1.9036399364744936,0.17073675544546488,1.4631574752304215
9.705145120620728,0.15397418878849614,[0.14024404],5.0,0.6,0.0,-1.9842574328995581,0.16782294853163562,1.4600761834929057
9.715152263641357,0.15670977082280954,[0.14263507],5.0,0.6,0.0,-2.0134436331345165,0.16412690784238385,1.4581464897032383
9.725585222244263,0.16003154900733293,[0.1450341],5.0,0.6,0.0,-1.7203238946753054,0.15579981352276834,1.4538138736641488
9.735743284225464,0.1627671310416463,[0.14743905],5.0,0.6,0.0,-1.6345088672064403,0.14920054523558748,1.4521121472277756
9.74502182006836,0.1655027130759597,[0.14984695],5.0,0.6,0.0,-1.6121367054890432,0.1415583398833151,1.450230559137834
9.755753755569458,0.16882449126048307,[0.15225393],5.0,0.6,0.0,-1.5950982168040517,0.1299242885520925,1.444673554606188
9.769013404846191,0.1727324655952165,[0.15462521],5.0,0.6,0.0,-1.5638733050840177,-0.19815776388273657,1.434711968579379
