t_s,q_rad,q_des_rad,K,B,jerk,tau_Nm,ilc_ff_Nm
0.007327556610107422,-0.059401209887947753,[0.00421585],0.005,0.1,0.0,9.998999999999999,0
0.017296791076660156,-0.059401209887947753,[0.02037411],0.005,0.1,0.0,10.098989999999999,0
0.028257369995117188,-0.059401209887947753,[0.05063883],0.005,0.1,0.0,10.099989899999999,0
0.04123735427856445,-0.059401209887947753,[0.09244236],0.005,0.1,0.0,10.099999898999998,0
0.05521059036254883,-0.059401209887947753,[0.14346469],0.005,0.1,0.0,10.099999998989999,0
0.06466913223266602,-0.059401209887947753,[0.20162455],0.005,0.1,0.0,10.0999999999899,0
0.08010077476501465,-0.059401209887947753,[0.26507022],0.005,0.1,0.0,10.099999999999898,0
0.09347248077392578,-0.059401209887947753,[0.33216934],0.005,0.1,0.0,10.099999999999998,0
0.10745906829833984,-0.059401209887947753,[0.40149521],0.005,0.1,0.0,10.099999999999998,0
0.12048840522766113,-0.059401209887947753,[0.4718129],0.005,0.1,0.0,6.121064305791272,0
0.13295555114746094,-0.05920581117121108,[0.54206588],0.005,0.1,0.0,3.634461229555201,0
0.14479923248291016,-0.05549323555321435,[0.61136198],0.005,0.1,1.6562301580720857,2.249022564378198,0
0.1604313850402832,-0.04963127405111425,[0.67896103],0.005,0.1,5.0,1.56709586764187,0
0.17031431198120117,-0.04591869843311751,[0.74426079],0.005,0.1,5.0,1.1830213854211786,0
0.17917251586914062,-0.042401521531857445,[0.80677915],0.005,0.1,5.0,1.017452969482615,0
0.19273996353149414,-0.03693035746323068,[0.86614387],0.005,0.1,5.0,1.0327192066988136,0
0.20523953437805176,-0.031849990828077254,[0.92208512],0.005,0.1,5.0,1.1005886492469188,0
0.21820783615112305,-0.026378826759450486,[0.97442153],0.005,0.1,5.0,1.2154497848059544,0
0.23385953903198242,-0.020126067823877037,[1.02304838],0.005,0.1,5.0,1.3590166503056154,0
0.24906611442565918,-0.013873308888303588,[1.06792814],0.005,0.1,5.0,1.5101609773430458,0
0.26775074005126953,-0.006057360218836778,[1.10908297],0.005,0.1,3.1445308906792735,1.7086612719841476,0
0.2809937000274658,-0.00019539871673667023,[1.14658408],0.005,0.1,0.4146393741166643,1.840878100362923,0
0.2926445007324219,0.0042987717682067455,[1.18053369],0.005,0.1,-2.3591508015990366,1.9521225185989437,0
0.3082268238067627,0.010356131987043523,[1.21106217],0.005,0.1,-4.59174640255681,2.133008579335823,0
0.3232295513153076,0.01621809348914363,[1.23833037],0.005,0.1,-5.0,2.256119035333177,0
0.33411407470703125,0.020321466540613703,[1.26251495],0.005,0.1,-5.0,2.3364209438226653,0
0.3502225875854492,0.026769624192923825,[1.28380399],0.005,0.1,-5.0,2.496880846985251,0
0.36522364616394043,0.03341318056197061,[1.30240049],0.005,0.1,-5.0,2.5815445087050173,0
0.3772165775299072,0.0381027497636507,[1.31851219],0.005,0.1,-5.0,2.6673091344078728,0
0.38993406295776367,0.04318311639880412,[1.33234543],0.005,0.1,-5.0,2.7400880278020465,0
0.4062228202819824,0.0498266727678509,[1.34410526],0.005,0.1,-5.0,2.790759773050041,0
0.4211540222167969,0.05627483042016103,[1.35399297],0.005,0.1,-5.0,2.831403651472726,0
0.4371452331542969,0.06252758935573448,[1.3622059],0.005,0.1,-5.0,2.913774923562335,0
0.44855690002441406,0.06682636112394122,[1.36893385],0.005,0.1,-5.0,2.890754194453763,0
0.4611063003540039,0.07190672775909465,[1.37435329],0.005,0.1,-5.0,2.9029471710298496,0
0.4741184711456299,0.07737789182772142,[1.37863045],0.005,0.1,-4.9546790265683125,2.9148675695425186,0
0.48391294479370117,0.0820674610294015,[1.38192078],0.005,0.1,-4.753774263357803,2.85966697097369,0
0.49449872970581055,0.08617083408087158,[1.38436548],0.005,0.1,-4.483898133688275,2.8446995957699137,0
0.503741979598999,0.08988340969886832,[1.38609201],0.005,0.1,-4.189282911051856,2.7656336297472297,0
0.5141396522521973,0.09359598531686505,[1.38721594],0.005,0.1,-3.892407197848363,2.7669224531074135,0
0.5258545875549316,0.09867635195201847,[1.38784513],0.005,0.1,-3.8805394654954357,2.7369385157115222,0
0.5421187877655029,0.10531990832106528,[1.3880832],0.005,0.1,-3.6400943388588733,2.800541970324364,0
0.5541343688964844,0.11000947752274534,[1.38802885],0.005,0.1,-3.328050733257637,2.7954386495516017,0
0.567112922668457,0.11508984415789876,[1.38776958],0.005,0.1,-3.0123040936948255,2.7800984975958465,0
0.5801472663879395,0.12036560950978886,[1.38738004],0.005,0.1,-2.7192092895890845,2.7584016592941567,0
0.5927228927612305,0.12564137486167898,[1.38692524],0.005,0.1,-2.4564658778055097,2.7332916245806853,0
0.606050968170166,0.13111253893030572,[1.38646078],0.005,0.1,-2.223939272054882,2.6942760100744345,0
0.6195042133331299,0.13638830428219584,[1.38603399],0.005,0.1,-2.0186352616747927,2.6796667158786054,0
0.6321465969085693,0.1416640696340859,[1.3856853],0.005,0.1,-1.8368810658361672,2.6502495557513575,0
0.6472029685974121,0.14830762600313271,[1.38544809],0.005,0.1,-1.951238994377847,2.61323787319921,0
0.6631882190704346,0.1543649862219695,[1.38534891],0.005,0.1,-1.8397637929359019,2.580473177659198,0
0.6771924495697021,0.16003154900733293,[1.38540862],0.005,0.1,-1.6546734463979649,2.551062657753334,0
0.687288761138916,0.16393952334206632,[1.38564297],0.005,0.1,-1.4611901076244886,2.5332408488051468,0
0.7003016471862793,0.1694106874106931,[1.38606318],0.005,0.1,-1.2842317784267179,2.5071571380115634,0
0.7105286121368408,0.17370945917889985,[1.38667299],0.005,0.1,-1.1308058035187338,2.3948428566342836,0
0.7189056873321533,0.1768358386466866,[1.38746364],0.005,0.1,-1.0005385122823431,2.264490423898401,0
0.7336575984954834,0.18250240143205002,[1.38842426],0.005,0.1,-0.890472640375702,2.331626869010886,0
0.7441921234130859,0.18699657191699343,[1.38955238],0.005,0.1,-0.7971384694710095,2.2915353521786983,0
0.7581846714019775,0.1930539321358302,[1.39084608],0.005,0.1,-0.7173597371272309,2.3055223329700643,0
0.771186113357544,0.198525096204457,[1.39230239],0.005,0.1,-0.648495498299865,2.3133948942640647,0
0.785106897354126,0.20399626027308376,[1.39391902],0.005,0.1,-0.5884479857823713,2.3135223436270307,0
0.8014941215515137,0.2108352153588672,[1.39569459],0.005,0.1,-0.5355871106855283,2.376639426745047,0
0.8121814727783203,0.21493858841033725,[1.39762582],0.005,0.1,-0.48865685377835216,2.2768592547244437,0
0.8300514221191406,0.22236373964633074,[1.399707],0.005,0.1,-0.4466891224952686,2.391689792730604,0
0.8391942977905273,0.22588091654759082,[1.40193122],0.005,0.1,-0.40893292393704894,2.2237862969272615,0
0.8521549701690674,0.2311566818994809,[1.40428413],0.005,0.1,-0.37479932155492596,2.220476569960244,0
0.8641853332519531,0.23584625110116098,[1.40675169],0.005,0.1,-0.3438199877355168,2.2166655791544585,0
0.8781874179840088,0.24170821260326106,[1.40932485],0.005,0.1,-0.3156165619661865,2.2025244405201954,0
0.8911676406860352,0.24698397795515117,[1.41199425],0.005,0.1,-0.2898782307415203,2.188472418521894,0
0.904118537902832,0.25245514202377795,[1.41475038],0.005,0.1,-0.2663454041240442,2.1711214783949195,0
0.9168143272399902,0.2581217048091414,[1.41758363],0.005,0.1,-0.24479784219794173,2.150981587042796,0
0.9310941696166992,0.2637882675945048,[1.42048442],0.005,0.1,0.05099236151664059,2.12909060252794,0
0.9409091472625732,0.2676962419292382,[1.42344049],0.005,0.1,0.1022382891644833,2.0478191520784277,0
0.9557716846466064,0.27375360214807504,[1.42643914],0.005,0.1,0.06377737419584871,2.0845735843719986,0
0.9702019691467285,0.27942016493343846,[1.42947412],0.005,0.1,0.002973101258325457,2.0882226653009277,0
0.9819984436035156,0.28410973413511853,[1.43253945],0.005,0.1,-0.0535085983021938,2.022000968166259,0
0.9957103729248047,0.28977629692048196,[1.43562493],0.005,0.1,-0.09722480313915624,2.01244549617485,0
1.0067477226257324,0.2942704674054254,[1.43871978],0.005,0.1,-0.12735774211843393,1.947258545846487,0
1.0177559852600098,0.2987646378903688,[1.44181069],0.005,0.1,-0.1458633181800631,1.89477789722781,0
1.0304126739501953,0.3036496058087855,[1.44488436],0.005,0.1,-0.15535846411235243,1.883376864201523,0
1.0466258525848389,0.3106839596113057,[1.4479358],0.005,0.1,-0.1582838722464679,1.9331905732997559,0
1.057704210281372,0.31459193394603907,[1.45096391],0.005,0.1,-0.15663859079713843,1.8635992845279254,0
1.0699036121368408,0.32045389544813924,[1.45396197],0.005,0.1,-0.15195448768775327,1.8380382787623344,0
1.0840444564819336,0.3255342620832926,[1.4569237],0.005,0.1,-0.14535840974241698,1.8439311677747212,0
1.0961880683898926,0.33022383128497274,[1.45984663],0.005,0.1,-0.13765562979255938,1.81223785221481,0
1.11818528175354,0.33921217225485956,[1.46273502],0.005,0.1,-0.40544651210889787,1.9385968388649273,0
1.1331665515899658,0.345464931190433,[1.46559996],0.005,0.1,-0.43016236821089726,1.8670704209713653,0
1.1447937488555908,0.3501545003921131,[1.46844146],0.005,0.1,-0.0907117451151925,1.7682404408481787,0
1.16111159324646,0.3564072593276865,[1.47125177],0.005,0.1,0.026555047156651593,1.787130245789774,0
1.1751012802124023,0.36207382211305,[1.47402934],0.005,0.1,0.04967929480570911,1.7475977319498044,0
1.1891098022460938,0.36793578361515006,[1.47677276],0.005,0.1,0.03749988449515661,1.713367874626426,0
1.202120304107666,0.37340694768377686,[1.47947823],0.005,0.1,0.015816785666746047,1.685604378185246,0
1.2151315212249756,0.3786827130356669,[1.48214262],0.005,0.1,-0.004996513515074352,1.6620103934157089,0
1.2301750183105469,0.3847400732545037,[1.4847634],0.005,0.1,0.2545231074747738,1.637033941882606,0
1.2432119846343994,0.3900158386063938,[1.48733869],0.005,0.1,0.2759085638033977,1.6174484691170457,0
1.2561461925506592,0.39548700267502057,[1.48986722],0.005,0.1,0.21324067964304472,1.5984763716630837,0
1.2667784690856934,0.3997857744432273,[1.49234737],0.005,0.1,0.13285562967998837,1.5729955398808069,0
1.2796258926391602,0.40486614107838076,[1.49477758],0.005,0.1,0.060444544265362186,1.5647958958020545,0
1.292640209197998,0.4097511089967975,[1.49715754],0.005,0.1,-0.27240451254592096,1.544106138279358,0
1.3011019229888916,0.4134636846147942,[1.49948441],0.005,0.1,-0.34656606152339986,1.502047653111279,0
1.3120853900909424,0.417762456383001,[1.50175215],0.005,0.1,-0.31918074593452855,1.4876212867872867,0
1.3251893520355225,0.4230382217348911,[1.50395871],0.005,0.1,-0.26047038096588376,1.4878545526698659,0
1.3370928764343262,0.42792318965330783,[1.50610799],0.005,0.1,-0.19970267486934057,1.4867291416666386,0
1.352097749710083,0.43398054987214457,[1.50820574],0.005,0.1,-0.14742193698959843,1.478208312410877,0
1.3671064376831055,0.44023330880771805,[1.5102581],0.005,0.1,-0.10603827982893543,1.47312869076537,0
1.379058837890625,0.4447274792926615,[1.51227103],0.005,0.1,-0.074753918162388,1.4602808677337509,0
1.3900563716888428,0.44922164977760487,[1.5142494],0.005,0.1,-0.05176851134369774,1.4549397732635054,0
1.4040775299072266,0.4552790099964417,[1.516198],0.005,0.1,0.2408369865333354,1.4423862105528078,0
1.4172139167785645,0.4605547753483318,[1.518122],0.005,0.1,0.009698345938719141,1.4329299847493102,0
1.4320855140686035,0.46661213556716846,[1.52002641],0.005,0.1,0.2057907736752738,1.4198863896113432,0
1.4493751525878906,0.4736464893696886,[1.52191749],0.005,0.1,0.22368619518177033,1.4247485897210759,0
1.4620857238769531,0.4791176534383154,[1.52380204],0.005,0.1,0.1781178162537459,1.4006250421486308,0
1.4740660190582275,0.48419802007346885,[1.52568322],0.005,0.1,0.11863467178712872,1.3748959279226356,0
1.487048625946045,0.4890829879918856,[1.52756206],0.005,0.1,0.06454915420420981,1.369206980220046,0
1.4990794658660889,0.49396795591030235,[1.52944126],0.005,0.1,-0.254335028710454,1.3632856729152658,0
1.512075662612915,0.49904832254545584,[1.53132443],0.005,0.1,-0.31880600708497164,1.3560151580063833,0
1.5260610580444336,0.5047148853308193,[1.53321487],0.005,0.1,-0.2852807756214142,1.3460478401226796,0
1.53829026222229,0.5095998532492361,[1.53511554],0.005,0.1,-0.49918554893924194,1.3389828744561385,0
1.5510787963867188,0.5148756186011261,[1.53702908],0.005,0.1,-0.4700922906004011,1.3300348354642209,0
1.564478874206543,0.5205421813864896,[1.53895778],0.005,0.1,-0.08660191798656153,1.3190012861606728,0
1.5748622417449951,0.5248409531546963,[1.54090084],0.005,0.1,0.0631420179644137,1.273880792434474,0
1.5847063064575195,0.528553528772693,[1.54285206],0.005,0.1,0.10841054926360844,1.244734678932832,0
1.5995090007781982,0.5348062877082664,[1.54480756],0.005,0.1,0.11013605272691288,1.2658838178484093,0
1.610142469406128,0.5393004581932099,[1.54676841],0.005,0.1,-0.1798471367423533,1.2329435623448883,0
1.6257402896881104,0.54574861584552,[1.54873603],0.005,0.1,-0.23046719401715518,1.2551284338380808,0
1.6442060470581055,0.5529783683647768,[1.55071696],0.005,0.1,-0.1916289055149648,1.2843805738478222,0
1.6591436862945557,0.5588403298668769,[1.5527222],0.005,0.1,-0.12906475762177935,1.2972548495266576,0
1.6689212322235107,0.5627483042016103,[1.55475542],0.005,0.1,-0.3452376536915307,1.2234200028692517,0
1.6781277656555176,0.5666562785363436,[1.55680702],0.005,0.1,-0.32990981614122017,1.1599511365369706,0
1.6900861263275146,0.5715412464547605,[1.55886504],0.005,0.1,-0.23899211370605042,1.1652195263411014,0
1.7010996341705322,0.576035416939704,[1.56092633],0.005,0.1,-0.1381409328762191,1.1676672406143576,0
1.7150676250457764,0.5815065810083306,[1.56299227],0.005,0.1,-0.051595205166460135,1.1628042567844363,0
1.7290630340576172,0.5873685425104307,[1.56506369],0.005,0.1,0.014519620835835429,1.1536447377842667,0
1.7410664558410645,0.5924489091455841,[1.56714095],0.005,0.1,0.06131964409780504,1.1451157752625518,0
1.7571063041687012,0.5990924655146309,[1.56922398],0.005,0.1,0.09227246072844836,1.1299354864901425,0
1.768118143081665,0.6033912372828377,[1.57131243],0.005,0.1,0.1111341721352211,1.1218782432716312,0
1.7821283340454102,0.6092531987849378,[1.57340571],0.005,0.1,0.12118521242706132,1.1082521329194448,0
1.7951111793518066,0.6143335654200912,[1.57550307],0.005,0.1,0.1250352964152457,1.0971599345572047,0
1.8091187477111816,0.619804729488718,[1.57760373],0.005,0.1,0.12465673295899815,1.0849949761972189,0
1.8241147994995117,0.6260574884242914,[1.57970692],0.005,0.1,0.12149259128672929,1.07064084098939,0
1.8400285243988037,0.6325056460766015,[1.58181295],0.005,0.1,0.11657476925121518,1.069680335083426,0
1.8520762920379639,0.6377814114284917,[1.58392212],0.005,0.1,0.11062775109453252,1.0422656710524822,0
1.865126371383667,0.6430571767803818,[1.58603274],0.005,0.1,0.38019009190206204,1.033528392013091,0
1.8791284561157227,0.6485283408490086,[1.58814352],0.005,0.1,0.40664896076113277,1.0246450827321536,0
1.8921186923980713,0.6539995049176353,[1.59025459],0.005,0.1,0.3449215390405427,1.0160771219266407,0
1.9061377048492432,0.6596660677029987,[1.59236629],0.005,0.1,0.26238728341163076,1.0072192765039003,0
1.9180569648742676,0.6643556369046788,[1.59447914],0.005,0.1,0.18568608843285955,1.001683032384701,0
1.9310624599456787,0.6694360035398322,[1.59659385],0.005,0.1,0.12320813296815591,0.9951950438458607,0
1.944103717803955,0.6747117688917224,[1.59871128],0.005,0.1,0.07570237456968452,0.9882751177208278,0
1.9564411640167236,0.6801829329603492,[1.60083239],0.005,0.1,0.04113532922748654,0.9808765514538703,0
1.9677038192749023,0.6850679008787659,[1.60295656],0.005,0.1,0.016808664153566442,0.9540475112187136,0
1.980076789855957,0.6899528687971827,[1.60508077],0.005,0.1,0.00019976392034047087,0.9404743796938267,0
1.9905264377593994,0.6942516405653893,[1.60720094],0.005,0.1,-0.010770722156963144,0.9181577654559601,0
2.00529408454895,0.6999182033507527,[1.60931553],0.005,0.1,-0.017711997855558433,0.9362377330463723,0
2.014064311981201,0.7036307789687495,[1.61142425],0.005,0.1,-0.02182448145508995,0.8965966605315573,0
2.025054454803467,0.7083203481704297,[1.61352456],0.005,0.1,-0.02398282833740749,0.9060366893097219,0
2.0358588695526123,0.712814518655373,[1.61561566],0.005,0.1,-0.02481406334907623,0.8959019031459723,0
2.045708179473877,0.7165270942733698,[1.61769653],0.005,0.1,-0.024762264925990103,0.8737990166562783,0
2.0555057525634766,0.7206304673248398,[1.61976261],0.005,0.1,-0.02413882425822735,0.8595778862929706,0
2.0680453777313232,0.7257108339599934,[1.62181112],0.005,0.1,-0.023160102623388294,0.862559902330866,0
2.0820391178131104,0.7311819980286202,[1.62384456],0.005,0.1,-0.02197501639636603,0.8714753125190923,0
2.0950586795806885,0.7362623646637734,[1.62586872],0.005,0.1,-0.020684946957031977,0.8772741013473299,0
2.110502004623413,0.7429059210328203,[1.62789068],0.005,0.1,-0.019357966753229337,0.8902109475650428,0
2.1200478076934814,0.7470092940842904,[1.62991654],0.005,0.1,-0.018038931920991538,0.8729132198095644,0
2.1298987865448,0.7507218697022872,[1.63194573],0.005,0.1,0.2592817547452056,0.8331333125060899,0
2.141610622406006,0.7556068376207038,[1.6339749],0.005,0.1,0.2936343020996679,0.8480040349807052,0
2.1516737937927246,0.7595148119554372,[1.63600354],0.005,0.1,0.23970051297329437,0.8192542938669667,0
2.1636996269226074,0.7642043811571174,[1.63803008],0.005,0.1,0.16470953727839324,0.8149591778105343,0
2.1778571605682373,0.7702617413759542,[1.64005492],0.005,0.1,0.09520991844314328,0.8264864551281547,0
2.1870195865631104,0.7737789182772141,[1.64208161],0.005,0.1,0.03954092507397752,0.8146228356845804,0
2.2010269165039062,0.7796408797793143,[1.64411222],0.005,0.1,-0.0015719892557155037,0.8159326658370445,0
2.213357925415039,0.784525847697731,[1.64614932],0.005,0.1,-0.0301675285410846,0.816753074881508,0
2.2280995845794678,0.7907786066333043,[1.64819637],0.005,0.1,-0.048937310255461566,0.811540185298734,0
2.2411224842071533,0.7962497707019311,[1.65025616],0.005,0.1,-0.060389691783125345,0.8065800015209971,0
2.254124164581299,0.8015255360538213,[1.65233083],0.005,0.1,-0.06658524165905041,0.8008724566771352,0
2.2665059566497803,0.8066059026889748,[1.65442195],0.005,0.1,-0.0691119143667846,0.7947612203723644,0
2.2811594009399414,0.8122724654743383,[1.65653056],0.005,0.1,-0.06914779783951042,0.7864951376652128,0
2.2940213680267334,0.8173528321094915,[1.65865726],0.005,0.1,0.2084933039340716,0.779043787985168,0
2.3070738315582275,0.8222378000279084,[1.66080222],0.005,0.1,0.24425430629411216,0.7718480618620472,0
2.320919990539551,0.8280997615300084,[1.66296413],0.005,0.1,-0.0836340851597045,0.7480269654789625,0
2.335115671157837,0.8341571217488452,[1.66514154],0.005,0.1,0.08676154133393141,0.755813339935259,0
2.349083423614502,0.8398236845342087,[1.66733515],0.005,0.1,0.10814995439817922,0.7449882642312562,0
2.360147476196289,0.8443178550191521,[1.66954435],0.005,0.1,0.07619644680321216,0.7268669069058424,0
2.3750979900360107,0.850375215237989,[1.67176719],0.005,0.1,0.03222364983735653,0.7291113252708498,0
2.3882014751434326,0.8558463793066157,[1.67400338],0.005,0.1,-0.007651210680481028,0.718782009587015,0
2.4011261463165283,0.8611221446585058,[1.67625182],0.005,0.1,-0.038538497635458545,0.7026864273144626,0
2.415090322494507,0.8665933087271326,[1.67851052],0.005,0.1,-0.06020073941020386,0.7020596981380968,0
2.423689842224121,0.8701104856283925,[1.68077433],0.005,0.1,-0.07405428182671364,0.6492100786209257,0
2.4342410564422607,0.8742138586798627,[1.68303251],0.005,0.1,-0.08187259860884419,0.6377978685935188,0
2.4450294971466064,0.8787080291648061,[1.68527688],0.005,0.1,-0.08527962136481033,0.6356670862137582,0
2.457019805908203,0.8839837945166963,[1.68750587],0.005,0.1,-0.08559551766428367,0.6418252388349039,0
2.469229221343994,0.8888687624351129,[1.6897214],0.005,0.1,-0.08382890473596485,0.6457614649044064,0
2.481349229812622,0.8935583316367929,[1.69192561],0.005,0.1,-0.08072143343579605,0.6387525733824305,0
2.4955127239227295,0.899420293138893,[1.69412053],0.005,0.1,-0.3528423277644404,0.6480851781381228,0
2.507500171661377,0.9043052610573099,[1.69630838],0.005,0.1,-0.38161131829118056,0.6303655996781264,0
2.519498109817505,0.9091902289757265,[1.69848877],0.005,0.1,-0.3219755517741927,0.6195367881396493,0
2.528402090072632,0.9127074058769867,[1.70065683],0.005,0.1,-0.24134054250597187,0.5845568106736743,0
2.5390329360961914,0.9170061776451935,[1.70280616],0.005,0.1,-0.16636834232280096,0.5886198263470432,0
2.5530097484588623,0.9226727404305568,[1.7049362],0.005,0.1,-0.10546786459202488,0.5962839591308197,0
2.5650064945220947,0.9273623096322371,[1.70705186],0.005,0.1,-0.05940395788453995,0.6027156452418391,0
2.5800154209136963,0.9334196698510738,[1.70915849],0.005,0.1,-0.02615672182639895,0.6035205888466559,0
2.6018619537353516,0.9426034095376973,[1.71126721],0.005,0.1,-0.003039547906480089,0.6777556708559631,0
2.6108932495117188,0.9465113838724306,[1.71338958],0.005,0.1,0.012459957534941168,0.5995726013781861,0
2.630336284637451,0.9541319338251608,[1.71553053],0.005,0.1,-0.2536262114765997,0.6685621510131043,0
2.643892288208008,0.9596030978937875,[1.71769801],0.005,0.1,-0.2807447213333825,0.6415252524481019,0
2.6535604000091553,0.963511072228521,[1.71989239],0.005,0.1,-0.22239419141358058,0.5674246584887429,0
2.665055990219116,0.9683960401469377,[1.72210182],0.005,0.1,-0.14494050107351794,0.5535488510348725,0
2.682074785232544,0.9754303939494579,[1.72432173],0.005,0.1,-0.07431250822986418,0.5814093151707707,0
2.6970865726470947,0.9810969567348212,[1.72655971],0.005,0.1,-0.01840995852162007,0.6131364554901179,0
2.707479476928711,0.9852003297862914,[1.72882113],0.005,0.1,0.022350433554745266,0.5615308515440761,0
2.7209506034851074,0.9910622912883915,[1.73110241],0.005,0.1,0.050222371176516054,0.5612197320277369,0
2.7317605018615723,0.9955564617733349,[1.73339798],0.005,0.1,0.06804588986162598,0.528716010934287,0
2.743074417114258,1.000246030975015,[1.73570124],0.005,0.1,0.07843079842059075,0.5151067515939441,0
2.756084680557251,1.0057171950436417,[1.73800719],0.005,0.1,0.08350617231176298,0.5216672306234087,0
2.769068479537964,1.0107975616787952,[1.74031621],0.005,0.1,0.0849054809327788,0.5262325398188911,0
2.783071517944336,1.0164641244641586,[1.74263049],0.005,0.1,0.08383636212765462,0.5274702040504936,0
2.795078992843628,1.0211536936658387,[1.744952],0.005,0.1,0.08116950591869171,0.528955346190422,0
2.807326555252075,1.026234060300992,[1.74728129],0.005,0.1,0.07752084687448471,0.5145582219794812,0
2.8210020065307617,1.031705224369619,[1.7496189],0.005,0.1,0.0733190423731447,0.5311214953444896,0
2.8360116481781006,1.0379579833051924,[1.75196789],0.005,0.1,0.06885763938137472,0.5263220538211668,0
2.8474018573760986,1.0424521537901357,[1.75433063],0.005,0.1,0.0643340205716127,0.5209498894485055,0
2.8594119548797607,1.0473371217085525,[1.75670702],0.005,0.1,0.059877847595379424,0.5123304968692789,0
2.8693013191223145,1.0516358934767591,[1.7590929],0.005,0.1,0.05557153087192543,0.472138828050776,0
2.8810675144195557,1.0563254626784393,[1.76148041],0.005,0.1,0.3275031693475427,0.46667323960947676,0
2.896127939224243,1.0627736203307494,[1.76386755],0.005,0.1,0.3567480203760466,0.4939956957596281,0
2.9150333404541016,1.070198771566743,[1.7662649],0.005,0.1,0.29801022790663834,0.5579032035673294,0
2.9300692081451416,1.0764515305023163,[1.76868656],0.005,0.1,0.21852608206524365,0.5396621905670574,0
2.941472291946411,1.0809457009872598,[1.77113802],0.005,0.1,0.14484128516308142,0.5288771580898974,0
2.9547572135925293,1.0862214663391498,[1.77361898],0.005,0.1,0.08528589460883584,0.5201343960489421,0
2.968062162399292,1.09149723169104,[1.77612915],0.005,0.1,0.04057226636863011,0.5137759255966671,0
2.9806172847747803,1.0965775983261934,[1.77866687],0.005,0.1,0.008646407762790721,0.4918490705596453,0
2.994872570037842,1.1022441611115568,[1.78123075],0.005,0.1,-0.01319963277889337,0.5106509213277203,0
3.0100700855255127,1.1084969200471304,[1.78382241],0.005,0.1,-0.30352918828632247,0.5052291477455731,0
3.0196802616119385,1.1124048943818636,[1.78643826],0.005,0.1,-0.3454671101281477,0.44468534812039523,0
3.032620429992676,1.1176806597337539,[1.78907074],0.005,0.1,-0.2953091154582072,0.47960995819056246,0
3.040010929107666,1.1206116404848039,[1.79171379],0.005,0.1,-0.22148254527326505,0.41546427421821425,0
3.053053140640259,1.125887405836694,[1.79435915],0.005,0.1,-0.15140395156432218,0.43600749003557016,0
3.06701922416687,1.1317493673387942,[1.79700477],0.005,0.1,0.18200806801213137,0.4512095349188943,0
3.079106569290161,1.1366343352572106,[1.79965565],0.005,0.1,0.2586427105035052,0.46366217142855787,0
3.0939700603485107,1.1424962967593109,[1.80231626],0.005,0.1,0.23493074297416355,0.4709378128198597,0
3.1050002574920654,1.1469904672442544,[1.80499052],0.005,0.1,0.18059327193291985,0.47762247902472377,0
3.1200366020202637,1.1532432261798278,[1.80768175],0.005,0.1,0.1245513889955416,0.4791235922241736,0
3.141284942626953,1.1612545735660311,[1.81040055],0.005,0.1,0.07711402651777344,0.5942398146652782,0
3.149592399597168,1.1651625479007646,[1.81315713],0.005,0.1,0.31657340985927207,0.46771977018206773,0
3.1599814891815186,1.169070522235498,[1.81594398],0.005,0.1,0.3230790219226856,0.45156803791152694,0
3.1750073432922363,1.1755186798878081,[1.81875135],0.005,0.1,0.24946050507934825,0.45524274050181435,0
3.1879897117614746,1.1805990465229617,[1.8215786],0.005,0.1,0.16103601086745561,0.4583991037712804,0
3.2009618282318115,1.1858748118748517,[1.82442634],0.005,0.1,0.08271221371262834,0.4590661773449683,0
3.213965892791748,1.191150577226742,[1.82729475],0.005,0.1,-0.25450854377361787,0.4583404786500077,0
3.2326924800872803,1.1991619246129452,[1.83018773],0.005,0.1,-0.3319297163602478,0.5089451240797644,0
3.242053270339966,1.202874500230942,[1.83310815],0.005,0.1,-0.3070022432213786,0.43671742130011526,0
3.264718770980835,1.211667442484092,[1.83605985],0.005,0.1,-0.25017069913662066,0.5794753202219197,0
3.278371810913086,1.217138606552719,[1.83905555],0.005,0.1,-0.19086198919375108,0.5318756488270147,0
3.293030261993408,1.223000568054819,[1.84209948],0.005,0.1,-0.13973394286345306,0.4974421759304594,0
3.308025360107422,1.2292533269903925,[1.84518459],0.005,0.1,-0.0992775917047816,0.4725626339495924,0
3.3210456371307373,1.2345290923422825,[1.84830438],0.005,0.1,-0.06875290201095419,0.4558888522042968,0
3.3359599113464355,1.2403910538443828,[1.85145293],0.005,0.1,-0.04640086352666219,0.4427258350738258,0
3.3510329723358154,1.2464484140632193,[1.85462485],0.005,0.1,-0.03037049568144287,0.43224265735649653,0
3.365501642227173,1.2525057742820562,[1.85781679],0.005,0.1,0.25698132995427375,0.4430410222383447,0
3.376969337463379,1.2571953434837364,[1.86102567],0.005,0.1,0.29797968248963336,0.41303173501002616,0
3.3889858722686768,1.262080311402153,[1.86424572],0.005,0.1,0.24828677351504733,0.40998697352026453,0
3.4019484519958496,1.267356076754043,[1.8674719],0.005,0.1,0.175853489757253,0.40668843712563985,0
3.416956663131714,1.2732180382561433,[1.87070134],0.005,0.1,0.10774988735609944,0.40250587517767655,0
3.4334566593170166,1.2802523920586635,[1.87393334],0.005,0.1,0.05268712815975024,0.4197858216248488,0
3.4540414810180664,1.2888499355950767,[1.87717708],0.005,0.1,0.011653199184767399,0.5198507190106949,0
3.4690396785736084,1.2947118970971772,[1.88044627],0.005,0.1,-0.293245198022609,0.47225815285362266,0
3.4839794635772705,1.3007692573160137,[1.88374207],0.005,0.1,-0.3456199564764536,0.43804948443470215,0
3.503817081451416,1.3085852059854806,[1.88706153],0.005,0.1,-0.3025834596676631,0.4767169687889492,0
3.5210771560668945,1.3158149585047374,[1.89041131],0.005,0.1,-0.5094088312206886,0.5092553887648125,0
3.5370490550994873,1.3222631161570475,[1.89379667],0.005,0.1,-0.199203278459173,0.4535908794099219,0
3.5504024028778076,1.3277342802256742,[1.89721159],0.005,0.1,-0.05510074343015285,0.41621842248757435,0
3.563014030456543,1.3328146468608277,[1.90064529],0.005,0.1,0.008798347154598492,0.39050464107252264,0
3.57645320892334,1.3386766083629278,[1.90408818],0.005,0.1,0.03462552125133399,0.37078990822673774,0
3.5911710262298584,1.3447339685817647,[1.90753171],0.005,0.1,0.04287086890555262,0.3554292498218042,0
3.603048801422119,1.3496189365001814,[1.91096838],0.005,0.1,-0.23266455771454378,0.34481079213932825,0
3.6179399490356445,1.3556762967190181,[1.91439161],0.005,0.1,-0.26839532822195034,0.3346244363838802,0
3.6309471130371094,1.3605612646374348,[1.91779575],0.005,0.1,-0.21689940912594002,0.3272174817052629,0
3.6434543132781982,1.3656416312725883,[1.92117592],0.005,0.1,-0.1444979276964036,0.32044695652796346,0
3.6565330028533936,1.371112795341215,[1.92452802],0.005,0.1,-0.07738716153470024,0.3137729525952278,0
3.6710309982299805,1.3767793581265784,[1.92784861],0.005,0.1,-0.0238024053215396,0.3072456996485759,0
3.6869471073150635,1.3832275157788887,[1.93113485],0.005,0.1,-0.26050685880712493,0.3002038921123007,0
3.7009525299072266,1.3890894772809885,[1.93438444],0.005,0.1,-0.2665461496690967,0.29396405957050925,0
3.7230310440063477,1.3982732169676122,[1.93760344],0.005,0.1,-0.19396523910649408,0.3713662460039249,0
3.7310078144073486,1.4015949951521356,[1.94079701],0.005,0.1,-0.10753141382278206,0.26046742904293707,0
3.742025375366211,1.406089165637079,[1.94395379],0.005,0.1,-0.031768999836921226,0.26148076136666637,0
3.757645606994629,1.4123419245726525,[1.94706616],0.005,0.1,0.026543589051830848,0.27664897734259614,0
3.7690141201019287,1.4166406963408593,[1.95013581],0.005,0.1,0.0678394193017692,0.25460270396439144,0
3.783745527267456,1.4226980565596958,[1.95316165],0.005,0.1,0.09499557249090992,0.2603423221496647,0
3.8013882637023926,1.4303186065124263,[1.95614785],0.005,0.1,0.11129913369063935,0.29024197819399,0
3.8113667964935303,1.4342265808471597,[1.95909948],0.005,0.1,0.11967489403759557,0.2435400554782684,0
3.826169013977051,1.4404793397827331,[1.96201413],0.005,0.1,0.12247040931549927,0.25300957869707824,0
3.839933156967163,1.4459505038513598,[1.96489044],0.005,0.1,0.12146829286662715,0.2392007105497316,0
3.8545827865600586,1.4516170666367234,[1.96773091],0.005,0.1,0.11797612161265594,0.25380752810772156,0
3.864427089691162,1.45591583840493,[1.97053632],0.005,0.1,0.38896831146895866,0.21993718595225864,0
3.8818211555480957,1.46295019220745,[1.97330689],0.005,0.1,0.4161499701137348,0.24912181661185026,0
3.892099618911743,1.4668581665421834,[1.97604508],0.005,0.1,0.3546663229246436,0.21792838124811206,0
3.9039499759674072,1.4713523370271269,[1.97874898],0.005,0.1,0.2720583443478389,0.21027099493812976,0
3.915952682495117,1.4764327036622804,[1.98141575],0.005,0.1,0.1950791468615492,0.21311117522769926,0
3.929941415786743,1.482490063881117,[1.98404776],0.005,0.1,0.13219751464648183,0.21393714280216575,0
3.9415225982666016,1.487375031799534,[1.98664883],0.005,0.1,0.08421643839387305,0.21504453256190478,0
3.9559366703033447,1.4932369933016338,[1.98922281],0.005,0.1,0.04913914838844847,0.2146739680049433,0
3.9674072265625,1.4983173599367874,[1.99177224],0.005,0.1,0.024291892875063073,0.2051551972519185,0
3.983779191970825,1.5047655175890977,[1.99429987],0.005,0.1,0.007168184301026873,0.21600292763332257,0
4.00464653968811,1.513363061125511,[1.9968163],0.005,0.1,-0.004301055741014417,0.2591638923291477,0
4.014623641967773,1.5168802380267712,[1.99933309],0.005,0.1,-0.011718788638869961,0.21725209289903039,0
4.026979684829712,1.5219606046619245,[2.00184899],0.005,0.1,-0.016281941522075356,0.20178210968868635,0
4.0416107177734375,1.5278225661640248,[2.004361],0.005,0.1,-0.018863537294519426,0.21543181928276242,0
4.057767391204834,1.5342707238163347,[2.00687599],0.005,0.1,0.25594815364576995,0.23638861275558348,0
4.067867994308472,1.538374096867805,[2.00939864],0.005,0.1,0.2887565241064488,0.19294666764254917,0
4.0813140869140625,1.5444314570866415,[2.0119246],0.005,0.1,0.23394115669585686,0.1968658316774231,0
4.095390558242798,1.550098019872005,[2.01445252],0.005,0.1,0.15851857161837446,0.2022553295010122,0
4.112967252731323,1.557132373674525,[2.01699],0.005,0.1,0.08888853075749112,0.2354310505003811,0
4.123181581497192,1.5612357467259954,[2.01954339],0.005,0.1,0.03328673452883725,0.1962243078503862,0
4.138041734695435,1.567293106944832,[2.02211107],0.005,0.1,0.26840529321955603,0.20407164594073804,0
4.149360656738281,1.5719826761465123,[2.02468954],0.005,0.1,0.27320405684567173,0.18213035078000606,0
4.1616363525390625,1.576672245348192,[2.02727432],0.005,0.1,0.19964963268995858,0.17626321086267696,0
4.171917915344238,1.5811664158331356,[2.0298605],0.005,0.1,0.11244502706578571,0.17177954813258076,0
4.184918403625488,1.586246782468289,[2.03244605],0.005,0.1,0.03606459775251911,0.17420889367862796,0
4.196006536483765,1.5911317503867057,[2.03502686],0.005,0.1,-0.29878930007080834,0.14802074829363504,0
4.211909055709839,1.5977753067557523,[2.03760025],0.005,0.1,-0.3736255828884205,0.18228681970513325,0
4.2259016036987305,1.6032464708243792,[2.04017192],0.005,0.1,-0.3460337929441083,0.17781106929858254,0
4.24092960357666,1.6091084323264795,[2.04274635],0.005,0.1,-0.28655019814460647,0.17266997828114464,0
4.254917860031128,1.6147749951118429,[2.04532279],0.005,0.1,-0.2246607228159669,0.16764464495022685,0
4.2699456214904785,1.620636956613943,[2.04790125],0.005,0.1,-0.17105962559551163,0.1708351518470966,0
4.2809202671051025,1.6249357283821497,[2.05048121],0.005,0.1,-0.12825887909063208,0.1559322952726834,0
4.294963359832764,1.63079768988425,[2.05305931],0.005,0.1,-0.09552888080300409,0.1511785616584514,0
4.306238889694214,1.6356826578026666,[2.0556321],0.005,0.1,-0.0711140165463477,0.14692961644790337,0
4.321959495544434,1.6417400180215034,[2.05819731],0.005,0.1,-0.053162081457942684,0.1416460860508471,0
4.3369903564453125,1.6479927769570768,[2.06075242],0.005,0.1,0.23597422742778346,0.13602318705368896,0
4.357589483261108,1.6565903204934902,[2.06330066],0.005,0.1,0.27862595558008596,0.16800492067422038,0
4.371907472610474,1.6622568832788538,[2.06585087],0.005,0.1,0.23046230892031738,0.15547619442154434,0
4.38599157333374,1.6677280473474807,[2.0684046],0.005,0.1,0.15944165672937102,0.13864327975147406,0
4.394497632980347,1.6714406229654772,[2.07095047],0.005,0.1,0.09264167279298254,0.10171701841125325,0
4.403961896896362,1.6749577998667373,[2.07347105],0.005,0.1,0.03878104090885649,0.0958767458872315,0
4.422313451766968,1.682773748536204,[2.07595878],0.005,0.1,-0.001144972047320076,0.11196664540788513,0
4.433492422103882,1.6874633177378842,[2.07841536],0.005,0.1,-0.028984355582478798,0.097572389973669,0
4.449575662612915,1.6937160766734578,[2.08083926],0.005,0.1,-0.32333290898406625,0.10010535762234019,0
4.4657793045043945,1.7003596330425044,[2.08323061],0.005,0.1,-0.6436911950285334,0.10455360037407856,0
4.4743311405181885,1.7036814112270278,[2.08558779],0.005,0.1,-0.6277938866165602,0.0809108715123285,0
4.4950852394104,1.711888157329968,[2.08790657],0.005,0.1,-0.4991092387484728,0.09857878704587454,0
4.5066750049591064,1.7163823278149113,[2.09018846],0.005,0.1,-0.6286061994840146,0.08390138752109562,0
4.521920204162598,1.7222442893170116,[2.09243426],0.005,0.1,-0.5330515815778175,0.08751981211123058,0
4.5369837284088135,1.728301649535848,[2.09464372],0.005,0.1,-0.3767891137721942,0.0818629850486025,0
4.549329042434692,1.7331866174542652,[2.0968169],0.005,0.1,-0.5021854774955239,0.0779099237052062,0
4.56392240524292,1.739048578956365,[2.09895235],0.005,0.1,-0.41238609045500463,0.07425759536982897,0
4.5789008140563965,1.7449105404584655,[2.10104923],0.005,0.1,-0.5414452817995512,0.07121235630620316,0
4.593051433563232,1.7505771032438289,[2.10310742],0.005,0.1,-0.709958345646897,0.06934685568734338,0
4.605896234512329,1.7552666724455086,[2.10512727],0.005,0.1,-0.8506385741615019,0.0666932787271901,0
4.619924306869507,1.7601516403639255,[2.10710914],0.005,0.1,-1.2214580830698323,0.06511691789271355,0
4.6363866329193115,1.7662090005827624,[2.10905514],0.005,0.1,-1.3052308768969332,0.06772898490747793,0
4.6459691524505615,1.7699215762007592,[2.1109677],0.005,0.1,-1.264995027117944,0.06102512729076057,0
4.658208608627319,1.7744157466857025,[2.11284659],0.005,0.1,-1.1772932652303352,0.06018816784077833,0
4.672010183334351,1.778909917170646,[2.11469204],0.005,0.1,-1.6289200145770837,0.05941967784927611,0
4.684967041015625,1.7832086889388525,[2.11650598],0.005,0.1,-1.5967777026331034,0.058613508544632854,0
4.698954820632935,1.788289055574006,[2.11829044],0.005,0.1,-1.3958074597911456,0.05741578063456489,0
4.7118895053863525,1.7929786247756863,[2.12004744],0.005,0.1,-1.1619092798226704,0.05631161536167845,0
4.724950313568115,1.797668193977366,[2.12177897],0.005,0.1,-1.2239444066142773,0.05520740998154734,0
4.739946365356445,1.802553161895783,[2.123487],0.005,0.1,-1.3547960512126909,0.05401014272962797,0
4.758870363235474,1.8090013195480932,[2.12517576],0.005,0.1,-1.190648889778028,0.05997759641005069,0
4.767972230911255,1.8117369015824063,[2.12684901],0.005,0.1,-1.2244506464747587,0.04967309880138561,0
4.782870292663574,1.8166218695008234,[2.12850511],0.005,0.1,-1.3008762132796043,0.04892148580454325,0
4.804657697677612,1.8232654258698702,[2.13014763],0.005,0.1,-1.0848569150083662,0.06347501701418042,0
4.819886207580566,1.8281503937882868,[2.13178685],0.005,0.1,-1.078734113552741,0.05697752867785758,0
4.8349714279174805,1.83264456427323,[2.13342632],0.005,0.1,-1.128416506985668,0.052300487472479194,0
4.847972869873047,1.8365525386079635,[2.13506387],0.005,0.1,-0.8970491606578752,0.04896391309728411,0
4.8631062507629395,1.841046709092907,[2.13669766],0.005,0.1,-0.6083790040016327,0.046655530969021704,0
4.87687087059021,1.8451500821443771,[2.13832593],0.005,0.1,-0.624842483814865,0.04388795411269651,0
4.8985676765441895,1.8515982397966873,[2.13995117],0.005,0.1,-0.4528944639223882,0.055064916297257314,0
4.911255836486816,1.8555062141314205,[2.14157908],0.005,0.1,-0.24751333133717945,0.04671666125060559,0
4.924453496932983,1.8592187897494172,[2.14320914],0.005,0.1,-0.06741899167998794,0.04297198594407791,0
4.940518617630005,1.8633221628008876,[2.14483744],0.005,0.1,-0.20491425565902646,0.04185833295721803,0
4.9549055099487305,1.8670347384188843,[2.14646178],0.005,0.1,-0.14005194110633046,0.039195247414206116,0
4.968168258666992,1.8705519153201442,[2.14807953],0.005,0.1,-0.020673702738139788,0.03719319960963066,0
4.982935428619385,1.8746552883716143,[2.14968773],0.005,0.1,-0.18221347743716584,0.03548354563285503,0
4.993533611297607,1.8773908704059277,[2.15128246],0.005,0.1,-0.12529137374307525,0.0314625203107935,0
5.007714748382568,1.880908047307188,[2.15286031],0.005,0.1,-0.0073362484233620295,0.03390032697977943,0
5.02188777923584,1.8844252242084478,[2.15442126],0.005,0.1,0.10794807103015051,0.033142358340350786,0
5.03186297416687,1.8867700088092878,[2.15596391],0.005,0.1,-0.07686536623251475,0.02878473251492308,0
5.044987201690674,1.8900917869938112,[2.15748354],0.005,0.1,-0.046234984004367444,0.028154530607321534,0
5.0610222816467285,1.8936089638950713,[2.15897989],0.005,0.1,-0.22753500439417207,0.03304811978456683,0
5.07594633102417,1.8971261407963316,[2.16045748],0.005,0.1,-0.16386083082147312,0.031639903711369134,0
5.090885400772095,1.9006433176975914,[2.16191848],0.005,0.1,-0.3074750894805196,0.03049065467000125,0
5.105487823486328,1.9037696971653784,[2.1633626],0.005,0.1,-0.21082145342045977,0.02962023003025779,0
5.116925001144409,1.9063098804829548,[2.16478978],0.005,0.1,-0.32867424834992376,0.029051614850366825,0
5.129234075546265,1.9088500638005315,[2.1662001],0.005,0.1,-0.2132236323625602,0.028553325755713344,0
5.143923044204712,1.9121718419850549,[2.1675938],0.005,0.1,-0.04202625150917069,0.02791903294556252,0
5.158920049667358,1.9152982214528416,[2.16897124],0.005,0.1,0.11509840028698594,0.02737276890914585,0
5.170978784561157,1.9176430060536815,[2.17033287],0.005,0.1,0.23645676868204013,0.027043209080355228,0
5.1838672161102295,1.920378588087995,[2.17167924],0.005,0.1,0.3204028226026742,0.026648366182080493,0
5.1988489627838135,1.9233095688390454,[2.17301096],0.005,0.1,-0.1795691922109617,0.026288867805415898,0
5.221180200576782,1.927608340607252,[2.17433217],0.005,0.1,-0.21833659267858163,0.03317476035077214,0
5.230649709701538,1.9293669290578819,[2.1756481],0.005,0.1,-0.09861026212575941,0.02664992858178892,0
5.23987889289856,1.931125517508512,[2.17695627],0.005,0.1,0.050586370156121885,0.02330745397651446,0
5.26044487953186,1.9348380931265086,[2.17825426],0.005,0.1,0.18031804301930482,0.028791483639150975,0
5.270598411560059,1.9365966815771387,[2.17954496],0.005,0.1,0.0009308049107834837,0.02476035651584742,0
5.288794755935669,1.9397230610449256,[2.18083055],0.005,0.1,0.03211804272970732,0.028957951289068817,0
5.300195693969727,1.9416770482122923,[2.18211269],0.005,0.1,0.1247992700989497,0.025258762059368847,0
5.307844638824463,1.943044839229449,[2.18338868],0.005,0.1,-0.05786382201665277,0.021130800948462758,0
5.32084846496582,1.9451942251135523,[2.18465298],0.005,0.1,-0.017749071961523658,0.02207433068563436,0
5.343621015548706,1.9489068007315489,[2.18590876],0.005,0.1,0.08669132962569437,0.030868132872852547,0
5.357504606246948,1.9508607878989157,[2.18716542],0.005,0.1,0.46699897842779947,0.029010419425724195,0
5.367346525192261,1.952423977632809,[2.18842518],0.005,0.1,0.3061967204621585,0.02413890315794603,0
5.3796303272247314,1.954182566083439,[2.18968367],0.005,0.1,0.27407350056396995,0.023597680973232203,0
5.388921499252319,1.9555503571005957,[2.19093684],0.005,0.1,0.5622378203760572,0.020957336434075317,0
5.400967359542847,1.9573089455512258,[2.19218189],0.005,0.1,0.3399599340086835,0.02223907936075898,0
5.413938045501709,1.958872135285119,[2.193419],0.005,0.1,0.5435496558105442,0.023287950693705668,0
5.426896095275879,1.9608261224524859,[2.19465043],0.005,0.1,0.5630257447522078,0.024026172329910535,0
5.4376161098480225,1.9621939134696424,[2.19587667],0.005,0.1,0.5127604780769084,0.021790464043714427,0
5.451486110687256,1.9645386980704826,[2.19709761],0.005,0.1,0.7194741295030013,0.024605226321629124,0
5.463022947311401,1.9661018878043761,[2.19831517],0.005,0.1,0.6849873495541035,0.023775645099203265,0
5.471867561340332,1.9672742801047958,[2.19952799],0.005,0.1,0.5711666706980827,0.019320021241504996,0
5.48796820640564,1.9692282672721628,[2.20073346],0.005,0.1,0.4465724053282196,0.02425516669036413,0
5.502610921859741,1.9713776531562661,[2.2019355],0.005,0.1,0.3368230866572526,0.0256704073471936,0
5.514217376708984,1.972745444173423,[2.20313807],0.005,0.1,0.2486643343308984,0.02358475446728141,0
5.525403022766113,1.9741132351905792,[2.20433975],0.005,0.1,0.18122393529756048,0.02184927437503448,0
5.5379252433776855,1.9756764249244727,[2.20553784],0.005,0.1,0.13109383461733606,0.02155582839655886,0
5.559705018997192,1.9782166082420496,[2.20673502],0.005,0.1,0.09448924312067165,0.029284879587913874,0
5.573376417160034,1.979779797975943,[2.20793812],0.005,0.1,0.34409922672668813,0.02653175607205033,0
5.582728385925293,1.980756791559626,[2.20914676],0.005,0.1,0.6343152159099226,0.02082736904918342,0
5.598228693008423,1.9827107787269929,[2.2103552],0.005,0.1,0.598815158674576,0.0221729808718787,0
5.610363721847534,1.9840785697441496,[2.21156071],0.005,0.1,0.7340321231417881,0.02023577676014363,0
5.618873834609985,1.9850555633278328,[2.21275905],0.005,0.1,0.6136820001920263,0.017080154541016163,0
5.640683889389038,1.9872049492119364,[2.21394649],0.005,0.1,0.4265416144522003,0.021059514878891523,0
5.653316020965576,1.9885727402290931,[2.21512387],0.005,0.1,0.2483329380110701,0.018778540316895007,0
5.662968873977661,1.9895497338127766,[2.21628871],0.005,0.1,0.3799182849105118,0.016345547513832263,0
5.6815879344940186,1.991503720980143,[2.21743623],0.005,0.1,0.3056587123171202,0.01734725386054623,0
5.696895122528076,1.993262309430773,[2.21856462],0.005,0.1,0.1755584898919558,0.016140552446215404,0
5.710894823074341,1.9948254991646663,[2.21967157],0.005,0.1,0.050089918603037256,0.015182153647619465,0
5.725921630859375,1.9961932901818233,[2.22075339],0.005,0.1,0.22538904818032662,0.014412565000272881,0
5.736893892288208,1.9973656824822434,[2.22180664],0.005,0.1,0.46152387423868513,0.013797753791654379,0
5.750406503677368,1.9985380747826633,[2.22282817],0.005,0.1,0.3908055314433395,0.013292962506696175,0
5.76194429397583,1.9995150683663467,[2.22381496],0.005,0.1,0.5060656467095612,0.012743652852593235,0
5.770994424819946,2.0002966632332932,[2.22476357],0.005,0.1,0.3772002561318254,0.012197728746060503,0
5.784754037857056,2.0014690555337133,[2.22567092],0.005,0.1,0.1896844738085401,0.012126276395667174,0
5.7954699993133545,2.0022506504006596,[2.2265353],0.005,0.1,0.2926734099775685,0.011903774960110811,0
5.807804107666016,2.0032276439843435,[2.22735548],0.005,0.1,0.19008652703061735,0.011754102949622489,0
5.826279163360596,2.0045954350015,[2.22813103],0.005,0.1,0.03851469976385191,0.011743287752144598,0
5.8438191413879395,2.0059632260186566,[2.22886275],0.005,0.1,-0.10049380879034092,0.011599913600589967,0
5.854874610900879,2.0067448208856034,[2.22955113],0.005,0.1,-0.20783938638834168,0.01135740198035442,0
5.868122339248657,2.0077218144692868,[2.23019592],0.005,0.1,-0.006061408159472939,0.011259697270989848,0
5.87844181060791,2.0085034093362335,[2.23079718],0.005,0.1,-0.01904908359862182,0.01114448095155272,0
5.89648175239563,2.009675801636653,[2.23135549],0.005,0.1,-0.09849505218222256,0.011048703627639215,0
5.908490180969238,2.0104573965036003,[2.23187181],0.005,0.1,0.09297444317740072,0.01095908490417828,0
5.918954849243164,2.01104359265381,[2.23234704],0.005,0.1,0.05814546081161179,0.010911782630710425,0
5.931145191192627,2.0120205862374934,[2.23278206],0.005,0.1,0.23240648941668224,0.010822425523209714,0
5.949646472930908,2.0129975798211768,[2.23317828],0.005,0.1,0.1620576685677186,0.010735610953078276,0
5.959872245788574,2.0137791746881235,[2.23353737],0.005,0.1,0.3004044198117294,0.010665624635101532,0
5.973909139633179,2.0145607695550702,[2.23386093],0.005,0.1,0.20002204981688,0.010598162439907653,0
5.9903178215026855,2.0155377631387537,[2.23415072],0.005,0.1,0.039441288484344084,0.010498782500453144,0
6.0024402141571045,2.0163193580057,[2.23440863],0.005,0.1,0.16555205401114262,0.01042437759188513,0
6.009822845458984,2.0165147567224366,[2.23463648],0.005,0.1,0.08199146140972109,0.010430951132989034,0
6.0238237380981445,2.017296351589384,[2.23483609],0.005,0.1,-0.05419069345163121,0.010349570821300126,0
6.038243293762207,2.018273345173067,[2.23500939],0.005,0.1,0.09524626606308399,0.010237034598751554,0
6.0518059730529785,2.01866414260654,[2.23515831],0.005,0.1,0.0310782432276542,0.0102033873198734,0
6.0638298988342285,2.01925033875675,[2.23528477],0.005,0.1,0.18598676117415952,0.010140727275827576,0
6.0748209953308105,2.0196411361902236,[2.23539061],0.005,0.1,0.10373510602984695,0.010101781848020465,0
6.088805437088013,2.0202273323404336,[2.23547762],0.005,0.1,-0.040499131644663164,0.010033173238194382,0
6.101815700531006,2.0210089272073803,[2.23554749],0.005,0.1,0.09923709352269203,0.009936230917475815,0
6.116811037063599,2.0213997246408537,[2.23560184],0.005,0.1,0.026632720142362662,0.009890775553994806,0
6.131872653961182,2.0219859207910633,[2.23564214],0.005,0.1,-0.10087008766975966,0.009817306239665768,0
6.147252321243286,2.022572116941274,[2.23566975],0.005,0.1,0.05542414284611148,0.009745407785725866,0
6.1567792892456055,2.0229629143747467,[2.2356859],0.005,0.1,0.2727400261914178,0.009695819974584107,0
6.170802116394043,2.0233537118082205,[2.23569174],0.005,0.1,0.18910362391921381,0.009647316219993717,0
6.184800148010254,2.0239399079584306,[2.2356883],0.005,0.1,0.29822061830155144,0.009572971698812133,0
6.198789834976196,2.024330705391904,[2.23567645],0.005,0.1,0.44509333005437646,0.009525003963674988,0
6.211808443069458,2.0249169015421136,[2.23565696],0.005,0.1,0.5708764476068171,0.00945151417544436,0
6.225826025009155,2.025307698975587,[2.23563048],0.005,0.1,0.38308104644179986,0.009402203085942485,0
6.241144418716431,2.025893895125797,[2.23559753],0.005,0.1,0.4014358755925015,0.009333775805704,0
6.261778831481934,2.026480091276007,[2.23555822],0.005,0.1,0.20182807118043222,0.009299770911868713,0
6.276815891265869,2.027066287426217,[2.23551242],0.005,0.1,0.243578204423961,0.009219535200660132,0
6.289817571640015,2.0272616861429538,[2.23546019],0.005,0.1,0.352190129823244,0.009194913636473538,0
6.3038084506988525,2.027652483576427,[2.23540179],0.005,0.1,0.4574690049129314,0.009149628049794299,0
6.317792654037476,2.0280432810099005,[2.23533736],0.005,0.1,0.26014366379825526,0.009105058097738716,0
6.3260884284973145,2.028434078443374,[2.23526716],0.005,0.1,0.27578821559066025,0.009021237609510046,0
6.3430609703063965,2.0288248758768472,[2.23519131],0.005,0.1,0.3537271494714968,0.009048428646633893,0
6.35489821434021,2.029020274593584,[2.23510974],0.005,0.1,0.4326717511537943,0.008955119070347366,0
6.373805522918701,2.029606470743794,[2.23502225],0.005,0.1,0.2157102828560061,0.009019631677501645,0
6.394489765167236,2.0301926668940036,[2.23492746],0.005,0.1,0.21813957528561406,0.009156930981472324,0
6.407930612564087,2.030583464327477,[2.2348235],0.005,0.1,0.28813345220439,0.009103844241443684,0
6.417922258377075,2.030583464327477,[2.23470987],0.005,0.1,0.3631266872876595,0.00897637873968209,0
6.427906036376953,2.0307788630442136,[2.23458718],0.005,0.1,0.4211234807866183,0.008914096450011967,0
6.440827369689941,2.0311696604776874,[2.23445578],0.005,0.1,0.4575745475611951,0.008945296174144187,0
6.460378885269165,2.0315604579111604,[2.23431464],0.005,0.1,0.19863293339392632,0.009236101860739875,0
6.470037221908569,2.031755856627897,[2.23416241],0.005,0.1,0.1674285471331251,0.008994254686846259,0
6.48774790763855,2.0321466540613704,[2.23399834],0.005,0.1,0.21347523908216018,0.009326297686089526,0
6.499098777770996,2.032342052778107,[2.23382144],0.005,0.1,-0.0029521558032200995,0.0091828062207411,0
6.518465280532837,2.0327328502115805,[2.23363026],0.005,0.1,0.013298783927260062,0.009722473823079432,0
6.53392767906189,2.032928248928317,[2.23342293],0.005,0.1,0.10122488344812432,0.009634905357640628,0
6.545955657958984,2.0333190463617905,[2.23319849],0.005,0.1,0.1943097269111558,0.009542651235304959,0
6.560856342315674,2.033514445078527,[2.23295709],0.005,0.1,0.2690378489426521,0.00948456332804316,0
6.57684850692749,2.033709843795264,[2.23269905],0.005,0.1,0.320428309299901,0.009424277701209443,0
6.592193603515625,2.0341006412287372,[2.23242464],0.005,0.1,0.07465635573988012,0.009446046209465942,0
6.6102540493011475,2.034296039945474,[2.23213352],0.005,0.1,0.05503725948470479,0.009768267856098039,0
6.620549440383911,2.0344914386622106,[2.23182576],0.005,0.1,0.11130656445635834,0.009170121386857903,0
6.630878686904907,2.0346868373789473,[2.23150349],0.005,0.1,0.17998508790496046,0.008813430065303818,0
6.642874002456665,2.034882236095684,[2.23116943],0.005,0.1,0.23745063919305082,0.008728438177879601,0
6.66412878036499,2.0350776348124207,[2.23082471],0.005,0.1,0.0014993913517180324,0.009031110207671672,0
6.675522565841675,2.0352730335291573,[2.23046986],0.005,0.1,-0.008080961736978295,0.00857899507746554,0
6.684850215911865,2.035468432245894,[2.23010725],0.005,0.1,0.05714735191237461,0.00817444151981357,0
6.695840358734131,2.035468432245894,[2.22974014],0.005,0.1,0.13338490843505313,0.008071271500876198,0
6.710847616195679,2.0356638309626307,[2.22937098],0.005,0.1,0.19708168652241145,0.007929324394740922,0
6.723778486251831,2.0356638309626307,[2.22900179],0.005,0.1,-0.03376539379994874,0.007793313895861785,0
6.737804889678955,2.035859229679367,[2.22863468],0.005,0.1,-0.039151106864713896,0.007635459661852337,0
6.750850439071655,2.035859229679367,[2.22827176],0.005,0.1,0.02955483909215179,0.0075037684677325385,0
6.7648468017578125,2.035859229679367,[2.22791518],0.005,0.1,-0.16732884822560873,0.007375789549564381,0
6.778832197189331,2.0360546283961036,[2.22756705],0.005,0.1,-0.13427819101003693,0.0072395440629814175,0
6.793838262557983,2.0360546283961036,[2.22722944],0.005,0.1,-0.30789532111225304,0.0071359342293785795,0
6.808237314224243,2.0360546283961036,[2.22690435],0.005,0.1,-0.2353391204793442,0.0070502153956881536,0
6.828509092330933,2.0360546283961036,[2.22659376],0.005,0.1,-0.37051507570290887,0.006969404607932552,0
6.84175968170166,2.0360546283961036,[2.2262997],0.005,0.1,-0.266412813032665,0.006915557016769906,0
6.85579252243042,2.0360546283961036,[2.22602413],0.005,0.1,-0.10184544035156862,0.006881399639631848,0
6.865034103393555,2.0360546283961036,[2.22576861],0.005,0.1,0.05214604222783292,0.00685568875413968,0
6.878498077392578,2.0360546283961036,[2.22553428],0.005,0.1,0.17284795399766817,0.0068474830416273315,0
6.886838436126709,2.0360546283961036,[2.22532208],0.005,0.1,0.2578230852825826,0.006829759806035787,0
6.901841640472412,2.0360546283961036,[2.22513269],0.005,0.1,0.31205504128382744,0.006840860085961999,0
6.9172539710998535,2.0360546283961036,[2.22496694],0.005,0.1,0.3423389627080881,0.0068864242414900185,0
6.926851511001587,2.0360546283961036,[2.22482573],0.005,0.1,0.35504960437545324,0.006889427152779783,0
6.942464113235474,2.0360546283961036,[2.22470954],0.005,0.1,0.35542603279179485,0.006944408618790867,0
6.958068132400513,2.0360546283961036,[2.22461898],0.005,0.1,0.34749421074869835,0.007041891972547655,0
6.9757726192474365,2.0360546283961036,[2.22455514],0.005,0.1,0.3342242477168673,0.007230920261971807,0
6.985721111297607,2.035859229679367,[2.22451874],0.005,0.1,0.31774600529010955,0.007148077009024434,0
6.997447967529297,2.0360546283961036,[2.22450905],0.005,0.1,0.299552610895788,0.0071201960539630125,0
7.013045787811279,2.0360546283961036,[2.22452532],0.005,0.1,0.28066905117208296,0.007298717143540641,0
7.0287885665893555,2.0360546283961036,[2.22456785],0.005,0.1,0.2617831059457544,0.007479375209213961,0
7.039015293121338,2.0360546283961036,[2.22463655],0.005,0.1,0.24334332490923494,0.007332629208415226,0
7.058340549468994,2.035859229679367,[2.22473104],0.005,0.1,0.22563064723986248,0.007855421946985875,0
7.072102308273315,2.035859229679367,[2.22485182],0.005,0.1,0.20880993784501273,0.007810713181234399,0
7.084474802017212,2.0360546283961036,[2.22499839],0.005,0.1,0.1929666577654415,0.0076891106790004165,0
7.100687742233276,2.0360546283961036,[2.22516926],0.005,0.1,0.17813273324732276,0.007832089282776976,0
7.112362861633301,2.0360546283961036,[2.22536347],0.005,0.1,0.1643046740794665,0.00792471033832119,0
7.128793001174927,2.0360546283961036,[2.22558063],0.005,0.1,0.1514561787073337,0.008209106692719138,0
7.1418046951293945,2.0360546283961036,[2.22582051],0.005,0.1,0.1395468428536412,0.008284143939541263,0
7.154828071594238,2.0360546283961036,[2.2260826],0.005,0.1,0.12852812806284425,0.008382575371699577,0
7.168108940124512,2.0360546283961036,[2.22636606],0.005,0.1,0.11834741152779729,0.008502873647251235,0
7.180519104003906,2.0360546283961036,[2.22666995],0.005,0.1,0.10895069763442679,0.008484404115028297,0
7.195765972137451,2.0360546283961036,[2.22699342],0.005,0.1,0.10028439985980372,0.008848030283054635,0
7.208735227584839,2.0360546283961036,[2.22733626],0.005,0.1,0.09229647985427779,0.009008612472508368,0
7.2212138175964355,2.035859229679367,[2.22769828],0.005,0.1,0.0849371445331999,0.009209475312203962,0
7.23436427116394,2.0360546283961036,[2.22807904],0.005,0.1,0.0781592414571205,0.009326136138734174,0
7.245220899581909,2.0360546283961036,[2.22847753],0.005,0.1,0.07191845025090043,0.00910803437579682,0
7.260378837585449,2.0360546283961036,[2.22889291],0.005,0.1,0.06617333799294602,0.009862264502334154,0
7.27332878112793,2.0360546283961036,[2.22932532],0.005,0.1,0.0608853256294291,0.009761704036247511,0
7.289089918136597,2.0360546283961036,[2.22977516],0.005,0.1,0.05601859787343614,0.010585386632201968,0
7.30217981338501,2.0360546283961036,[2.23024326],0.005,0.1,0.05153997886022323,0.010785143208889628,0
7.31547999382019,2.0360546283961036,[2.23073025],0.005,0.1,0.04741878872837346,0.011014827632111798,0
7.330769300460815,2.0360546283961036,[2.23123612],0.005,0.1,0.043626691356633454,0.011274700360409593,0
7.3447585105896,2.0360546283961036,[2.23176094],0.005,0.1,0.040137540057999854,0.011560611106768995,0
7.36881685256958,2.0360546283961036,[2.23230742],0.005,0.1,0.03692722566095091,0.015118521859689281,0
7.382659912109375,2.0360546283961036,[2.23288053],0.005,0.1,0.033973529773720104,0.014579509554127582,0
7.3953235149383545,2.0360546283961036,[2.2334815],0.005,0.1,0.031255984907939925,0.013650305274256532,0
7.409751653671265,2.035859229679367,[2.23410875],0.005,0.1,0.028755742376669766,0.01450844413379945,0
7.417707681655884,2.0360546283961036,[2.23476003],0.005,0.1,0.026455448369533233,0.01217324508489397,0
7.431535959243774,2.0360546283961036,[2.23543163],0.005,0.1,0.02433912826808917,0.013157980720742273,0
7.446568727493286,2.035859229679367,[2.23612271],0.005,0.1,0.022392079044335433,0.014707539585434169,0
7.463720083236694,2.0360546283961036,[2.2368362],0.005,0.1,0.020600769447179174,0.016770736424230527,0
7.4787986278533936,2.0360546283961036,[2.23757489],0.005,0.1,0.018952747599880807,0.016726165129453418,0
7.487935304641724,2.0360546283961036,[2.23833813],0.005,0.1,0.017436555587824823,0.015052788702872024,0
7.503690958023071,2.0360546283961036,[2.23912417],0.005,0.1,0.01604165059795364,0.01760339567157714,0
7.517465829849243,2.035859229679367,[2.23993393],0.005,0.1,0.014758332170126025,0.017781000980103896,0
7.5264811515808105,2.035859229679367,[2.24076635],0.005,0.1,0.013577675130522195,0.015309506744696937,0
7.53678035736084,2.0360546283961036,[2.24161569],0.005,0.1,0.012491467793884853,0.013983727417939852,0
7.555181503295898,2.0360546283961036,[2.24247964],0.005,0.1,0.011492155042037216,0.019155112476865292,0
7.5663416385650635,2.0360546283961036,[2.24336111],0.005,0.1,0.010572785908838468,0.017586260726659277,0
7.5781474113464355,2.035859229679367,[2.24425984],0.005,0.1,0.009726965325246344,0.017026915578049084,0
7.5897297859191895,2.0360546283961036,[2.24517262],0.005,0.1,0.008948809701607123,0.01686840166714209,0
7.604881763458252,2.0360546283961036,[2.24609819],0.005,0.1,0.008232906047144908,0.018523478086768123,0
7.617740869522095,2.0360546283961036,[2.24703689],0.005,0.1,0.0075742743485397515,0.01850116241613665,0
7.629739761352539,2.0360546283961036,[2.24798872],0.005,0.1,0.006968332950273076,0.019193049827728827,0
7.64173436164856,2.0360546283961036,[2.2489535],0.005,0.1,0.006410866698982791,0.019738499725866093,0
7.653701066970825,2.0360546283961036,[2.24993131],0.005,0.1,0.005897997632376251,0.02015613521889571,0
7.665135622024536,2.0360546283961036,[2.25092116],0.005,0.1,0.00542615801030461,0.0191133946057158,0
7.672695159912109,2.035859229679367,[2.25191842],0.005,0.1,0.004992065501443158,0.01565042910594668,0
7.685735702514648,2.0360546283961036,[2.252917],0.005,0.1,0.004592700353701762,0.017116521460920856,0
7.709704160690308,2.0360546283961036,[2.25391873],0.005,0.1,0.004225284390067456,0.024571587919115227,0
7.721760511398315,2.0360546283961036,[2.25493119],0.005,0.1,0.003887261684125339,0.02349685088458752,0
7.7367353439331055,2.0360546283961036,[2.25595691],0.005,0.1,0.0035762807810796097,0.022671193868182702,0
7.746303558349609,2.0360546283961036,[2.25699259],0.005,0.1,0.003290178340772247,0.019526050332780195,0
7.762433290481567,2.0360546283961036,[2.25803509],0.005,0.1,0.003026964089035776,0.02236464197679288,0
7.777786016464233,2.0360546283961036,[2.25908431],0.005,0.1,0.002784806972780627,0.02175172229650849,0
7.791696786880493,2.0360546283961036,[2.26013981],0.005,0.1,0.002562022422565576,0.02123857026117669,0
7.806797742843628,2.0360546283961036,[2.26119933],0.005,0.1,0.0023570606340855126,0.0208112971210609,0
7.827468395233154,2.0360546283961036,[2.26226323],0.005,0.1,0.002168495787086301,0.02531663968479657,0
7.843770980834961,2.0360546283961036,[2.26333412],0.005,0.1,0.0019950161267287348,0.023584337416428066,0
7.8551366329193115,2.0360546283961036,[2.26441118],0.005,0.1,0.0018354148384169724,0.021933180129363315,0
7.862781047821045,2.0360546283961036,[2.26548773],0.005,0.1,0.0016885816526221909,0.022132614158307487,0
7.886722564697266,2.0360546283961036,[2.26655757],0.005,0.1,0.0015534951213074166,0.025503169305725264,0
7.907591104507446,2.035859229679367,[2.26762176],0.005,0.1,0.0014292155122293268,0.025876707994871496,0
7.923677206039429,2.0360546283961036,[2.26868309],0.005,0.1,0.0013148782716895313,0.024212789722589764,0
7.938709020614624,2.0360546283961036,[2.26974006],0.005,0.1,0.001209688010261353,0.021746938246733426,0
7.962696075439453,2.0360546283961036,[2.27079075],0.005,0.1,0.0011129129696553347,0.023394489144636932,0
7.970751523971558,2.0360546283961036,[2.27183309],0.005,0.1,0.0010238799322333323,0.019106988671071308,0
7.99060320854187,2.0360546283961036,[2.27286297],0.005,0.1,0.000941969537759962,0.019920123542543796,0
8.004225969314575,2.0360546283961036,[2.27387742],0.005,0.1,0.0008666119748128747,0.01903421035025574,0
8.018711566925049,2.035859229679367,[2.27487419],0.005,0.1,0.0007972830168794377,0.018318562571819654,0
8.030934810638428,2.035859229679367,[2.27585],0.005,0.1,0.0007335003755651993,0.017767932906301655,0
8.045715093612671,2.0360546283961036,[2.27680204],0.005,0.1,0.0006748203455452656,0.017510815280973924,0
8.061690092086792,2.0360546283961036,[2.27772815],0.005,0.1,0.0006208347179193416,0.01731113123945356,0
8.08040475845337,2.0360546283961036,[2.27862747],0.005,0.1,0.000571167940498183,0.017985167773562176,0
8.090691089630127,2.0360546283961036,[2.27949934],0.005,0.1,0.0005254745052669994,0.016911318268845708,0
8.111770868301392,2.035859229679367,[2.28034327],0.005,0.1,0.00048343654485170993,0.018336825041061697,0
8.12282943725586,2.0360546283961036,[2.28115995],0.005,0.1,0.0004447616212678218,0.017444765156432545,0
8.134228944778442,2.035859229679367,[2.28194867],0.005,0.1,0.00040918069156937076,0.01698586849730398,0
8.153697729110718,2.035859229679367,[2.28270837],0.005,0.1,0.0003764462362459033,0.017626147393635747,0
8.168764114379883,2.035859229679367,[2.28343985],0.005,0.1,0.0003463305373476878,0.017411807539903828,0
8.18370509147644,2.035859229679367,[2.28414356],0.005,0.1,0.0003186240943608927,0.017268209685246328,0
8.205294847488403,2.035859229679367,[2.28482029],0.005,0.1,0.0002931341668127355,0.0180190603826139,0
8.219782829284668,2.0360546283961036,[2.28547186],0.005,0.1,0.000269683433468217,0.017618796216287248,0
8.231947660446167,2.035859229679367,[2.28609853],0.005,0.1,0.0002481087587911097,0.017170371270104647,0
8.24667763710022,2.035859229679367,[2.28669954],0.005,0.1,0.0002282600580880657,0.017288671143677423,0
8.258965492248535,2.035859229679367,[2.28727479],0.005,0.1,0.00020999925344119207,0.017072447167449302,0
8.266808032989502,2.0356638309626307,[2.28782356],0.005,0.1,0.00019319931316601647,0.016740569437206067,0
8.287662982940674,2.035859229679367,[2.28834535],0.005,0.1,0.00017774336811281918,0.01719593274640517,0
8.302679061889648,2.0356638309626307,[2.2888415],0.005,0.1,0.00016352389866385264,0.017162579912346845,0
8.316654443740845,2.0356638309626307,[2.28931312],0.005,0.1,0.00015044198677078582,0.017120215019290837,0
8.330334901809692,2.0356638309626307,[2.28976049],0.005,0.1,0.0001384066278291518,0.017100163121489848,0
8.343386888504028,2.0356638309626307,[2.29018398],0.005,0.1,0.00012733409760283952,0.01709531323000905,0
8.354272842407227,2.0356638309626307,[2.29058384],0.005,0.1,0.00011714736979462662,0.017024566676295736,0
8.369779109954834,2.0356638309626307,[2.29096043],0.005,0.1,0.00010777558021106618,0.01713495548886439,0
8.382745504379272,2.035468432245894,[2.29131459],0.005,0.1,9.915353379418805e-05,0.017183886909763375,0
8.392590761184692,2.0356638309626307,[2.29164704],0.005,0.1,9.122125109065773e-05,0.01711698364112271,0
8.408112525939941,2.035468432245894,[2.29195833],0.005,0.1,8.392355100340858e-05,0.017227526967245655,0
8.417640209197998,2.035468432245894,[2.29224907],0.005,0.1,7.720966692313828e-05,0.017188123665612877,0
8.432073593139648,2.035468432245894,[2.29251984],0.005,0.1,7.103289356928885e-05,0.017255763711157213,0
8.447663068771362,2.035468432245894,[2.29277158],0.005,0.1,6.535026208374678e-05,0.017307568387625077,0
8.459985494613647,2.035468432245894,[2.29300539],0.005,0.1,6.012224111704785e-05,0.017311780835611103,0
8.476027727127075,2.0352730335291573,[2.29322212],0.005,0.1,5.531246182768468e-05,0.01739123950180094,0
8.486985445022583,2.0352730335291573,[2.29342256],0.005,0.1,5.0887464881470364e-05,0.017397208105764006,0
8.499619483947754,2.0352730335291573,[2.29360739],0.005,0.1,4.6816467690952955e-05,0.017414158251894768,0
8.508669376373291,2.0352730335291573,[2.29377709],0.005,0.1,4.3071150275676914e-05,0.017426357163653875,0
8.521742105484009,2.0352730335291573,[2.29393218],0.005,0.1,3.962545825362291e-05,0.017449464498813752,0
8.534761905670166,2.0352730335291573,[2.29407323],0.005,0.1,3.645542159333319e-05,0.0174684221498097,0
8.546665906906128,2.0352730335291573,[2.29420078],0.005,0.1,3.3538987865866586e-05,0.0174849939888003,0
8.560664892196655,2.0352730335291573,[2.29431523],0.005,0.1,3.0855868836597335e-05,0.0175012954333687,0
8.579459428787231,2.0350776348124207,[2.29441672],0.005,0.1,2.8387399329669617e-05,0.017560009940672968,0
8.588729858398438,2.0350776348124207,[2.29450529],0.005,0.1,2.611640738329601e-05,0.017580547153755226,0
8.60074758529663,2.0350776348124207,[2.294581],0.005,0.1,2.4027094792632354e-05,0.01760798243709593,0
8.615738153457642,2.0350776348124207,[2.29464379],0.005,0.1,2.2104927209221786e-05,0.017642619054879745,0
8.62873363494873,2.0350776348124207,[2.29469337],0.005,0.1,2.0336533032484037e-05,0.017684709612472302,0
8.64269208908081,2.0350776348124207,[2.2947294],0.005,0.1,1.8709610389885317e-05,0.01773396876143893,0
8.656852722167969,2.0350776348124207,[2.29475142],0.005,0.1,1.72128415586945e-05,0.01780089174797776,0
8.667741537094116,2.034882236095684,[2.29475896],0.005,0.1,1.5835814233998964e-05,0.017887919375980922,0
8.682693719863892,2.034882236095684,[2.2947516],0.005,0.1,1.456894909527906e-05,0.017957096487351457,0
8.6947340965271,2.034882236095684,[2.29472894],0.005,0.1,1.3403433167656714e-05,0.018032611508181876,0
8.70774245262146,2.034882236095684,[2.2946905],0.005,0.1,1.2331158514244165e-05,0.018115939960540343,0
8.719651699066162,2.034882236095684,[2.29463577],0.005,0.1,1.134466583310464e-05,0.018209025246251752,0
8.735666513442993,2.0346868373789473,[2.29456424],0.005,0.1,1.0437092566456265e-05,0.018354556523586186,0
8.747632026672363,2.034882236095684,[2.29447534],0.005,0.1,9.60212516113977e-06,0.018435731554091315,0
8.761899948120117,2.0346868373789473,[2.2943686],0.005,0.1,8.833955148248591e-06,0.018535364071956075,0
8.776715517044067,2.0346868373789473,[2.29424347],0.005,0.1,8.127238736388706e-06,0.01880504740906853,0
8.790742874145508,2.0346868373789473,[2.294099],0.005,0.1,7.477059637477617e-06,0.018989551161049327,0
8.803658246994019,2.0346868373789473,[2.29393423],0.005,0.1,6.878894866479405e-06,0.01920538927560461,0
8.816650152206421,2.0346868373789473,[2.29374824],0.005,0.1,6.328583277161044e-06,0.0194572119331749,0
8.82801342010498,2.0344914386622106,[2.29354004],0.005,0.1,5.822296614988165e-06,0.019789390283831677,0
8.836977243423462,2.0346868373789473,[2.29330943],0.005,0.1,5.356512885789104e-06,0.019301866698055083,0
8.848440170288086,2.0344914386622106,[2.2930576],0.005,0.1,4.927991854925975e-06,0.019236470126602394,0
8.864292860031128,2.0344914386622106,[2.29278444],0.005,0.1,4.533752506531901e-06,0.02064068946969655,0
8.875279903411865,2.0344914386622106,[2.29248816],0.005,0.1,4.17105230600935e-06,0.020177477048800654,0
8.885709524154663,2.034296039945474,[2.29216848],0.005,0.1,3.837368121528605e-06,0.020289851868285143,0
8.906282663345337,2.034296039945474,[2.29182391],0.005,0.1,3.530378671806314e-06,0.023087635081063564,0
8.918899297714233,2.034296039945474,[2.29144992],0.005,0.1,3.2479483780618103e-06,0.023482117161972314,0
8.936720609664917,2.034296039945474,[2.29104212],0.005,0.1,2.9881125078168646e-06,0.025996585111764073,0
8.951712608337402,2.034296039945474,[2.29059676],0.005,0.1,2.7490635071915204e-06,0.026099334981315253,0
8.968018293380737,2.034296039945474,[2.29011133],0.005,0.1,2.5291384266161956e-06,0.027077112446667398,0
8.978713750839233,2.0341006412287372,[2.28958477],0.005,0.1,2.3268073524869032e-06,0.026669966065105653,0
8.992719650268555,2.034296039945474,[2.28901686],0.005,0.1,2.140662764287951e-06,0.027223183403915233,0
9.007710456848145,2.0341006412287372,[2.2884074],0.005,0.1,1.9694097431449113e-06,0.02794268116508958,0
9.028876066207886,2.0339052425120006,[2.28775207],0.005,0.1,-0.27603654782171727,0.03741275709099707,0
9.037123203277588,2.0339052425120006,[2.28704606],0.005,0.1,-0.30916129593171615,0.02971506196303201,0
9.047711372375488,2.0339052425120006,[2.28629281],0.005,0.1,-0.2540641726925239,0.02780254053596311,0
9.069885015487671,2.0339052425120006,[2.28549334],0.005,0.1,-0.17797929022202846,0.040089236871023816,0
9.078193187713623,2.0339052425120006,[2.28464373],0.005,0.1,-0.10745672546578312,0.030204164497437718,0
9.098704814910889,2.033709843795264,[2.28374375],0.005,0.1,0.22520332606705745,0.040381188276619004,0
9.114711999893188,2.033709843795264,[2.28279094],0.005,0.1,0.30032543895923625,0.039205477803982154,0
9.131028175354004,2.033709843795264,[2.28178236],0.005,0.1,0.27464322889209725,0.04165639286482979,0
9.150692701339722,2.033709843795264,[2.28071409],0.005,0.1,0.21808592799810905,0.05322291605090632,0
9.163900136947632,2.033709843795264,[2.27958075],0.005,0.1,0.159715703891756,0.046896889329402544,0
9.178595781326294,2.033514445078527,[2.2783831],0.005,0.1,0.10993547264452726,0.046523173867038636,0
9.193621158599854,2.033514445078527,[2.27712495],0.005,0.1,0.0710602373631759,0.04459532570577293,0
9.209617853164673,2.033514445078527,[2.27580991],0.005,0.1,0.04222998263793561,0.04341257085032032,0
9.224677562713623,2.033514445078527,[2.274442],0.005,0.1,0.021605200257903464,0.0427352104217055,0
9.242780685424805,2.0333190463617905,[2.27302157],0.005,0.1,0.007282026222139664,0.05355558852525009,0
9.251051664352417,2.0333190463617905,[2.27154883],0.005,0.1,-0.0023780111746402326,0.04069158170745414,0
9.271669864654541,2.0333190463617905,[2.27002606],0.005,0.1,-0.008672575334183575,0.05626942667753253,0
9.281790733337402,2.0333190463617905,[2.26845416],0.005,0.1,-0.012583419017013141,0.04292049046019627,0
9.292436599731445,2.0333190463617905,[2.26684037],0.005,0.1,-0.014832643378399252,0.037738770365994156,0
9.313715934753418,2.033123647645054,[2.26518938],0.005,0.1,-0.015941481969076368,0.05640208594676065,0
9.327453851699829,2.033123647645054,[2.26349505],0.005,0.1,-0.016281139225727582,0.054362334922545726,0
9.337178945541382,2.032928248928317,[2.26175854],0.005,0.1,-0.292151571222031,0.0409058537761538,0
9.355685710906982,2.032928248928317,[2.25998667],0.005,0.1,-0.3247833520718595,0.052505628256007145,0
9.366735219955444,2.0327328502115805,[2.25817981],0.005,0.1,-0.5450332083448743,0.04864723630582286,0
9.374632596969604,2.0325374514948438,[2.25634491],0.005,0.1,-0.5012698540334629,0.03059672142488164,0
9.389920234680176,2.032342052778107,[2.25449433],0.005,0.1,-0.3747940449846326,0.040993907119654296,0
9.398649454116821,2.032342052778107,[2.25263216],0.005,0.1,-0.5172560603684964,0.035231320026666534,0
9.413964033126831,2.0319512553446337,[2.25075961],0.005,0.1,-0.713041199572332,0.04076201790706055,0
9.428002834320068,2.031755856627897,[2.24887661],0.005,0.1,-0.6042023541239211,0.042089941911164,0
9.438646793365479,2.0315604579111604,[2.24698251],0.005,0.1,-0.41070353800319753,0.0400628686274683,0
9.452683687210083,2.0311696604776874,[2.2450786],0.005,0.1,-0.49781890361156855,0.041632309783661066,0
9.468070983886719,2.0309742617609507,[2.24316384],0.005,0.1,-0.3767279297490991,0.04600888864216449,0
9.479607820510864,2.030583464327477,[2.24123623],0.005,0.1,-0.4831194241325791,0.04279764901839453,0
9.492623329162598,2.0303880656107403,[2.23929601],0.005,0.1,-0.6367484562688028,0.04364216662913174,0
9.506700992584229,2.0299972681772673,[2.2373433],0.005,0.1,-0.4927191183016211,0.04439101093531229,0
9.518694877624512,2.029606470743794,[2.23537705],0.005,0.1,-0.2742967299552874,0.044990958886710994,0
9.533685207366943,2.0292156733103206,[2.2333963],0.005,0.1,-0.3461668320918893,0.04542925700184801,0
9.548682928085327,2.0288248758768472,[2.23140015],0.005,0.1,-0.2176634350942572,0.04580735580727999,0
9.565927505493164,2.028238679726637,[2.22938339],0.005,0.1,-0.32248181526250325,0.061320477734488656,0
9.576333045959473,2.027847882293164,[2.22734052],0.005,0.1,-0.20260617398436356,0.04588737124507969,0
9.586681365966797,2.027652483576427,[2.22527572],0.005,0.1,-0.03072415555551687,0.042699148555413305,0
9.605825901031494,2.027066287426217,[2.22319107],0.005,0.1,0.1256150226810347,0.05616974284572506,0
9.625320434570312,2.026480091276007,[2.22107631],0.005,0.1,0.245737582238554,0.06850942397558804,0
9.639603853225708,2.0260892938425337,[2.21892131],0.005,0.1,0.32842625327863567,0.06217788450441486,0
9.654677629470825,2.0255030976923236,[2.21672531],0.005,0.1,0.37940924967913936,0.057928677677808744,0
9.668692350387573,2.0251123002588503,[2.21449188],0.005,0.1,0.4059433385334537,0.055040276523860183,0
9.68465280532837,2.0249169015421136,[2.21222424],0.005,0.1,0.41469208221317816,0.053028344176550966,0
9.70430588722229,2.024135306675167,[2.20991721],0.005,0.1,0.4110753784609759,0.08268730930504951,0
9.714979410171509,2.0239399079584306,[2.20756213],0.005,0.1,0.39923126980707924,0.058330519470635896,0
9.727783679962158,2.023549110524957,[2.20516485],0.005,0.1,0.6582359018600759,0.05133475122607659,0
9.739331483840942,2.0233537118082205,[2.20273899],0.005,0.1,0.6713057578296174,0.04210667243942904,0
9.758935451507568,2.0227675156580105,[2.20028642],0.005,0.1,0.31860731449344154,0.0706955453228799,0
9.769216775894165,2.022376718224537,[2.19780114],0.005,0.1,0.18735925491945335,0.050175076612051214,0
9.780145406723022,2.0221813195078004,[2.19528907],0.005,0.1,0.4261453988555944,0.043931890669737364,0
9.790660381317139,2.0219859207910633,[2.19276339],0.005,0.1,0.457561084509185,0.03808835788173016,0
9.810143232345581,2.021204325924117,[2.1902251],0.005,0.1,0.4107437693075059,0.0627488663937691,0
9.81765341758728,2.021204325924117,[2.18767058],0.005,0.1,0.3427017924870527,0.03790434139488495,0
9.83064579963684,2.020618129773907,[2.18510952],0.005,0.1,0.2766410287113984,0.035612337179481056,0
9.845674276351929,2.0202273323404336,[2.18254994],0.005,0.1,-0.05558829136967283,0.04472542583121584,0
9.858582258224487,2.0198365349069602,[2.17998771],0.005,0.1,-0.13369489659057304,0.045892216072681,0
9.867022275924683,2.0196411361902236,[2.17742504],0.005,0.1,-0.11352939387543332,0.030751290225385815,0
9.88558292388916,2.0190549400400135,[2.17486546],0.005,0.1,-0.06418936519426516,0.052456489167988424,0
9.907308578491211,2.0184687438898035,[2.17229058],0.005,0.1,-0.014059472219123369,0.083734103192679,0
9.919901847839355,2.01807794645633,[2.16967724],0.005,0.1,0.026968791060028603,0.06628417292667173,0
9.93403697013855,2.01749175030612,[2.16702102],0.005,0.1,0.05694733406130849,0.06649470766589603,0
9.947936296463013,2.017100952872647,[2.16432408],0.005,0.1,0.07698857595413901,0.06078429068901645,0
9.963658332824707,2.0169055541559104,[2.16158849],0.005,0.1,0.08909830801896206,0.05675151250903733,0
9.978569984436035,2.0165147567224366,[2.15881789],0.005,0.1,0.09528406513062129,0.05400796882543063,0
9.991562128067017,2.015928560572227,[2.15601555],0.005,0.1,0.09724359967458301,0.0521366813182255,0
10.00465440750122,2.0155377631387537,[2.15318431],0.005,0.1,0.09630305579229065,0.050707897118236575,0
10.0196533203125,2.015342364422017,[2.15032667],0.005,0.1,0.09345175332487927,0.049547220303465804,0
10.032622575759888,2.014756168271807,[2.14744477],0.005,0.1,0.08940551302196728,0.04877612609932885,0
10.05510687828064,2.014169972121597,[2.14453158],0.005,0.1,0.08467042223731355,0.07593901047558563,0
10.069264888763428,2.013583775971387,[2.14157121],0.005,0.1,0.079597143779776,0.0702943680978461,0
10.077281713485718,2.0133883772546506,[2.13856639],0.005,0.1,0.07442372607314056,0.03948101778326373,0
10.087609767913818,2.0129975798211768,[2.13553974],0.005,0.1,-0.20673043149900172,0.036429302133938295,0
10.102253675460815,2.0126067823877034,[2.13250414],0.005,0.1,-0.2448119725124576,0.04158643430366957,0
10.114575386047363,2.01221598495423,[2.12946024],0.005,0.1,-0.19445089453131165,0.03963283042570212,0
10.133585691452026,2.0116297888040204,[2.12640184],0.005,0.1,-0.12284648731594303,0.059317749762646005,0
10.143730640411377,2.0112389913705466,[2.12332086],0.005,0.1,-0.05653240761028564,0.043306366047554494,0
10.156824827194214,2.0108481939370733,[2.12022085],0.005,0.1,-0.003843099615509011,0.04208296184647592,0
10.169632911682129,2.0104573965036003,[2.11711018],0.005,0.1,0.03449418056474519,0.0367062333643952,0
10.188689947128296,2.009675801636653,[2.11398555],0.005,0.1,0.06051209438769681,0.05785966388703413,0
10.19759726524353,2.0094804029199165,[2.11083891],0.005,0.1,0.07689362348458809,0.039147183948550116,0
10.208574533462524,2.0090896054864436,[2.10767697],0.005,0.1,0.08613702268945905,0.034218358399008046,0
10.220590829849243,2.0085034093362335,[2.10451011],0.005,0.1,0.09029205394789952,0.03577778652287519,0
10.23462462425232,2.0085034093362335,[2.10133887],0.005,0.1,0.09093567014111137,0.03648370799431745,0
10.250627994537354,2.007917213186023,[2.09816107],0.005,0.1,0.08923509556491652,0.03692578802887849,0
10.27180004119873,2.0073310170358134,[2.09496378],0.005,0.1,0.08603197958367348,0.06159545102441091,0
10.286649227142334,2.00694021960234,[2.09172472],0.005,0.1,0.08192125355143504,0.05432558153851804,0
10.300385236740112,2.00635402345213,[2.08843547],0.005,0.1,0.07731625998628455,0.0481847301722131,0
10.316636562347412,2.0059632260186566,[2.0851004],0.005,0.1,0.07249926593307944,0.043709024846586855,0
10.333441734313965,2.0053770298684466,[2.08172001],0.005,0.1,0.06765924540163329,0.048279063213364726,0
10.344642162322998,2.0049862324349736,[2.078295],0.005,0.1,0.06291950330034538,0.03587152219874599,0
10.357645034790039,2.0045954350015,[2.07483392],0.005,0.1,0.058357567813211914,0.03432955399058065,0
10.378724813461304,2.0042046375680265,[2.07133448],0.005,0.1,0.05401936298463508,0.05043386359065895,0
10.393391847610474,2.003618441417817,[2.06777908],0.005,0.1,0.04992922598972163,0.04740004101096378,0
10.407073259353638,2.0032276439843435,[2.06416049],0.005,0.1,0.04609694215440901,0.04062550298970114,0
10.422680616378784,2.0026414478341334,[2.06048495],0.005,0.1,0.04252265765934457,0.03582224197891472,0
10.436624526977539,2.0022506504006596,[2.05676029],0.005,0.1,0.039200291113989774,0.03206621003229977,0
10.445060968399048,2.0020552516839234,[2.05300031],0.005,0.1,0.036119888298686016,0.020711272586969146,0
10.463639974594116,2.0014690555337133,[2.0492168],0.005,0.1,0.033269235679789025,0.028917649562824183,0
10.47336483001709,2.00107825810024,[2.0454134],0.005,0.1,0.030634955793565066,0.01814874495393543,0
10.489113092422485,2.0006874606667666,[2.04159312],0.005,0.1,0.02820324163612158,0.025378557725528602,0
10.50154161453247,2.0002966632332932,[2.03775042],0.005,0.1,0.02596034043362498,0.022215567572406832,0
10.516573667526245,1.9999058657998199,[2.03388057],0.005,0.1,0.02389286414589421,0.01942977874847187,0
10.532617807388306,1.99931966964961,[2.02998699],0.005,0.1,0.021987980805635104,0.017056315325128402,0
10.546547174453735,1.9989288722161365,[2.02607253],0.005,0.1,0.02023352445944535,0.014721906971251456,0
10.55753493309021,1.9985380747826633,[2.02213955],0.005,0.1,0.01861805001760532,0.012467744646274235,0
10.570613145828247,1.9979518786324533,[2.01818993],0.005,0.1,0.017130851292707576,0.010365122372637222,0
10.582957029342651,1.9977564799157166,[2.01422562],0.005,0.1,0.015761954890884153,0.007861344999973324,0
10.59063196182251,1.9973656824822434,[2.01026138],0.005,0.1,0.014502098694744215,0.003225644942519832,0
10.609765768051147,1.9967794863320332,[2.00630834],0.005,0.1,0.013342700937763598,0.003980540655782586,0
10.623183250427246,1.9963886888985598,[2.00234898],0.005,0.1,0.012275823960766067,0.0012513566086344561,0
10.63166069984436,1.9959978914650867,[1.99837921],0.005,0.1,0.011294135413021546,-0.0003805218607965845,0
10.640588998794556,1.9958024927483498,[1.99442215],0.005,0.1,0.010390868738614615,-0.0019743403141179294,0
10.653610706329346,1.9954116953148764,[1.99048956],0.005,0.1,0.00955978415069153,-0.004215625833735883,0
10.66520619392395,1.9950208978814032,[1.98657827],0.005,0.1,0.008795130856521465,-0.006383096734325495,0
10.678609371185303,1.9946301004479299,[1.98268205],0.005,0.1,0.2841299706732283,-0.009658637350406386,0
10.691615343093872,1.9944347017311932,[1.97879302],0.005,0.1,0.3166073083797063,-0.012615385633341433,0
10.705541133880615,1.9938485055809834,[1.9749041],0.005,0.1,0.26091454854190627,-0.015384268921664949,0
10.720627784729004,1.9936531068642462,[1.97100998],0.005,0.1,0.18428166708152138,-0.01845955053097105,0
10.735627174377441,1.993262309430773,[1.96710588],0.005,0.1,0.38929329360984033,-0.021469801272096124,0
10.746610403060913,1.9928715119973,[1.96318755],0.005,0.1,0.36533236346814435,-0.024523507556129392,0
10.759440422058105,1.9924807145638264,[1.95925124],0.005,0.1,0.2678108584440087,-0.02762977197958845,0
10.774557828903198,1.991503720980143,[1.95529367],0.005,0.1,-0.11412015571769318,-0.03033912908853257,0
10.78658390045166,1.9907221261131967,[1.95131199],0.005,0.1,-0.7897330569410377,-0.03320926286087529,0
10.801636457443237,1.9893543350960396,[1.94730379],0.005,0.1,-1.9741449972398724,-0.03562372602014488,0
10.815616130828857,1.9881819427956196,[1.94326699],0.005,0.1,-3.0736622194973524,-0.03819440240566421,0
10.831202983856201,1.9864233543449896,[1.93919825],0.005,0.1,-4.176089483361302,-0.04322556888098033,0
10.851917505264282,1.9836877723106763,[1.93507996],0.005,0.1,-5.0,-0.0719563095298769,0
10.86465835571289,1.9817337851433097,[1.93088917],0.005,0.1,-5.0,-0.05783825258691488,0
10.87987494468689,1.9793890005424695,[1.92662178],0.005,0.1,-5.0,-0.06311767197978993,0
10.89393424987793,1.9768488172248928,[1.92228145],0.005,0.1,-5.0,-0.05991094635505445,0
10.905089139938354,1.974504032624053,[1.91787638],0.005,0.1,-5.0,-0.048630436052402956,0
10.920285701751709,1.9713776531562661,[1.91341735],0.005,0.1,-5.0,-0.060364579932583665,0
10.934555530548096,1.9684466724052159,[1.90890481],0.005,0.1,-4.961515243911755,-0.05942102944311599,0
10.949343919754028,1.964929495503956,[1.90433948],0.005,0.1,-4.827412552854629,-0.05866614507948638,0
10.964521646499634,1.9608261224524859,[1.89972685],0.005,0.1,-5.0,-0.05793783965343576,0
10.983004570007324,1.9561365532508057,[1.89506486],0.005,0.1,-4.645515007806536,-0.07467975645889185,0
10.993541479110718,1.9535963699332293,[1.89035208],0.005,0.1,-4.291653598853297,-0.05400172088644095,0
11.012031078338623,1.9481252058646024,[1.88559156],0.005,0.1,-3.677688448539613,-0.07994717543428545,0
11.027190208435059,1.9438264340963956,[1.88077023],0.005,0.1,-2.7764526510063257,-0.0908713369567157,0
11.041266918182373,1.939527662328189,[1.87587445],0.005,0.1,-2.196671434466248,-0.08161740592583953,0
11.055526733398438,1.9348380931265086,[1.8709091],0.005,0.1,-1.804196966935002,-0.07522291449054126,0
11.07007884979248,1.9301485239248286,[1.86588478],0.005,0.1,-1.524955057812322,-0.07116125757044486,0
11.083545446395874,1.9252635560064117,[1.86081087],0.005,0.1,-1.3169305345367341,-0.06845294831489279,0
11.09652066230774,1.9205739868047318,[1.85569562],0.005,0.1,-1.155559502511873,-0.06698284840953671,0
11.109665632247925,1.9156890188863152,[1.85054624],0.005,0.1,-0.7499663170456424,-0.06608283388328492,0
11.124547243118286,1.910413253534425,[1.84536891],0.005,0.1,-0.6098350672839568,-0.0652942829937181,0
11.136683702468872,1.905528285616008,[1.84016892],0.005,0.1,-0.29845111778780564,-0.06524717729625307,0
11.149750709533691,1.9006433176975914,[1.83495071],0.005,0.1,0.012494664032012326,-0.06546294000700015,0
11.15985631942749,1.896735343362858,[1.82972478],0.005,0.1,0.8161464407033237,-0.05019504126268738,0
11.16750454902649,1.8938043626118082,[1.82451664],0.005,0.1,1.339923593182068,-0.03515721562670189,0
11.18050479888916,1.888919394693391,[1.81935057],0.005,0.1,1.6579843745817167,-0.04419935180238076,0
11.191538095474243,1.8844252242084478,[1.81422954],0.005,0.1,2.10551548321162,-0.05190719538392708,0
11.205493211746216,1.8789540601398211,[1.80914524],0.005,0.1,2.20840058109283,-0.05723673826288296,0
11.218690156936646,1.8734828960711942,[1.80408985],0.005,0.1,2.4302990476210047,-0.06117848720234759,0
11.233506917953491,1.867620934569094,[1.79905607],0.005,0.1,2.6191955216417737,-0.06372319205145488,0
11.247566223144531,1.8623451692172042,[1.79403714],0.005,0.1,2.730144677751502,-0.06598609479723992,0
11.261566877365112,1.8562878089983674,[1.78902684],0.005,0.1,3.0381910813786503,-0.06700962295805712,0
11.274508476257324,1.8508166449297407,[1.78401949],0.005,0.1,3.038677329362078,-0.06813204015950619,0
11.288514375686646,1.8453454808611136,[1.77900994],0.005,0.1,3.179611051837692,-0.06900370403906579,0
11.301517724990845,1.8400697155092236,[1.77399355],0.005,0.1,3.3008361212072943,-0.0698833901724168,0
11.315483093261719,1.8342077540071235,[1.76896622],0.005,0.1,2.8009954882847348,-0.06997315126360797,0
11.33285927772522,1.8271734002046034,[1.76391704],0.005,0.1,2.7146061929773615,-0.08903994902510545,0
11.343502283096313,1.8228746284363966,[1.75883682],0.005,0.1,2.7451869201747843,-0.06498316272467212,0
11.35649824142456,1.81740346436777,[1.75373234],0.005,0.1,2.7746794134090638,-0.06677023122593374,0
11.372326135635376,1.810759907998723,[1.74860736],0.005,0.1,2.7649217686318446,-0.07230576165084857,0
11.392962455749512,1.8023577631790462,[1.74343991],0.005,0.1,2.7112004706989845,-0.1157529678359816,0
11.407512903213501,1.7963004029602097,[1.73819782],0.005,0.1,2.3449571577301667,-0.09931685011940598,0
11.421497344970703,1.7904384414581092,[1.73287279],0.005,0.1,2.1955668591697597,-0.0881944077355652,0
11.436482191085815,1.7837948850890626,[1.72747504],0.005,0.1,2.1180405856653497,-0.07949497074975498,0
11.449509859085083,1.7787145184539093,[1.72201455],0.005,0.1,2.052968033166828,-0.07486151533187685,0
11.462481498718262,1.7736341518187557,[1.71650115],0.005,0.1,1.9796337474088546,-0.07138680959675711,0
11.476492881774902,1.767772190316656,[1.71094465],0.005,0.1,1.8938170928665483,-0.0676981687134743,0
11.489495277404785,1.762105627531292,[1.70535492],0.005,0.1,1.7975604748242489,-0.0645833570420974,0
11.502508878707886,1.7572206596128757,[1.69974192],0.005,0.1,1.6946602202651464,-0.062390837938534366,0
11.51650357246399,1.7513586981107754,[1.69411581],0.005,0.1,1.5888358404705791,-0.059211033639114924,0
11.538275718688965,1.7419795597074152,[1.68847619],0.005,0.1,1.4831104944256324,-0.07824479696247492,0
11.548094034194946,1.7380715853726818,[1.68282134],0.005,0.1,1.379707527063466,-0.051723466475502015,0
11.567103624343872,1.7300602379864782,[1.67716038],0.005,0.1,1.280142439111145,-0.06782673493107463,0
11.57553505897522,1.7267384598019548,[1.67150875],0.005,0.1,1.1853688057704714,-0.035535698519014676,0
11.587939262390137,1.7216580931668013,[1.66589413],0.005,0.1,1.3719589451588838,-0.038704992578455104,0
11.600926399230957,1.7165777265316482,[1.66034001],0.005,0.1,1.3211942258616602,-0.03252702073701227,0
11.622873783111572,1.7081755817119713,[1.65484885],0.005,0.1,1.463830567702521,-0.050063113139198576,0
11.634090423583984,1.7034860125102913,[1.64941555],0.005,0.1,1.6240751794675479,-0.03647603429714945,0
11.649480104446411,1.697624051008191,[1.64404755],0.005,0.1,1.464015916080624,-0.03421738306332268,0
11.663641214370728,1.6919574882228277,[1.63875985],0.005,0.1,1.21366187394525,-0.027981955568824147,0
11.677477836608887,1.686877121587674,[1.63356652],0.005,0.1,1.2432745982499696,-0.023335207687844226,0
11.69011402130127,1.681601356235784,[1.62848402],0.005,0.1,1.0664525488728165,-0.018350852927833197,0
11.703465223312378,1.676325590883894,[1.62352718],0.005,0.1,0.8439572611653123,-0.01661652586744896,0
11.717206954956055,1.6708544268152674,[1.61870761],0.005,0.1,0.9149401679245538,-0.013520212346246372,0
11.72547721862793,1.6679234460642172,[1.6140426],0.005,0.1,1.0559570190026466,-0.006247452869757299,0
11.740869045257568,1.6624522819955905,[1.60955183],0.005,0.1,1.4560984738973899,-0.007893328136011887,0
11.758490800857544,1.6560041243432801,[1.60523767],0.005,0.1,1.570139633425419,-0.010289516267846775,0
11.771458625793457,1.6511191564248633,[1.60109294],0.005,0.1,1.5515470019340944,-0.008026111350680569,0
11.786474466323853,1.6456479923562366,[1.59711827],0.005,0.1,1.7511986853732813,-0.006195141911000741,0
11.79948115348816,1.6411538218712933,[1.59331826],0.005,0.1,1.6861384744636005,-0.004879641402199361,0
11.815451860427856,1.6356826578026666,[1.58969622],0.005,0.1,1.8040071716314237,-0.003764307818069638,0
11.827461957931519,1.6315792847511963,[1.58625414],0.005,0.1,1.9367358386787472,-0.002981709815347942,0
11.84048581123352,1.6266943168327799,[1.58299284],0.005,0.1,1.749751779545564,-0.0023032862885510835,0
11.853479146957397,1.622395545064573,[1.57991201],0.005,0.1,1.4743501724629837,-0.0017867542122501827,0
11.868481636047363,1.6179013745796298,[1.5770103],0.005,0.1,1.4811505778953773,-0.001369187339704134,0
11.881492376327515,1.6139934002448963,[1.57428538],0.005,0.1,1.5597541473907992,-0.0010553877406990124,0
11.890820741653442,1.6112578182105828,[1.57173547],0.005,0.1,1.903864967420359,-0.0005773930840957354,0
11.908487558364868,1.6065682490089026,[1.56935777],0.005,0.1,2.7973184060647274,-0.0006977176241420461,0
11.922467470169067,1.6030510721076425,[1.56714581],0.005,0.1,3.388297834008953,-0.0005261863765158484,0
11.9364755153656,1.599924692639856,[1.56509283],0.005,0.1,4.557050044226474,-0.00040505623211276395,0
11.950467348098755,1.596798313172069,[1.56319317],0.005,0.1,4.8069824908277905,-0.0003093689910754332,0
11.963473320007324,1.5938673324210193,[1.56144076],0.005,0.1,4.931922378479205,-0.00023786153527914912,0
11.976507663726807,1.5913271491034424,[1.55982922],0.005,0.1,5.0,-0.00018699269256244812,0
11.989491939544678,1.589177763219339,[1.55835187],0.005,0.1,5.0,-0.00015047210646702068,0
12.003499507904053,1.5866375799017622,[1.55700187],0.005,0.1,4.467785763610514,-0.00011686484649433808,0
12.018490314483643,1.5842927953009225,[1.55577228],0.005,0.1,4.1598933935985425,-9.20232406248617e-05,0
12.041062593460083,1.5811664158331356,[1.55465519],0.005,0.1,4.7609285731752475,-0.00011824845374613729,0
12.053735494613647,1.5796032260992423,[1.55364205],0.005,0.1,4.379157158007135,-8.396713188976832e-05,0
12.068425416946411,1.5780400363653488,[1.55272568],0.005,0.1,3.7009087023170375,-6.117774743178546e-05,0
12.08245325088501,1.5764768466314556,[1.55190003],0.005,0.1,2.7356125820534745,-4.554988374977917e-05,0
12.0964515209198,1.5751090556142986,[1.5511591],0.005,0.1,2.1045043853414067,-3.562772160177061e-05,0
12.110459089279175,1.5739366633138787,[1.55049692],0.005,0.1,1.399622845085439,-2.8908256780708165e-05,0
12.12545371055603,1.5727642710134586,[1.54990762],0.005,0.1,0.7881183067159033,-2.4023497056744675e-05,0
12.136656761169434,1.5717872774297754,[1.54938551],0.005,0.1,0.31340960556340375,-2.019616626485541e-05,0
12.150448560714722,1.5712010812795654,[1.54892503],0.005,0.1,-0.0308170980529677,-1.9295537127715553e-05,0
12.16445779800415,1.5702240876958822,[1.5485207],0.005,0.1,-0.5432940792776103,-1.7251762255197497e-05,0
12.177430629730225,1.569637891545672,[1.54816725],0.005,0.1,-0.7300191348294673,-1.6482475285606884e-05,0
12.190448999404907,1.569051695395462,[1.54785962],0.005,0.1,-1.0436524398205163,-1.5935953700321795e-05,0
12.20544981956482,1.568660897961989,[1.54759294],0.005,0.1,-1.0499976842262044,-1.615872974502716e-05,0
12.219441890716553,1.5680747018117789,[1.54736256],0.005,0.1,-0.9435906044755824,-1.6428761080781093e-05,0
12.232492923736572,1.567879303095042,[1.54716404],0.005,0.1,-1.085809893924226,-1.7427538535264937e-05,0
12.247443914413452,1.5674885056615686,[1.54699318],0.005,0.1,-1.2680354905327087,-1.825518056048179e-05,0
12.261450052261353,1.567293106944832,[1.54684602],0.005,0.1,-1.4133038288046542,-1.958248914995768e-05,0
12.274426460266113,1.5670977082280952,[1.54671883],0.005,0.1,-1.7781496593535768,-2.079022218079422e-05,0
12.289759635925293,1.566706910794622,[1.54660805],0.005,0.1,-2.123040938699155,-2.4304551887061983e-05,0
12.300450563430786,1.5665115120778854,[1.54651039],0.005,0.1,-2.370501018217216,-2.192787500915272e-05,0
12.321468830108643,1.5661207146444118,[1.54642266],0.005,0.1,-2.787163183742462,-3.275741814805382e-05,0
12.332400560379028,1.5661207146444118,[1.54634178],0.005,0.1,-2.86965829162862,-2.7095233087174986e-05,0
12.34339165687561,1.5659253159276751,[1.54626562],0.005,0.1,-3.0704799966357506,-2.3180586005773293e-05,0
12.362879753112793,1.565534518494202,[1.54619228],0.005,0.1,-3.2344009820048676,-3.552792855967573e-05,0
12.37335467338562,1.565339119777465,[1.54611943],0.005,0.1,-3.316482136646347,-2.8239690333974787e-05,0
12.383094549179077,1.5651437210607286,[1.5460457],0.005,0.1,-3.316817660771897,-2.4522087450544737e-05,0
12.395495653152466,1.564948322343992,[1.54597028],0.005,0.1,-3.5270038900368696,-2.6461760808628587e-05,0
12.413835287094116,1.5645575249105188,[1.54589149],0.005,0.1,-3.4464642564372774,-4.258800898177031e-05,0
12.424844980239868,1.564362126193782,[1.54580716],0.005,0.1,-3.2462558543019666,-3.77675598299799e-05,0
12.438475847244263,1.564166727477045,[1.54571583],0.005,0.1,-3.0065986348522453,-4.60448354072327e-05,0
12.459266424179077,1.5637759300435718,[1.54561437],0.005,0.1,-2.7636945843044978,-0.00013161765065309086,0
12.474477529525757,1.5633851326100987,[1.54549736],0.005,0.1,-2.532732488735614,-0.00015281198479188556,0
12.487516164779663,1.563189733893362,[1.54536028],0.005,0.1,-2.319105710963168,-0.00019091006503337812,0
12.502488136291504,1.5627989364598887,[1.54519958],0.005,0.1,-2.1238207247663965,-0.0002462071793143056,0
12.51160717010498,1.5626035377431517,[1.54501269],0.005,0.1,-1.9460600941371744,-0.00019591638025542513,0
12.523767232894897,1.5624081390264153,[1.54479794],0.005,0.1,-1.7843641046906202,-0.0003141392782480829,0
12.539437055587769,1.5620173415929417,[1.54454908],0.005,0.1,-1.637150798443431,-0.0007027116244006607,0
12.547831296920776,1.5618219428762052,[1.54425976],0.005,0.1,-1.5029256347920845,-0.00037278248421720257,0
12.56556510925293,1.5614311454427319,[1.54392636],0.005,0.1,-1.6563886862115336,-0.0010170646648967592,0
12.577850818634033,1.5610403480092587,[1.54353964],0.005,0.1,-1.5774143392008588,-0.00129045727762224,0
12.586429595947266,1.5608449492925216,[1.54309285],0.005,0.1,-1.4196713037573072,-0.0009016558990626744,0
12.607289552688599,1.5604541518590485,[1.54257933],0.005,0.1,-1.2494998717275525,-0.002881328271628614,0
12.621181011199951,1.5600633544255753,[1.54198113],0.005,0.1,-1.0926650696219689,-0.0034688204765762234,0
12.634087562561035,1.5598679557088384,[1.54128243],0.005,0.1,-0.956811293916559,-0.004020672007623878,0
12.647350788116455,1.5594771582753653,[1.54047777],0.005,0.1,-0.8420438905690404,-0.003617931572013096,0
12.663490772247314,1.559086360841892,[1.53956179],0.005,0.1,-0.7457675790699609,-0.005936157011530036,0
12.677488088607788,1.5588909621251552,[1.53852284],0.005,0.1,-0.664788687382063,-0.006952697246978689,0
12.690483331680298,1.5586955634084183,[1.53735006],0.005,0.1,-0.5961440900454795,-0.00818649335826161,0
12.70551347732544,1.5585001646916818,[1.53603651],0.005,0.1,-0.5373598799034309,-0.009665661407866424,0
12.720480918884277,1.557913968541472,[1.53457568],0.005,0.1,-0.21043303612748543,-0.011252257014073584,0
12.743405818939209,1.5575231711079984,[1.53294851],0.005,0.1,-0.13279352788400553,-0.0250228990845193,0
12.756404399871826,1.5573277723912617,[1.53112517],0.005,0.1,-0.14858252591363358,-0.024899072290343247,0
12.769617080688477,1.557132373674525,[1.52909274],0.005,0.1,-0.18967260302661046,-0.025765490978115993,0
12.784492015838623,1.556546177524315,[1.52685346],0.005,0.1,-0.5048648013953196,-0.027187787683828395,0
12.79731822013855,1.5559599813741052,[1.52440999],0.005,0.1,-0.8423729875015787,-0.029316288785956494,0
12.810563087463379,1.5551783865071585,[1.52176535],0.005,0.1,-1.3888702501277963,-0.03187065402241201,0
12.825540781021118,1.5538105954900017,[1.518923],0.005,0.1,-2.434237791850288,-0.03438987406834345,0
12.84147834777832,1.5524428044728453,[1.51588677],0.005,0.1,-3.964487596369668,-0.037260256277844114,0
12.865483522415161,1.550098019872005,[1.51264392],0.005,0.1,-5.0,-0.0717510993479935,0
12.880449056625366,1.548339431421375,[1.50916763],0.005,0.1,-5.0,-0.06643667699443868,0
12.894482135772705,1.5461900455372717,[1.50545327],0.005,0.1,-4.8542785244806606,-0.06351225841747866,0
12.91050672531128,1.543649862219695,[1.50151545],0.005,0.1,-5.0,-0.06222616536605139,0
12.924743175506592,1.5413050776188546,[1.49736631],0.005,0.1,-5.0,-0.06724934989408486,0
12.94410753250122,1.5373971032841214,[1.49299931],0.005,0.1,-5.0,-0.10822212096938104,0
12.956083536148071,1.5350523186832816,[1.48840098],0.005,0.1,-4.96211961435952,-0.08464666581463257,0
12.965669631958008,1.5330983315159148,[1.48359498],0.005,0.1,-4.334173930031173,-0.05964608841691547,0
12.977443933486938,1.5303627494816012,[1.47862888],0.005,0.1,-3.8595651720660102,-0.05580424294586833,0
12.995846271514893,1.5262593764301313,[1.47352342],0.005,0.1,-3.7542301460170933,-0.08936231149400622,0
13.0113525390625,1.5225468008121346,[1.46826544],0.005,0.1,-3.742764154842283,-0.10976018459261772,0
13.019624471664429,1.5203974149280313,[1.46286088],0.005,0.1,-3.4427510016833427,-0.06054281817279728,0
13.039461851119995,1.515121649576141,[1.45733235],0.005,0.1,-3.065515149445525,-0.12100491552065647,0
13.05056357383728,1.512190668825091,[1.45167979],0.005,0.1,-2.422263858557436,-0.09219849637536007,0
13.064461469650269,1.5078918970568842,[1.4459124],0.005,0.1,-2.338582894747403,-0.09609140147287551,0
13.0782790184021,1.503397726571941,[1.44004689],0.005,0.1,-2.146881604964764,-0.10461649349102717,0
13.089766502380371,1.4998805496706806,[1.43409393],0.005,0.1,-1.655020076339379,-0.09167909458424993,0
13.099482297897339,1.496754170202894,[1.42807817],0.005,0.1,-1.4161387600080642,-0.07541946638884489,0
13.119218111038208,1.4899152151171104,[1.42201498],0.005,0.1,-1.5631492166969667,-0.11940682221639817,0
13.127444982528687,1.4869842343660604,[1.41590957],0.005,0.1,-1.5116886872484683,-0.07173901204950443,0
13.147786140441895,1.4793636844133302,[1.40976731],0.005,0.1,-1.1119193769332232,-0.1426848741560129,0
13.161488056182861,1.4738925203447035,[1.4035688],0.005,0.1,-0.6626077756156254,-0.14254258849471219,0
13.17171335220337,1.4701799447267068,[1.39730644],0.005,0.1,-0.27476146753821196,-0.10827783004998863,0
13.188186407089233,1.4639271857911336,[1.39099469],0.005,0.1,-0.25313900448708093,-0.13816568289588238,0
13.20346975326538,1.4580652242890333,[1.38463331],0.005,0.1,-0.07447285978162199,-0.13163842197583664,0
13.218108177185059,1.4518124653534599,[1.37822257],0.005,0.1,-0.15432990243881317,-0.12658064077378214,0
13.232370138168335,1.4461459025680965,[1.37177074],0.005,0.1,-0.300406614492567,-0.12412776496703895,0
13.246389627456665,1.4400885423492595,[1.36528518],0.005,0.1,0.3916684736080692,-0.12239703300980713,0
13.25938868522644,1.4348127769973695,[1.35877244],0.005,0.1,0.9413957932573738,-0.12264574024555812,0
13.272460460662842,1.4289508154952695,[1.35223826],0.005,0.1,1.6055805508915344,-0.1226327759129394,0
13.282003402709961,1.4246520437270627,[1.34569535],0.005,0.1,2.1611585329956915,-0.0971331876814419,0
13.296990156173706,1.4185946835082262,[1.33915445],0.005,0.1,2.826309774062098,-0.1346908069124421,0
13.309973239898682,1.4135143168730726,[1.33261072],0.005,0.1,3.0904107917442696,-0.12807108907494494,0
13.324654579162598,1.4076523553709723,[1.32605996],0.005,0.1,3.690186233993559,-0.13524606381627702,0
13.337391376495361,1.4023765900190825,[1.3195033],0.005,0.1,3.963770912439454,-0.1353835058462641,0
13.351083755493164,1.396514628516982,[1.31294165],0.005,0.1,3.7567374654080816,-0.1351062748327381,0
13.365386009216309,1.3906526670148822,[1.30637737],0.005,0.1,3.941277206681386,-0.13534727823123746,0
13.381458044052124,1.3834229144956252,[1.29981243],0.005,0.1,3.89350727758802,-0.1338142625918318,0
13.39653754234314,1.3773655542767886,[1.29324459],0.005,0.1,3.7332878338332205,-0.15080716953571024,0
13.410634756088257,1.3715035927746884,[1.28666662],0.005,0.1,3.522501886664905,-0.15355190045028355,0
13.42458176612854,1.3656416312725883,[1.28007334],0.005,0.1,3.2932128327194206,-0.15562283077534173,0
13.443606853485107,1.3578256826031216,[1.2734508],0.005,0.1,3.0620121446487616,-0.21431201426790342,0
13.453588485717773,1.353917708268388,[1.26679087],0.005,0.1,2.837379895387348,-0.12945029312802858,0
13.462452173233032,1.350400531367128,[1.26012353],0.005,0.1,2.6234942520375473,-0.10681158784665094,0
13.475458145141602,1.3447339685817647,[1.25348144],0.005,0.1,2.422225357003353,-0.11630859589520913,0
13.48711109161377,1.3396536019466112,[1.24687248],0.005,0.1,2.2341934406991912,-0.12082230040069877,0
13.498693704605103,1.3349640327449313,[1.2402996],0.005,0.1,2.059339574355577,-0.1181377279511535,0
13.51340365409851,1.3289066725260943,[1.23376413],0.005,0.1,1.6212008401335345,-0.13607199665967562,0
13.527415037155151,1.323240109740731,[1.22726169],0.005,0.1,1.4381146875538953,-0.13579576007542463,0
13.54146957397461,1.317182749521894,[1.22078989],0.005,0.1,1.6307228186812446,-0.13410823077429676,0
13.557454109191895,1.3103437944361107,[1.21435037],0.005,0.1,1.3360635710666,-0.13069558242459595,0
13.578985214233398,1.301746250899697,[1.20792672],0.005,0.1,1.2004950813697133,-0.2152653411565631,0
13.589193344116211,1.2974474791314903,[1.20149653],0.005,0.1,1.1275058877882635,-0.14198017814174613,0
13.599421262741089,1.2933441060800202,[1.19507906],0.005,0.1,0.7989667440042372,-0.09649166780392311,0
13.619277954101562,1.285332758693817,[1.18869802],0.005,0.1,0.7170137123246851,-0.15171888252171037,0
13.635435581207275,1.27810300617456,[1.18233794],0.005,0.1,0.7214283202139071,-0.15980030674715992,0
13.650380611419678,1.2718502472389868,[1.17598458],0.005,0.1,0.7441573927028606,-0.14087501193311924,0
13.665425539016724,1.2657928870201498,[1.1696445],0.005,0.1,0.7595353103075557,-0.12777516481698312,0
13.677093267440796,1.2609079191017332,[1.16332891],0.005,0.1,0.7605099279709036,-0.11995043311204977,0
13.6894371509552,1.2560229511833163,[1.15704743],0.005,0.1,0.7475353865614811,-0.11465267042862833,0
13.70244288444519,1.250356388397953,[1.1508081],0.005,0.1,0.7235639541596488,-0.11030534213613657,0
13.717373132705688,1.244299028179116,[1.1446174],0.005,0.1,0.6919233275646688,-0.10690033405108532,0
13.732373476028442,1.2382416679602795,[1.13848032],0.005,0.1,0.6555218595618129,-0.1045168196747505,0
13.744455575942993,1.2333567000418626,[1.13240038],0.005,0.1,0.6166374172314715,-0.10407746161555373,0
13.759349584579468,1.2269085423895523,[1.12637974],0.005,0.1,0.5769418522035508,-0.10268472190109602,0
13.781595945358276,1.2177248027029288,[1.12040345],0.005,0.1,0.5376039607959517,-0.16842414001512995,0
13.795207500457764,1.2118628412008288,[1.11444085],0.005,0.1,0.49940419213200504,-0.15272426576681725,0
13.81046175956726,1.2058054809819923,[1.10847992],0.005,0.1,0.46283600473200026,-0.1361479956595402,0
13.824464797973633,1.2003343169133653,[1.1025271],0.005,0.1,0.4281871100482918,-0.12623049555204333,0
13.839443683624268,1.194081557977792,[1.09658859],0.005,0.1,0.3956012722884624,-0.11922929389723744,0
13.852442026138306,1.1886103939091652,[1.09066897],0.005,0.1,0.36512383276506133,-0.1157005051117844,0
13.867433071136475,1.1823576349735918,[1.0847714],0.005,0.1,0.33673452499009915,-0.11301367013687602,0
13.891596555709839,1.1721969017032847,[1.07887977],0.005,0.1,0.31037074981549595,-0.1888664721051649,0
13.904525995254517,1.166725737634658,[1.07296247],0.005,0.1,0.2859438644235003,-0.1602650569868024,0
13.917367219924927,1.1614499722827678,[1.06701037],0.005,0.1,0.2633504393930115,-0.14807412510701262,0
13.932363271713257,1.1551972133471944,[1.06103235],0.005,0.1,0.2424799340819846,-0.1363191040465797,0
13.947369575500488,1.149530650561831,[1.05503579],0.005,0.1,0.2232198457207089,-0.12948112645038012,0
13.960285186767578,1.1438640877764674,[1.04902815],0.005,0.1,0.4814974499359468,-0.12251601658251497,0
13.974437952041626,1.1381975249911043,[1.04301551],0.005,0.1,0.2222147576032461,-0.12383150092935591,0
13.988413095474243,1.132530962205741,[1.03700136],0.005,0.1,0.3949515035915595,-0.12246170919726125,0
14.002424478530884,1.1266690007036406,[1.03098835],0.005,0.1,0.3932007492596348,-0.1216532447312693,0
14.01775074005127,1.1202208430513305,[1.02497563],0.005,0.1,0.33087925415652675,-0.1356240355233264,0
14.030419111251831,1.1149450776994405,[1.01896221],0.005,0.1,0.25692451354486656,-0.11731912521853631,0
14.048619985580444,1.1073245277467103,[1.01294562],0.005,0.1,0.1901921744331063,-0.15351723985892482,0
14.066345930099487,1.1000947752274535,[1.0069046],0.005,0.1,0.13618228694235762,-0.19334726883107015,0
14.082411527633667,1.0934512188584067,[1.0008157],0.005,0.1,0.09489672005345536,-0.16887453955898313,0
14.097417831420898,1.08739385863957,[0.99467854],0.005,0.1,0.06441388146663757,-0.15313920400149744,0
14.118606090545654,1.0787963151031563,[0.98848635],0.005,0.1,0.04242829414694342,-0.22738676056106494,0
14.129625082015991,1.0741067459014764,[0.98222362],0.005,0.1,0.026846943796331575,-0.1585787724432991,0
14.14615774154663,1.067267790815693,[0.97589456],0.005,0.1,0.01596605099076455,-0.1842526976586108,0
14.155126333236694,1.0637506139144328,[0.96952142],0.005,0.1,0.008474482535843871,-0.10066918741243101,0
14.175506830215454,1.055348469094756,[0.96312544],0.005,0.1,0.0033959807378794163,-0.16794713092383154,0
14.190502882003784,1.0489003114424458,[0.95670335],0.005,0.1,1.864997619691446e-05,-0.14994255745058363,0
14.206856489181519,1.0420613563566625,[0.9502488],0.005,0.1,-0.002169434666790834,-0.15705548058050198,0
14.217426538467407,1.0377625845884557,[0.94377296],0.005,0.1,-0.00353281276139304,-0.12300249445414094,0
14.23427414894104,1.0307282307859356,[0.93729333],0.005,0.1,-0.004329199756263994,-0.12662698817123477,0
14.250789880752563,1.0240846744168886,[0.93081626],0.005,0.1,0.2712986079876524,-0.147758676803317,0
14.261556625366211,1.0195905039319453,[0.92434562],0.005,0.1,0.3042717799916791,-0.10718196801265432,0
14.279245376586914,1.0123607514126884,[0.91789202],0.005,0.1,0.2491939952467761,-0.1420674715750881,0
14.291771173477173,1.0072803847775351,[0.91145882],0.005,0.1,0.17323825358726155,-0.11593018055325319,0
14.303855180740356,1.0022000181423816,[0.90505831],0.005,0.1,0.10291254167350919,-0.09824266498547074,0
14.320972919464111,0.9951656643398614,[0.89870332],0.005,0.1,0.04652663410140972,-0.12442000486496024,0
14.331775426864624,0.9904760951381815,[0.89239985],0.005,0.1,0.004784346356844514,-0.08375009626703694,0
14.341710329055786,0.985981924653238,[0.88617273],0.005,0.1,-0.024369073288076054,-0.06298937709866878,0
14.35533857345581,0.9805107605846113,[0.88004864],0.005,0.1,-0.0436372987929292,-0.07065405866551086,0
14.367322206497192,0.9758211913829312,[0.87403763],0.005,0.1,-0.055537881353203505,-0.06403340879471611,0
14.38231110572815,0.9697638311640945,[0.8681422],0.005,0.1,0.213899842056047,-0.07660700323482401,0
14.393406391143799,0.9650742619624143,[0.8623624],0.005,0.1,0.24413017475633456,-0.0650039884942154,0
14.410503149032593,0.9580399081598941,[0.8566985],0.005,0.1,0.18866240233820208,-0.07420965950916206,0
14.421379089355469,0.9541319338251608,[0.85115046],0.005,0.1,0.3899131276820448,-0.062266113791278756,0
14.43440842628479,0.9490515671900073,[0.84572096],0.005,0.1,0.354872254278946,-0.06172453631758225,0
14.44571304321289,0.9443619979883273,[0.84041446],0.005,0.1,0.5221831446532698,-0.053761676892682124,0
14.459423780441284,0.9388908339197005,[0.83523157],0.005,0.1,0.44055767637837606,-0.0602416835814274,0
14.469733715057373,0.9343966634347571,[0.83017065],0.005,0.1,0.5650352071528305,-0.04989661347143095,0
14.48538088798523,0.9283393032159203,[0.8252304],0.005,0.1,0.44940839060944815,-0.05539102343192132,0
14.495803594589233,0.9242359301644503,[0.82041102],0.005,0.1,0.273044168685575,-0.04093236898209192,0
14.505368947982788,0.9203279558297169,[0.81572119],0.005,0.1,0.3833935340492789,-0.03086154351014287,0
14.515308618545532,0.9168107789284567,[0.81117316],0.005,0.1,0.2844592130131818,-0.02825424058971381,0
14.525780439376831,0.9129028045937233,[0.80677312],0.005,0.1,0.1335195553971083,-0.02519715984760685,0
14.541322469711304,0.9070408430916233,[0.80251911],0.005,0.1,0.26894883936308445,-0.03206072891337749,0
14.554243803024292,0.9021558751732064,[0.79840184],0.005,0.1,0.4676299724927379,-0.03074327985363203,0
14.578156471252441,0.8927767367698464,[0.79440526],0.005,0.1,0.643317226088569,-0.0460012598164627,0
14.593414068222046,0.8875009714179563,[0.79051089],0.005,0.1,0.7705000655780787,-0.03597848670529798,0
14.607332229614258,0.8822252060660662,[0.78671303],0.005,0.1,0.8486537434355516,-0.028548098111613917,0
14.62138843536377,0.8767540419974394,[0.78301633],0.005,0.1,0.6099486278546633,-0.022915173973490598,0
14.634042263031006,0.8720644727957593,[0.77942619],0.005,0.1,0.5832879288913206,-0.017345804851739425,0
14.64738917350769,0.8673749035940792,[0.77594758],0.005,0.1,0.6229716097352009,-0.015809094663035157,0
14.66240668296814,0.8622945369589258,[0.77258315],0.005,0.1,0.6690026221999072,-0.012932416857197556,0
14.67245101928711,0.858581961340929,[0.76933721],0.005,0.1,0.7003035516118735,-0.008755651218276327,0
14.6837477684021,0.854478588289459,[0.76621671],0.005,0.1,0.7125105750730782,-0.007253988527734392,0
14.694555044174194,0.8507660126714622,[0.7632266],0.005,0.1,0.7076998994597783,-0.005805969023455026,0
14.709954738616943,0.8452948486028355,[0.76036792],0.005,0.1,0.6898311543173505,-0.005970019161743183,0
14.718379020690918,0.8423638678517854,[0.75764101],0.005,0.1,0.386836438833187,-0.0035680989800969407,0
14.730342149734497,0.838455893517052,[0.75504828],0.005,0.1,0.8730731986110638,-0.003352061268864959,0
14.745488405227661,0.8337663243153719,[0.75258966],0.005,0.1,0.958503911324871,-0.0030570150757457722,0
14.756371974945068,0.8300537486973752,[0.75026209],0.005,0.1,0.8871411945324733,-0.002606445468924215,0
14.771333694458008,0.8247779833454851,[0.7480627],0.005,0.1,0.7682042152951847,-0.002171599198580177,0
14.786712646484375,0.8202838128605418,[0.74598807],0.005,0.1,1.199404618379589,-0.0019536648096945375,0
14.798392534255981,0.8167666359592817,[0.74403458],0.005,0.1,1.435389966886285,-0.0014707537012774866,0
14.811334609985352,0.8130540603412848,[0.7421993],0.005,0.1,1.2704158123213456,-0.0012096787594798614,0
14.823904275894165,0.8099276808734982,[0.74047906],0.005,0.1,1.2684711570656424,-0.0010000382085806703,0
14.8393714427948,0.8060197065387646,[0.73887013],0.005,0.1,2.6843616295945725,-0.0008224036539495748,0
14.854364156723022,0.8026979283542414,[0.73736861],0.005,0.1,3.4274484048985556,-0.0006830370957839694,0
14.874680280685425,0.7985945553027713,[0.73596901],0.005,0.1,4.875729960244266,-0.0008527932010901418,0
14.883461236953735,0.7970313655688779,[0.73466575],0.005,0.1,5.0,-0.0004694357888323597,0
14.903294801712036,0.7933187899508811,[0.73345492],0.005,0.1,5.0,-0.000582768431128326,0
14.919291257858276,0.7907786066333043,[0.73233132],0.005,0.1,5.0,-0.0004894164750938134,0
14.933375597000122,0.788629220749201,[0.73128944],0.005,0.1,5.0,-0.0004373637755080977,0
14.948362112045288,0.7864798348650976,[0.73032466],0.005,0.1,4.49439018541982,-0.00040949307326928515,0
14.967727899551392,0.7841350502642577,[0.7294305],0.005,0.1,4.636835730677815,-0.0006099104515595159,0
14.983250617980957,0.7825718605303643,[0.72859815],0.005,0.1,4.353171700079207,-0.0007128647420229958,0
14.996870994567871,0.7813994682299443,[0.72781908],0.005,0.1,3.3818817721102628,-0.0007465093475629828,0
15.005866527557373,0.7806178733629977,[0.7270876],0.005,0.1,2.6091771699154886,-0.0005354343661481193,0
15.024205207824707,0.7792500823458409,[0.72639767],0.005,0.1,2.015920790998033,-0.0010903820053672103,0
15.033636331558228,0.7784684874788942,[0.72574089],0.005,0.1,1.2929360427994891,-0.0008801110868235772,0
15.050078630447388,0.7776868926119475,[0.7251085],0.005,0.1,0.6500306293365968,-0.0016376251874971562,0
15.065305233001709,0.7767098990282643,[0.72449009],0.005,0.1,0.14726242266449657,-0.0018929068681785247,0
15.080326080322266,0.7761237028780542,[0.72387541],0.005,0.1,-0.2166227932252681,-0.002223264215169299,0
15.093348979949951,0.7757329054445808,[0.72325597],0.005,0.1,-0.7400883812240436,-0.0026163398520067153,0
15.106347560882568,0.7753421080111076,[0.72262345],0.005,0.1,-0.9305609670687427,-0.0030635434774252917,0
15.121297597885132,0.7751467092943709,[0.72196988],0.005,0.1,-0.6904149236258614,-0.0035739683886756505,0
15.136357307434082,0.7749513105776341,[0.72128773],0.005,0.1,-0.6249908104017109,-0.004113648575466982,0
15.158105373382568,0.774560513144161,[0.72056504],0.005,0.1,-0.8967962101744142,-0.008096657626153511,0
15.171656131744385,0.7743651144274242,[0.71978625],0.005,0.1,-1.4908232923318847,-0.00777588615428,0
15.18192172050476,0.7741697157106875,[0.71894573],0.005,0.1,-2.3338890907780443,-0.00567725338853446,0
15.199949979782104,0.7737789182772141,[0.7180434],0.005,0.1,-2.7929178253963425,-0.008649384263319154,0
15.213272094726562,0.7733881208437408,[0.7170736],0.005,0.1,-3.5596328713372354,-0.008472278824060962,0
15.221848964691162,0.7731927221270041,[0.71603671],0.005,0.1,-3.9609930966604914,-0.005353985726364268,0
15.232980966567993,0.7726065259767941,[0.71494127],0.005,0.1,-4.396957069452183,-0.00598642652135621,0
15.243298768997192,0.7722157285433208,[0.71379272],0.005,0.1,-4.984505168943578,-0.005605482575447327,0
15.257281303405762,0.7716295323931107,[0.71259332],0.005,0.1,-5.0,-0.006443084443895824,0
15.277022361755371,0.7706525388094273,[0.71133984],0.005,0.1,-5.0,-0.010336489244187735,0
15.286297082901001,0.7704571400926907,[0.71002856],0.005,0.1,-4.798197946119723,-0.006806984497701673,0
15.301741600036621,0.7700663426592175,[0.70866358],0.005,0.1,-4.302713216256567,-0.008420524332352979,0
15.312675714492798,0.7698709439424808,[0.70724857],0.005,0.1,-3.4791338451271647,-0.008208165106601236,0
15.323403120040894,0.7698709439424808,[0.70578569],0.005,0.1,-2.6646384738830884,-0.008316511811446475,0
15.33613920211792,0.7694801465090074,[0.70427883],0.005,0.1,-1.9758466094518772,-0.008392754410232694,0
15.349262952804565,0.7690893490755342,[0.70273082],0.005,0.1,-1.4346915691428994,-0.009271339293775932,0
15.363136768341064,0.768503152925324,[0.70114344],0.005,0.1,-1.0266787450302841,-0.009477000350147329,0
15.377293586730957,0.767916956775114,[0.69951895],0.005,0.1,-1.278816725531288,-0.00956702317850811,0
15.390292644500732,0.767330760624904,[0.69786053],0.005,0.1,-1.9563096077949846,-0.009550992689624125,0
15.402554988861084,0.766744564474694,[0.69617174],0.005,0.1,-2.3425290458239605,-0.009462558036722225,0
15.411065816879272,0.7661583683244839,[0.69446012],0.005,0.1,-2.8095047527126287,-0.006148979488637701,0
15.42672610282898,0.7651813747408006,[0.69273428],0.005,0.1,-3.180044536832733,-0.008707578058306499,0
15.440798282623291,0.7642043811571174,[0.69099572],0.005,0.1,-3.410968860396534,-0.009039602393232034,0
15.449359893798828,0.7636181850069071,[0.6892488],0.005,0.1,-3.2360913981806485,-0.005124683792853693,0
15.467722177505493,0.7622503939897506,[0.68750161],0.005,0.1,-3.200977741665242,-0.008556790482095641,0
15.482033491134644,0.7610780016893307,[0.68575377],0.005,0.1,-2.9030895327446515,-0.008548443444381259,0
15.492513656616211,0.7602964068223839,[0.6840061],0.005,0.1,-2.5423496032515667,-0.0062515908286899,0
15.504323244094849,0.7593194132387007,[0.68226758],0.005,0.1,-2.199403811098792,-0.005014108775749402,0
15.515344619750977,0.7583424196550171,[0.68054706],0.005,0.1,-1.9009545859454682,-0.004787340212610748,0
15.53057599067688,0.7569746286378605,[0.67884848],0.005,0.1,-1.9267655127924135,-0.0056062568658975815,0
15.545342445373535,0.7559976350541772,[0.67717203],0.005,0.1,-1.7529245866503365,-0.005682917039445754,0
15.556954383850098,0.7550206414704939,[0.67551996],0.005,0.1,-1.2507520850943086,-0.004143922434746502,0
15.578468799591064,0.7532620530198638,[0.67389509],0.005,0.1,-0.723260566529496,-0.005932138067916042,0
15.588894367218018,0.7522850594361805,[0.67229788],0.005,0.1,-0.2791605862168172,-0.0041105430467387365,0
15.60440182685852,0.7511126671357603,[0.670731],0.005,0.1,0.05705824955386382,-0.0042970949764978466,0
15.619226455688477,0.7499402748353403,[0.66919786],0.005,0.1,0.2939730789909383,-0.003598640353232557,0
15.629019498825073,0.7491586799683937,[0.66770299],0.005,0.1,0.45037052384767245,-0.0024266629405809118,0
15.646312713623047,0.7477908889512369,[0.66625162],0.005,0.1,0.5457214100605728,-0.0028092245505360962,0
15.661315441131592,0.7464230979340803,[0.66484569],0.005,0.1,0.5967499790889852,-0.0023846866563032683,0
15.675251960754395,0.7452507056336604,[0.66348696],0.005,0.1,0.6166503341195296,-0.0020485379731945237,0
15.68731427192688,0.7440783133332403,[0.66217822],0.005,0.1,0.6153465327775172,-0.0017773752357451702,0
15.697536706924438,0.743101319749557,[0.66092245],0.005,0.1,0.6000785569451976,-0.0013436574853629597,0
15.713474988937378,0.7421243261658735,[0.65972207],0.005,0.1,0.5760140896517869,-0.001445625400647806,0
15.728362083435059,0.7411473325821902,[0.65857753],0.005,0.1,0.8228155914965222,-0.0012810350029512493,0
15.741323709487915,0.7405611364319802,[0.65748901],0.005,0.1,1.3761082226339634,-0.0011625096942646474,0
15.754091262817383,0.7399749402817702,[0.65645705],0.005,0.1,1.9064520988159388,-0.0010699880078493306,0
15.7683584690094,0.7395841428482968,[0.65548179],0.005,0.1,2.5818020739205663,-0.0010050419244352741,0
15.77856969833374,0.7391933454148236,[0.65456326],0.005,0.1,2.868507533042664,-0.0009072960250846705,0
15.789047956466675,0.7389979466980869,[0.65370154],0.005,0.1,3.2172116900673755,-0.0008435054552255079,0
15.801900863647461,0.7388025479813501,[0.65289649],0.005,0.1,3.2049807380225337,-0.0008201764755300091,0
15.819904088973999,0.7384117505478769,[0.65214647],0.005,0.1,3.316431152568236,-0.0009252877508029976,0
15.830999612808228,0.7380209531144034,[0.65144879],0.005,0.1,2.854657495204221,-0.0008516765475776328,0
15.841812133789062,0.7380209531144034,[0.65080158],0.005,0.1,2.537825151320681,-0.0008182666279339943,0
15.857490062713623,0.7378255543976668,[0.65020313],0.005,0.1,2.0213697942211954,-0.0008510240400364921,0
15.866251230239868,0.7378255543976668,[0.64965117],0.005,0.1,1.5145059071844118,-0.0008061917551611883,0
15.887588024139404,0.7374347569641935,[0.64914279],0.005,0.1,0.8128221814799255,-0.0009172204758608663,0
15.90118932723999,0.7372393582474569,[0.64867426],0.005,0.1,0.17197250943052672,-0.0008754942026033292,0
15.914087057113647,0.7370439595307202,[0.64824231],0.005,0.1,-0.32959082976571474,-0.0008767623351666791,0
15.925442457199097,0.7370439595307202,[0.6478442],0.005,0.1,-0.6870518453787686,-0.0008781587857029151,0
15.943333864212036,0.7366531620972468,[0.64747644],0.005,0.1,-0.9219496976870033,-0.0009691217340144803,0
15.958310842514038,0.7366531620972468,[0.64713478],0.005,0.1,-1.06168822310028,-0.0010030493601627937,0
15.971341609954834,0.7364577633805102,[0.64681504],0.005,0.1,-1.1314948667476568,-0.0010520272488468226,0
15.984776973724365,0.7362623646637734,[0.64651328],0.005,0.1,-1.1519422437724387,-0.0011152234177166328,0
15.999295473098755,0.7360669659470368,[0.64622523],0.005,0.1,-1.1387876283847687,-0.0012399030437671218,0
16.01430368423462,0.7358715672303001,[0.64594617],0.005,0.1,-1.1036470968233263,-0.0013926590181289984,0
16.036284685134888,0.7354807697968269,[0.64566855],0.005,0.1,-1.0548600360887248,-0.0025694365365142263,0
16.046762704849243,0.7352853710800901,[0.64538382],0.005,0.1,-0.9982900140668747,-0.0020301619112464827,0
16.064297437667847,0.7350899723633534,[0.64508522],0.005,0.1,-0.9379827025258818,-0.0034401780414224244,0
16.080302476882935,0.7348945736466168,[0.64476438],0.005,0.1,-0.8766745805222,-0.00391230571155498,0
16.094285011291504,0.7346991749298801,[0.64441285],0.005,0.1,-0.8161726457639666,-0.004563801948824213,0
16.107325792312622,0.7345037762131434,[0.64402379],0.005,0.1,-0.7576315991536656,-0.005414228650599932,0
16.122300386428833,0.7343083774964068,[0.64359006],0.005,0.1,-0.701753178193111,-0.006474588889657599,0
16.13703489303589,0.7341129787796701,[0.64310382],0.005,0.1,-0.6489279845359623,-0.008160911966988765,0
