t_s,q_rad,q_des_rad,K,B,jerk,tau_Nm,ilc_ff_Nm
0.0051648616790771484,0.00019539871673667023,[4.58327369e-05],0.005,0.1,0.0,0.0029237404879149886,0
0.014567136764526367,0.0,[0.00022177],0.005,0.1,0.0,0.0011749819457032285,0
0.023634910583496094,0.00019539871673667023,[0.00055207],0.005,0.1,0.0,0.00045171066345845107,0
0.03364729881286621,0.0,[0.0010095],0.005,0.1,0.0,0.0002273470994859075,0
0.0416560173034668,0.0,[0.00156916],0.005,0.1,0.0,0.00011907148135562727,0
0.050939321517944336,0.0,[0.00220849],0.005,0.1,0.0,6.676349979928102e-05,0
0.06101274490356445,0.0,[0.0029072],0.005,0.1,0.0,3.849838298690493e-05,0
0.06963229179382324,0.00019539871673667023,[0.00364725],0.005,0.1,0.0,2.1118956962473653e-05,0
0.08140254020690918,0.00019539871673667023,[0.0044127],0.005,0.1,0.0,1.2138320360128074e-05,0
0.09062957763671875,0.0,[0.00518973],0.005,0.1,0.0,7.2352048282962505e-06,0
0.10167694091796875,0.0,[0.00596647],0.005,0.1,0.0,4.161309389248603e-06,0
0.1115255355834961,0.0,[0.00673291],0.005,0.1,0.0,2.4690835198048493e-06,0
0.12256503105163574,0.0,[0.00748072],0.005,0.1,0.0,1.5945051688141114e-06,0
0.1323237419128418,0.0,[0.00820307],0.005,0.1,0.0,1.1828013352684622e-06,0
0.14260149002075195,0.0,[0.00889454],0.005,0.1,0.0,1.0386537867362853e-06,0
0.1530590057373047,0.00019539871673667023,[0.00955095],0.005,0.1,0.0,9.91342004096391e-07,0
0.16456151008605957,0.0,[0.01016919],0.005,0.1,0.0,1.1395275807906103e-06,0
0.17428350448608398,0.0,[0.01074715],0.005,0.1,0.0,1.2869461961059371e-06,0
0.18289899826049805,0.00019539871673667023,[0.01128355],0.005,0.1,0.0,1.3861911355681718e-06,0
0.19365787506103516,0.00019539871673667023,[0.01177786],0.005,0.1,0.0,1.5644684585751368e-06,0
0.20229220390319824,0.00019539871673667023,[0.01223017],0.005,0.1,0.0,1.747668120562828e-06,0
0.21071362495422363,0.00019539871673667023,[0.01264111],0.005,0.1,0.0,1.9294321611003452e-06,0
0.22099804878234863,0.0,[0.01301174],0.005,0.1,0.0,2.201830742110803e-06,0
0.2293562889099121,0.0,[0.01334347],0.005,0.1,0.0,2.374875916338783e-06,0
0.24082255363464355,0.00019539871673667023,[0.01363801],0.005,0.1,0.0,2.4291926528651683e-06,0
0.24870538711547852,0.0,[0.01389729],0.005,0.1,0.0,2.6818722112702753e-06,0
0.2565476894378662,0.0,[0.01412339],0.005,0.1,0.0,2.8161034056810157e-06,0
0.2655375003814697,0.00019539871673667023,[0.01431851],0.005,0.1,0.0,2.817137305786469e-06,0
0.27552103996276855,0.00019539871673667023,[0.01448489],0.005,0.1,0.0,2.916836804499536e-06,0
0.2865159511566162,0.0,[0.01462481],0.005,0.1,0.0,3.126034637689538e-06,0
0.29454660415649414,0.00019539871673667023,[0.01474056],0.005,0.1,0.0,3.0777450669724866e-06,0
0.3045666217803955,0.00019539871673667023,[0.01483435],0.005,0.1,0.0,3.1365926221190317e-06,0
0.31453800201416016,0.0,[0.01490836],0.005,0.1,0.0,3.3118269986476157e-06,0
0.3235635757446289,0.00019539871673667023,[0.01496469],0.005,0.1,0.0,3.2226389768845754e-06,0
0.3325793743133545,0.00019539871673667023,[0.01500533],0.005,0.1,0.0,3.248148761169168e-06,0
0.34126973152160645,0.0,[0.01503219],0.005,0.1,0.0,3.395369985849696e-06,0
0.34856367111206055,0.0,[0.01504704],0.005,0.1,0.0,3.4068001279004683e-06,0
0.3575403690338135,0.00019539871673667023,[0.01505154],0.005,0.1,0.0,3.280154330409016e-06,0
0.37144923210144043,0.0,[0.01504722],0.005,0.1,0.0,3.4057813728226742e-06,0
0.38277101516723633,0.0,[0.01503551],0.005,0.1,0.0,3.399165740000298e-06,0
0.3935513496398926,0.0,[0.0150177],0.005,0.1,0.0,3.387161742940256e-06,0
0.403522253036499,0.0,[0.01499495],0.005,0.1,0.0,3.3718142023194133e-06,0
0.41283249855041504,0.0,[0.01496834],0.005,0.1,0.0,3.353956588086097e-06,0
0.4211406707763672,0.00019539871673667023,[0.01493879],0.005,0.1,0.0,3.206289944244116e-06,0
0.43155598640441895,0.00019539871673667023,[0.01490715],0.005,0.1,0.0,3.18444629247477e-06,0
0.44368767738342285,0.0,[0.01487415],0.005,0.1,0.0,3.28979087698539e-06,0
0.4530608654022217,0.00019539871673667023,[0.01484043],0.005,0.1,0.0,3.1427411413919705e-06,0
0.4635581970214844,0.0,[0.01480655],0.005,0.1,0.0,3.245495362461297e-06,0
0.47391223907470703,0.0,[0.01477299],0.005,0.1,0.0,3.2247278063383804e-06,0
0.48432254791259766,0.0,[0.01474014],0.005,0.1,0.0,3.2034942447212064e-06,0
0.49312353134155273,0.0,[0.01470834],0.005,0.1,0.0,3.1829250471686624e-06,0
0.501514196395874,0.00019539871673667023,[0.01467786],0.005,0.1,0.0,3.040172971057217e-06,0
0.512598991394043,0.0,[0.01464889],0.005,0.1,0.0,3.1436080204695677e-06,0
0.5213949680328369,0.0,[0.01462161],0.005,0.1,0.0,3.127157077493343e-06,0
0.5305092334747314,0.00019539871673667023,[0.01459612],0.005,0.1,0.0,2.9885236199686784e-06,0
0.5425128936767578,0.00019539871673667023,[0.01457248],0.005,0.1,0.0,2.973301395123355e-06,0
0.5535168647766113,0.00019539871673667023,[0.01455073],0.005,0.1,0.0,2.959761948249648e-06,0
0.5636000633239746,0.00019539871673667023,[0.01453089],0.005,0.1,0.0,2.947344935116793e-06,0
0.5727741718292236,0.0,[0.01451293],0.005,0.1,0.0,3.0567266825237572e-06,0
0.5809452533721924,0.0,[0.0144968],0.005,0.1,0.0,3.047682239288032e-06,0
0.591052770614624,0.0,[0.01448245],0.005,0.1,0.0,3.0386321377027193e-06,0
0.5985465049743652,0.00019539871673667023,[0.01446979],0.005,0.1,0.0,2.9105501492978172e-06,0
0.6072256565093994,0.0,[0.01445874],0.005,0.1,0.0,3.0222927885054186e-06,0
0.6154916286468506,0.0,[0.0144492],0.005,0.1,0.0,3.0172644899187234e-06,0
0.6245996952056885,0.00019539871673667023,[0.01444105],0.005,0.1,0.0,2.8927530207195294e-06,0
0.635216474533081,0.00019539871673667023,[0.01443421],0.005,0.1,0.0,2.8874936588213543e-06,0
0.6445245742797852,0.00019539871673667023,[0.01442856],0.005,0.1,0.0,2.883980098944852e-06,0
0.6544959545135498,0.00019539871673667023,[0.01442401],0.005,0.1,0.0,2.8812301413638824e-06,0
0.6645381450653076,0.00019539871673667023,[0.01442045],0.005,0.1,0.0,2.8788721917367193e-06,0
0.6744921207427979,0.00019539871673667023,[0.01441778],0.005,0.1,0.0,2.877185004897317e-06,0
0.6836273670196533,0.0,[0.01441591],0.005,0.1,0.0,2.9950140518123317e-06,0
0.6945374011993408,0.00019539871673667023,[0.01441473],0.005,0.1,0.0,2.876439293799392e-06,0
0.7025279998779297,0.00019539871673667023,[0.01441417],0.005,0.1,0.0,2.874901788397308e-06,0
0.7135159969329834,0.00019539871673667023,[0.01441413],0.005,0.1,0.0,2.8748069954426493e-06,0
0.7225124835968018,0.00019539871673667023,[0.01441454],0.005,0.1,0.0,2.8750109672077167e-06,0
0.7313852310180664,0.00019539871673667023,[0.01441533],0.005,0.1,0.0,2.8755271738160904e-06,0
0.7423233985900879,0.00019539871673667023,[0.01441643],0.005,0.1,0.0,2.876180730099872e-06,0
0.755138635635376,0.0,[0.01441778],0.005,0.1,0.0,2.9959874918951616e-06,0
0.7628426551818848,0.00019539871673667023,[0.01441933],0.005,0.1,0.0,2.8790605867852513e-06,0
0.7710456848144531,0.00019539871673667023,[0.01442102],0.005,0.1,0.0,2.878900315832993e-06,0
0.7805585861206055,0.0,[0.01442281],0.005,0.1,0.0,2.999041498142553e-06,0
0.790123462677002,0.0,[0.01442467],0.005,0.1,0.0,3.001416220619478e-06,0
0.8009064197540283,0.00019539871673667023,[0.01442655],0.005,0.1,0.0,2.883417518730953e-06,0
0.8096871376037598,0.00019539871673667023,[0.01442843],0.005,0.1,0.0,2.8834114228989136e-06,0
0.8194994926452637,0.00019539871673667023,[0.01443029],0.005,0.1,0.0,2.8844870808237436e-06,0
0.8284938335418701,0.00019539871673667023,[0.01443211],0.005,0.1,0.0,2.8856166154710047e-06,0
0.8371033668518066,0.00019539871673667023,[0.01443386],0.005,0.1,0.0,2.8866777016502555e-06,0
0.8450922966003418,0.00019539871673667023,[0.01443554],0.005,0.1,0.0,2.887698105663801e-06,0
0.8555755615234375,0.00019539871673667023,[0.01443714],0.005,0.1,0.0,2.8886683294548764e-06,0
0.8645052909851074,0.00019539871673667023,[0.01443865],0.005,0.1,0.0,2.889584601172453e-06,0
0.875502347946167,0.00019539871673667023,[0.01444006],0.005,0.1,0.0,2.8904431598590607e-06,0
0.8854758739471436,0.00019539871673667023,[0.01444137],0.005,0.1,0.0,2.891226863731941e-06,0
0.8948550224304199,0.00019539871673667023,[0.01444258],0.005,0.1,0.0,2.89195734219565e-06,0
0.9043211936950684,0.00019539871673667023,[0.01444368],0.005,0.1,0.0,2.8926342364181892e-06,0
0.9155750274658203,0.00019539871673667023,[0.01444467],0.005,0.1,0.0,2.8932613502426776e-06,0
0.9239370822906494,0.00019539871673667023,[0.01444557],0.005,0.1,0.0,2.893806042255199e-06,0
0.9355762004852295,0.00019539871673667023,[0.01444638],0.005,0.1,0.0,2.8942943678339526e-06,0
0.9454858303070068,0.00019539871673667023,[0.01444709],0.005,0.1,0.0,2.894728667447316e-06,0
0.9534852504730225,0.00019539871673667023,[0.01444772],0.005,0.1,0.0,2.8951115055584752e-06,0
0.963538646697998,0.00019539871673667023,[0.01444827],0.005,0.1,0.0,2.895445769160431e-06,0
0.9747023582458496,0.00019539871673667023,[0.01444874],0.005,0.1,0.0,2.895715726973668e-06,0
0.9825401306152344,0.00019539871673667023,[0.01444914],0.005,0.1,0.0,2.896014775433853e-06,0
0.9923031330108643,0.0,[0.01444948],0.005,0.1,0.0,3.0157351186656323e-06,0
1.0026278495788574,0.00019539871673667023,[0.01444976],0.005,0.1,0.0,2.89755958582255e-06,0
1.0122222900390625,0.00019539871673667023,[0.01444999],0.005,0.1,0.0,2.896515048445864e-06,0
1.0212550163269043,0.00019539871673667023,[0.01445018],0.005,0.1,0.0,2.896614568408396e-06,0
1.031599760055542,0.00019539871673667023,[0.01445032],0.005,0.1,0.0,2.8967008906566244e-06,0
1.0434534549713135,0.00019539871673667023,[0.01445043],0.005,0.1,0.0,2.896765035501473e-06,0
1.0515012741088867,0.00019539871673667023,[0.0144505],0.005,0.1,0.0,2.896809429010841e-06,0
1.0604896545410156,0.00019539871673667023,[0.01445055],0.005,0.1,0.0,2.896836499194323e-06,0
1.069986343383789,0.00019539871673667023,[0.01445057],0.005,0.1,0.0,2.8968485396382698e-06,0
1.0794954299926758,0.00019539871673667023,[0.01445056],0.005,0.1,0.0,2.896847694329465e-06,0
1.0895464420318604,0.00019539871673667023,[0.01445054],0.005,0.1,0.0,2.8968359496722725e-06,0
1.099494218826294,0.00019539871673667023,[0.01445051],0.005,0.1,0.0,2.8968151309639726e-06,0
1.1090922355651855,0.00019539871673667023,[0.01445046],0.005,0.1,0.0,2.896786902227083e-06,0
1.1164679527282715,0.00019539871673667023,[0.01445041],0.005,0.1,0.0,2.8967527686179734e-06,0
1.1244781017303467,0.00019539871673667023,[0.01445034],0.005,0.1,0.0,2.8967140808219565e-06,0
1.1368107795715332,0.00019539871673667023,[0.01445028],0.005,0.1,0.0,2.8966720409704456e-06,0
1.1445505619049072,0.00019539871673667023,[0.0144502],0.005,0.1,0.0,2.89662770970366e-06,0
1.1534669399261475,0.0,[0.01445013],0.005,0.1,0.0,3.0161322885496884e-06,0
1.164031744003296,0.00019539871673667023,[0.01445005],0.005,0.1,0.0,2.897731258731863e-06,0
1.1741178035736084,0.00019539871673667023,[0.01444998],0.005,0.1,0.0,2.8964930683376277e-06,0
1.1834886074066162,0.0,[0.0144499],0.005,0.1,0.0,3.015986804772368e-06,0
1.195051670074463,0.00019539871673667023,[0.01444982],0.005,0.1,0.0,2.897595272732032e-06,0
1.2045040130615234,0.00019539871673667023,[0.01444975],0.005,0.1,0.0,2.89635560498757e-06,0
1.2167079448699951,0.00019539871673667023,[0.01444968],0.005,0.1,0.0,2.8963182880283116e-06,0
1.2261590957641602,0.00019539871673667023,[0.01444961],0.005,0.1,0.0,2.896271020628691e-06,0
1.234598159790039,0.00019539871673667023,[0.01444955],0.005,0.1,0.0,2.896219926045222e-06,0
1.2424874305725098,0.00019539871673667023,[0.01444949],0.005,0.1,0.0,2.8961950091085044e-06,0
1.2504916191101074,0.00019539871673667023,[0.01444943],0.005,0.1,0.0,2.8961575443836446e-06,0
1.258500099182129,0.00019539871673667023,[0.01444938],0.005,0.1,0.0,2.8961090794165718e-06,0
1.2704875469207764,0.00019539871673667023,[0.01444933],0.005,0.1,0.0,2.8961053437767916e-06,0
1.282538890838623,0.00019539871673667023,[0.01444928],0.005,0.1,0.0,2.8960750340149615e-06,0
1.2925360202789307,0.00019539871673667023,[0.01444924],0.005,0.1,0.0,2.8960340078316543e-06,0
1.3019754886627197,0.00019539871673667023,[0.0144492],0.005,0.1,0.0,2.896005262189417e-06,0
1.3105237483978271,0.00019539871673667023,[0.01444916],0.005,0.1,0.0,2.895991459201671e-06,0
1.3209750652313232,0.0,[0.01444913],0.005,0.1,0.0,3.0155078060183047e-06,0
1.3355023860931396,0.00019539871673667023,[0.01444909],0.005,0.1,0.0,2.897139215538886e-06,0
1.3445627689361572,0.00019539871673667023,[0.01444907],0.005,0.1,0.0,2.8959604016973856e-06,0
1.3576960563659668,0.00019539871673667023,[0.01444904],0.005,0.1,0.0,2.895916210746744e-06,0
1.3674044609069824,0.00019539871673667023,[0.01444902],0.005,0.1,0.0,2.8958956549263883e-06,0
1.376577377319336,0.00019539871673667023,[0.014449],0.005,0.1,0.0,2.8958937216903383e-06,0
1.3865211009979248,0.00019539871673667023,[0.01444898],0.005,0.1,0.0,2.8958990612265135e-06,0
1.3968358039855957,0.00019539871673667023,[0.01444897],0.005,0.1,0.0,2.8958838172738247e-06,0
1.4044544696807861,0.00019539871673667023,[0.01444896],0.005,0.1,0.0,2.8958711238728616e-06,0
1.4139158725738525,0.00019539871673667023,[0.01444895],0.005,0.1,0.0,2.895848313338566e-06,0
1.423959732055664,0.00019539871673667023,[0.01444894],0.005,0.1,0.0,2.8958599015205447e-06,0
1.4334847927093506,0.00019539871673667023,[0.01444893],0.005,0.1,0.0,2.8958546745995145e-06,0
1.4429891109466553,0.00019539871673667023,[0.01444893],0.005,0.1,0.0,2.8958505938078893e-06,0
1.4518828392028809,0.00019539871673667023,[0.01444892],0.005,0.1,0.0,2.8958631630741704e-06,0
1.459486484527588,0.0,[0.01444892],0.005,0.1,0.0,3.0153882890180703e-06,0
1.4694337844848633,0.00019539871673667023,[0.01444893],0.005,0.1,0.0,2.8970515441214965e-06,0
1.4774494171142578,0.00019539871673667023,[0.01444893],0.005,0.1,0.0,2.895869565434106e-06,0
1.4879529476165771,0.00019539871673667023,[0.01444894],0.005,0.1,0.0,2.895861307180381e-06,0
1.497473955154419,0.00019539871673667023,[0.01444895],0.005,0.1,0.0,2.8958664142836756e-06,0
1.5054616928100586,0.00019539871673667023,[0.01444896],0.005,0.1,0.0,2.8958728627495163e-06,0
1.5134530067443848,0.00019539871673667023,[0.01444898],0.005,0.1,0.0,2.8958801977304958e-06,0
1.5235066413879395,0.00019539871673667023,[0.01444899],0.005,0.1,0.0,2.8958881429506937e-06,0
1.5314605236053467,0.00019539871673667023,[0.014449],0.005,0.1,0.0,2.895896472348759e-06,0
1.5405240058898926,0.00019539871673667023,[0.01444902],0.005,0.1,0.0,2.895904999192325e-06,0
1.5490670204162598,0.00019539871673667023,[0.01444903],0.005,0.1,0.0,2.89591356922759e-06,0
1.5575416088104248,0.00019539871673667023,[0.01444905],0.005,0.1,0.0,2.895922055619678e-06,0
1.5664680004119873,0.00019539871673667023,[0.01444906],0.005,0.1,0.0,2.8959303550243075e-06,0
1.5744335651397705,0.00019539871673667023,[0.01444907],0.005,0.1,0.0,2.8959383844083868e-06,0
1.5854277610778809,0.00019539871673667023,[0.01444909],0.005,0.1,0.0,2.8959460783880615e-06,0
1.597832441329956,0.00019539871673667023,[0.0144491],0.005,0.1,0.0,2.8959533869406025e-06,0
1.6054596900939941,0.00019539871673667023,[0.01444911],0.005,0.1,0.0,2.8959602733990682e-06,0
1.6144516468048096,0.00019539871673667023,[0.01444912],0.005,0.1,0.0,2.8959667126707983e-06,0
1.6247482299804688,0.00019539871673667023,[0.01444913],0.005,0.1,0.0,2.895972689640724e-06,0
1.6344587802886963,0.00019539871673667023,[0.01444914],0.005,0.1,0.0,2.8959781977330794e-06,0
1.6445786952972412,0.00019539871673667023,[0.01444915],0.005,0.1,0.0,2.895983237613018e-06,0
1.6544795036315918,0.00019539871673667023,[0.01444915],0.005,0.1,0.0,2.895987816014634e-06,0
1.6655302047729492,0.00019539871673667023,[0.01444916],0.005,0.1,0.0,2.8959919446850505e-06,0
1.674044132232666,0.00019539871673667023,[0.01444917],0.005,0.1,0.0,2.8959956394361655e-06,0
1.683711290359497,0.00019539871673667023,[0.01444917],0.005,0.1,0.0,2.8959989192968028e-06,0
1.6935160160064697,0.00019539871673667023,[0.01444918],0.005,0.1,0.0,2.8960018057587547e-06,0
1.702460527420044,0.00019539871673667023,[0.01444918],0.005,0.1,0.0,2.896004322110565e-06,0
1.711301326751709,0.00019539871673667023,[0.01444918],0.005,0.1,0.0,2.896006492853163e-06,0
1.7198026180267334,0.00019539871673667023,[0.01444919],0.005,0.1,0.0,2.8960083431915863e-06,0
1.7314753532409668,0.00019539871673667023,[0.01444919],0.005,0.1,0.0,2.896009898597163e-06,0
1.7404849529266357,0.00019539871673667023,[0.01444919],0.005,0.1,0.0,2.8960111844346065e-06,0
1.7485413551330566,0.00019539871673667023,[0.01444919],0.005,0.1,0.0,2.896012225648596e-06,0
1.7626798152923584,0.00019539871673667023,[0.0144492],0.005,0.1,0.0,2.896013046504572e-06,0
1.7734427452087402,0.00019539871673667023,[0.0144492],0.005,0.1,0.0,2.8960136703785934e-06,0
1.7814722061157227,0.00019539871673667023,[0.0144492],0.005,0.1,0.0,2.8960141195913547e-06,0
1.7895569801330566,0.00019539871673667023,[0.0144492],0.005,0.1,0.0,2.89601441528162e-06,0
1.7975375652313232,0.00019539871673667023,[0.0144492],0.005,0.1,0.0,2.8960145773146005e-06,0
1.807953119277954,0.00019539871673667023,[0.0144492],0.005,0.1,0.0,2.8960146242210354e-06,0
1.8171005249023438,0.00019539871673667023,[0.0144492],0.005,0.1,0.0,2.89601457316301e-06,0
1.8268425464630127,0.00019539871673667023,[0.0144492],0.005,0.1,0.0,2.896014439922815e-06,0
1.8344767093658447,0.00019539871673667023,[0.0144492],0.005,0.1,0.0,2.896014238911416e-06,0
1.8438007831573486,0.00019539871673667023,[0.0144492],0.005,0.1,0.0,2.8960139831934067e-06,0
1.8530313968658447,0.00019539871673667023,[0.0144492],0.005,0.1,0.0,2.89601368452555e-06,0
1.8636772632598877,0.00019539871673667023,[0.0144492],0.005,0.1,0.0,2.896013353406329e-06,0
1.8724637031555176,0.00019539871673667023,[0.0144492],0.005,0.1,0.0,2.896012999134156e-06,0
1.8804397583007812,0.00019539871673667023,[0.01444919],0.005,0.1,0.0,2.8960126298721435e-06,0
1.8898859024047852,0.00019539871673667023,[0.01444919],0.005,0.1,0.0,2.8960122527175854e-06,0
1.897425889968872,0.00019539871673667023,[0.01444919],0.005,0.1,0.0,2.89601187377453e-06,0
1.9075801372528076,0.00019539871673667023,[0.01444919],0.005,0.1,0.0,2.896011498228014e-06,0
1.9167656898498535,0.00019539871673667023,[0.01444919],0.005,0.1,0.0,2.8960111304187365e-06,0
1.9249029159545898,0.00019539871673667023,[0.01444919],0.005,0.1,0.0,2.8960107739171684e-06,0
1.9329237937927246,0.00019539871673667023,[0.01444919],0.005,0.1,0.0,2.8960104315961745e-06,0
1.9415698051452637,0.00019539871673667023,[0.01444919],0.005,0.1,0.0,2.896010105701481e-06,0
1.9494459629058838,0.00019539871673667023,[0.01444919],0.005,0.1,0.0,2.896009797919384e-06,0
1.9584405422210693,0.00019539871673667023,[0.01444919],0.005,0.1,0.0,2.8960095094412537e-06,0
1.9687457084655762,0.00019539871673667023,[0.01444919],0.005,0.1,0.0,2.8960092410244977e-06,0
1.9764509201049805,0.00019539871673667023,[0.01444919],0.005,0.1,0.0,2.8960089930497287e-06,0
1.9878063201904297,0.00019539871673667023,[0.01444919],0.005,0.1,0.0,2.8960087655739963e-06,0
1.9964289665222168,0.00019539871673667023,[0.01444919],0.005,0.1,0.0,2.8960085583799923e-06,0
2.0065622329711914,0.00019539871673667023,[0.01444919],0.005,0.1,0.0,2.8960083710212134e-06,0
2.0175750255584717,0.00019539871673667023,[0.01444919],0.005,0.1,0.0,2.8960082028631213e-06,0
2.0274393558502197,0.00019539871673667023,[0.01444919],0.005,0.1,0.0,2.8960080531203915e-06,0
2.0394537448883057,0.00019539871673667023,[0.01444919],0.005,0.1,0.0,2.896007920890355e-06,0
2.0484185218811035,0.00019539871673667023,[0.01444919],0.005,0.1,0.0,2.8960078051828085e-06,0
2.0565452575683594,0.00019539871673667023,[0.01444919],0.005,0.1,0.0,2.8960077049463513e-06,0
2.064772367477417,0.00019539871673667023,[0.01444919],0.005,0.1,0.0,2.896007619091455e-06,0
2.0744893550872803,0.00019539871673667023,[0.01444919],0.005,0.1,0.0,2.8960075465104597e-06,0
2.083455801010132,0.00019539871673667023,[0.01444919],0.005,0.1,0.0,2.8960074860947183e-06,0
2.092097520828247,0.00019539871673667023,[0.01444919],0.005,0.1,0.0,2.8960759869162068e-06,0
2.1024324893951416,0.00019539871673667023,[0.01444923],0.005,0.1,0.0,2.9022996178508598e-06,0
2.110929250717163,0.00019539871673667023,[0.01444949],0.005,0.1,0.0,3.0013965244436084e-06,0
2.1184353828430176,0.00019539871673667023,[0.01445033],0.005,0.1,0.0,3.1415090636212265e-06,0
2.1274116039276123,0.00019539871673667023,[0.01445244],0.005,0.1,0.0,4.547600062115121e-06,0
2.1370861530303955,0.00019539871673667023,[0.01445736],0.005,0.1,0.0,9.985617623732246e-06,0
2.1454148292541504,0.00019539871673667023,[0.01446719],0.005,0.1,0.0,1.3053998507864848e-05,0
2.154360771179199,0.00019539871673667023,[0.01448473],0.005,0.1,0.0,3.892326052269963e-05,0
2.1646134853363037,0.00019539871673667023,[0.01451506],0.005,0.1,0.0,0.0001012744864039303,0
2.1734209060668945,0.00019539871673667023,[0.01456613],0.005,0.1,0.0,0.00022865134258433147,0
2.1824474334716797,0.00019539871673667023,[0.01464833],0.005,0.1,0.0,0.00045329330693492573,0
2.192110776901245,0.00019539871673667023,[0.01477425],0.005,0.1,0.0,0.0007955477073545958,0
2.2024307250976562,0.00019539871673667023,[0.01495792],0.005,0.1,0.0,0.0012434887725515196,0
2.2104403972625732,0.00019539871673667023,[0.01521015],0.005,0.1,0.0,0.0010968637942154406,0
2.218414545059204,0.00019539871673667023,[0.01553781],0.005,0.1,0.0,0.0016901290593457554,0
2.2274484634399414,0.00019539871673667023,[0.01594683],0.005,0.1,0.0,0.0014658703287683135,0
2.239452362060547,0.00019539871673667023,[0.01644964],0.005,0.1,0.0,0.004459946884299329,0
2.248445510864258,0.00019539871673667023,[0.01706372],0.005,0.1,0.0,0.003266887697062027,0
2.258424758911133,0.00019539871673667023,[0.01779469],0.005,0.1,0.0,0.003669403336930421,0
2.2674639225006104,0.00019539871673667023,[0.01864506],0.005,0.1,0.0,0.0053284395348144244,0
2.2770638465881348,0.00019539871673667023,[0.01961838],0.005,0.1,0.0,0.0037806170743310704,0
2.2844362258911133,0.00019539871673667023,[0.02070441],0.005,0.1,0.0,0.002835891822121879,0
2.294408082962036,0.00019539871673667023,[0.02188849],0.005,0.1,0.0,0.0032185500004613256,0
2.304436445236206,0.00019539871673667023,[0.02316261],0.005,0.1,0.0,0.0034297584419888463,0
2.313969135284424,0.00019539871673667023,[0.02452066],0.005,0.1,0.0,0.0034813333941422406,0
2.3219709396362305,0.00019539871673667023,[0.0259546],0.005,0.1,0.0,0.0034020692971490165,0
2.3313655853271484,0.00019539871673667023,[0.02745483],0.005,0.1,0.0,0.003225362354328741,0
2.339414358139038,0.00019539871673667023,[0.02900845],0.005,0.1,0.0,0.0022900217584980133,0
2.349130153656006,0.00019539871673667023,[0.03060021],0.005,0.1,0.0,0.0022786463250132633,0
2.360109567642212,0.00019539871673667023,[0.03221748],0.005,0.1,0.0,0.002169282972813602,0
2.3711912631988525,0.00019539871673667023,[0.03384983],0.005,0.1,0.0,0.001990617885727829,0
2.3808388710021973,0.00019539871673667023,[0.0354866],0.005,0.1,0.0,0.0017722280650886728,0
2.3907768726348877,0.00019539871673667023,[0.03711719],0.005,0.1,0.0,0.001538845833527323,0
2.400449514389038,0.00019539871673667023,[0.03873027],0.005,0.1,0.0,0.0010567899966146919,0
2.4097900390625,0.00019539871673667023,[0.04031427],0.005,0.1,0.0,0.00095746973049394,0
2.4194276332855225,0.00019539871673667023,[0.04185983],0.005,0.1,0.0,0.0008371146300593336,0
2.4312069416046143,0.00019539871673667023,[0.04336018],0.005,0.1,0.0,0.000833929397684337,0
2.441486358642578,0.00019539871673667023,[0.04480956],0.005,0.1,0.0,0.0006482942057534634,0
2.4519004821777344,0.00019539871673667023,[0.04620197],0.005,0.1,0.0,0.0005027466659487423,0
2.460387945175171,0.00019539871673667023,[0.04753153],0.005,0.1,0.0,0.0003922973133062744,0
2.471968412399292,0.00019539871673667023,[0.04879351],0.005,0.1,0.0,0.0003322452894843178,0
2.482534170150757,0.00019539871673667023,[0.04998425],0.005,0.1,0.0,0.0002581276173079563,0
2.492062568664551,0.00019539871673667023,[0.05110072],0.005,0.1,0.0,0.00021110158865994788,0
2.501953125,0.00019539871673667023,[0.05214056],0.005,0.1,0.0,0.0001831140369024238,0
2.5119621753692627,0.00019539871673667023,[0.05310241],0.005,0.1,0.0,0.00016966370921958144,0
2.5206522941589355,0.00019539871673667023,[0.05398592],0.005,0.1,0.0,0.00016647865712164552,0
2.5342178344726562,0.00019539871673667023,[0.05479173],0.005,0.1,0.0,0.00016808992993793404,0
2.5454351902008057,0.00019539871673667023,[0.0555214],0.005,0.1,0.0,0.00017201911036905006,0
2.5586488246917725,0.00019539871673667023,[0.0561772],0.005,0.1,0.0,0.00017673910223569032,0
2.5664637088775635,0.00019539871673667023,[0.05676204],0.005,0.1,0.0,0.00018165987167187287,0
2.575432538986206,0.00019539871673667023,[0.05727928],0.005,0.1,0.0,0.0001863401542443699,0
2.5844597816467285,0.00019539871673667023,[0.05773265],0.005,0.1,0.0,0.00019064878992135301,0
2.5992937088012695,0.00019539871673667023,[0.0581261],0.005,0.1,0.0,0.00019450586505612293,0
2.6100752353668213,0.00019539871673667023,[0.05846379],0.005,0.1,0.0,0.00019789678757714744,0
2.6188549995422363,0.00019539871673667023,[0.05874992],0.005,0.1,0.0,0.00020081468165334583,0
2.628274917602539,0.00019539871673667023,[0.05898873],0.005,0.1,0.0,0.00020327842195356653,0
2.6399505138397217,0.00019539871673667023,[0.05918442],0.005,0.1,0.0,0.00020531660871351716,0
2.6496386528015137,0.00019539871673667023,[0.0593411],0.005,0.1,0.0,0.00020695998922001796,0
2.6588327884674072,0.00019539871673667023,[0.05946274],0.005,0.1,0.0,0.00020824294656602825,0
2.6664202213287354,0.00019539871673667023,[0.05955318],0.005,0.1,0.0,0.00020920115038521085,0
2.675370216369629,0.00019539871673667023,[0.05961604],0.005,0.1,0.0,0.00020986928126853557,0
2.6843502521514893,0.00019539871673667023,[0.05965476],0.005,0.1,0.0,0.00021028251008563495,0
2.692378282546997,0.00019539871673667023,[0.05967256],0.005,0.1,0.0,0.00021047367368407953,0
2.705212116241455,0.00019539871673667023,[0.05967242],0.005,0.1,0.0,0.0002104741475493828,0
2.7143919467926025,0.00019539871673667023,[0.05965712],0.005,0.1,0.0,0.00021031324937132904,0
2.7233715057373047,0.00019539871673667023,[0.05962918],0.005,0.1,0.0,0.00021001823683630965,0
2.7313921451568604,0.00019539871673667023,[0.0595909],0.005,0.1,0.0,0.00020961403903826527,0
2.741555690765381,0.00019539871673667023,[0.05954439],0.005,0.1,0.0,0.0002091225680561517,0
2.7504258155822754,0.00019539871673667023,[0.0594915],0.005,0.1,0.0,0.0002085646254660377,0
2.7604751586914062,0.00019539871673667023,[0.0594339],0.005,0.1,0.0,0.00020795771630398812,0
2.770599842071533,0.00019539871673667023,[0.05937306],0.005,0.1,0.0,0.00020731800385728524,0
2.7804877758026123,0.00019539871673667023,[0.05931026],0.005,0.1,0.0,0.00020665881573969002,0
2.7883665561676025,0.00019539871673667023,[0.05924662],0.005,0.1,0.0,0.00020599239371427334,0
2.7990946769714355,0.00019539871673667023,[0.05918309],0.005,0.1,0.0,0.0002053281007583339,0
2.8094630241394043,0.00019539871673667023,[0.05912048],0.005,0.1,0.0,0.00020467466419872858,0
2.8184633255004883,0.00019539871673667023,[0.05905945],0.005,0.1,0.0,0.0002040393074471785,0
2.82719087600708,0.00019539871673667023,[0.05900056],0.005,0.1,0.0,0.00020342716040130455,0
2.8366379737854004,0.00019539871673667023,[0.05894422],0.005,0.1,0.0,0.00020284256235435891,0
2.844458818435669,0.00019539871673667023,[0.05889078],0.005,0.1,0.0,0.00020228932471943897,0
2.8539397716522217,0.00019539871673667023,[0.05884048],0.005,0.1,0.0,0.00020176936779950255,0
2.863412618637085,0.00019539871673667023,[0.05879349],0.005,0.1,0.0,0.00020128420467637156,0
2.872464179992676,0.00019539871673667023,[0.05874991],0.005,0.1,0.0,0.00020083538002919096,0
2.8803794384002686,0.00019539871673667023,[0.05870977],0.005,0.1,0.0,0.00020042427840699347,0
2.8934922218322754,0.00019539871673667023,[0.0586731],0.005,0.1,0.0,0.00020005380021574372,0
2.90248703956604,0.00019539871673667023,[0.05863988],0.005,0.1,0.0,0.00019972332889773545,0
2.914938449859619,0.00019539871673667023,[0.05861004],0.005,0.1,0.0,0.0001994234029024667,0
2.922421932220459,0.00019539871673667023,[0.0585835],0.005,0.1,0.0,0.00019915137394370297,0
2.936530351638794,0.0,[0.05856012],0.005,0.1,0.0,0.00020091142975514877,0
2.945415496826172,0.0,[0.05853976],0.005,0.1,0.0,0.00020072390905767187,0
2.9569175243377686,0.0,[0.05852228],0.005,0.1,0.0,0.0002005600874635479,0
2.9654695987701416,0.0,[0.05850752],0.005,0.1,0.0,0.00020039007055189562,0
2.974951982498169,0.0,[0.05849529],0.005,0.1,0.0,0.0002002659230829126,0
2.9862887859344482,0.0,[0.05848541],0.005,0.1,0.0,0.00020017673487896198,0
2.995237350463867,0.0,[0.05847771],0.005,0.1,0.0,0.00020009304102163328,0
3.0054118633270264,0.0,[0.05847199],0.005,0.1,0.0,0.00020001952677071598,0
3.0145411491394043,0.0,[0.05846805],0.005,0.1,0.0,0.00019997779715512522,0
3.022423028945923,0.0,[0.05846571],0.005,0.1,0.0,0.00019995164691930255,0
3.033402681350708,0.0,[0.05846478],0.005,0.1,0.0,0.00019994049519716145,0
3.0474982261657715,0.0,[0.05846511],0.005,0.1,0.0,0.00019995373523045505,0
3.0554463863372803,0.0,[0.05846653],0.005,0.1,0.0,0.00019996831124178294,0
3.0643935203552246,0.0,[0.05846888],0.005,0.1,0.0,0.00019998141503591542,0
3.07384991645813,0.0,[0.058472],0.005,0.1,0.0,0.00020000813674875812,0
3.0821783542633057,0.0,[0.05847576],0.005,0.1,0.0,0.00020004333403809434,0
3.092376470565796,0.0,[0.05848003],0.005,0.1,0.0,0.0002000818441167608,0
3.1033380031585693,0.0,[0.0584847],0.005,0.1,0.0,0.0002001267252224631,0
3.112438201904297,0.0,[0.05848965],0.005,0.1,0.0,0.00020017412519711804,0
3.1225051879882812,0.0,[0.0584948],0.005,0.1,0.0,0.00020022549874089914,0
3.1324918270111084,0.0,[0.05850006],0.005,0.1,0.0,0.0002002769433590204,0
3.142007350921631,0.0,[0.05850535],0.005,0.1,0.0,0.0002003312211246725,0
3.150425672531128,0.0,[0.0585106],0.005,0.1,0.0,0.00020038291126557435,0
3.159438371658325,0.0,[0.05851577],0.005,0.1,0.0,0.00020043521407834538,0
3.1685237884521484,0.0,[0.0585208],0.005,0.1,0.0,0.0002004861445926282,0
3.177919387817383,0.0,[0.05852566],0.005,0.1,0.0,0.00020053546171489603,0
3.18792462348938,0.0,[0.0585303],0.005,0.1,0.0,0.0002005825643104177,0
3.1953697204589844,0.0,[0.0585347],0.005,0.1,0.0,0.0002006273801064314,0
3.2053732872009277,0.0,[0.05853885],0.005,0.1,0.0,0.00020066990724126375,0
3.2155063152313232,0.00019539871673667023,[0.05854273],0.005,0.1,0.0,0.00019872629710393147,0
3.225222110748291,0.0,[0.05854633],0.005,0.1,0.0,0.0002007268026715136,0
3.2346959114074707,0.0,[0.05854965],0.005,0.1,0.0,0.0002007804242808029,0
3.2433853149414062,0.0,[0.05855269],0.005,0.1,0.0,0.00020081190165631454,0
3.2533626556396484,0.0,[0.05855546],0.005,0.1,0.0,0.00020084044321529976,0
3.2643680572509766,0.0,[0.05855796],0.005,0.1,0.0,0.00020086585126473396,0
3.274354934692383,0.0,[0.05856019],0.005,0.1,0.0,0.00020088873293501092,0
3.2833869457244873,0.00019539871673667023,[0.05856218],0.005,0.1,0.0,0.00019892480286786194,0
3.292875051498413,0.0,[0.05856393],0.005,0.1,0.0,0.00020090760084011698,0
3.3018226623535156,0.00019539871673667023,[0.05856546],0.005,0.1,0.0,0.0001989578866552078,0
3.3104093074798584,0.0,[0.05856678],0.005,0.1,0.0,0.00020093701827458228,0
3.3203537464141846,0.0,[0.0585679],0.005,0.1,0.0,0.00020096810061575313,0
3.328486919403076,0.0,[0.05856885],0.005,0.1,0.0,0.0002009779312116703,0
3.338683605194092,0.0,[0.05856963],0.005,0.1,0.0,0.0002009860799430038,0
3.3464317321777344,0.0,[0.05857027],0.005,0.1,0.0,0.00020099282662998673,0
3.358383893966675,0.0,[0.05857077],0.005,0.1,0.0,0.0002009980839634021,0
3.368774652481079,0.0,[0.05857115],0.005,0.1,0.0,0.00020100172677304983,0
3.3779098987579346,0.0,[0.05857142],0.005,0.1,0.0,0.00020100504466312146,0
3.3863492012023926,0.00019539871673667023,[0.05857161],0.005,0.1,0.0,0.00019902119148854094,0
3.394382953643799,0.0,[0.05857171],0.005,0.1,0.0,0.00020098774611569163,0
3.4029626846313477,0.0,[0.05857175],0.005,0.1,0.0,0.00020100785945202464,0
3.412405014038086,0.0,[0.05857172],0.005,0.1,0.0,0.00020100784272671787,0
3.4238369464874268,0.0,[0.05857165],0.005,0.1,0.0,0.0002010070214788544,0
3.433408498764038,0.00019539871673667023,[0.05857153],0.005,0.1,0.0,0.00019902037541415167,0
3.443540573120117,0.0,[0.05857138],0.005,0.1,0.0,0.0002009843987981388,0
3.4529590606689453,0.0,[0.0585712],0.005,0.1,0.0,0.00020100230610325416,0
3.4617040157318115,0.00019539871673667023,[0.058571],0.005,0.1,0.0,0.00019901520835926978,0
3.471400737762451,0.00019539871673667023,[0.05857079],0.005,0.1,0.0,0.00019899317012321568,0
3.479367256164551,0.00019539871673667023,[0.05857058],0.005,0.1,0.0,0.00019899071254581973,0
3.4894278049468994,0.0,[0.05857035],0.005,0.1,0.0,0.0002009737435588381,0
3.500488042831421,0.00019539871673667023,[0.05857013],0.005,0.1,0.0,0.00019900597946481634,0
3.50997257232666,0.00019539871673667023,[0.05856991],0.005,0.1,0.0,0.00019898410892775744,0
3.518864631652832,0.0,[0.0585697],0.005,0.1,0.0,0.00020096690360216592,0
3.5282418727874756,0.0,[0.05856949],0.005,0.1,0.0,0.00020098461488024728,0
3.5383613109588623,0.0,[0.05856929],0.005,0.1,0.0,0.0002009829516866318,0
3.548557758331299,0.00019539871673667023,[0.0585691],0.005,0.1,0.0,0.0001989954278344447,0
3.5603487491607666,0.0,[0.05856892],0.005,0.1,0.0,0.00020095901154890044,0
3.570544481277466,0.00019539871673667023,[0.05856875],0.005,0.1,0.0,0.00019899173833743094,0
3.5793569087982178,0.0,[0.05856859],0.005,0.1,0.0,0.00020095573060020116,0
3.5883288383483887,0.0,[0.05856844],0.005,0.1,0.0,0.00020097378549570078,0
3.597679615020752,0.0,[0.05856831],0.005,0.1,0.0,0.0002009726354223702,0
3.6064257621765137,0.0,[0.05856818],0.005,0.1,0.0,0.0002009712881613701,0
3.617574691772461,0.0,[0.05856807],0.005,0.1,0.0,0.00020097013668829918,0
3.627321243286133,0.0,[0.05856796],0.005,0.1,0.0,0.00020096920185268117,0
3.6372716426849365,0.0,[0.05856787],0.005,0.1,0.0,0.00020096821841783397,0
3.647993803024292,0.00019539871673667023,[0.05856779],0.005,0.1,0.0,0.00019898215061141833,0
3.6588923931121826,0.00019539871673667023,[0.05856771],0.005,0.1,0.0,0.0001989617032175127,0
3.666849136352539,0.0,[0.05856765],0.005,0.1,0.0,0.00020094576835654975,0
3.675349712371826,0.0,[0.0585676],0.005,0.1,0.0,0.00020096495011233392,0
3.68631649017334,0.0,[0.05856755],0.005,0.1,0.0,0.00020096486070097586,0
3.6970832347869873,0.0,[0.05856751],0.005,0.1,0.0,0.00020096447646443462,0
3.705392360687256,0.0,[0.05856748],0.005,0.1,0.0,0.00020096434566319594,0
3.713385581970215,0.0,[0.05856745],0.005,0.1,0.0,0.00020096411062574138,0
3.72196888923645,0.0,[0.05856744],0.005,0.1,0.0,0.0002009639493146227,0
3.7293283939361572,0.00019539871673667023,[0.05856743],0.005,0.1,0.0,0.0001989782593236827,0
3.7393276691436768,0.0,[0.05856742],0.005,0.1,0.0,0.00020094376535036005,0
3.749941349029541,0.0,[0.05856742],0.005,0.1,0.0,0.00020096324648243656,0
3.7575385570526123,0.0,[0.05856742],0.005,0.1,0.0,0.00020096337386880424,0
3.7653610706329346,0.0,[0.05856743],0.005,0.1,0.0,0.00020096387058300363,0
3.774341583251953,0.00019539871673667023,[0.05856744],0.005,0.1,0.0,0.0001989784264684781,0
3.782965660095215,0.00019539871673667023,[0.05856744],0.005,0.1,0.0,0.0001989586058620694,0
3.7946689128875732,0.00019539871673667023,[0.05856745],0.005,0.1,0.0,0.00019895879220552503,0
3.802349805831909,0.00019539871673667023,[0.05856746],0.005,0.1,0.0,0.0001989586704870531,0
3.8113415241241455,0.0,[0.05856747],0.005,0.1,0.0,0.00020094428508630045,0
3.8203418254852295,0.00019539871673667023,[0.05856749],0.005,0.1,0.0,0.0001989790508475604,0
3.8285114765167236,0.0,[0.0585675],0.005,0.1,0.0,0.00020094474445426678,0
3.8363399505615234,0.0,[0.05856752],0.005,0.1,0.0,0.0002009647045484591,0
3.846322774887085,0.00019539871673667023,[0.05856754],0.005,0.1,0.0,0.00019897953298829733,0
3.8553428649902344,0.0,[0.05856757],0.005,0.1,0.0,0.00020094506407284117,0
3.865354537963867,0.0,[0.05856759],0.005,0.1,0.0,0.0002009647552425984,0
3.875352382659912,0.0,[0.05856761],0.005,0.1,0.0,0.00020096542923747217,0
3.8863401412963867,0.0,[0.05856762],0.005,0.1,0.0,0.0002009655211006028,0
3.8975369930267334,0.00019539871673667023,[0.05856764],0.005,0.1,0.0,0.00019898090423035555,0
3.905348062515259,0.00019539871673667023,[0.05856765],0.005,0.1,0.0,0.00019896112834120712,0
3.913316011428833,0.0,[0.05856767],0.005,0.1,0.0,0.00020094619138634543,0
3.9213242530822754,0.00019539871673667023,[0.05856769],0.005,0.1,0.0,0.00019898104798535284,0
3.9303746223449707,0.0,[0.05856771],0.005,0.1,0.0,0.00020094671324461376,0
3.941479444503784,0.0,[0.05856773],0.005,0.1,0.0,0.00020096655553649835,0
3.949343681335449,0.0,[0.05856775],0.005,0.1,0.0,0.00020096694689591548,0
3.9594407081604004,0.0,[0.05856777],0.005,0.1,0.0,0.0002009671462567504,0
3.9683165550231934,0.0,[0.05856779],0.005,0.1,0.0,0.00020096734249491744,0
3.976325035095215,0.0,[0.05856781],0.005,0.1,0.0,0.00020096753462178917,0
3.9873545169830322,0.0,[0.05856783],0.005,0.1,0.0,0.00020096772041554496,0
3.9963481426239014,0.00019539871673667023,[0.05856785],0.005,0.1,0.0,0.00019898274368944173,0
4.004374980926514,0.0,[0.05856786],0.005,0.1,0.0,0.00020094821680034067,0
4.014951705932617,0.00019539871673667023,[0.05856788],0.005,0.1,0.0,0.00019898287101837461,0
4.022331714630127,0.00019539871673667023,[0.05856789],0.005,0.1,0.0,0.0001989633622529389,0
4.032802104949951,0.0,[0.0585679],0.005,0.1,0.0,0.00020094845961716028,0
4.040321350097656,0.0,[0.05856792],0.005,0.1,0.0,0.00020096843444502064,0
4.050252914428711,0.0,[0.05856793],0.005,0.1,0.0,0.00020096874712074113,0
4.059020042419434,0.0,[0.05856794],0.005,0.1,0.0,0.00020096885244148282,0
4.067324161529541,0.0,[0.05856795],0.005,0.1,0.0,0.0002009689452668669,0
4.079320430755615,0.0,[0.05856796],0.005,0.1,0.0,0.00020096902795042288,0
4.090132713317871,0.0,[0.05856796],0.005,0.1,0.0,0.0002009691009923412,0
4.099287033081055,0.0,[0.05856797],0.005,0.1,0.0,0.0002009691649274151,0
4.108940124511719,0.0,[0.05856797],0.005,0.1,0.0,0.00020096922032791765,0
4.117076635360718,0.00019539871673667023,[0.05856798],0.005,0.1,0.0,0.00019898410426997073,0
4.127302885055542,0.00019539871673667023,[0.05856798],0.005,0.1,0.0,0.0001989642925018822,0
4.135324239730835,0.0,[0.05856799],0.005,0.1,0.0,0.00020094929117786726,0
4.143303632736206,0.0,[0.05856799],0.005,0.1,0.0,0.00020096916812386572,0
4.153737545013428,0.00019539871673667023,[0.05856799],0.005,0.1,0.0,0.00019898422405895545,0
4.162302017211914,0.0,[0.05856799],0.005,0.1,0.0,0.00020094955553667885,0
4.173638105392456,0.00019539871673667023,[0.05856799],0.005,0.1,0.0,0.00019898405656289508,0
4.182340145111084,0.0,[0.05856799],0.005,0.1,0.0,0.000200949574477107,0
4.19230842590332,0.00019539871673667023,[0.05856799],0.005,0.1,0.0,0.00019898407007094986,0
4.2013349533081055,0.00019539871673667023,[0.05856799],0.005,0.1,0.0,0.000198964417128505,0
4.211016893386841,0.0,[0.05856799],0.005,0.1,0.0,0.00020094938485121997,0
4.220329523086548,0.00019539871673667023,[0.05856799],0.005,0.1,0.0,0.0001989840674561114,0
4.230162858963013,0.00019539871673667023,[0.05856799],0.005,0.1,0.0,0.00019896441009963835,0
4.2421770095825195,0.00019539871673667023,[0.05856799],0.005,0.1,0.0,0.00019896420793431616,0
4.253200531005859,0.00019539871673667023,[0.05856799],0.005,0.1,0.0,0.00019896419920160604,0
4.263336420059204,0.00019539871673667023,[0.05856799],0.005,0.1,0.0,0.00019896419154361247,0
4.271312713623047,0.00019539871673667023,[0.05856799],0.005,0.1,0.0,0.00019896418326750316,0
4.280318737030029,0.00019539871673667023,[0.05856799],0.005,0.1,0.0,0.00019896417455962943,0
4.291128158569336,0.0,[0.05856799],0.005,0.1,0.0,0.00020094932986928208,0
4.299984693527222,0.0,[0.05856799],0.005,0.1,0.0,0.00020096917239400975,0
4.307318210601807,0.0,[0.05856799],0.005,0.1,0.0,0.00020096936182703918,0
4.318307876586914,0.00019539871673667023,[0.05856799],0.005,0.1,0.0,0.0001989841907852658,0
4.3282997608184814,0.00019539871673667023,[0.05856799],0.005,0.1,0.0,0.00019896433052599133,0
4.336328029632568,0.0,[0.05856799],0.005,0.1,0.0,0.0002009492876643083,0
4.345295667648315,0.00019539871673667023,[0.05856798],0.005,0.1,0.0,0.00019898396539007492,0
4.354573488235474,0.00019539871673667023,[0.05856798],0.005,0.1,0.0,0.000198964304714908,0
4.365301132202148,0.00019539871673667023,[0.05856798],0.005,0.1,0.0,0.0001989641011031167,0
4.374346017837524,0.0,[0.05856798],0.005,0.1,0.0,0.00020094925631569037,0
4.383358955383301,0.0,[0.05856798],0.005,0.1,0.0,0.0002009691017725661,0
4.392387866973877,0.0,[0.05856798],0.005,0.1,0.0,0.00020096929462061974,0
4.402359962463379,0.0,[0.05856798],0.005,0.1,0.0,0.0002009692914285107,0
4.411693096160889,0.0,[0.05856798],0.005,0.1,0.0,0.0002009692867532548,0
4.419293165206909,0.0,[0.05856798],0.005,0.1,0.0,0.00020096928252690734,0
4.427367210388184,0.0,[0.05856798],0.005,0.1,0.0,0.00020096927875135268,0
4.436870574951172,0.0,[0.05856798],0.005,0.1,0.0,0.00020096927540608317,0
4.444356441497803,0.0,[0.05856798],0.005,0.1,0.0,0.00020096927246801986,0
4.45638370513916,0.0,[0.05856798],0.005,0.1,0.0,0.00020096926991236964,0
4.4649882316589355,0.0,[0.05856798],0.005,0.1,0.0,0.00020096926771321207,0
4.474748373031616,0.0,[0.05856798],0.005,0.1,0.0,0.00020096926584400965,0
4.484266519546509,0.0,[0.05856798],0.005,0.1,0.0,0.00020096901804165146,0
4.495434999465942,0.0,[0.05856797],0.005,0.1,0.0,0.0002009688697751087,0
4.504397392272949,0.0,[0.05856797],0.005,0.1,0.0,0.00020096905797567318,0
4.513882875442505,0.00019539871673667023,[0.05856796],0.005,0.1,0.0,0.000198983741612473,0
4.526298761367798,0.00019539871673667023,[0.05856794],0.005,0.1,0.0,0.0001989636944418202,0
4.535454750061035,0.0,[0.05856793],0.005,0.1,0.0,0.0002009485470867623,0
4.545346736907959,0.0,[0.05856791],0.005,0.1,0.0,0.00020096824700411442,0
4.558062314987183,0.0,[0.05856789],0.005,0.1,0.0,0.0002009682642204451,0
4.566300392150879,0.0,[0.05856787],0.005,0.1,0.0,0.0002009680624027148,0
4.57716965675354,0.00019539871673667023,[0.05856784],0.005,0.1,0.0,0.00019898268948416494,0
4.586697578430176,0.0,[0.05856782],0.005,0.1,0.0,0.00020094776433625283,0
4.59436821937561,0.0,[0.0585678],0.005,0.1,0.0,0.00020096718581470195,0
4.6034345626831055,0.00019539871673667023,[0.05856777],0.005,0.1,0.0,0.0001989820015191586,0
4.613434791564941,0.00019539871673667023,[0.05856775],0.005,0.1,0.0,0.00019896192579913255,0
4.621483087539673,0.0,[0.05856773],0.005,0.1,0.0,0.0002009466539113311,0
4.630515098571777,0.00019539871673667023,[0.05856771],0.005,0.1,0.0,0.00019898114510249874,0
4.640203475952148,0.0,[0.05856769],0.005,0.1,0.0,0.00020094643412684845,0
4.649305582046509,0.0,[0.05856767],0.005,0.1,0.0,0.0002009658969700217,0
4.657259464263916,0.00019539871673667023,[0.05856765],0.005,0.1,0.0,0.0001989807720093708,0
4.669293165206909,0.0,[0.05856764],0.005,0.1,0.0,0.00020094589630365638,0
4.681450128555298,0.0,[0.05856762],0.005,0.1,0.0,0.00020096539434245729,0
4.691964864730835,0.0,[0.05856761],0.005,0.1,0.0,0.0002009654488098666,0
4.701078176498413,0.0,[0.0585676],0.005,0.1,0.0,0.00020096532140891727,0
4.71142840385437,0.0,[0.05856758],0.005,0.1,0.0,0.00020096520448468024,0
4.720541954040527,0.0,[0.05856757],0.005,0.1,0.0,0.00020096509956822275,0
4.728264093399048,0.0,[0.05856756],0.005,0.1,0.0,0.00020096500618665505,0
4.739399194717407,0.0,[0.05856756],0.005,0.1,0.0,0.00020096492377300087,0
4.751193523406982,0.0,[0.05856755],0.005,0.1,0.0,0.00020096485170446833,0
4.759373664855957,0.0,[0.05856754],0.005,0.1,0.0,0.00020096478930334825,0
4.770063638687134,0.0,[0.05856754],0.005,0.1,0.0,0.00020096473592157922,0
4.780266046524048,0.0,[0.05856753],0.005,0.1,0.0,0.0002009646908404377,0
4.788336753845215,0.0,[0.05856753],0.005,0.1,0.0,0.00020096465336335887,0
4.798339128494263,0.00019539871673667023,[0.05856753],0.005,0.1,0.0,0.0001989794899382558,0
4.808274030685425,0.0,[0.05856753],0.005,0.1,0.0,0.0002009447471586128,0
4.817627668380737,0.0,[0.05856752],0.005,0.1,0.0,0.00020096438125500316,0
4.826296091079712,0.0,[0.05856752],0.005,0.1,0.0,0.00020096456403954072,0
4.837482690811157,0.0,[0.05856752],0.005,0.1,0.0,0.0002009645566467758,0
4.845278739929199,0.0,[0.05856752],0.005,0.1,0.0,0.00020096455113834927,0
4.854263067245483,0.00019539871673667023,[0.05856752],0.005,0.1,0.0,0.00019897941654210748,0
4.867739915847778,0.00019539871673667023,[0.05856752],0.005,0.1,0.0,0.00019895956582477125,0
4.875668287277222,0.0,[0.05856752],0.005,0.1,0.0,0.00020094450268905227,0
4.884294748306274,0.0,[0.05856752],0.005,0.1,0.0,0.0002009643569993689,0
4.892265319824219,0.0,[0.05856752],0.005,0.1,0.0,0.00020096456207192463,0
4.901292085647583,0.00019539871673667023,[0.05856752],0.005,0.1,0.0,0.00019897943937888918,0
4.911328315734863,0.0,[0.05856752],0.005,0.1,0.0,0.00020094472943392647,0
4.920865774154663,0.0,[0.05856752],0.005,0.1,0.0,0.00020096439178615393,0
4.929733037948608,0.0,[0.05856753],0.005,0.1,0.0,0.00020096459833175427,0
4.937232971191406,0.0,[0.05856753],0.005,0.1,0.0,0.00020096461058854886,0
4.947030544281006,0.0,[0.05856753],0.005,0.1,0.0,0.00020096462099813376,0
4.957293272018433,0.00019539871673667023,[0.05856753],0.005,0.1,0.0,0.00019897949841339186,0
4.966795206069946,0.00019539871673667023,[0.05856753],0.005,0.1,0.0,0.0001989596571783195,0
4.976445913314819,0.0,[0.05856753],0.005,0.1,0.0,0.00020094460153447581,0
4.987076282501221,0.0,[0.05856753],0.005,0.1,0.0,0.0002009644603926838,0
4.996406078338623,0.00019539871673667023,[0.05856753],0.005,0.1,0.0,0.00019897953478835713,0
5.004409551620483,0.00019539871673667023,[0.05856753],0.005,0.1,0.0,0.0001989596939817133,0
5.013241767883301,0.00019539871673667023,[0.05856753],0.005,0.1,0.0,0.00019895950351092977,0
5.022303342819214,0.00019539871673667023,[0.05856753],0.005,0.1,0.0,0.00019895950900761318,0
5.034310817718506,0.00019539871673667023,[0.05856753],0.005,0.1,0.0,0.00019895938679308103,0
5.042796850204468,0.0,[0.05856753],0.005,0.1,0.0,0.00020094421533251963,0
5.051874160766602,0.00019539871673667023,[0.05856751],0.005,0.1,0.0,0.00019897850475308917,0
5.0612406730651855,0.0,[0.05856742],0.005,0.1,0.0,0.00020096168253311527,0
5.069257020950317,0.00019539871673667023,[0.05856718],0.005,0.1,0.0,0.00019901126027464396,0
5.077812671661377,0.00019539871673667023,[0.05856667],0.005,0.1,0.0,0.00019913702647642882,0
5.086270809173584,0.0,[0.05856572],0.005,0.1,0.0,0.00020117123672212564,0
5.094267129898071,0.0,[0.05856416],0.005,0.1,0.0,0.00020159791588116833,0
5.102262020111084,0.0,[0.0585617],0.005,0.1,0.0,0.00020220511282283363,0
5.111870765686035,0.0,[0.05855801],0.005,0.1,0.0,0.00020290433069208836,0
5.119266748428345,0.00019539871673667023,[0.05855283],0.005,0.1,0.0,0.000200616239903493,0
5.12724232673645,0.0,[0.05854608],0.005,0.1,0.0,0.0002023360620415843,0
5.137649297714233,0.00019539871673667023,[0.05853762],0.005,0.1,0.0,0.0002024994134217233,0
5.145235776901245,0.00019539871673667023,[0.05852718],0.005,0.1,0.0,0.00020155416837897475,0
5.154240846633911,0.00019539871673667023,[0.05851463],0.005,0.1,0.0,0.00020213101748570755,0
5.164190053939819,0.0,[0.0584999],0.005,0.1,0.0,0.00020451618443486288,0
5.172276973724365,0.0,[0.05848293],0.005,0.1,0.0,0.00020330577047236097,0
5.181260824203491,0.0,[0.05846382],0.005,0.1,0.0,0.00020366258871077212,0
5.191576719284058,0.00019539871673667023,[0.05844261],0.005,0.1,0.0,0.00020172638527213478,0
5.202291011810303,0.00019539871673667023,[0.05841931],0.005,0.1,0.0,0.00020154959484306302,0
5.2110960483551025,0.0,[0.05839398],0.005,0.1,0.0,0.00020315084982892046,0
5.220245838165283,0.00019539871673667023,[0.05836673],0.005,0.1,0.0,0.0002006921600300615,0
5.229543924331665,0.0,[0.05833772],0.005,0.1,0.0,0.0002020413371292906,0
5.240266561508179,0.0,[0.05830709],0.005,0.1,0.0,0.0002021976892356806,0
5.248300552368164,0.0,[0.05827502],0.005,0.1,0.0,0.00020048186136863163,0
5.257730960845947,0.00019539871673667023,[0.05824182],0.005,0.1,0.0,0.00019785622570780417,0
5.26530122756958,0.0,[0.05820779],0.005,0.1,0.0,0.00019916104278339377,0
5.275677442550659,0.00019539871673667023,[0.05817319],0.005,0.1,0.0,0.00019654371083881493,0
5.284262180328369,0.00019539871673667023,[0.05813831],0.005,0.1,0.0,0.0001956182535229743,0
5.29227352142334,0.0,[0.05810347],0.005,0.1,0.0,0.00019710018321172066,0
5.301605701446533,0.00019539871673667023,[0.05806891],0.005,0.1,0.0,0.0001946701536791537,0
5.311063051223755,0.0,[0.05803485],0.005,0.1,0.0,0.00019612982596599595,0
5.320498466491699,0.0,[0.05800149],0.005,0.1,0.0,0.0001956864326791963,0
5.330386161804199,0.00019539871673667023,[0.05796899],0.005,0.1,0.0,0.00019330120774224883,0
5.342288017272949,0.0,[0.05793753],0.005,0.1,0.0,0.00019481132212753198,0
5.352062940597534,0.00019539871673667023,[0.05790725],0.005,0.1,0.0,0.00019249776877280767,0
5.361270189285278,0.0,[0.05787829],0.005,0.1,0.0,0.00019407101910530908,0
5.371062994003296,0.0,[0.05785077],0.005,0.1,0.0,0.00019375060508276365,0
5.383254766464233,0.0,[0.05782478],0.005,0.1,0.0,0.00019346540218731726,0
5.392301321029663,0.00019539871673667023,[0.05780039],0.005,0.1,0.0,0.00019126826518278567,0
5.402256965637207,0.0,[0.05777765],0.005,0.1,0.0,0.00019293988198804994,0
5.416231393814087,0.0,[0.05775658],0.005,0.1,0.0,0.00019273178129557486,0
5.42421293258667,0.0,[0.05773737],0.005,0.1,0.0,0.00019288922031310114,0
5.434737920761108,0.0,[0.05772068],0.005,0.1,0.0,0.00019797186779029093,0
5.444162130355835,0.0,[0.05770757],0.005,0.1,0.0,0.00019865423719763427,0
5.4532341957092285,0.00019539871673667023,[0.0576989],0.005,0.1,0.0,0.0002043163167009491,0
5.462247371673584,0.0,[0.05769571],0.005,0.1,0.0,0.00021608966875124035,0
5.476150751113892,0.00019539871673667023,[0.05769948],0.005,0.1,0.0,0.0002411897998357593,0
5.485602378845215,0.00019539871673667023,[0.05771185],0.005,0.1,0.0,0.000248378900872137,0
5.493245601654053,0.00019539871673667023,[0.05773363],0.005,0.1,0.0,0.00023513728606809365,0
5.50249719619751,0.00019539871673667023,[0.05776487],0.005,0.1,0.0,0.00024436093943313713,0
5.512666702270508,0.00019539871673667023,[0.05780576],0.005,0.1,0.0,0.00025144954850858447,0
5.521243572235107,0.00019539871673667023,[0.05785664],0.005,0.1,0.0,0.0002559429931021935,0
5.530760288238525,0.0,[0.05791761],0.005,0.1,0.0,0.000260171694034252,0
5.538257360458374,0.00019539871673667023,[0.05798827],0.005,0.1,0.0,0.00024069671517043396,0
5.549045562744141,0.0,[0.05806782],0.005,0.1,0.0,0.00024697558370160064,0
5.558576822280884,0.0,[0.05815542],0.005,0.1,0.0,0.0002344448387650702,0
5.566659212112427,0.00019539871673667023,[0.05825017],0.005,0.1,0.0,0.00023683490896343195,0
5.578347682952881,0.00019539871673667023,[0.05835159],0.005,0.1,0.0,0.00025139606308120316,0
5.587217807769775,0.00019539871673667023,[0.05845929],0.005,0.1,0.0,0.00023497226074009736,0
5.599071979522705,0.0,[0.0585725],0.005,0.1,0.0,0.00024608298130079063,0
5.610419034957886,0.00019539871673667023,[0.0586905],0.005,0.1,0.0,0.0002381175103219712,0
5.620220184326172,0.00019539871673667023,[0.05881251],0.005,0.1,0.0,0.00023305304516515595,0
5.631242275238037,0.00019539871673667023,[0.05893759],0.005,0.1,0.0,0.00023442397555141763,0
5.639257431030273,0.00019539871673667023,[0.0590648],0.005,0.1,0.0,0.00022389563633479437,0
5.648358106613159,0.00019539871673667023,[0.05919295],0.005,0.1,0.0,0.00022157152406649292,0
5.658261775970459,0.00019539871673667023,[0.0593209],0.005,0.1,0.0,0.00021974171145383874,0
5.667253017425537,0.0,[0.05944766],0.005,0.1,0.0,0.00021848276348863824,0
5.679241895675659,0.00019539871673667023,[0.05957227],0.005,0.1,0.0,0.00021786305864888178,0
5.68846869468689,0.0,[0.05969404],0.005,0.1,0.0,0.00021912190103038308,0
5.69744873046875,0.00019539871673667023,[0.0598123],0.005,0.1,0.0,0.00021662299943848125,0
5.705233335494995,0.00019539871673667023,[0.05992637],0.005,0.1,0.0,0.00021601921749569584,0
5.714969635009766,0.00019539871673667023,[0.06003564],0.005,0.1,0.0,0.00021647217044509678,0
5.723566770553589,0.00019539871673667023,[0.06013962],0.005,0.1,0.0,0.00021699171703895158,0
5.733583211898804,0.00019539871673667023,[0.06023798],0.005,0.1,0.0,0.00021757534354778385,0
5.743206977844238,0.00019539871673667023,[0.06033042],0.005,0.1,0.0,0.00021814850507615957,0
5.7542502880096436,0.00019539871673667023,[0.06041673],0.005,0.1,0.0,0.0002188965043204656,0
5.76393461227417,0.00019539871673667023,[0.06049681],0.005,0.1,0.0,0.00021957929534190327,0
5.772812604904175,0.0,[0.06057061],0.005,0.1,0.0,0.00022239881959732675,0
5.781780004501343,0.00019539871673667023,[0.06063814],0.005,0.1,0.0,0.00022097998794133746,0
5.790210247039795,0.00019539871673667023,[0.0606995],0.005,0.1,0.0,0.00022159941870433174,0
5.799821853637695,0.00019539871673667023,[0.06075484],0.005,0.1,0.0,0.00022218856686986285,0
5.808257818222046,0.00019539871673667023,[0.06080437],0.005,0.1,0.0,0.00022272468131570586,0
5.8179612159729,0.00019539871673667023,[0.06084824],0.005,0.1,0.0,0.00022325951464866823,0
5.827819108963013,0.00019539871673667023,[0.06088653],0.005,0.1,0.0,0.00022406024989263698,0
5.835229396820068,0.00019539871673667023,[0.06091922],0.005,0.1,0.0,0.0002246748330675864,0
5.843213081359863,0.00019539871673667023,[0.06094638],0.005,0.1,0.0,0.000225369232349981,0
5.855267286300659,0.00019539871673667023,[0.06096777],0.005,0.1,0.0,0.0002320455359164634,0
5.863229513168335,0.0,[0.06098282],0.005,0.1,0.0,0.00023481996001742806,0
5.873959302902222,0.00019539871673667023,[0.06099071],0.005,0.1,0.0,0.0002538147793927883,0
5.882240056991577,0.00019539871673667023,[0.06099043],0.005,0.1,0.0,0.00025154629521611914,0
5.891633749008179,0.00019539871673667023,[0.06098119],0.005,0.1,0.0,0.00027041006447142983,0
5.900752305984497,0.00019539871673667023,[0.06096198],0.005,0.1,0.0,0.0002947559529615379,0
5.909779787063599,0.00019539871673667023,[0.06093139],0.005,0.1,0.0,0.0003242206193097163,0
5.918263912200928,0.0,[0.06088791],0.005,0.1,0.0,0.0003609887296985565,0
5.927738189697266,0.00019539871673667023,[0.06083006],0.005,0.1,0.0,0.0003966661388528512,0
5.937600612640381,0.00019539871673667023,[0.06075634],0.005,0.1,0.0,0.0004375054634350491,0
5.945191383361816,0.00019539871673667023,[0.06066602],0.005,0.1,0.0,0.0003946945953068241,0
5.954186677932739,0.00019539871673667023,[0.06055901],0.005,0.1,0.0,0.00045076590469353065,0
5.96529483795166,0.00019539871673667023,[0.06043461],0.005,0.1,0.0,0.0005041679661213326,0
5.97625732421875,0.00019539871673667023,[0.06029159],0.005,0.1,0.0,0.0005505479699524123,0
5.984313011169434,0.00019539871673667023,[0.06012898],0.005,0.1,0.0,0.0005859655783368773,0
5.993772745132446,0.00019539871673667023,[0.0599462],0.005,0.1,0.0,0.0006094071263049112,0
6.001965045928955,0.00019539871673667023,[0.05974301],0.005,0.1,0.0,0.0006196079683083388,0
6.014193296432495,0.00019539871673667023,[0.05951897],0.005,0.1,0.0,0.0007427755610255636,0
6.02348256111145,0.00019539871673667023,[0.05927413],0.005,0.1,0.0,0.0005702231218470699,0
6.0317466259002686,0.00019539871673667023,[0.05901036],0.005,0.1,0.0,0.0005563899867689667,0
6.043211936950684,0.00019539871673667023,[0.05872976],0.005,0.1,0.0,0.0005337070715348155,0
6.052698373794556,0.00019539871673667023,[0.05843395],0.005,0.1,0.0,0.0005046118075877584,0
6.0622241497039795,0.0,[0.05812483],0.005,0.1,0.0,0.00047411127654209363,0
6.070220708847046,0.00019539871673667023,[0.05780494],0.005,0.1,0.0,0.0003788551916982694,0
6.079067945480347,0.00019539871673667023,[0.05747729],0.005,0.1,0.0,0.00036677946545583015,0
6.090051889419556,0.00019539871673667023,[0.05714434],0.005,0.1,0.0,0.0003484560299294283,0
6.099102020263672,0.00019539871673667023,[0.05680808],0.005,0.1,0.0,0.00032618866648986383,0
6.1072070598602295,0.00019539871673667023,[0.05647085],0.005,0.1,0.0,0.0002748623615643367,0
6.116260051727295,0.00019539871673667023,[0.05613523],0.005,0.1,0.0,0.0002641160133394482,0
6.125755071640015,0.00019539871673667023,[0.05580328],0.005,0.1,0.0,0.00025045628909667046,0
6.134721279144287,0.00019539871673667023,[0.05547664],0.005,0.1,0.0,0.00023550892329173427,0
6.143192768096924,0.0,[0.05515709],0.005,0.1,0.0,0.0002113789476600065,0
6.15221095085144,0.00019539871673667023,[0.05484643],0.005,0.1,0.0,0.00020122401979118208,0
6.16121244430542,0.00019539871673667023,[0.05454609],0.005,0.1,0.0,0.000192219197279427,0
6.17023491859436,0.00019539871673667023,[0.05425712],0.005,0.1,0.0,0.00018341073481053898,0
6.179772138595581,0.00019539871673667023,[0.05398047],0.005,0.1,0.0,0.0001751972617770071,0
6.188182830810547,0.00019539871673667023,[0.05371705],0.005,0.1,0.0,0.00016542063969312914,0
6.196181058883667,0.00019539871673667023,[0.05346767],0.005,0.1,0.0,0.00016065913325898602,0
6.204568862915039,0.0,[0.0532329],0.005,0.1,0.0,0.0001578506470634262,0
6.212188243865967,0.00019539871673667023,[0.05301308],0.005,0.1,0.0,0.00015153602941818376,0
6.221231460571289,0.00019539871673667023,[0.05280847],0.005,0.1,0.0,0.00014864335167084046,0
6.2318336963653564,0.00019539871673667023,[0.05261913],0.005,0.1,0.0,0.00014624502507591626,0
6.240234851837158,0.00019539871673667023,[0.05244493],0.005,0.1,0.0,0.0001438044644716038,0
6.2522125244140625,0.0,[0.05228573],0.005,0.1,0.0,0.00014351765999086831,0
6.2601964473724365,0.00019539871673667023,[0.05214215],0.005,0.1,0.0,0.00015128736850111594,0
6.271636962890625,0.00019539871673667023,[0.05201911],0.005,0.1,0.0,0.00045229084722526867,0
6.2817113399505615,0.00019539871673667023,[0.0519268],0.005,0.1,0.0,0.0008961627970683504,0
6.291449785232544,0.00019539871673667023,[0.05187669],0.005,0.1,0.0,0.0015246670922877295,0
6.300241231918335,0.00019539871673667023,[0.05187965],0.005,0.1,0.0,0.0022618719630772277,0
6.308230400085449,0.00019539871673667023,[0.05194354],0.005,0.1,0.0,0.0019756975300941858,0
6.318434476852417,0.00019539871673667023,[0.05207286],0.005,0.1,0.0,0.0028153285228499545,0
6.32723331451416,0.00019539871673667023,[0.05227369],0.005,0.1,0.0,0.0035676621322740802,0
6.3375937938690186,0.00019539871673667023,[0.05255303],0.005,0.1,0.0,0.004155068875647519,0
6.34518027305603,0.00019539871673667023,[0.05291323],0.005,0.1,0.0,0.0032287961862231223,0
6.355291128158569,0.00019539871673667023,[0.0533524],0.005,0.1,0.0,0.0038165555308887363,0
6.363396644592285,0.0,[0.05387001],0.005,0.1,0.0,0.004197945948356672,0
6.37345552444458,0.00019539871673667023,[0.05446637],0.005,0.1,0.0,0.004332123084565889,0
6.382190942764282,0.00019539871673667023,[0.05513768],0.005,0.1,0.0,0.003199449746135986,0
6.391520261764526,0.00019539871673667023,[0.05587673],0.005,0.1,0.0,0.003423925338087891,0
6.4012041091918945,0.00019539871673667023,[0.05667776],0.005,0.1,0.0,0.0034605613749442315,0
6.411534070968628,0.00019539871673667023,[0.05753618],0.005,0.1,0.0,0.003350918531135166,0
6.420962572097778,0.00019539871673667023,[0.05844612],0.005,0.1,0.0,0.0031410064735930714,0
6.43120551109314,0.00019539871673667023,[0.05940078],0.005,0.1,0.0,0.002871542327595714,0
6.442129373550415,0.00019539871673667023,[0.06039381],0.005,0.1,0.0,0.0031392682041010947,0
6.450606346130371,0.00019539871673667023,[0.06141928],0.005,0.1,0.0,0.002579471779924644,0
6.458183526992798,0.00019539871673667023,[0.0624682],0.005,0.1,0.0,0.0017598601886992314,0
6.466444969177246,0.00019539871673667023,[0.06352946],0.005,0.1,0.0,0.0015586875849628653,0
6.474167108535767,0.00019539871673667023,[0.06459295],0.005,0.1,0.0,0.0011357236200285564,0
6.484190940856934,0.0,[0.06564958],0.005,0.1,0.0,0.001064897202528449,0
6.493948459625244,0.00019539871673667023,[0.06669185],0.005,0.1,0.0,0.0009670281509088417,0
6.50454044342041,0.00019539871673667023,[0.06771416],0.005,0.1,0.0,0.0009837455896113533,0
6.5124876499176025,0.00019539871673667023,[0.06871128],0.005,0.1,0.0,0.000742322273423852,0
6.5202085971832275,0.00019539871673667023,[0.06967702],0.005,0.1,0.0,0.0006023266174918245,0
6.530479669570923,0.00019539871673667023,[0.07060485],0.005,0.1,0.0,0.000475678926119216,0
6.540843725204468,0.00019539871673667023,[0.07148879],0.005,0.1,0.0,0.0004194801915807279,0
6.55120587348938,0.00019539871673667023,[0.0723238],0.005,0.1,0.0,0.00039638000730054645,0
6.560266017913818,0.00019539871673667023,[0.07310599],0.005,0.1,0.0,0.00039182141816819315,0
6.5691657066345215,0.00019539871673667023,[0.07383258],0.005,0.1,0.0,0.0003997927790801133,0
6.578186511993408,0.00019539871673667023,[0.07450177],0.005,0.1,0.0,0.00041305398998184095,0
6.589200735092163,0.00019539871673667023,[0.07511191],0.005,0.1,0.0,0.00044950770022791794,0
6.598208665847778,0.00019539871673667023,[0.07566178],0.005,0.1,0.0,0.0004603621674055183,0
6.60618782043457,0.00019539871673667023,[0.07615166],0.005,0.1,0.0,0.0004715360444389577,0
6.615187406539917,0.00019539871673667023,[0.07658254],0.005,0.1,0.0,0.0005147503735518455,0
6.623323678970337,0.00019539871673667023,[0.07695493],0.005,0.1,0.0,0.0005675273555295119,0
6.631183862686157,0.00019539871673667023,[0.07726976],0.005,0.1,0.0,0.0005626182461650009,0
6.641774415969849,0.00019539871673667023,[0.07752806],0.005,0.1,0.0,0.0007217420528915022,0
6.651656866073608,0.00019539871673667023,[0.07772989],0.005,0.1,0.0,0.0007898832570933839,0
6.6591832637786865,0.00019539871673667023,[0.07787631],0.005,0.1,0.0,0.0007308190498767918,0
6.670160531997681,0.00019539871673667023,[0.07796984],0.005,0.1,0.0,0.0008218187995609119,0
6.680216312408447,0.00019539871673667023,[0.07801234],0.005,0.1,0.0,0.0009087704694465508,0
6.689214468002319,0.00019539871673667023,[0.07800587],0.005,0.1,0.0,0.0008202398645321195,0
6.699289798736572,0.00019539871673667023,[0.07795344],0.005,0.1,0.0,0.0009157077836586421,0
6.708958387374878,0.00019539871673667023,[0.07785733],0.005,0.1,0.0,0.0009904343805265817,0
6.7206056118011475,0.00019539871673667023,[0.0777185],0.005,0.1,0.0,0.0012387318755802293,0
6.7303626537323,0.00019539871673667023,[0.07753766],0.005,0.1,0.0,0.0011966817075251524,0
6.740875244140625,0.00019539871673667023,[0.07731695],0.005,0.1,0.0,0.0011469161010177384,0
6.752168416976929,0.00019539871673667023,[0.07705969],0.005,0.1,0.0,0.001091043109604927,0
6.761193037033081,0.00019539871673667023,[0.07676947],0.005,0.1,0.0,0.0010301431779983618,0
6.770562648773193,0.00019539871673667023,[0.07645007],0.005,0.1,0.0,0.0009664650832398378,0
6.77820086479187,0.00019539871673667023,[0.07610593],0.005,0.1,0.0,0.0007925295121456673,0
6.786356210708618,0.00019539871673667023,[0.075742],0.005,0.1,0.0,0.000771501440212584,0
6.794207811355591,0.00019539871673667023,[0.07536288],0.005,0.1,0.0,0.000661626256192165,0
6.804181814193726,0.00019539871673667023,[0.0749729],0.005,0.1,0.0,0.0006530863894607047,0
6.813685178756714,0.00019539871673667023,[0.07457565],0.005,0.1,0.0,0.0006320692532401373,0
6.8241868019104,0.00019539871673667023,[0.07417409],0.005,0.1,0.0,0.0006032676553658889,0
6.833288908004761,0.00019539871673667023,[0.07377083],0.005,0.1,0.0,0.0006117778644841662,0
6.843267917633057,0.00019539871673667023,[0.07336842],0.005,0.1,0.0,0.0005269184257454667,0
6.852151155471802,0.00019539871673667023,[0.07296992],0.005,0.1,0.0,0.0004981522866160748,0
6.86213493347168,0.00019539871673667023,[0.07257817],0.005,0.1,0.0,0.0004708943370137062,0
6.872152805328369,0.00019539871673667023,[0.07219546],0.005,0.1,0.0,0.00044596413298494513,0
6.882136821746826,0.00019539871673667023,[0.07182385],0.005,0.1,0.0,0.00042372439721502535,0
6.893222332000732,0.00019539871673667023,[0.07146518],0.005,0.1,0.0,0.0004044800055287145,0
6.903166055679321,0.00019539871673667023,[0.07112107],0.005,0.1,0.0,0.00038791742880514053,0
6.912185907363892,0.00019539871673667023,[0.07079288],0.005,0.1,0.0,0.000374125566560972,0
6.921187877655029,0.00019539871673667023,[0.07048179],0.005,0.1,0.0,0.0003605006519191612,0
6.935025453567505,0.00019539871673667023,[0.07018873],0.005,0.1,0.0,0.0003536873131989359,0
6.9462361335754395,0.00019539871673667023,[0.06991427],0.005,0.1,0.0,0.00034570464530161765,0
6.960230588912964,0.0,[0.06965878],0.005,0.1,0.0,0.00034223591005819225,0
6.968251705169678,0.00019539871673667023,[0.06942251],0.005,0.1,0.0,0.00033359476934877115,0
6.979630947113037,0.00019539871673667023,[0.06920734],0.005,0.1,0.0,0.00038922634676188066,0
6.990985631942749,0.00019539871673667023,[0.06902017],0.005,0.1,0.0,0.0008942478975560271,0
7.0002758502960205,0.00019539871673667023,[0.06887004],0.005,0.1,0.0,0.0009240120355613812,0
7.009563446044922,0.00019539871673667023,[0.06876368],0.005,0.1,0.0,0.001501655701392117,0
7.020245552062988,0.00019539871673667023,[0.06870827],0.005,0.1,0.0,0.0021741220630760614,0
7.031443357467651,0.00019539871673667023,[0.0687142],0.005,0.1,0.0,0.0039823680258212575,0
7.042294502258301,0.00019539871673667023,[0.06879245],0.005,0.1,0.0,0.004309459021941999,0
7.050251483917236,0.00019539871673667023,[0.06894761],0.005,0.1,0.0,0.0033095733668671396,0
7.062491416931152,0.00019539871673667023,[0.06918042],0.005,0.1,0.0,0.00503179873401402,0
7.072258710861206,0.00019539871673667023,[0.06949428],0.005,0.1,0.0,0.004907409659393342,0
7.080194473266602,0.00019539871673667023,[0.06988861],0.005,0.1,0.0,0.0035790197290576356,0
7.089171409606934,0.00019539871673667023,[0.07035727],0.005,0.1,0.0,0.00370378361031199,0
7.098267078399658,0.00019539871673667023,[0.07089535],0.005,0.1,0.0,0.003687574152191034,0
7.109373331069946,0.00019539871673667023,[0.07149885],0.005,0.1,0.0,0.0035535194908161067,0
7.1176064014434814,0.00019539871673667023,[0.07216258],0.005,0.1,0.0,0.0033365840512288875,0
7.126779079437256,0.00019539871673667023,[0.0728804],0.005,0.1,0.0,0.003072049959498066,0
7.136429309844971,0.00019539871673667023,[0.07364543],0.005,0.1,0.0,0.002784816206661468,0
7.1452317237854,0.00019539871673667023,[0.0744492],0.005,0.1,0.0,0.002025973354316002,0
7.155714511871338,0.00019539871673667023,[0.0752831],0.005,0.1,0.0,0.0023459469617611093,0
7.166780233383179,0.00019539871673667023,[0.0761407],0.005,0.1,0.0,0.002037724549313504,0
7.176968336105347,0.00019539871673667023,[0.07701538],0.005,0.1,0.0,0.0017661069252973395,0
7.185939788818359,0.00019539871673667023,[0.07789943],0.005,0.1,0.0,0.0015323087726930018,0
7.196354150772095,0.00019539871673667023,[0.07878543],0.005,0.1,0.0,0.0013357100005300722,0
7.205128908157349,0.00019539871673667023,[0.07966589],0.005,0.1,0.0,0.0010477216968114802,0
7.218167304992676,0.00019539871673667023,[0.08053387],0.005,0.1,0.0,0.0010752345614112027,0
7.22715163230896,0.00019539871673667023,[0.08138403],0.005,0.1,0.0,0.000956297285794823,0
7.235227584838867,0.00019539871673667023,[0.08221155],0.005,0.1,0.0,0.0008641019057011619,0
7.245431661605835,0.00019539871673667023,[0.08301164],0.005,0.1,0.0,0.0007956620058893351,0
7.253247261047363,0.00019539871673667023,[0.08377996],0.005,0.1,0.0,0.0007223844766750793,0
7.261145353317261,0.00019539871673667023,[0.08451286],0.005,0.1,0.0,0.0007179505931372614,0
7.27122950553894,0.00019539871673667023,[0.0852076],0.005,0.1,0.0,0.0006841179375455024,0
7.282124042510986,0.00019539871673667023,[0.08586198],0.005,0.1,0.0,0.0006761797125846512,0
7.2901291847229,0.00019539871673667023,[0.08647438],0.005,0.1,0.0,0.0006729235082095889,0
7.300739049911499,0.00019539871673667023,[0.08704381],0.005,0.1,0.0,0.0006734194760198061,0
7.316062688827515,0.00019539871673667023,[0.08756979],0.005,0.1,0.0,0.000676262837744887,0
7.327144145965576,0.00019539871673667023,[0.08805222],0.005,0.1,0.0,0.0006822894274509801,0
7.336431503295898,0.00019539871673667023,[0.08849143],0.005,0.1,0.0,0.0006896278625035656,0
7.34738302230835,0.00019539871673667023,[0.08888803],0.005,0.1,0.0,0.000698224249270072,0
7.360860347747803,0.00019539871673667023,[0.08924259],0.005,0.1,0.0,0.0007131316150855434,0
7.3694748878479,0.00019539871673667023,[0.08955555],0.005,0.1,0.0,0.0007312771503129391,0
7.379187822341919,0.00019539871673667023,[0.08982773],0.005,0.1,0.0,0.0007394666160855528,0
7.3882317543029785,0.00019539871673667023,[0.09006032],0.005,0.1,0.0,0.0007673821990094911,0
7.3967812061309814,0.00019539871673667023,[0.0902542],0.005,0.1,0.0,0.0008045895175475084,0
7.408483266830444,0.00019539871673667023,[0.09040938],0.005,0.1,0.0,0.0009159615302199488,0
7.417303085327148,0.00019539871673667023,[0.09052589],0.005,0.1,0.0,0.000889080905143044,0
7.426228284835815,0.00019539871673667023,[0.09060467],0.005,0.1,0.0,0.0009581916073409207,0
7.435660362243652,0.00019539871673667023,[0.09064656],0.005,0.1,0.0,0.0010366822493918131,0
7.44322943687439,0.00019539871673667023,[0.09065245],0.005,0.1,0.0,0.0009886982767968496,0
7.453322172164917,0.00019539871673667023,[0.09062385],0.005,0.1,0.0,0.001092264829527295,0
7.461531162261963,0.00019539871673667023,[0.09056149],0.005,0.1,0.0,0.0011986953816799585,0
7.471334457397461,0.00019539871673667023,[0.0904654],0.005,0.1,0.0,0.0013002662820452973,0
7.481626510620117,0.00019539871673667023,[0.09033574],0.005,0.1,0.0,0.0013913253836024516,0
7.49014139175415,0.00019539871673667023,[0.09017287],0.005,0.1,0.0,0.0014639197073330707,0
7.49826192855835,0.00019539871673667023,[0.08997824],0.005,0.1,0.0,0.0012803279541486801,0
7.508143186569214,0.00019539871673667023,[0.08975433],0.005,0.1,0.0,0.0013684648908606969,0
7.517128944396973,0.00019539871673667023,[0.08950365],0.005,0.1,0.0,0.001210672864166414,0
7.526203870773315,0.00019539871673667023,[0.08922875],0.005,0.1,0.0,0.0012930065089358496,0
7.536198616027832,0.00019539871673667023,[0.08893144],0.005,0.1,0.0,0.0013371669944743484,0
7.547138929367065,0.00019539871673667023,[0.088613],0.005,0.1,0.0,0.0013452321878383818,0
7.557207822799683,0.00019539871673667023,[0.08827504],0.005,0.1,0.0,0.0013238203389713454,0
7.567595958709717,0.00019539871673667023,[0.08791893],0.005,0.1,0.0,0.0014539414210608796,0
7.577228546142578,0.00019539871673667023,[0.08754583],0.005,0.1,0.0,0.001327839438701875,0
7.586994886398315,0.00019539871673667023,[0.08715802],0.005,0.1,0.0,0.0012156947380372368,0
7.595139980316162,0.00019539871673667023,[0.08675909],0.005,0.1,0.0,0.0010158562276240733,0
7.604186296463013,0.00019539871673667023,[0.08635302],0.005,0.1,0.0,0.0009718514425995409,0
7.614956855773926,0.00019539871673667023,[0.08594308],0.005,0.1,0.0,0.0009231545601940107,0
7.623855113983154,0.00019539871673667023,[0.08553194],0.005,0.1,0.0,0.0008718398911037897,0
7.6364264488220215,0.00019539871673667023,[0.08512194],0.005,0.1,0.0,0.0008690607422927282,0
7.644567251205444,0.00019539871673667023,[0.08471513],0.005,0.1,0.0,0.0007994808823448968,0
7.6522016525268555,0.00019539871673667023,[0.08431409],0.005,0.1,0.0,0.0007167908667007223,0
7.664834499359131,0.00019539871673667023,[0.08392155],0.005,0.1,0.0,0.000705008762255803,0
7.674368858337402,0.00019539871673667023,[0.08353968],0.005,0.1,0.0,0.0006513441913757347,0
7.68538498878479,0.00019539871673667023,[0.08317043],0.005,0.1,0.0,0.0006375840848543735,0
7.695211887359619,0.00019539871673667023,[0.08281543],0.005,0.1,0.0,0.0006106846318666588,0
7.707625150680542,0.00019539871673667023,[0.08247599],0.005,0.1,0.0,0.0005932623952757817,0
7.717123508453369,0.00019539871673667023,[0.08215337],0.005,0.1,0.0,0.0005710165871833959,0
7.727273464202881,0.00019539871673667023,[0.08184871],0.005,0.1,0.0,0.0005577907496795831,0
7.737427473068237,0.00019539871673667023,[0.08156287],0.005,0.1,0.0,0.0005471616794900102,0
7.747118234634399,0.00019539871673667023,[0.0812964],0.005,0.1,0.0,0.0005384377055189378,0
7.757202386856079,0.00019539871673667023,[0.08104963],0.005,0.1,0.0,0.000531345156623475,0
7.766479015350342,0.00019539871673667023,[0.08082312],0.005,0.1,0.0,0.0005266437481001488,0
7.7762086391448975,0.00019539871673667023,[0.08061907],0.005,0.1,0.0,0.0005946108471101027,0
7.784086465835571,0.00019539871673667023,[0.08044106],0.005,0.1,0.0,0.0006468084097302507,0
7.79412841796875,0.00019539871673667023,[0.08029334],0.005,0.1,0.0,0.0009576051617498192,0
7.80474591255188,0.00019539871673667023,[0.08018377],0.005,0.1,0.0,0.002028378912775943,0
7.813601493835449,0.00019539871673667023,[0.08012304],0.005,0.1,0.0,0.002579154811454534,0
7.822096109390259,0.00019539871673667023,[0.0801159],0.005,0.1,0.0,0.0025843448079234,0
7.830140590667725,0.00019539871673667023,[0.08016124],0.005,0.1,0.0,0.003107194295364202,0
7.839696168899536,0.00019539871673667023,[0.08026131],0.005,0.1,0.0,0.0035591992715547183,0
7.84780478477478,0.00019539871673667023,[0.08042105],0.005,0.1,0.0,0.003903012568832993,0
7.857192039489746,0.00019539871673667023,[0.08064389],0.005,0.1,0.0,0.004121735000696571,0
7.866519451141357,0.00019539871673667023,[0.08093164],0.005,0.1,0.0,0.00420846641852823,0
7.874440908432007,0.00019539871673667023,[0.08128456],0.005,0.1,0.0,0.004183743317294191,0
7.883203029632568,0.00019539871673667023,[0.08169983],0.005,0.1,0.0,0.0031464079633126657,0
7.893116235733032,0.00019539871673667023,[0.08217357],0.005,0.1,0.0,0.004149115353720863,0
7.902174949645996,0.00019539871673667023,[0.08270272],0.005,0.1,0.0,0.0030427871928624403,0
7.912194013595581,0.00019539871673667023,[0.08328191],0.005,0.1,0.0,0.0029983740189494473,0
7.922975540161133,0.00019539871673667023,[0.08390625],0.005,0.1,0.0,0.003502472312282445,0
7.933798551559448,0.00019539871673667023,[0.08457267],0.005,0.1,0.0,0.0030576440930264984,0
7.942773342132568,0.00019539871673667023,[0.08527491],0.005,0.1,0.0,0.0022359641536860977,0
7.952186584472656,0.00019539871673667023,[0.08600426],0.005,0.1,0.0,0.00208944555556589,0
7.961525201797485,0.00019539871673667023,[0.08675335],0.005,0.1,0.0,0.0019273349995043692,0
7.970132827758789,0.00019539871673667023,[0.08751523],0.005,0.1,0.0,0.0015236040575074261,0
7.9812328815460205,0.00019539871673667023,[0.08828315],0.005,0.1,0.0,0.0016696007556552188,0
7.989140033721924,0.00019539871673667023,[0.08905148],0.005,0.1,0.0,0.0013439230903543372,0
7.997847080230713,0.00019539871673667023,[0.08981434],0.005,0.1,0.0,0.0012735750734539789,0
8.006178379058838,0.00019539871673667023,[0.09056621],0.005,0.1,0.0,0.00120084516294341,0
8.01711916923523,0.00019539871673667023,[0.09130261],0.005,0.1,0.0,0.0011311846712835543,0
8.02549934387207,0.00019539871673667023,[0.0920191],0.005,0.1,0.0,0.0010146448349010952,0
8.035081386566162,0.00019539871673667023,[0.09271144],0.005,0.1,0.0,0.0009915554417159603,0
8.046334505081177,0.00019539871673667023,[0.09337654],0.005,0.1,0.0,0.0009974360659980423,0
8.054924249649048,0.00019539871673667023,[0.09401206],0.005,0.1,0.0,0.0009402450893112033,0
8.064228773117065,0.00019539871673667023,[0.09461565],0.005,0.1,0.0,0.0009261924684316169,0
8.072691202163696,0.00019539871673667023,[0.09518537],0.005,0.1,0.0,0.0009167226589375675,0
8.08192753791809,0.00019539871673667023,[0.09571996],0.005,0.1,0.0,0.0009117653917626098,0
8.090075969696045,0.00019539871673667023,[0.09621846],0.005,0.1,0.0,0.0009086073875456297,0
8.099098920822144,0.00019539871673667023,[0.09668034],0.005,0.1,0.0,0.0009129716278025074,0
8.108083009719849,0.00019539871673667023,[0.09710546],0.005,0.1,0.0,0.0009186964793406234,0
8.118273496627808,0.00019539871673667023,[0.09749411],0.005,0.1,0.0,0.0009256564274216662,0
8.126119613647461,0.00019539871673667023,[0.09784689],0.005,0.1,0.0,0.0009338447042345076,0
8.134227991104126,0.00019539871673667023,[0.09816475],0.005,0.1,0.0,0.00094206853781953,0
8.143085718154907,0.00019539871673667023,[0.09844895],0.005,0.1,0.0,0.0009498452181796503,0
8.152158737182617,0.00019539871673667023,[0.09870102],0.005,0.1,0.0,0.0009569479181963759,0
8.163658380508423,0.00019539871673667023,[0.09892263],0.005,0.1,0.0,0.0009632971662832542,0
8.171975135803223,0.00019539871673667023,[0.09911562],0.005,0.1,0.0,0.0009689089248426601,0
8.181580781936646,0.00019539871673667023,[0.09928187],0.005,0.1,0.0,0.0009737783720437399,0
8.18909740447998,0.00019539871673667023,[0.09942337],0.005,0.1,0.0,0.0009779519671729402,0
8.198096752166748,0.00019539871673667023,[0.09954207],0.005,0.1,0.0,0.000981464989187772,0
8.209091424942017,0.00019539871673667023,[0.09963996],0.005,0.1,0.0,0.0009843727717656558,0
8.21811580657959,0.00019539871673667023,[0.09971897],0.005,0.1,0.0,0.0009867259941300484,0
8.233047008514404,0.00019539871673667023,[0.09978097],0.005,0.1,0.0,0.0009885743644329607,0
8.24492883682251,0.00019539871673667023,[0.09982777],0.005,0.1,0.0,0.0009899735388511043,0
8.253463506698608,0.00019539871673667023,[0.09986108],0.005,0.1,0.0,0.000990971451937871,0
8.26108980178833,0.00019539871673667023,[0.09988256],0.005,0.1,0.0,0.0009916173835510362,0
8.270398139953613,0.00019539871673667023,[0.09989374],0.005,0.1,0.0,0.000991954076446374,0
8.278400421142578,0.00019539871673667023,[0.09989605],0.005,0.1,0.0,0.0009920262044962344,0
8.287102937698364,0.00019539871673667023,[0.09989084],0.005,0.1,0.0,0.0009918725897187072,0
8.29639196395874,0.00019539871673667023,[0.09987932],0.005,0.1,0.0,0.0009915303893616473,0
8.306479930877686,0.00019539871673667023,[0.0998626],0.005,0.1,0.0,0.0009910332546460097,0
8.314170122146606,0.00019539871673667023,[0.0998417],0.005,0.1,0.0,0.0009904110672896373,0
8.323079109191895,0.00019539871673667023,[0.09981753],0.005,0.1,0.0,0.000989691673048544,0
8.331079244613647,0.00019539871673667023,[0.0997909],0.005,0.1,0.0,0.0009888984800602864,0
8.342063903808594,0.00019539871673667023,[0.09976254],0.005,0.1,0.0,0.0009880542169189055,0
8.352600336074829,0.00019539871673667023,[0.09973307],0.005,0.1,0.0,0.0009871762379342404,0
8.362688541412354,0.00019539871673667023,[0.09970304],0.005,0.1,0.0,0.0009862831069950707,0
8.373170614242554,0.00019539871673667023,[0.09967292],0.005,0.1,0.0,0.000985387477287975,0
8.384470701217651,0.00019539871673667023,[0.09964311],0.005,0.1,0.0,0.0009845017114086003,0
8.39306116104126,0.00019539871673667023,[0.09961395],0.005,0.1,0.0,0.000983635856099719,0
8.40268611907959,0.00019539871673667023,[0.09958571],0.005,0.1,0.0,0.0009827968113409191,0
8.410104751586914,0.00019539871673667023,[0.09955862],0.005,0.1,0.0,0.0009819936865667698,0
8.419165849685669,0.00019539871673667023,[0.09953285],0.005,0.1,0.0,0.0009812284226571185,0
8.430136680603027,0.00019539871673667023,[0.09950853],0.005,0.1,0.0,0.0009805077826224176,0
8.439180612564087,0.00019539871673667023,[0.09948574],0.005,0.1,0.0,0.000979831710476838,0
8.447169542312622,0.00019539871673667023,[0.09946456],0.005,0.1,0.0,0.0009792049301719158,0
8.457202911376953,0.00019539871673667023,[0.099445],0.005,0.1,0.0,0.0009786246926644095,0
8.467100858688354,0.00019539871673667023,[0.09942706],0.005,0.1,0.0,0.0009780933701841387,0
8.480939626693726,0.00019539871673667023,[0.09941073],0.005,0.1,0.0,0.0009776123618472805,0
8.490086317062378,0.00019539871673667023,[0.09939599],0.005,0.1,0.0,0.0009771792252746922,0
8.498048543930054,0.00019539871673667023,[0.09938278],0.005,0.1,0.0,0.0009767882660051766,0
8.509741067886353,0.00019539871673667023,[0.09937105],0.005,0.1,0.0,0.0009764470031999252,0
8.518135070800781,0.00019539871673667023,[0.09936074],0.005,0.1,0.0,0.0009761453948831343,0
8.526674509048462,0.00019539871673667023,[0.09935179],0.005,0.1,0.0,0.0009758838151262739,0
8.534082889556885,0.00019539871673667023,[0.09934412],0.005,0.1,0.0,0.000975654331653144,0
8.54595136642456,0.00019539871673667023,[0.09933765],0.005,0.1,0.0,0.000975473980427059,0
8.556221961975098,0.00019539871673667023,[0.0993323],0.005,0.1,0.0,0.0009753163085394236,0
8.564053297042847,0.00019539871673667023,[0.099328],0.005,0.1,0.0,0.000975183652746146,0
8.572328090667725,0.00019539871673667023,[0.09932466],0.005,0.1,0.0,0.0009750864220171595,0
8.581462860107422,0.00019539871673667023,[0.09932219],0.005,0.1,0.0,0.0009750148488457485,0
8.590382099151611,0.00019539871673667023,[0.09932051],0.005,0.1,0.0,0.0009749663978385216,0
8.598366260528564,0.00019539871673667023,[0.09931954],0.005,0.1,0.0,0.0009749388572313414,0
8.608035326004028,0.00019539871673667023,[0.09931921],0.005,0.1,0.0,0.0009749206903862812,0
8.616149187088013,0.00019539871673667023,[0.09931943],0.005,0.1,0.0,0.0009749279216062318,0
8.62858510017395,0.00019539871673667023,[0.09932014],0.005,0.1,0.0,0.0009749502205651926,0
8.638514995574951,0.00019539871673667023,[0.09932126],0.005,0.1,0.0,0.0009749864373101073,0
8.64606237411499,0.00019539871673667023,[0.09932275],0.005,0.1,0.0,0.0009750301646231381,0
8.65606427192688,0.00019539871673667023,[0.09932452],0.005,0.1,0.0,0.0009750759564017163,0
8.666044473648071,0.00019539871673667023,[0.09932652],0.005,0.1,0.0,0.0009751325775187648,0
8.677154302597046,0.00019539871673667023,[0.09932871],0.005,0.1,0.0,0.0009751977561154454,0
8.693305492401123,0.00019539871673667023,[0.09933103],0.005,0.1,0.0,0.0009752693997972004,0
8.701374530792236,0.00019539871673667023,[0.09933346],0.005,0.1,0.0,0.0009753367652018988,0
8.710068702697754,0.00019539871673667023,[0.09933596],0.005,0.1,0.0,0.000975406791267699,0
8.720711708068848,0.00019539871673667023,[0.09933849],0.005,0.1,0.0,0.0009754787646186482,0
8.73061203956604,0.00019539871673667023,[0.09934101],0.005,0.1,0.0,0.0009755508271135997,0
8.738154411315918,0.00019539871673667023,[0.0993435],0.005,0.1,0.0,0.0009756228644567764,0
8.748149871826172,0.00019539871673667023,[0.09934594],0.005,0.1,0.0,0.000975695299628798,0
8.756413221359253,0.00019539871673667023,[0.0993483],0.005,0.1,0.0,0.0009757632964023167,0
8.765211343765259,0.00019539871673667023,[0.09935057],0.005,0.1,0.0,0.0009758297217204954,0
8.775083780288696,0.00019539871673667023,[0.09935274],0.005,0.1,0.0,0.0009758936869818921,0
8.788208723068237,0.00019539871673667023,[0.09935479],0.005,0.1,0.0,0.0009759550273742312,0
8.79806137084961,0.00019539871673667023,[0.09935673],0.005,0.1,0.0,0.0009760096000072343,0
8.807493209838867,0.00019539871673667023,[0.09935854],0.005,0.1,0.0,0.0009760632891042734,0
8.81807804107666,0.00019539871673667023,[0.09936021],0.005,0.1,0.0,0.0009761125128500532,0
8.827347755432129,0.00019539871673667023,[0.09936176],0.005,0.1,0.0,0.000976157102931786,0
8.83505916595459,0.00019539871673667023,[0.09936317],0.005,0.1,0.0,0.0009761986331153603,0
8.845666408538818,0.00019539871673667023,[0.09936444],0.005,0.1,0.0,0.000976236457021302,0
8.854068040847778,0.00019539871673667023,[0.09936559],0.005,0.1,0.0,0.0009762707521218674,0
8.863580226898193,0.00019539871673667023,[0.09936662],0.005,0.1,0.0,0.0009763021838243771,0
8.871161699295044,0.00019539871673667023,[0.09936753],0.005,0.1,0.0,0.0009763288514029757,0
8.882374048233032,0.00019539871673667023,[0.09936834],0.005,0.1,0.0,0.0009763514738159132,0
8.89005422592163,0.00019539871673667023,[0.09936904],0.005,0.1,0.0,0.0009763721984483836,0
8.89814829826355,0.00019539871673667023,[0.09936964],0.005,0.1,0.0,0.0009763916928545472,0
8.907061338424683,0.00019539871673667023,[0.09937016],0.005,0.1,0.0,0.0009764051689784321,0
8.915069103240967,0.00019539871673667023,[0.09937059],0.005,0.1,0.0,0.0009764183310326372,0
8.925065279006958,0.00019539871673667023,[0.09937095],0.005,0.1,0.0,0.0009764295271652618,0
8.935083627700806,0.00019539871673667023,[0.09937124],0.005,0.1,0.0,0.0009764372025378882,0
8.94486665725708,0.00019539871673667023,[0.09937147],0.005,0.1,0.0,0.0009764437846837021,0
8.954561948776245,0.00019539871673667023,[0.09937163],0.005,0.1,0.0,0.0009764495554248361,0
8.96380090713501,0.00019539871673667023,[0.09937175],0.005,0.1,0.0,0.0009764530327203715,0
8.973100900650024,0.00019539871673667023,[0.09937183],0.005,0.1,0.0,0.000976455443215941,0
8.984393835067749,0.00019539871673667023,[0.09937187],0.005,0.1,0.0,0.0009764560889308406,0
8.992138862609863,0.00019539871673667023,[0.09937187],0.005,0.1,0.0,0.0009764562619473753,0
9.001664161682129,0.00019539871673667023,[0.09937185],0.005,0.1,0.0,0.0009764559563250535,0
9.012119054794312,0.00019539871673667023,[0.0993718],0.005,0.1,0.0,0.0009764539306359758,0
9.02153754234314,0.00019539871673667023,[0.09937173],0.005,0.1,0.0,0.0009764523493512755,0
9.033035516738892,0.00019539871673667023,[0.09937165],0.005,0.1,0.0,0.0009764505476641727,0
9.043083190917969,0.00019539871673667023,[0.09937155],0.005,0.1,0.0,0.0009764472867566725,0
9.05428433418274,0.00019539871673667023,[0.09937145],0.005,0.1,0.0,0.0009764445467792362,0
9.063626527786255,0.00019539871673667023,[0.09937134],0.005,0.1,0.0,0.0009764403386668302,0
9.072378873825073,0.00019539871673667023,[0.09937123],0.005,0.1,0.0,0.0009764379420730962,0
9.083219766616821,0.00019539871673667023,[0.09937112],0.005,0.1,0.0,0.0009764348236685058,0
9.091841220855713,0.00019539871673667023,[0.099371],0.005,0.1,0.0,0.0009764313424585338,0
9.101715564727783,0.00019539871673667023,[0.09937089],0.005,0.1,0.0,0.0009764280105651758,0
9.110073328018188,0.00019539871673667023,[0.09937079],0.005,0.1,0.0,0.0009764247289275495,0
9.120216846466064,0.00019539871673667023,[0.09937069],0.005,0.1,0.0,0.0009764212430885068,0
9.129154443740845,0.00019539871673667023,[0.09937059],0.005,0.1,0.0,0.0009764179487962422,0
9.138282775878906,0.00019539871673667023,[0.0993705],0.005,0.1,0.0,0.000976416098735683,0
9.14648985862732,0.00019539871673667023,[0.09937041],0.005,0.1,0.0,0.0009764138016729007,0
9.15418529510498,0.00019539871673667023,[0.09937033],0.005,0.1,0.0,0.0009764112182878226,0
9.165160417556763,0.00019539871673667023,[0.09937025],0.005,0.1,0.0,0.0009764088891446611,0
9.17317795753479,0.00019539871673667023,[0.09937018],0.005,0.1,0.0,0.000976406802027101,0
9.182082653045654,0.00019539871673667023,[0.09937012],0.005,0.1,0.0,0.0009764049413031497,0
9.193169593811035,0.00019539871673667023,[0.09937007],0.005,0.1,0.0,0.0009764032021029237,0
9.201673030853271,0.00019539871673667023,[0.09937002],0.005,0.1,0.0,0.0009764025780522267,0
9.209165096282959,0.00019539871673667023,[0.09936998],0.005,0.1,0.0,0.0009764008696297251,0
9.218091249465942,0.00019539871673667023,[0.09936994],0.005,0.1,0.0,0.0009763990236794814,0
9.22765302658081,0.00019539871673667023,[0.09936992],0.005,0.1,0.0,0.0009763994716353012,0
9.237019300460815,0.00019539871673667023,[0.09936989],0.005,0.1,0.0,0.0009763983999903062,0
9.247336387634277,0.00019539871673667023,[0.09936988],0.005,0.1,0.0,0.0009763965018818483,0
9.259105682373047,0.00019539871673667023,[0.09936986],0.005,0.1,0.0,0.0009763967576209571,0
9.268762111663818,0.00019539871673667023,[0.09936984],0.005,0.1,0.0,0.0009763963479889452,0
9.278428077697754,0.00019539871673667023,[0.09936983],0.005,0.1,0.0,0.0009763958288344017,0
9.290087461471558,0.00019539871673667023,[0.09936982],0.005,0.1,0.0,0.0009763958172609443,0
9.301257133483887,0.00019539871673667023,[0.0993698],0.005,0.1,0.0,0.000976395146717937,0
9.310041666030884,0.00019539871673667023,[0.09936979],0.005,0.1,0.0,0.0009763951928285151,0
9.319078207015991,0.00019539871673667023,[0.09936978],0.005,0.1,0.0,0.0009763956514585029,0
9.327130794525146,0.00019539871673667023,[0.09936978],0.005,0.1,0.0,0.0009763943244054558,0
9.338202953338623,0.00019539871673667023,[0.09936977],0.005,0.1,0.0,0.0009763947316361346,0
9.348219633102417,0.00019539871673667023,[0.09936977],0.005,0.1,0.0,0.0009763942147237168,0
9.35754108428955,0.00019539871673667023,[0.09936977],0.005,0.1,0.0,0.0009763959617039066,0
9.367125988006592,0.00019539871673667023,[0.09936977],0.005,0.1,0.0,0.000976394706400771,0
9.378471374511719,0.00019539871673667023,[0.09936978],0.005,0.1,0.0,0.0009763938028746771,0
9.389191627502441,0.00019539871673667023,[0.09936978],0.005,0.1,0.0,0.0009763941572530543,0
9.400182008743286,0.00019539871673667023,[0.09936978],0.005,0.1,0.0,0.0009763946582961763,0
9.413607835769653,0.00019539871673667023,[0.09936979],0.005,0.1,0.0,0.0009763946392648835,0
9.42132830619812,0.00019539871673667023,[0.09936979],0.005,0.1,0.0,0.0009763951138107897,0
9.431767702102661,0.00019539871673667023,[0.09936979],0.005,0.1,0.0,0.0009763952032959255,0
9.442055702209473,0.00019539871673667023,[0.09936979],0.005,0.1,0.0,0.0009763945603398683,0
9.452147245407104,0.00019539871673667023,[0.09936979],0.005,0.1,0.0,0.000976395289522746,0
9.461050510406494,0.00019539871673667023,[0.09936979],0.005,0.1,0.0,0.0009763953502462667,0
9.471848487854004,0.00019539871673667023,[0.09936979],0.005,0.1,0.0,0.0009763947359042771,0
9.48460602760315,0.00019539871673667023,[0.09936979],0.005,0.1,0.0,0.0009763945712106777,0
9.494125843048096,0.00019539871673667023,[0.09936979],0.005,0.1,0.0,0.0009763954858239414,0
9.506961107254028,0.00019539871673667023,[0.09936979],0.005,0.1,0.0,0.000976395261781786,0
9.516089916229248,0.00019539871673667023,[0.09936979],0.005,0.1,0.0,0.0009763952083260003,0
9.526057720184326,0.00019539871673667023,[0.09936979],0.005,0.1,0.0,0.0009763951948814485,0
9.536034345626831,0.00019539871673667023,[0.09936979],0.005,0.1,0.0,0.0009763952110434531,0
9.546641826629639,0.00019539871673667023,[0.09936979],0.005,0.1,0.0,0.0009763952496749424,0
9.556792259216309,0.00019539871673667023,[0.0993698],0.005,0.1,0.0,0.0009763953051805099,0
9.569241523742676,0.00019539871673667023,[0.0993698],0.005,0.1,0.0,0.0009763953731061755,0
9.58150839805603,0.00019539871673667023,[0.0993698],0.005,0.1,0.0,0.0009763954498677107,0
9.59058690071106,0.00019539871673667023,[0.09936981],0.005,0.1,0.0,0.000976395532557809,0
9.599005460739136,0.00019539871673667023,[0.09936981],0.005,0.1,0.0,0.0009763956188068059,0
9.608787298202515,0.00019539871673667023,[0.09936981],0.005,0.1,0.0,0.0009763957066801883,0
9.619024276733398,0.00019539871673667023,[0.09936981],0.005,0.1,0.0,0.0009763957946015966,0
9.62702989578247,0.00019539871673667023,[0.09936982],0.005,0.1,0.0,0.0009763958812936663,0
9.635032892227173,0.00019539871673667023,[0.09936982],0.005,0.1,0.0,0.0009763959657314756,0
9.645133018493652,0.00019539871673667023,[0.09936982],0.005,0.1,0.0,0.0009763960471050237,0
9.655634641647339,0.00019539871673667023,[0.09936983],0.005,0.1,0.0,0.000976396124788281,0
9.663660049438477,0.00019539871673667023,[0.09936983],0.005,0.1,0.0,0.0009763961983131199,0
9.671010971069336,0.00019539871673667023,[0.09936983],0.005,0.1,0.0,0.0009763962673469638,0
9.68302035331726,0.00019539871673667023,[0.09936983],0.005,0.1,0.0,0.0009763963316733431,0
9.695087671279907,0.00019539871673667023,[0.09936986],0.005,0.1,0.0,0.0009764317176353656,0
9.702995538711548,0.00019539871673667023,[0.09936998],0.005,0.1,0.0,0.0009765497957993666,0
9.714619636535645,0.00019539871673667023,[0.09937061],0.005,0.1,0.0,0.0009812446251688594,0
9.72516918182373,0.00019539871673667023,[0.09937276],0.005,0.1,0.0,0.0009914689777717732,0
9.735260009765625,0.00019539871673667023,[0.09937777],0.005,0.1,0.0,0.0010081268582813178,0
9.742975234985352,0.00019539871673667023,[0.0993868],0.005,0.1,0.0,0.001007997402026612,0
9.754538297653198,0.00019539871673667023,[0.09940107],0.005,0.1,0.0,0.001062878161316627,0
9.764385223388672,0.00019539871673667023,[0.09942236],0.005,0.1,0.0,0.0010851324939718243,0
9.77300214767456,0.00019539871673667023,[0.09945222],0.005,0.1,0.0,0.0011052635416075218,0
9.782020807266235,0.00019539871673667023,[0.09949163],0.005,0.1,0.0,0.001121616098524943,0
9.791001081466675,0.00019539871673667023,[0.09954135],0.005,0.1,0.0,0.0011335874878958228,0
9.801781177520752,0.00019539871673667023,[0.09960218],0.005,0.1,0.0,0.0011920667317760012,0
9.811597347259521,0.00019539871673667023,[0.09967492],0.005,0.1,0.0,0.001177946941346666,0
9.820109128952026,0.00019539871673667023,[0.09975964],0.005,0.1,0.0,0.0011639236080896107,0
9.827991724014282,0.00019539871673667023,[0.09985552],0.005,0.1,0.0,0.0011124077365696618,0
9.83701467514038,0.00019539871673667023,[0.09996135],0.005,0.1,0.0,0.0011142052355753505,0
9.847017765045166,0.00019539871673667023,[0.10007611],0.005,0.1,0.0,0.0011121707371789925,0
9.857797384262085,0.00019539871673667023,[0.10019921],0.005,0.1,0.0,0.0011360308918709403,0
9.86907696723938,0.00019539871673667023,[0.10033011],0.005,0.1,0.0,0.0011177090161586278,0
9.879028558731079,0.00019539871673667023,[0.10046762],0.005,0.1,0.0,0.0010832551353526926,0
9.8890061378479,0.00019539871673667023,[0.1006101],0.005,0.1,0.0,0.0010798306040864939,0
9.897056341171265,0.00019539871673667023,[0.10075617],0.005,0.1,0.0,0.001075885247624131,0
9.907814502716064,0.00019539871673667023,[0.10090467],0.005,0.1,0.0,0.001072050293691308,0
9.917018175125122,0.00019539871673667023,[0.10105431],0.005,0.1,0.0,0.001059816229814596,0
9.926207065582275,0.00019539871673667023,[0.10120377],0.005,0.1,0.0,0.0010608017138690996,0
9.935335874557495,0.00019539871673667023,[0.10135193],0.005,0.1,0.0,0.0010612067389285404,0
9.944246768951416,0.00019539871673667023,[0.10149788],0.005,0.1,0.0,0.0010614764025941709,0
9.952004432678223,0.00019539871673667023,[0.10164072],0.005,0.1,0.0,0.0010585888602957785,0
9.966846466064453,0.00019539871673667023,[0.10177964],0.005,0.1,0.0,0.0010657492820201407,0
9.976974725723267,0.00019539871673667023,[0.10191411],0.005,0.1,0.0,0.0010651785972396177,0
9.987199306488037,0.00019539871673667023,[0.10204358],0.005,0.1,0.0,0.0010655937444839616,0
9.995775699615479,0.00019539871673667023,[0.10216744],0.005,0.1,0.0,0.0010668804933003438,0
10.006014108657837,0.00019539871673667023,[0.10228516],0.005,0.1,0.0,0.0010687290904837462,0
10.01602578163147,0.00019539871673667023,[0.10239633],0.005,0.1,0.0,0.0010708641869068168,0
10.026967287063599,0.00019539871673667023,[0.10250064],0.005,0.1,0.0,0.0010732231130711999,0
10.035016298294067,0.00019539871673667023,[0.10259785],0.005,0.1,0.0,0.0010756933569450703,0
10.047001838684082,0.00019539871673667023,[0.10268782],0.005,0.1,0.0,0.0010781491291780014,0
10.055097818374634,0.00019539871673667023,[0.10277051],0.005,0.1,0.0,0.0010805742167402724,0
10.06981086730957,0.00019539871673667023,[0.10284596],0.005,0.1,0.0,0.0010828710946948295,0
10.078013896942139,0.00019539871673667023,[0.10291432],0.005,0.1,0.0,0.0010849938620166792,0
10.086813926696777,0.00019539871673667023,[0.10297578],0.005,0.1,0.0,0.0010869120789646232,0
10.098007917404175,0.00019539871673667023,[0.10303062],0.005,0.1,0.0,0.001088642519297259,0
10.110681056976318,0.00019539871673667023,[0.10307914],0.005,0.1,0.0,0.0010901795602606035,0
10.118990659713745,0.00019539871673667023,[0.10312169],0.005,0.1,0.0,0.0010915306487242458,0
10.12710952758789,0.00019539871673667023,[0.10315863],0.005,0.1,0.0,0.0010927063108809192,0
10.136579036712646,0.00019539871673667023,[0.10319035],0.005,0.1,0.0,0.0010937174820541205,0
10.144595623016357,0.00019539871673667023,[0.10321724],0.005,0.1,0.0,0.0010945750682622598,0
10.151984453201294,0.00019539871673667023,[0.10323971],0.005,0.1,0.0,0.0010952923784401647,0
10.161755323410034,0.00019539871673667023,[0.10325813],0.005,0.1,0.0,0.0010958802044584545,0
10.170997858047485,0.00019539871673667023,[0.10327289],0.005,0.1,0.0,0.001096353374845823,0
10.18001127243042,0.00019539871673667023,[0.10328436],0.005,0.1,0.0,0.0010967199575661482,0
10.190465927124023,0.00019539871673667023,[0.1032929],0.005,0.1,0.0,0.0010969935344710639,0
10.200781106948853,0.00019539871673667023,[0.10329885],0.005,0.1,0.0,0.0010971850801828982,0
10.208948850631714,0.00019539871673667023,[0.10330253],0.005,0.1,0.0,0.0010973032147987348,0
10.21897268295288,0.00019539871673667023,[0.10330424],0.005,0.1,0.0,0.0010973585569075562,0
10.228255987167358,0.00019539871673667023,[0.10330426],0.005,0.1,0.0,0.0010973584627864009,0
10.238069772720337,0.00019539871673667023,[0.10330285],0.005,0.1,0.0,0.0010973146905232166,0
10.245957612991333,0.00019539871673667023,[0.10330025],0.005,0.1,0.0,0.0010972322940450592,0
10.255972623825073,0.00019539871673667023,[0.10329666],0.005,0.1,0.0,0.0010971184064160104,0
10.266392946243286,0.00019539871673667023,[0.1032923],0.005,0.1,0.0,0.0010969789569322931,0
10.273948907852173,0.00019539871673667023,[0.10328734],0.005,0.1,0.0,0.0010968207012310815,0
10.284544944763184,0.00019539871673667023,[0.10328192],0.005,0.1,0.0,0.0010966483811806224,0
10.292311191558838,0.00019539871673667023,[0.1032762],0.005,0.1,0.0,0.0010964652210409109,0
10.300965070724487,0.00019539871673667023,[0.10327029],0.005,0.1,0.0,0.0010962764681102016,0
10.312226057052612,0.00019539871673667023,[0.10326429],0.005,0.1,0.0,0.0010960853572749543,0
10.3209707736969,0.00019539871673667023,[0.1032583],0.005,0.1,0.0,0.0010958956122391955,0
10.330888986587524,0.00019539871673667023,[0.10325239],0.005,0.1,0.0,0.0010957064985918769,0
10.340983390808105,0.00019539871673667023,[0.10324664],0.005,0.1,0.0,0.0010955219582036023,0
10.349973917007446,0.00019539871673667023,[0.10324108],0.005,0.1,0.0,0.001095343798925636,0
10.361869096755981,0.00019539871673667023,[0.10323576],0.005,0.1,0.0,0.001095174381238289,0
10.372966766357422,0.00019539871673667023,[0.1032307],0.005,0.1,0.0,0.0010950133614858627,0
10.381462812423706,0.00019539871673667023,[0.10322594],0.005,0.1,0.0,0.0010948632193429602,0
10.391336917877197,0.00019539871673667023,[0.1032215],0.005,0.1,0.0,0.001094719936704846,0
10.399492502212524,0.00019539871673667023,[0.10321737],0.005,0.1,0.0,0.0010945887388181133,0
10.406976461410522,0.00019539871673667023,[0.10321358],0.005,0.1,0.0,0.0010944684612689988,0
10.415639400482178,0.00019539871673667023,[0.10321011],0.005,0.1,0.0,0.0010943569090381667,0
10.424009561538696,0.00019539871673667023,[0.10320696],0.005,0.1,0.0,0.001094256397633114,0
10.434972524642944,0.00019539871673667023,[0.10320413],0.005,0.1,0.0,0.001094167941234515,0
10.444295883178711,0.00019539871673667023,[0.1032016],0.005,0.1,0.0,0.0010940884198798234,0
10.451987504959106,0.00019539871673667023,[0.10319938],0.005,0.1,0.0,0.0010940156913705765,0
10.460940837860107,0.00019539871673667023,[0.10319744],0.005,0.1,0.0,0.0010939566737180552,0
10.474347352981567,0.00019539871673667023,[0.10319577],0.005,0.1,0.0,0.0010939028802488496,0
10.48415207862854,0.00019539871673667023,[0.10319436],0.005,0.1,0.0,0.0010938572034317514,0
10.495905876159668,0.00019539871673667023,[0.10319319],0.005,0.1,0.0,0.0010938208364932168,0
10.50652003288269,0.00019539871673667023,[0.10319224],0.005,0.1,0.0,0.0010937900868081176,0
10.518047332763672,0.00019539871673667023,[0.1031915],0.005,0.1,0.0,0.0010937656207490672,0
10.531068325042725,0.00019539871673667023,[0.10319094],0.005,0.1,0.0,0.001093750742348545,0
10.540427923202515,0.00019539871673667023,[0.10319056],0.005,0.1,0.0,0.001093736983465126,0
10.553245067596436,0.00019539871673667023,[0.10319034],0.005,0.1,0.0,0.0010937283581144257,0
10.565892934799194,0.00019539871673667023,[0.10319025],0.005,0.1,0.0,0.001093726320091508,0
10.575088739395142,0.00019539871673667023,[0.10319028],0.005,0.1,0.0,0.0010937269766606084,0
10.585763216018677,0.00019539871673667023,[0.10319042],0.005,0.1,0.0,0.0010937308300878492,0
10.596061706542969,0.00019539871673667023,[0.10319065],0.005,0.1,0.0,0.0010937371750767268,0
10.60775113105774,0.00019539871673667023,[0.10319095],0.005,0.1,0.0,0.001093748299075926,0
10.616074562072754,0.00019539871673667023,[0.10319132],0.005,0.1,0.0,0.00109375834254078,0
10.62403655052185,0.00019539871673667023,[0.10319174],0.005,0.1,0.0,0.0010937713624443529,0
10.63606333732605,0.00019539871673667023,[0.1031922],0.005,0.1,0.0,0.001093783671834627,0
10.644286632537842,0.00019539871673667023,[0.10319268],0.005,0.1,0.0,0.0010938007602673662,0
10.653122663497925,0.00019539871673667023,[0.10319317],0.005,0.1,0.0,0.0010938175913219822,0
10.661599159240723,0.00019539871673667023,[0.10319368],0.005,0.1,0.0,0.0010938323339282606,0
10.668959856033325,0.00019539871673667023,[0.10319419],0.005,0.1,0.0,0.0010938481594605697,0
10.682950973510742,0.00019539871673667023,[0.1031947],0.005,0.1,0.0,0.0010938650214439812,0
10.69296932220459,0.00019539871673667023,[0.10319519],0.005,0.1,0.0,0.0010938798698438132,0
10.702945232391357,0.00019539871673667023,[0.10319568],0.005,0.1,0.0,0.0010938953957519307,0
10.7137610912323,0.00019539871673667023,[0.10319614],0.005,0.1,0.0,0.0010939107746147515,0
10.722944498062134,0.00019539871673667023,[0.10319659],0.005,0.1,0.0,0.0010939241547743609,0
10.732627153396606,0.00019539871673667023,[0.10319701],0.005,0.1,0.0,0.001093937644584221,0
10.740434646606445,0.00019539871673667023,[0.10319741],0.005,0.1,0.0,0.001093950351848857,0
10.751970291137695,0.00019539871673667023,[0.10319778],0.005,0.1,0.0,0.0010939619910153712,0
10.761566877365112,0.00019539871673667023,[0.10319812],0.005,0.1,0.0,0.0010939728115803215,0
10.76894497871399,0.00019539871673667023,[0.10319843],0.005,0.1,0.0,0.0010939829210577625,0
10.783673763275146,0.00019539871673667023,[0.10319872],0.005,0.1,0.0,0.0010939927268965664,0
10.791605710983276,0.00019539871673667023,[0.10319898],0.005,0.1,0.0,0.0010940003991651178,0
10.802188873291016,0.00019539871673667023,[0.10319922],0.005,0.1,0.0,0.00109400792038022,0
10.810279846191406,0.00019539871673667023,[0.10319943],0.005,0.1,0.0,0.0010940144900540233,0
10.817932844161987,0.00019539871673667023,[0.10319962],0.005,0.1,0.0,0.0010940216371350781,0
10.825957298278809,0.00019539871673667023,[0.10319978],0.005,0.1,0.0,0.0010940259719586655,0
10.834937334060669,0.00019539871673667023,[0.10319993],0.005,0.1,0.0,0.0010940306024110464,0
10.84500789642334,0.00019539871673667023,[0.10320005],0.005,0.1,0.0,0.0010940346088479174,0
10.853352546691895,0.00019539871673667023,[0.10320016],0.005,0.1,0.0,0.0010940380281793103,0
10.863956212997437,0.00019539871673667023,[0.10320025],0.005,0.1,0.0,0.0010940409071002132,0
10.872954368591309,0.00019539871673667023,[0.10320032],0.005,0.1,0.0,0.0010940432920449404,0
10.882760286331177,0.00019539871673667023,[0.10320038],0.005,0.1,0.0,0.0010940450834826703,0
10.891677618026733,0.00019539871673667023,[0.10320043],0.005,0.1,0.0,0.001094046833334115,0
10.901916265487671,0.00019539871673667023,[0.10320047],0.005,0.1,0.0,0.0010940476799061426,0
10.911182403564453,0.00019539871673667023,[0.10320049],0.005,0.1,0.0,0.0010940483642205932,0
10.919956684112549,0.00019539871673667023,[0.10320051],0.005,0.1,0.0,0.0010940492368360266,0
10.929024934768677,0.00019539871673667023,[0.10320052],0.005,0.1,0.0,0.0010940494602646662,0
10.937947750091553,0.00019539871673667023,[0.10320052],0.005,0.1,0.0,0.001094049469899398,0
10.948184728622437,0.00019539871673667023,[0.10320051],0.005,0.1,0.0,0.001094049301328446,0
10.956141471862793,0.00019539871673667023,[0.1032005],0.005,0.1,0.0,0.0010940489838033834,0
10.963956832885742,0.00019539871673667023,[0.10320049],0.005,0.1,0.0,0.0010940485440992893,0
10.974814653396606,0.00019539871673667023,[0.10320047],0.005,0.1,0.0,0.001094048006540272,0
10.986238956451416,0.00019539871673667023,[0.10320045],0.005,0.1,0.0,0.0010940473930330127,0
10.998994588851929,0.00019539871673667023,[0.10320043],0.005,0.1,0.0,0.001094046723135196,0
11.006970882415771,0.00019539871673667023,[0.10320041],0.005,0.1,0.0,0.0010940460141501227,0
11.016041040420532,0.00019539871673667023,[0.10320039],0.005,0.1,0.0,0.0010940452812403304,0
11.024040460586548,0.00039079743347334047,[0.10320036],0.005,0.1,0.0,0.0010878888518729597,0
11.032028913497925,0.00019539871673667023,[0.10320036],0.005,0.1,0.0,0.001094009935156888,0
11.04303240776062,0.00019539871673667023,[0.10320056],0.005,0.1,0.0,0.0010951511318139028,0
11.051999807357788,0.00019539871673667023,[0.10320135],0.005,0.1,0.0,0.0010960471543151945,0
11.059971570968628,0.00019539871673667023,[0.10320316],0.005,0.1,0.0,0.0010976527939974238,0
11.068505764007568,0.00019539871673667023,[0.1032069],0.005,0.1,0.0,0.0011251497157483458,0
11.07730507850647,0.00019539871673667023,[0.10321415],0.005,0.1,0.0,0.0011293561088231876,0
11.086451053619385,0.00019539871673667023,[0.10322645],0.005,0.1,0.0,0.0011750531045049786,0
11.09579849243164,0.00019539871673667023,[0.10324578],0.005,0.1,0.0,0.0012417847902237472,0
11.104949235916138,0.00019539871673667023,[0.10327411],0.005,0.1,0.0,0.0012336067238324974,0
11.11299753189087,0.00019539871673667023,[0.10331287],0.005,0.1,0.0,0.001322738116594349,0
11.124975442886353,0.00019539871673667023,[0.10336461],0.005,0.1,0.0,0.001556913662367601,0
11.132940530776978,0.00019539871673667023,[0.10343206],0.005,0.1,0.0,0.001454520746083623,0
11.142938613891602,0.00019539871673667023,[0.10351625],0.005,0.1,0.0,0.0015300982016999097,0
11.152910947799683,0.00019539871673667023,[0.1036179],0.005,0.1,0.0,0.001587417866058959,0
11.163261890411377,0.00019539871673667023,[0.10373854],0.005,0.1,0.0,0.001797425334995032,0
11.171446084976196,0.00019539871673667023,[0.10387915],0.005,0.1,0.0,0.001596451108971263,0
11.179335832595825,0.00019539871673667023,[0.10403892],0.005,0.1,0.0,0.0016091951414628205,0
11.188289642333984,0.00019539871673667023,[0.10421674],0.005,0.1,0.0,0.001606858091553012,0
11.197163343429565,0.00019539871673667023,[0.10441129],0.005,0.1,0.0,0.0014737509906631338,0
11.204936981201172,0.00019539871673667023,[0.10462052],0.005,0.1,0.0,0.001491653564268237,0
11.212957382202148,0.00019539871673667023,[0.10484237],0.005,0.1,0.0,0.0014013166247238713,0
11.221680164337158,0.00019539871673667023,[0.10507476],0.005,0.1,0.0,0.0014221189134885944,0
11.229706764221191,0.00019539871673667023,[0.10531603],0.005,0.1,0.0,0.001426818226813031,0
11.237929821014404,0.00019539871673667023,[0.10556412],0.005,0.1,0.0,0.0014356648879599177,0
11.249500513076782,0.00019539871673667023,[0.10581661],0.005,0.1,0.0,0.0014948395830171853,0
11.258483409881592,0.00019539871673667023,[0.10607227],0.005,0.1,0.0,0.0014508714545394276,0
11.267206907272339,0.00019539871673667023,[0.10633013],0.005,0.1,0.0,0.0014130776633549129,0
11.276659965515137,0.00019539871673667023,[0.10658869],0.005,0.1,0.0,0.0013814152013279194,0
11.285948038101196,0.00019539871673667023,[0.10684645],0.005,0.1,0.0,0.001355689442554444,0
11.294932842254639,0.00019539871673667023,[0.10710171],0.005,0.1,0.0,0.0013140254860420954,0
11.305220365524292,0.00019539871673667023,[0.10735269],0.005,0.1,0.0,0.0013084317838160083,0
11.313868045806885,0.00019539871673667023,[0.10759796],0.005,0.1,0.0,0.001303242786955857,0
11.321959972381592,0.00019539871673667023,[0.10783628],0.005,0.1,0.0,0.0012891826874254415,0
11.329939365386963,0.00019539871673667023,[0.1080664],0.005,0.1,0.0,0.0012907453845802579,0
11.339998006820679,0.00019539871673667023,[0.10828736],0.005,0.1,0.0,0.0012916987314796557,0
11.353273391723633,0.00019539871673667023,[0.10849856],0.005,0.1,0.0,0.0012995509698658942,0
11.362980365753174,0.00019539871673667023,[0.10869952],0.005,0.1,0.0,0.0012950040134024298,0
11.371251344680786,0.00019539871673667023,[0.10888963],0.005,0.1,0.0,0.0012963571520666376,0
11.380979537963867,0.00019539871673667023,[0.10906832],0.005,0.1,0.0,0.0012981554495071605,0
11.38947582244873,0.00019539871673667023,[0.10923521],0.005,0.1,0.0,0.0013019210910826826,0
11.397920608520508,0.00019539871673667023,[0.10939007],0.005,0.1,0.0,0.001305722252899094,0
11.41000247001648,0.00019539871673667023,[0.10953282],0.005,0.1,0.0,0.0013098865571517712,0
11.419222593307495,0.00019539871673667023,[0.1096635],0.005,0.1,0.0,0.0013139407056591698,0
11.426923990249634,0.00019539871673667023,[0.10978228],0.005,0.1,0.0,0.0013179278779333822,0
11.435911178588867,0.00019539871673667023,[0.10988946],0.005,0.1,0.0,0.0013216456270508745,0
11.445664167404175,0.00019539871673667023,[0.10998544],0.005,0.1,0.0,0.0013250511578707575,0
11.454345226287842,0.00019539871673667023,[0.11007069],0.005,0.1,0.0,0.0013281087089250655,0
11.461915493011475,0.00019539871673667023,[0.11014578],0.005,0.1,0.0,0.0013308090353336545,0
11.470332860946655,0.00019539871673667023,[0.11021128],0.005,0.1,0.0,0.0013331806937660294,0
11.478904008865356,0.00019539871673667023,[0.11026784],0.005,0.1,0.0,0.001335234549101435,0
11.488905668258667,0.00019539871673667023,[0.11031608],0.005,0.1,0.0,0.0013369895917557878,0
11.497910022735596,0.00019539871673667023,[0.11035666],0.005,0.1,0.0,0.0013384705411208558,0
11.506251335144043,0.00019539871673667023,[0.11039023],0.005,0.1,0.0,0.0013396954661493632,0
11.515880346298218,0.00019539871673667023,[0.11041744],0.005,0.1,0.0,0.0013406902849001528,0
11.526445150375366,0.00019539871673667023,[0.1104389],0.005,0.1,0.0,0.0013414767267128653,0
11.535302877426147,0.00019539871673667023,[0.11045522],0.005,0.1,0.0,0.0013420736151054122,0
11.54449200630188,0.00019539871673667023,[0.11046698],0.005,0.1,0.0,0.001342505014824931,0
11.55600118637085,0.00019539871673667023,[0.11047472],0.005,0.1,0.0,0.0013427890980737059,0
11.567439556121826,0.00019539871673667023,[0.11047895],0.005,0.1,0.0,0.0013429454143026544,0
11.576776504516602,0.00019539871673667023,[0.11048017],0.005,0.1,0.0,0.0013429915653598694,0
11.586085796356201,0.00019539871673667023,[0.11047881],0.005,0.1,0.0,0.001342942270019795,0
11.596911907196045,0.00019539871673667023,[0.11047529],0.005,0.1,0.0,0.0013428151924663807,0
11.606274127960205,0.00019539871673667023,[0.11046998],0.005,0.1,0.0,0.0013426225588630072,0
11.614916801452637,0.00019539871673667023,[0.11046323],0.005,0.1,0.0,0.001342375359243864,0
11.62423062324524,0.00019539871673667023,[0.11045534],0.005,0.1,0.0,0.0013420876857545426,0
11.632891654968262,0.00019539871673667023,[0.11044658],0.005,0.1,0.0,0.0013417688660230576,0
11.64238166809082,0.00019539871673667023,[0.11043721],0.005,0.1,0.0,0.0013414265291544936,0
11.652437925338745,0.00019539871673667023,[0.11042744],0.005,0.1,0.0,0.0013410698258089547,0
11.660794734954834,0.00019539871673667023,[0.11041745],0.005,0.1,0.0,0.0013407059651734667,0
11.671165227890015,0.00019539871673667023,[0.11040741],0.005,0.1,0.0,0.001340337925106721,0
11.678879499435425,0.00019539871673667023,[0.11039744],0.005,0.1,0.0,0.0013399753469603072,0
11.688250303268433,0.00019539871673667023,[0.11038768],0.005,0.1,0.0,0.0013396194705793904,0
11.69601321220398,0.00019539871673667023,[0.11037821],0.005,0.1,0.0,0.0013392737178296787,0
11.705878734588623,0.00019539871673667023,[0.11036911],0.005,0.1,0.0,0.0013389406921521295,0
11.7149658203125,0.00019539871673667023,[0.11036044],0.005,0.1,0.0,0.0013386250578104667,0
11.725907802581787,0.00019539871673667023,[0.11035224],0.005,0.1,0.0,0.0013383262026182385,0
11.735990762710571,0.00019539871673667023,[0.11034456],0.005,0.1,0.0,0.0013380460883887298,0
11.745704412460327,0.00019539871673667023,[0.1103374],0.005,0.1,0.0,0.0013377848924225814,0
11.755980491638184,0.00019539871673667023,[0.11033079],0.005,0.1,0.0,0.0013375429658137004,0
11.764926433563232,0.00019539871673667023,[0.11032472],0.005,0.1,0.0,0.0013373226945831021,0
11.773885726928711,0.00019539871673667023,[0.11031919],0.005,0.1,0.0,0.0013371205076636694,0
11.783130168914795,0.00019539871673667023,[0.11031418],0.005,0.1,0.0,0.0013369391480311354,0
11.790854930877686,0.00019539871673667023,[0.1103097],0.005,0.1,0.0,0.001336774750841733,0
11.799909114837646,0.00019539871673667023,[0.1103057],0.005,0.1,0.0,0.0013366316176174826,0
11.80975079536438,0.00019539871673667023,[0.11030219],0.005,0.1,0.0,0.001336504189439687,0
11.81786561012268,0.00019539871673667023,[0.11029913],0.005,0.1,0.0,0.0013363911258620958,0
11.829296588897705,0.00019539871673667023,[0.1102965],0.005,0.1,0.0,0.001336300324356264,0
11.836890697479248,0.00019539871673667023,[0.11029427],0.005,0.1,0.0,0.0013362186502082613,0
11.845893859863281,0.00019539871673667023,[0.11029243],0.005,0.1,0.0,0.001336152467263236,0
11.85591197013855,0.00019539871673667023,[0.11029095],0.005,0.1,0.0,0.001336097335478605,0
11.864910364151001,0.00019539871673667023,[0.11028979],0.005,0.1,0.0,0.0013360557955445034,0
11.873886346817017,0.00019539871673667023,[0.11028893],0.005,0.1,0.0,0.0013360232781603422,0
11.882222414016724,0.00039079743347334047,[0.11028835],0.005,0.1,0.0,0.0013289687967220183,0
11.890209436416626,0.00019539871673667023,[0.110288],0.005,0.1,0.0,0.0013359202656871233,0
11.898894309997559,0.00019539871673667023,[0.11028788],0.005,0.1,0.0,0.001335984955251029,0
11.90689206123352,0.00019539871673667023,[0.11028796],0.005,0.1,0.0,0.001335990476717038,0
11.9164297580719,0.00019539871673667023,[0.11028821],0.005,0.1,0.0,0.0013359978787945703,0
11.923893213272095,0.00019539871673667023,[0.11028861],0.005,0.1,0.0,0.0013360102478496183,0
11.933872699737549,0.00019539871673667023,[0.11028913],0.005,0.1,0.0,0.0013360285798284495,0
11.942896604537964,0.00019539871673667023,[0.11028976],0.005,0.1,0.0,0.0013360534471425363,0
11.955642223358154,0.00019539871673667023,[0.11029047],0.005,0.1,0.0,0.0013360766279614596,0
11.963899850845337,0.00019539871673667023,[0.11029125],0.005,0.1,0.0,0.001336104096614302,0
11.973487138748169,0.00019539871673667023,[0.11029208],0.005,0.1,0.0,0.0013361342455851493,0
11.982566118240356,0.00019539871673667023,[0.11029295],0.005,0.1,0.0,0.001336167106770326,0
11.991321325302124,0.00019539871673667023,[0.11029384],0.005,0.1,0.0,0.0013361979545706316,0
11.999983072280884,0.00019539871673667023,[0.11029474],0.005,0.1,0.0,0.0013362315822534406,0
12.008164167404175,0.00019539871673667023,[0.11029564],0.005,0.1,0.0,0.001336262422393667,0
12.017219543457031,0.00019539871673667023,[0.11029653],0.005,0.1,0.0,0.001336294046417345,0
12.025670051574707,0.00019539871673667023,[0.1102974],0.005,0.1,0.0,0.001336326449632147,0
12.035606384277344,0.00019539871673667023,[0.11029825],0.005,0.1,0.0,0.001336356565562565,0
12.042870283126831,0.00019539871673667023,[0.11029907],0.005,0.1,0.0,0.001336385288469699,0
12.052984237670898,0.00019539871673667023,[0.11029985],0.005,0.1,0.0,0.001336414301298263,0
12.06173586845398,0.00019539871673667023,[0.11030058],0.005,0.1,0.0,0.0013364415428729702,0
12.071594476699829,0.00019539871673667023,[0.11030128],0.005,0.1,0.0,0.0013364670147980903,0
12.081955671310425,0.00019539871673667023,[0.11030194],0.005,0.1,0.0,0.0013364903762063621,0
12.093964099884033,0.00019539871673667023,[0.11030255],0.005,0.1,0.0,0.0013365123898105155,0
12.105515241622925,0.00019539871673667023,[0.11030312],0.005,0.1,0.0,0.001336532891548426,0
12.11501932144165,0.00019539871673667023,[0.11030364],0.005,0.1,0.0,0.001336551162566762,0
12.123956203460693,0.00019539871673667023,[0.11030411],0.005,0.1,0.0,0.001336569383614279,0
12.134981870651245,0.00019539871673667023,[0.11030455],0.005,0.1,0.0,0.0013365853313685684,0
12.142950057983398,0.00019539871673667023,[0.11030494],0.005,0.1,0.0,0.001336598845182275,0
12.150874614715576,0.00019539871673667023,[0.11030529],0.005,0.1,0.0,0.0013366115409915204,0
12.160450458526611,0.00019539871673667023,[0.1103056],0.005,0.1,0.0,0.0013366236745964877,0
12.170271396636963,0.00019539871673667023,[0.11030588],0.005,0.1,0.0,0.0013366329990885844,0
12.1779465675354,0.00019539871673667023,[0.11030612],0.005,0.1,0.0,0.001336642319290658,0
12.187858581542969,0.00019539871673667023,[0.11030634],0.005,0.1,0.0,0.0013366497276923268,0
12.1962890625,0.00019539871673667023,[0.11030652],0.005,0.1,0.0,0.0013366564446897853,0
12.206608533859253,0.00019539871673667023,[0.11030667],0.005,0.1,0.0,0.001336662036302765,0
12.216943979263306,0.00019539871673667023,[0.1103068],0.005,0.1,0.0,0.001336666730156048,0
12.226944208145142,0.00019539871673667023,[0.11030691],0.005,0.1,0.0,0.0013366706025143302,0
12.234949111938477,0.00019539871673667023,[0.11030699],0.005,0.1,0.0,0.0013366737280807565,0
12.243399381637573,0.00019539871673667023,[0.11030706],0.005,0.1,0.0,0.0013366761802817066,0
12.252859115600586,0.00019539871673667023,[0.11030711],0.005,0.1,0.0,0.0013366776449972256,0
12.263193130493164,0.00019539871673667023,[0.11030715],0.005,0.1,0.0,0.0013366790492250152,0
12.270864725112915,0.00019539871673667023,[0.11030717],0.005,0.1,0.0,0.0013366797463948222,0
12.279847145080566,0.00019539871673667023,[0.11030718],0.005,0.1,0.0,0.0013366805307442465,0
12.291753768920898,0.00019539871673667023,[0.11030718],0.005,0.1,0.0,0.0013366805331698453,0
12.302351713180542,0.00019539871673667023,[0.11030717],0.005,0.1,0.0,0.001336680159897114,0
12.312535047531128,0.00019539871673667023,[0.11030715],0.005,0.1,0.0,0.0013366795733540993,0
12.320289850234985,0.00019539871673667023,[0.11030713],0.005,0.1,0.0,0.001336678811736259,0
12.332693338394165,0.00019539871673667023,[0.11030711],0.005,0.1,0.0,0.001336677909612407,0
12.341864347457886,0.00019539871673667023,[0.11030708],0.005,0.1,0.0,0.0013366768987372315,0
12.353857278823853,0.00019539871673667023,[0.11030705],0.005,0.1,0.0,0.0013366758078646583,0
12.362552642822266,0.00019539871673667023,[0.11030702],0.005,0.1,0.0,0.001336674662687932,0
12.371806859970093,0.00019539871673667023,[0.11030699],0.005,0.1,0.0,0.0013366734858752964,0
12.382662057876587,0.00019539871673667023,[0.11030695],0.005,0.1,0.0,0.0013366722971712883,0
12.392967224121094,0.00019539871673667023,[0.11030692],0.005,0.1,0.0,0.0013366711135422516,0
12.404593706130981,0.00019539871673667023,[0.11030689],0.005,0.1,0.0,0.001336669055565002,0
12.4139723777771,0.00019539871673667023,[0.11030686],0.005,0.1,0.0,0.0013366686583135066,0
12.422865152359009,0.00019539871673667023,[0.11030682],0.005,0.1,0.0,0.00133666701133643,0
12.432956457138062,0.00019539871673667023,[0.11030679],0.005,0.1,0.0,0.001336665623871316,0
12.443227052688599,0.00019539871673667023,[0.11030675],0.005,0.1,0.0,0.00133666486808439,0
12.456959247589111,0.00019539871673667023,[0.11030672],0.005,0.1,0.0,0.001336663280772199,0
12.467887878417969,0.00019539871673667023,[0.11030668],0.005,0.1,0.0,0.0013366621373550925,0
12.478379249572754,0.00019539871673667023,[0.11030665],0.005,0.1,0.0,0.0013366609769928403,0
12.487123250961304,0.00019539871673667023,[0.11030662],0.005,0.1,0.0,0.001336659819012553,0
12.497403860092163,0.00019539871673667023,[0.11030658],0.005,0.1,0.0,0.0013366596473394737,0
12.507851123809814,0.00019539871673667023,[0.11030656],0.005,0.1,0.0,0.0013366581558857886,0
12.51888656616211,0.00019539871673667023,[0.11030653],0.005,0.1,0.0,0.0013366569291966067,0
12.528886318206787,0.00019539871673667023,[0.11030651],0.005,0.1,0.0,0.0013366551715809185,0
12.538016319274902,0.00019539871673667023,[0.11030649],0.005,0.1,0.0,0.0013366562825527124,0
12.547151565551758,0.00019539871673667023,[0.11030647],0.005,0.1,0.0,0.001336655176769818,0
12.55583906173706,0.00019539871673667023,[0.11030646],0.005,0.1,0.0,0.001336654516479764,0
12.56575059890747,0.00019539871673667023,[0.11030645],0.005,0.1,0.0,0.0013366531335141897,0
12.573934555053711,0.00019539871673667023,[0.11030644],0.005,0.1,0.0,0.0013366530597964798,0
12.582850694656372,0.00019539871673667023,[0.11030643],0.005,0.1,0.0,0.0013366533524320993,0
12.59083080291748,0.00019539871673667023,[0.11030642],0.005,0.1,0.0,0.0013366526035708223,0
12.602019786834717,0.00019539871673667023,[0.11030641],0.005,0.1,0.0,0.0013366531939844439,0
12.610838890075684,0.00019539871673667023,[0.11030641],0.005,0.1,0.0,0.0013366529951547776,0
12.621587991714478,0.00019539871673667023,[0.11030641],0.005,0.1,0.0,0.0013366527301932568,0
12.630856990814209,0.00019539871673667023,[0.11030641],0.005,0.1,0.0,0.0013366526813332784,0
12.639839172363281,0.00019539871673667023,[0.11030642],0.005,0.1,0.0,0.001336652484053468,0
12.649848222732544,0.00019539871673667023,[0.11030642],0.005,0.1,0.0,0.0013366522916305305,0
12.660169839859009,0.00019539871673667023,[0.11030642],0.005,0.1,0.0,0.0013366525887870881,0
12.667852401733398,0.00019539871673667023,[0.11030643],0.005,0.1,0.0,0.0013366522059122161,0
12.677809715270996,0.00019539871673667023,[0.11030642],0.005,0.1,0.0,0.0013366522746041671,0
12.685811996459961,0.00019539871673667023,[0.11030642],0.005,0.1,0.0,0.001336652345474096,0
12.6988365650177,0.00019539871673667023,[0.11030642],0.005,0.1,0.0,0.0013366522685152344,0
12.707413911819458,0.00019539871673667023,[0.11030641],0.005,0.1,0.0,0.0013366520758246697,0
12.71584963798523,0.00019539871673667023,[0.1103064],0.005,0.1,0.0,0.0013366517949875286,0
12.723818302154541,0.00019539871673667023,[0.11030639],0.005,0.1,0.0,0.0013366514484684522,0
12.734144687652588,0.00019539871673667023,[0.11030637],0.005,0.1,0.0,0.0013366510546237594,0
12.742893934249878,0.00019539871673667023,[0.11030636],0.005,0.1,0.0,0.0013366517127123907,0
12.753695249557495,0.00019539871673667023,[0.11030635],0.005,0.1,0.0,0.0013366516102606718,0
12.763905048370361,0.00019539871673667023,[0.11030635],0.005,0.1,0.0,0.0013366510746078899,0
12.773127794265747,0.00019539871673667023,[0.11030635],0.005,0.1,0.0,0.0013366501736419398,0
12.78215765953064,0.00019539871673667023,[0.11030635],0.005,0.1,0.0,0.0013366503683368944,0
12.790915727615356,0.00019539871673667023,[0.11030635],0.005,0.1,0.0,0.0013366504144042856,0
12.799848556518555,0.00019539871673667023,[0.11030636],0.005,0.1,0.0,0.0013366505215383448,0
12.808948993682861,0.00019539871673667023,[0.11030636],0.005,0.1,0.0,0.0013366506784464772,0
12.81796932220459,0.00019539871673667023,[0.11030637],0.005,0.1,0.0,0.0013366508737744508,0
12.827737808227539,0.00019539871673667023,[0.11030637],0.005,0.1,0.0,0.0013366510979077068,0
12.8389253616333,0.00019539871673667023,[0.11030638],0.005,0.1,0.0,0.001336651342691736,0
12.848913192749023,0.00019539871673667023,[0.11030639],0.005,0.1,0.0,0.001336651601206152,0
12.858173370361328,0.00019539871673667023,[0.11030639],0.005,0.1,0.0,0.0013366518675901836,0
12.86582064628601,0.00019539871673667023,[0.1103064],0.005,0.1,0.0,0.0013366521369038741,0
12.873859167098999,0.00019539871673667023,[0.11030641],0.005,0.1,0.0,0.001336652405014319,0
12.882837295532227,0.00019539871673667023,[0.11030642],0.005,0.1,0.0,0.0013366526684997916,0
