t_s,q_rad,q_des_rad,K,B,Kff,jerk,tau_Nm,reward
0.005720376968383789,-0.010551530703780192,[-1.7601721e-06],9.825212432529046,0.9790254919034855,1.9737818648793566,0.0,-3.7522386683977382,1.477986383687445
0.017941713333129883,-0.010551530703780192,[-8.5063679e-06],9.650424865058092,0.9580509838069711,1.9475637297587132,0.0,-2.5991763943374693,1.478014216817865
0.028888940811157227,-0.010551530703780192,[-2.11417509e-05],9.475637297587138,0.9370764757104565,1.92134559463807,0.0,-1.765659687648865,1.4780663015007542
0.03689312934875488,-0.010551530703780192,[-3.85936143e-05],9.300849730116184,0.9161019676139419,1.8951274595174268,0.0,-1.1901207862387024,1.4781381421799233
0.04689192771911621,-0.010551530703780192,[-5.98924337e-05],9.12606216264523,0.8951274595174274,1.8689093243967834,0.0,-0.7932414034696618,1.4782256645471659
0.05692601203918457,-0.010551530703780192,[-8.41685002e-05],8.951274595174274,0.8741529514209129,1.84269118927614,0.0,0.07407306395247824,1.4783252142645182
0.06790900230407715,-0.010356131987043523,[-0.00011065],8.77648702770332,0.8531784433243983,1.8164730541554968,0.0,0.49217942304102574,1.4792248503517484
0.0762472152709961,-0.010551530703780192,[-0.00013865],8.601699460232366,0.8322039352278838,1.7902549190348536,0.0,0.6539689638422704,1.4785478140674475
0.08577752113342285,-0.010160733270306851,[-0.00016757],8.426911892761412,0.8112294271313693,1.7640367839142101,0.0,0.6714514538063774,1.4802254672949449
0.09439945220947266,-0.009769935836833513,[-0.0001969],8.252124325290458,0.7902549190348547,1.7378186487935667,0.276038359678681,0.6202156992431404,1.4817816155544121
0.1039876937866211,-0.00879294225315016,[-0.00022614],8.077336757819502,0.7692804109383402,1.7116005136729235,0.8612396821974845,0.5550420273446076,1.4848773312797972
0.11179804801940918,-0.0076205499527301395,[-0.00025481],7.902549190348549,0.7483059028418256,1.6853823785522803,1.976545070643227,0.47755064447844003,1.486308103360767
0.12179231643676758,-0.006057360218836778,[-0.0002825],7.727761622877595,0.727331394745311,1.659164243431637,3.578994123022397,0.4051247187107772,1.4839075584293044
0.13286328315734863,-0.0037125756179967346,[-0.00030889],7.55297405540664,0.7063568866487966,1.6329461083109935,5.0,0.32486461176011266,1.4794177261669867
0.14089584350585938,-0.0019539871673667024,[-0.00033377],7.378186487935686,0.685382378552282,1.6067279731903503,5.0,0.252586260033467,1.4812071813215835
0.15082955360412598,0.00039079743347334047,[-0.00035704],7.203398920464732,0.6644078704557674,1.5805098380697071,5.0,0.16820117762235615,1.4816202174485231
0.15912866592407227,0.0027355820343133836,[-0.00037858],7.028611352993777,0.643433362359253,1.5542917029490637,5.0,0.10142334551539534,1.479794343970096
0.16843366622924805,0.004884967918416756,[-0.0003983],6.853823785522822,0.6224588542627384,1.5280735678284203,5.0,0.04602137524750484,1.4761650343451675
0.17888975143432617,0.0076205499527301395,[-0.0004161],6.679036218051868,0.6014843461662238,1.501855432707777,5.0,0.009709041484986506,1.4688975930865578
0.18790578842163086,0.009574537120096843,[-0.00043191],6.504248650580913,0.6,1.475637297587134,5.0,-0.018210898993948635,1.4619054309571227
0.19681000709533691,0.011528524287463544,[-0.00044576],6.329461083109958,0.6,1.4494191624664907,5.0,-0.03830027059530251,1.453462640978578
0.20582914352416992,0.013287112738093578,[-0.00045766],6.154673515639004,0.6,1.4232010273458477,3.4803592283308795,-0.05352345529043159,1.453985122563332
0.2147841453552246,0.014654903755250269,[-0.00046762],5.97988594816805,0.6,1.3969828922252046,1.4126309128031163,-0.0643374563610184,1.4538088257884803
0.22517061233520508,0.01621809348914363,[-0.00047562],5.805098380697095,0.6,1.3707647571045614,-1.283779861886524,-0.06833983419759744,1.444563450549945
0.23638033866882324,0.01758588450630032,[-0.00048163],5.63031081322614,0.6,1.3445466219839184,-3.9309413425713196,-0.06501648097547955,1.425427174197155
0.24494290351867676,0.018367479373247002,[-0.00048568],5.455523245755186,0.6,1.3183284868632752,-5.0,-0.06850251627456969,1.4131116941141262
0.2538456916809082,0.018953675523457014,[-0.0004879],5.280735678284231,0.6,1.292110351742632,-5.0,-0.07540837610069671,1.4089237284770326
0.26299357414245605,0.019539871673667025,[-0.00048843],5.105948110813277,0.6,1.2658922166219888,-5.0,-0.08362002526397778,1.4046393051194856
0.27220630645751953,0.019735270390403698,[-0.00048738],5.0,0.6,1.2396740815013456,-5.0,-0.09849643902597804,1.4031965143840728
0.2805650234222412,0.019930669107140364,[-0.00048486],5.0,0.6,1.2134559463807026,-5.0,-0.10994047098073567,1.401753110456105
0.29012131690979004,0.019930669107140364,[-0.00048098],5.0,0.6,1.1872378112600595,-5.0,-0.11286237647750022,1.4017822032951321
0.2988736629486084,0.019735270390403698,[-0.00047588],5.0,0.6,1.1610196761394163,-5.0,-0.10984672220313284,1.4032821715518353
0.30707836151123047,0.019735270390403698,[-0.00046968],5.0,0.6,1.1348015410187733,-5.0,-0.11320261594425782,1.4033283377906631
0.316882848739624,0.019344472956930356,[-0.00046252],5.0,0.6,1.10858340589813,-5.0,-0.10646466731301184,1.4062679812608079
0.3269991874694824,0.018758276806720344,[-0.00045447],5.0,0.6,1.082365270777487,-5.0,-0.10095935986862697,1.4105654408146306
0.33532118797302246,0.018367479373247002,[-0.00044562],5.0,0.6,1.0561471356568437,-5.0,-0.09607538012465422,1.4133928195438052
0.3455517292022705,0.01758588450630032,[-0.00043608],5.0,0.6,1.0299290005362005,-5.0,-0.09270733084308216,1.4188386559620212
0.3551514148712158,0.01680428963935364,[-0.00042597],5.0,0.6,1.0037108654155575,-5.0,-0.08447844743071171,1.4240840888605135
0.3628551959991455,0.01621809348914363,[-0.00041541],5.0,0.6,0.9774927302949143,-4.339272405114589,-0.08802365807282647,1.432346541934652
0.3710176944732666,0.015436498622196948,[-0.00040451],5.0,0.6,0.9512745951742712,-3.497165383173755,-0.08559625498998578,1.4420293111412972
0.37891221046447754,0.014850302471986938,[-0.00039336],5.0,0.6,0.9250564600536281,-2.714688535291762,-0.0828902613341207,1.4491336137265587
0.3881359100341797,0.013677910171566917,[-0.00038204],5.0,0.6,0.898838324932985,-2.343545301809467,-0.07621436731037082,1.4571632204808638
0.3978109359741211,0.012896315304620235,[-0.00037063],5.0,0.6,0.8726201898123418,-1.5951694435464394,-0.07398969358969493,1.4635194508454814
0.406857967376709,0.011919321720936885,[-0.00035923],5.0,0.6,0.8464020546916986,-0.8483740598514362,-0.06470699077549481,1.4697620222727639
0.41577577590942383,0.010942328137253534,[-0.00034787],5.0,0.6,0.8201839195710555,-0.5098365828298449,-0.055289132423057503,1.4746350496759069
0.4281337261199951,0.009379138403360172,[-0.00033673],5.0,0.6,0.7939657844504124,-0.08492387371856053,-0.07347860642590003,1.4812921282170763
0.43639373779296875,0.00840214481967682,[-0.00032615],5.0,0.6,0.7677476493297692,0.5641256915577688,-0.08233523944118333,1.4846420310406327
0.44585251808166504,0.0072297525192568,[-0.00031635],5.0,0.6,0.741529514209126,0.8792200391393602,-0.07908244441385953,1.4881007720367905
0.4568667411804199,0.005861961502100107,[-0.00030732],5.0,0.6,0.715311379088483,1.2924005997917538,-0.06767205496671205,1.4911750658207958
0.46845555305480957,0.004884967918416756,[-0.00029899],5.0,0.6,0.6890932439678399,1.6431518073314941,-0.05776067359929896,1.4926339312848638
0.4778761863708496,0.004103373051470075,[-0.00029128],5.0,0.6,0.6628751088471967,2.1634785717271092,-0.027262039828699312,1.4926727039334915
0.486832857131958,0.0033217781845233945,[-0.00028416],5.0,0.6,0.6366569737265535,2.889623197013104,-0.007260752672109522,1.4912256091666873
0.4956643581390381,0.0027355820343133836,[-0.00027764],5.0,0.6,0.6104388386059104,3.5093982163373068,0.0029991325433175514,1.4891013465578187
0.505277156829834,0.0019539871673667024,[-0.0002717],5.0,0.6,0.5842207034852673,4.211090549952848,0.0055977270924167395,1.4859818250674353
0.5128531455993652,0.0015631897338933619,[-0.00026633],5.0,0.6,0.5580025683646241,4.755305628783814,0.0033102483910109914,1.482777916919448
0.5210895538330078,0.0011723923004200215,[-0.00026151],5.0,0.6,0.531784433243981,5.0,0.002303976796041228,1.4813209286975595
0.5296173095703125,0.0009769935836833512,[-0.00025723],5.0,0.6,0.5055662981233379,5.0,0.0014831277877860192,1.4814274468065562
0.5399818420410156,0.0005861961502100108,[-0.00025345],5.0,0.6,0.4793481630026947,5.0,0.002239073528069088,1.4815910711435352
0.5479083061218262,0.00039079743347334047,[-0.00025014],5.0,0.6,0.4531300278820516,5.0,0.0025090777467752803,1.4816499044879965
0.5582895278930664,0.00019539871673667023,[-0.00024728],5.0,0.6,0.42691189276140845,5.0,0.0028069222074654262,1.4816928697032936
0.5678462982177734,0.0,[-0.00024483],5.0,0.6,0.4006937576407653,5.0,0.003086346871213632,1.4817200735616285
0.5762543678283691,0.0,[-0.00024277],5.0,0.6,0.3744756225201221,4.854224215896151,0.002526078082724942,1.482751645321526
0.5856919288635254,-0.00019539871673667023,[-0.00024105],5.0,0.6,0.3482574873994789,4.483127338232228,0.002959126969346811,1.4852599246728677
0.5954699516296387,-0.00019539871673667023,[-0.00023964],5.0,0.6,0.3220393522788358,3.780149587460633,0.0025988241262622164,1.4894748245382634
0.604229211807251,-0.00019539871673667023,[-0.00023853],5.0,0.6,0.2958212171581926,3.3345485328241327,0.0021227296125734185,1.491790613886906
0.611903190612793,-0.00039079743347334047,[-0.00023767],5.0,0.6,0.2696030820375494,2.7404340326514864,0.002714969099709686,1.494436015089792
0.6198513507843018,-0.00039079743347334047,[-0.00023704],5.0,0.6,0.24338494691690624,1.9024563899785125,0.0025616399950593935,1.4973082788046397
0.627819299697876,-0.00039079743347334047,[-0.00023661],5.0,0.6,0.21716681179626307,1.398379450527233,0.002327459552378336,1.4985417129367284
0.6367888450622559,-0.0005861961502100108,[-0.00023636],5.0,0.6,0.19094867667561988,1.0808126026027576,0.0030171264389612534,1.4991067027668685
0.6479659080505371,-0.0005861961502100108,[-0.00023626],5.0,0.6,0.16473054155497668,0.594631594345649,0.0028941179017067608,1.499712367787322
0.6558761596679688,-0.0005861961502100108,[-0.00023628],5.0,0.6,0.13851240643433352,0.13939563889813505,0.0028326637069792005,1.4999610482494834
0.6658275127410889,-0.0005861961502100108,[-0.00023642],5.0,0.6,0.11229427131369034,0.054984434002237986,0.002633790872060427,1.499973281281485
0.6741650104522705,-0.0005861961502100108,[-0.00023665],5.0,0.6,0.08607613619304716,-0.17068124517252076,0.002533896256373593,1.4999538782330033
0.684152364730835,-0.0005861961502100108,[-0.00023695],5.0,0.6,0.05985800107240398,-0.12086785140111542,0.0023134007454931223,1.499964731016457
0.692112922668457,-0.0005861961502100108,[-0.00023731],5.0,0.6,0.0336398659517608,-0.2664026864194839,0.002201060207495175,1.4999228285553452
0.7041046619415283,-0.0007815948669466809,[-0.00023772],5.0,0.6,0.0074217308311176206,-0.44399120021763316,0.0031112911848286276,1.4997941201468814
0.7144904136657715,-0.0007815948669466809,[-0.00023815],5.0,0.6,0.0,-0.3167929268799385,0.002919885406270088,1.499866235292222
0.7230615615844727,-0.0005861961502100108,[-0.00023861],5.0,0.6,0.0,-0.3878578245747777,0.0018491079182431347,1.4998638671145468
0.7318816184997559,-0.0007815948669466809,[-0.00023909],5.0,0.6,0.0,-0.5046068388851771,0.0027536035717089097,1.499751629014766
0.7397947311401367,-0.0005861961502100108,[-0.00023956],5.0,0.6,0.0,-0.607828543960192,0.0017682235349726206,1.4997010219046576
0.7493388652801514,-0.0005861961502100108,[-0.00024004],5.0,0.6,0.0,-0.6797883889696366,0.001743600889774636,1.4996321565730377
0.7569019794464111,-0.0007815948669466809,[-0.0002405],5.0,0.6,0.0,-0.7198520838185369,0.0027020603130680906,1.4995558554087294
0.7670223712921143,-0.0007815948669466809,[-0.00024095],5.0,0.6,0.0,-0.7333948912886281,0.00270629624558636,1.4995413143581582
0.7753884792327881,-0.0007815948669466809,[-0.00024139],5.0,0.6,0.0,-0.7270241009079612,0.0027026258425039496,1.49954832908811
0.7848091125488281,-0.0007815948669466809,[-0.00024181],5.0,0.6,0.0,-0.706727292980785,0.0026997510875753595,1.499570064945598
0.7927894592285156,-0.0007815948669466809,[-0.0002422],5.0,0.6,0.0,-0.6773219733940229,0.0026973823526002787,1.4996004243507832
0.804351806640625,-0.0007815948669466809,[-0.00024257],5.0,0.6,0.0,-0.6424428600936319,0.002695330970535331,1.49963474842377
0.8142728805541992,-0.0007815948669466809,[-0.00024292],5.0,0.6,0.0,-0.6047189024234036,0.002693503510995184,1.4996698250453726
0.8242006301879883,-0.0007815948669466809,[-0.00024323],5.0,0.6,0.0,-0.5659898299943507,0.002738875056380487,1.4997036272436648
0.8317365646362305,-0.0007815948669466809,[-0.0002435],5.0,0.6,0.0,-0.5275037564145426,0.0028962420950220985,1.4997349972443028
0.8417487144470215,-0.0007815948669466809,[-0.00024366],5.0,0.6,0.0,-0.4900782373673812,0.002989435108663947,1.4997633709415648
0.853020429611206,-0.0007815948669466809,[-0.00024367],5.0,0.6,0.0,-0.4542241266502849,0.0031280229694656825,1.4997885688864483
0.8633618354797363,-0.0007815948669466809,[-0.0002435],5.0,0.6,0.0,-0.4202376009319136,0.0030623081395849522,1.4998106488033145
0.8721058368682861,-0.0007815948669466809,[-0.00024312],5.0,0.6,0.0,-0.38826702625843923,0.003156166573651145,1.4998298038000417
0.8797807693481445,-0.0007815948669466809,[-0.00024251],5.0,0.6,0.0,-0.35836079269428045,0.0031992053478747022,1.4998462907456327
0.8888697624206543,-0.0007815948669466809,[-0.00024166],5.0,0.6,0.0,-0.3305011318321804,0.003154748815103839,1.499860390066235
0.9028637409210205,-0.0007815948669466809,[-0.00024054],5.0,0.6,0.0,-0.30462778936195606,0.003388871392273709,1.499872379246585
0.9127562046051025,-0.0009769935836833512,[-0.00023911],5.0,0.6,0.0,-0.2806544430109151,0.004435538473905132,1.4998324815229696
0.9227533340454102,-0.0007815948669466809,[-0.00023733],5.0,0.6,0.0,-0.2584799779008176,0.003562374387353221,1.4998910252750064
0.9342954158782959,-0.0007815948669466809,[-0.00023515],5.0,0.6,0.0,-0.2379961411864131,0.003844091888142914,1.4998981190706606
0.9427752494812012,-0.0009769935836833512,[-0.0002325],5.0,0.6,0.0,-0.21909266209692135,0.00483552290572487,1.4998534221405988
0.950885534286499,-0.0009769935836833512,[-0.00022937],5.0,0.6,0.0,-0.20166060724449156,0.0047058286029374825,1.4998579468700108
0.9647994041442871,-0.0009769935836833512,[-0.00022574],5.0,0.6,0.0,-0.18559451413142375,0.0051086007019450885,1.4998614908459895
0.972769021987915,-0.0007815948669466809,[-0.00022159],5.0,0.6,0.0,-0.17079368422033653,0.003962533087906521,1.499915566742104
0.981602668762207,-0.0009769935836833512,[-0.0002169],5.0,0.6,0.0,-0.15716290253274912,0.005138479110546005,1.4998660705375126
0.9908626079559326,-0.0009769935836833512,[-0.00021163],5.0,0.6,0.0,-0.14461277006337775,0.005433918226101018,1.4998672838274358
1.0017409324645996,-0.0009769935836833512,[-0.00020567],5.0,0.6,0.0,-0.13305977857069176,0.006290391630244099,1.4998678384993918
1.0116002559661865,-0.0009769935836833512,[-0.00019884],5.0,0.6,0.0,-0.12242621751326033,0.006090344689743854,1.4998677469599537
1.0213727951049805,-0.0009769935836833512,[-0.00019109],5.0,0.6,0.0,-0.11263997504673395,0.00646502382718147,1.4998670341908942
1.0302515029907227,-0.0009769935836833512,[-0.00018233],5.0,0.6,0.0,-0.10363427553455812,0.006839504000531866,1.499865714076912
1.0395469665527344,-0.0009769935836833512,[-0.00017241],5.0,0.6,0.0,-0.09534738245458173,0.007375835278770662,1.4998637715650216
1.0489890575408936,-0.0009769935836833512,[-0.00016115],5.0,0.6,0.0,-0.08772228614151438,0.008249888170690117,1.4998611618302726
1.0577843189239502,-0.0007815948669466809,[-0.00014837],5.0,0.6,0.0,-0.08070638925317619,0.006984863217248225,1.4999149597861532
1.0678660869598389,-0.0009769935836833512,[-0.00013398],5.0,0.6,0.0,-0.0742511983173469,0.008582848357436751,1.4998537732491073
1.079373836517334,-0.0009769935836833512,[-0.00011776],5.0,0.6,0.0,-0.0683120265962251,0.0105235156857845,1.4998488798434
1.0867795944213867,-0.0009769935836833512,[-9.93237252e-05],5.0,0.6,0.0,-0.06284771137009736,0.010240581735505688,1.4998430107401768
1.096165657043457,-0.0009769935836833512,[-7.84900961e-05],5.0,0.6,0.0,-0.057820347291880715,0.011033377617660937,1.4998360626626843
1.1047608852386475,-0.0009769935836833512,[-5.50795194e-05],5.0,0.6,0.0,-0.05319503649065026,0.011886434560011991,1.499827922903653
1.1160554885864258,-0.0009769935836833512,[-2.87954444e-05],5.0,0.6,0.0,-0.048939655458955275,0.013060096888497066,1.4998184173206361
1.1251869201660156,-0.0009769935836833512,[6.75432415e-07],5.0,0.6,0.0,-0.045024638343565265,0.013746019380846583,1.4998073418703788
1.1357815265655518,-0.0009769935836833512,[3.3602352e-05],5.0,0.6,0.0,-0.04142277600102679,0.014654904874216671,1.4997944827554583
1.1486999988555908,-0.0009769935836833512,[7.0404019e-05],5.0,0.6,0.0,-0.038109030028416445,0.017414808767608654,1.4997795346302731
1.1579399108886719,-0.0009769935836833512,[0.00011147],5.0,0.6,0.0,-0.035060360901378006,0.01592998276026966,1.4997621618194783
1.1703755855560303,-0.0009769935836833512,[0.000157],5.0,0.6,0.0,-0.03225556932193448,0.019006400456289645,1.4997420715183054
1.1802332401275635,-0.0009769935836833512,[0.00020736],5.0,0.6,0.0,-0.02967514988104756,0.019624277587374523,1.4997188473839453
1.187864065170288,-0.0009769935836833512,[0.00026269],5.0,0.6,0.0,-0.027301156163971767,0.01822757990780303,1.4996921287748997
1.197843074798584,-0.0009769935836833512,[0.00032278],5.0,0.6,0.0,-0.02511707646223989,0.019726697447053902,1.4996617045488527
1.2059228420257568,-0.0009769935836833512,[0.00038768],5.0,0.6,0.0,-0.02310771929923099,0.021443133446636852,1.4996272030523083
1.2169156074523926,-0.0009769935836833512,[0.00045771],5.0,0.6,0.0,-0.0212591080230718,0.02293104673401656,1.4995880715880237
1.2257640361785889,-0.0009769935836833512,[0.00053317],5.0,0.6,0.0,-0.019558383768671597,0.024371466933357705,1.4995437002037388
1.23972749710083,-0.0009769935836833512,[0.00061463],5.0,0.6,0.0,-0.017993716138389765,0.02915688052933607,1.4994932326603587
1.2490308284759521,-0.0009769935836833512,[0.00070295],5.0,0.6,0.0,-0.016554220997166916,0.030045485483340816,1.4994355111532167
1.2580022811889648,-0.0009769935836833512,[0.00079866],5.0,0.6,0.0,-0.015229884822287399,0.03130910656488136,1.499369438161442
1.2658183574676514,-0.0009769935836833512,[0.00090129],5.0,0.6,0.0,-0.01401149508993008,0.031829774287559606,1.4992945121528911
1.2748134136199951,-0.0009769935836833512,[0.00100979],5.0,0.6,0.0,-0.012890576220133662,0.03324330141347233,1.4992107233205978
1.2828078269958496,-0.0009769935836833512,[0.00112394],5.0,0.6,0.0,-0.011859330638701562,0.034796544180242445,1.4991174974219452
1.2935492992401123,-0.0009769935836833512,[0.00124427],5.0,0.6,0.0,-0.010910584548930433,0.03650634850787969,1.4990135954452628
1.3058485984802246,-0.0009769935836833512,[0.00137127],5.0,0.6,0.0,-0.010037738037943517,0.03818160781444503,1.4988976611873244
1.317791223526001,-0.0009769935836833512,[0.00150582],5.0,0.6,0.0,-0.009234719171957298,0.04451531326397583,1.498767818729058
1.3257777690887451,-0.0009769935836833512,[0.00164869],5.0,0.6,0.0,-0.008495941762135186,0.040487306174601785,1.4986220558066987
1.335815191268921,-0.0009769935836833512,[0.00179968],5.0,0.6,0.0,-0.007816266507918519,0.04251549499968463,1.4984591586906195
1.3448185920715332,-0.0009769935836833512,[0.00195909],5.0,0.6,0.0,-0.0071909652480129215,0.04958676573013259,1.4982773336806976
1.3556478023529053,-0.0009769935836833512,[0.00212801],5.0,0.6,0.0,-0.006615688070681424,0.05017104436479373,1.498073619704932
1.36574125289917,-0.0009769935836833512,[0.00230689],5.0,0.6,0.0,-0.006086433054783571,0.05092214411299183,1.4978455232709198
1.3772380352020264,-0.0009769935836833512,[0.00249604],5.0,0.6,0.0,-0.005599518431230557,0.05709822641200114,1.4975904849588983
1.3866839408874512,-0.0009769935836833512,[0.00269568],5.0,0.6,0.0,-0.005151556971312872,0.051678763306444976,1.4973059146380898
1.3950648307800293,-0.0009769935836833512,[0.00290491],5.0,0.6,0.0,-0.004739432423814381,0.053264033238495476,1.4969906790342549
1.404707670211792,-0.0009769935836833512,[0.00312245],5.0,0.6,0.0,-0.004360277837053809,0.04968887804073199,1.4966445451698172
1.4165582656860352,-0.0009769935836833512,[0.00334757],5.0,0.6,0.0,-0.004011455615090711,0.05817985628493913,1.4962665960271042
1.428135871887207,-0.0009769935836833512,[0.00358062],5.0,0.6,0.0,-0.003690539169384296,0.05944783800465419,1.4958542388898497
1.4362831115722656,-0.0009769935836833512,[0.00382178],5.0,0.6,0.0,-0.003395296038284145,0.06062737066424937,1.4954049327245618
1.4437310695648193,-0.0007815948669466809,[0.00407016],5.0,0.6,0.0,-0.0031236723569368257,0.05560486759931359,1.4953031507002774
1.459554672241211,-0.0009769935836833512,[0.00432542],5.0,0.6,0.0,-0.0028737785695826692,0.07029740458812743,1.4943926576465851
1.4694609642028809,-0.0009769935836833512,[0.00458817],5.0,0.6,0.0,-0.002643876284856605,0.06417395248058406,1.4938249310783602
1.4787240028381348,-0.0007815948669466809,[0.00485782],5.0,0.6,0.0,-0.0024323661826564638,0.06454564837927107,1.493659580097732
1.4870340824127197,-0.0007815948669466809,[0.00513327],5.0,0.6,0.0,-0.002237776888455817,0.06592266970226544,1.4930272991009648
1.4974236488342285,-0.0007815948669466809,[0.00541399],5.0,0.6,0.0,-0.00205875473766766,0.06734187069039045,1.4923523428363783
1.5047225952148438,-0.0007815948669466809,[0.00569897],5.0,0.6,0.0,-0.0018940543588560647,0.06337148538897276,1.4916356254763357
1.5137434005737305,-0.0007815948669466809,[0.00598683],5.0,0.6,0.0,0.27429582966839217,0.06628220138414774,1.4908235285632863
1.5247445106506348,-0.0005861961502100108,[0.00627684],5.0,0.6,0.0,0.3075598352305582,0.06773790071401671,1.4905535789478406
1.5376191139221191,-0.00039079743347334047,[0.00656931],5.0,0.6,0.0,0.25259082884738937,0.07418068976767905,1.4903106806725825
1.5465953350067139,-0.00039079743347334047,[0.00686494],5.0,0.6,0.0,0.1766238138844561,0.074534557821286,1.4895028829683268
1.5548315048217773,-0.00019539871673667023,[0.00716377],5.0,0.6,0.0,0.3822480469138635,0.07402861300989827,1.4891182249924908
1.562772274017334,-0.00019539871673667023,[0.00746482],5.0,0.6,0.0,0.35885072127957013,0.06946044598112623,1.4882369595996994
1.5733606815338135,0.0,[0.0077672],5.0,0.6,0.0,0.26184773697072583,0.07629032951920907,1.487955578271329
1.5821151733398438,0.00019539871673667023,[0.00807111],5.0,0.6,0.0,0.4324704844223887,0.07592764789453187,1.4875320437724577
1.5922138690948486,0.00039079743347334047,[0.0083767],5.0,0.6,0.0,0.3756223899933695,0.07579950839300069,1.4872210424669574
1.6028258800506592,0.0005861961502100108,[0.00868311],5.0,0.6,0.0,0.25182235374036366,0.07061881245650478,1.486926392932711
1.6131105422973633,0.0007815948669466809,[0.0089891],5.0,0.6,0.0,0.4030022905419023,0.07226831132918984,1.486496829623035
1.6237444877624512,0.0009769935836833512,[0.00929415],5.0,0.6,0.0,0.6091655631882088,0.0734282982354614,1.4859840961233517
1.633993148803711,0.0011723923004200215,[0.00959826],5.0,0.6,0.0,0.5105141017367919,0.07440604416967797,1.4857073030063308
1.643765926361084,0.0013677910171566918,[0.00990147],5.0,0.6,0.0,0.602368264039518,0.07516607016661606,1.4852707996704921
1.6519191265106201,0.0015631897338933619,[0.01020332],5.0,0.6,0.0,0.4548461675064045,0.07074311407543532,1.4850265399903497
1.6608092784881592,0.0017585884506300322,[0.01050304],5.0,0.6,0.0,0.25281595995936484,0.07314039992485105,1.484775681468636
1.6695623397827148,0.002344784600840043,[0.01080049],5.0,0.6,0.0,0.34462444825894906,0.07301334200801884,1.485713573800242
1.6798739433288574,0.002540183317576713,[0.01109612],5.0,0.6,0.0,0.23343153078643453,0.07471983015192739,1.48542529155755
1.688838243484497,0.0027355820343133836,[0.01139041],5.0,0.6,0.0,0.07519763660564419,0.07627590376186698,1.4851262261178961
1.700418472290039,0.0031263794677867237,[0.01168444],5.0,0.6,0.0,0.20701697585855827,0.08268469758020947,1.4854267932591436
1.7087225914001465,0.0033217781845233945,[0.01197918],5.0,0.6,0.0,0.1286652184300839,0.07637161969574574,1.485109351873218
1.720733642578125,0.0037125756179967346,[0.01227504],5.0,0.6,0.0,-0.004018780839548583,0.08341734361361156,1.4854438097042435
1.7297205924987793,0.004103373051470075,[0.01257244],5.0,0.6,0.0,0.14709878292794856,0.07622876831157684,1.4857412781526542
1.74141263961792,0.004494170484943416,[0.01287185],5.0,0.6,0.0,0.08308456780376368,0.08400869746141548,1.4860558263520505
1.750826120376587,0.004884967918416756,[0.01317378],5.0,0.6,0.0,0.23700196561508777,0.07676660411791661,1.4863112681291812
1.7617948055267334,0.005471164068626767,[0.01347883],5.0,0.6,0.0,0.1529666539414335,0.08454820330782695,1.4872399181893452
1.7712621688842773,0.005666562785363437,[0.01378806],5.0,0.6,0.0,0.282480038862991,0.08271956915856765,1.4868355037827854
1.7797572612762451,0.006057360218836778,[0.01410231],5.0,0.6,0.0,0.17672044080807728,0.0842355095486667,1.4871159364947688
1.7877087593078613,0.006643556369046789,[0.01442139],5.0,0.6,0.0,0.013176620575478706,0.07658393908910012,1.4879738409611603
1.797649621963501,0.007034353802520129,[0.01474475],5.0,0.6,0.0,0.137979846877628,0.0799213275630447,1.488166201764233
1.8087224960327148,0.007425151235993469,[0.01507263],5.0,0.6,0.0,0.3302624510040297,0.08146760945515691,1.488290159173825
1.820075511932373,0.00820674610294015,[0.01540659],5.0,0.6,0.0,0.2277382109150956,0.08879635581213602,1.489647414940319
1.8276872634887695,0.00840214481967682,[0.01574785],5.0,0.6,0.0,0.04703291407473614,0.08077428701876158,1.489264500071848
1.8361196517944336,0.00879294225315016,[0.01609607],5.0,0.6,0.0,0.15096128806987702,0.08266681515875464,1.4893725885341744
1.847702980041504,0.009379138403360172,[0.01645104],5.0,0.6,0.0,0.04894541787945067,0.08359795105221991,1.4900457096775477
1.857283115386963,0.009965334553570182,[0.01681341],5.0,0.6,0.0,0.17544953106157152,0.0842491872267959,1.490641701952231
1.865189790725708,0.010551530703780192,[0.01718378],5.0,0.6,0.0,0.0733575433336412,0.08461114190464196,1.4912372365290958
1.8735907077789307,0.011137726853990204,[0.0175618],5.0,0.6,0.0,0.1922131579396512,0.07556325667563861,1.491752723566404
1.881748914718628,0.011528524287463544,[0.01794632],5.0,0.6,0.0,0.08128641614809579,0.07905482758407739,1.491791302669743
1.890723466873169,0.011919321720936885,[0.0183363],5.0,0.6,0.0,-0.08352960045685909,0.07254040157728639,1.4917930937202952
1.898789644241333,0.012505517871146895,[0.01873084],5.0,0.6,0.0,0.0426577944873755,0.07600861803560159,1.4922776858493176
1.9097161293029785,0.013287112738093578,[0.01912995],5.0,0.6,0.0,-0.03797757030148491,0.07744648813567881,1.49319443364275
1.9220895767211914,0.014068707605040257,[0.01953534],5.0,0.6,0.0,0.1066049461077761,0.0871690915068159,1.4940325441840643
1.9311628341674805,0.0144595050385136,[0.01994927],5.0,0.6,0.0,0.018919323113101544,0.08620870565379053,1.4939903677811406
1.938683271408081,0.015045701188723608,[0.02037181],5.0,0.6,0.0,0.14891495540067218,0.0752248709903641,1.4943260675609316
1.9499030113220215,0.01582729605567029,[0.02080125],5.0,0.6,0.0,0.0464794426110067,0.07561217864578294,1.4950625643739481
1.960066318511963,0.0164134922058803,[0.02123773],5.0,0.6,0.0,-0.11189390477484025,0.08537018654594435,1.4953468407124877
1.9677233695983887,0.016999688356090312,[0.02168208],5.0,0.6,0.0,0.01919278763864784,0.07360922098824352,1.4956243664183222
1.9757030010223389,0.01739048578956365,[0.02213318],5.0,0.6,0.0,-0.057689531821390416,0.07508777972860867,1.4955089939956987
1.9867944717407227,0.018172080656510332,[0.02258996],5.0,0.6,0.0,-0.18623795802544305,0.07417935005453315,1.4960782662633632
1.9947230815887451,0.018758276806720344,[0.02305139],5.0,0.6,0.0,-0.028725454447312268,0.06493424962939068,1.496320009408324
2.0041332244873047,0.019539871673667025,[0.02351652],5.0,0.6,0.0,-0.08472236138447414,0.07490773163567438,1.4968369113911957
2.012507438659668,0.019930669107140364,[0.02398525],5.0,0.6,0.0,-0.19781321785289602,0.06567604874989529,1.4966883413681862
2.0240578651428223,0.020907662690823715,[0.02445742],5.0,0.6,0.0,-0.029388945048454268,0.07360242511471819,1.4974823801006816
2.0330581665039062,0.021493858841033726,[0.02493277],5.0,0.6,0.0,-0.0780031047891059,0.06298248231601175,1.4976330500444426
2.042682409286499,0.022080054991243738,[0.02541022],5.0,0.6,0.0,-0.1863309122010773,0.06382686558821721,1.497758609396909
2.0530197620391846,0.022666251141453746,[0.02588879],5.0,0.6,0.0,-0.29106825980851986,0.06412425301624873,1.4978621380985528
2.0637919902801514,0.023447846008400428,[0.02636911],5.0,0.6,0.0,-0.3712565641957971,0.0713439376173905,1.4981921061472931
2.0721397399902344,0.024034042158610443,[0.02685162],5.0,0.6,0.0,-0.42384922006224723,0.060177940004767054,1.4982797959391005
2.0797300338745117,0.02462023830882045,[0.02733432],5.0,0.6,0.0,-0.45247728184962044,0.05193200963835266,1.4983754589403309
2.0897819995880127,0.025206434459030463,[0.02781465],5.0,0.6,0.0,-0.46251968522172565,0.05390459422673888,1.4984811454244895
2.1020188331604004,0.025988029325977144,[0.02829267],5.0,0.6,0.0,-0.7351575733994394,0.06222326609247407,1.498536133178415
2.1097540855407715,0.026378826759450486,[0.02876913],5.0,0.6,0.0,-0.7556897583713169,0.053446132854909185,1.498433021126857
2.12532901763916,0.027551219059870506,[0.02924453],5.0,0.6,0.0,-0.6820745146658145,0.06611470107841366,1.4990805125677489
2.1367945671081543,0.028137415210080514,[0.02972056],5.0,0.6,0.0,-0.5839458010542409,0.06138729416641974,1.4992450860344304
2.144699811935425,0.028528212643553853,[0.03019717],5.0,0.6,0.0,-0.7655992157851433,0.05138167034139472,1.4990069339919554
2.154744863510132,0.029309807510500538,[0.03067214],5.0,0.6,0.0,-0.7176027767753435,0.0494004811770708,1.4992456965646723
2.1647489070892334,0.02989600366071055,[0.03114476],5.0,0.6,0.0,-0.5961671749515982,0.05519072206241482,1.499423666937241
2.173767328262329,0.030482199810920558,[0.03161507],5.0,0.6,0.0,-0.46700292094886503,0.04491810581016238,1.499581031708169
2.1836891174316406,0.030872997244393897,[0.03208172],5.0,0.6,0.0,-0.35428721415362185,0.045110123134011346,1.4996144109596534
2.1936004161834717,0.03126379467786724,[0.03254353],5.0,0.6,0.0,-0.5400708369591367,0.04516339328583788,1.4994554316511692
2.2060554027557373,0.032045389544813924,[0.03300067],5.0,0.6,0.0,-0.5041531458408464,0.04954538432960618,1.499628335608111
2.2137515544891357,0.03243618697828726,[0.03345325],5.0,0.6,0.0,-0.39762215520146826,0.040951363320458935,1.4996754583768273
2.226447105407715,0.03321778184523394,[0.03390073],5.0,0.6,0.0,-0.28382310447537745,0.04533243827998011,1.4998467574448662
2.237365484237671,0.033803977995443955,[0.03434319],5.0,0.6,0.0,-0.4619380404642931,0.042584278725546966,1.4997830316372507
2.244699239730835,0.034194775428917294,[0.03478013],5.0,0.6,0.0,-0.4186258261732876,0.035227498916042696,1.499801036034278
2.2541894912719727,0.03458557286239063,[0.03521006],5.0,0.6,0.0,-0.30721988029337244,0.035983567980771826,1.4998517514047554
2.2631638050079346,0.03497637029586397,[0.03563229],5.0,0.6,0.0,-0.4674066036741607,0.0364189970603064,1.4997513550028827
2.271898031234741,0.03536716772933732,[0.03604683],5.0,0.6,0.0,-0.40296345019178237,0.03666300215905836,1.4997867541048553
2.2811501026153564,0.035953363879547326,[0.03645375],5.0,0.6,0.0,-0.27359811411881396,0.03579716510894062,1.4998942041292542
2.2920854091644287,0.036344161313020665,[0.03685319],5.0,0.6,0.0,-0.4206624314147896,0.03612131637500787,1.4998164690092133
2.3013792037963867,0.036734958746494004,[0.03724539],5.0,0.6,0.0,-0.6237469276323526,0.036336379440425746,1.4996583596076896
2.310690402984619,0.03712575617996735,[0.03763065],5.0,0.6,0.0,-0.522760544371065,0.03663743783934902,1.49974563044156
2.3236844539642334,0.03771195233017736,[0.03800972],5.0,0.6,0.0,-0.612815983883467,0.04022347297859423,1.4997027904977367
2.333705425262451,0.03790735104691403,[0.03838312],5.0,0.6,0.0,-0.46388420533634883,0.033312519950558846,1.4997945695025403
2.3427562713623047,0.03829814848038737,[0.03875048],5.0,0.6,0.0,-0.53676732971266,0.03607295373350239,1.4997446496297142
2.35294508934021,0.038493547197124035,[0.03911265],5.0,0.6,0.0,-0.3847474915635867,0.044998823603637605,1.499813163813999
2.3617591857910156,0.038884344630597374,[0.03947161],5.0,0.6,0.0,-0.4606140585095864,0.04372580401624277,1.4997731146805524
2.3696706295013428,0.03907974334733405,[0.03982725],5.0,0.6,0.0,-0.31387967179565174,0.0446201264225191,1.4998149202100568
2.3797812461853027,0.039470540780807396,[0.04017769],5.0,0.6,0.0,-0.39561911509601333,0.043259727070502595,1.4997834982652032
2.3886661529541016,0.03986133821428073,[0.04052251],5.0,0.6,0.0,-0.254610848374063,0.04258285581682106,1.4998643201368944
2.3986618518829346,0.040252135647754074,[0.04086261],5.0,0.6,0.0,-0.06561405952161922,0.04204049697639206,1.4999222624036679
2.4076900482177734,0.04044753436449074,[0.04119889],5.0,0.6,0.0,-0.1723253473895478,0.04302211611770354,1.4998649951145744
2.416260004043579,0.040642933081227406,[0.04153223],5.0,0.6,0.0,-0.0758732274191691,0.04406170704073347,1.4998375581393852
2.425346612930298,0.04103373051470075,[0.04186349],5.0,0.6,0.0,0.06858208580980636,0.044083458420351496,1.4998588066897907
2.4339513778686523,0.04122912923143742,[0.04219347],5.0,0.6,0.0,0.2002249327248286,0.04490636735509679,1.4997841855467278
2.4457883834838867,0.04161992666491077,[0.04252346],5.0,0.6,0.0,0.02428896570151906,0.05182367838341272,1.4998362994927557
2.4582979679107666,0.04181532538164743,[0.04285524],5.0,0.6,0.0,0.058487346414763774,0.05094626044328733,1.4997811916323465
2.467745065689087,0.04220612281512077,[0.0431891],5.0,0.6,0.0,0.1531494466066826,0.04288942329040637,1.4997893108398008
2.4787821769714355,0.042401521531857445,[0.04352404],5.0,0.6,0.0,0.24745727207498674,0.0447221633125229,1.4997024414263254
2.4877536296844482,0.04279231896533078,[0.04385984],5.0,0.6,0.0,0.32076304697841296,0.04552779934669623,1.4996955198195818
2.496272325515747,0.04298771768206745,[0.04419698],5.0,0.6,0.0,0.36952890780455666,0.04718474838846739,1.499605939507361
2.506047010421753,0.04318311639880412,[0.0445359],5.0,0.6,0.0,0.3966930558471925,0.04861685771270619,1.4995169322000312
2.5146570205688477,0.0433785151155408,[0.04487635],5.0,0.6,0.0,0.13094158789659133,0.04319229634737652,1.4995386335468535
2.5226714611053467,0.04357391383227746,[0.04521752],5.0,0.6,0.0,0.09583113113070416,0.04668665189950477,1.4994530195060256
2.5324349403381348,0.044160109982487476,[0.04555942],5.0,0.6,0.0,0.14050809317824542,0.047699995974560365,1.4995937671345403
2.5441954135894775,0.04435550869922414,[0.0459034],5.0,0.6,0.0,0.20070188417653553,0.05718249510022599,1.499490936355525
2.553356647491455,0.044746306132697485,[0.04625062],5.0,0.6,0.0,0.2520468511971746,0.04884348828033616,1.49950022369094
2.562697649002075,0.04494170484943416,[0.04660072],5.0,0.6,0.0,0.2877623909487248,0.051260667498464974,1.499388044444631
2.5730786323547363,0.04513710356617083,[0.04695346],5.0,0.6,0.0,0.3082061538754477,0.05342874751569978,1.499269680414748
2.5810487270355225,0.04533250228290749,[0.04730929],5.0,0.6,0.0,0.3161496158619941,0.05518521567328275,1.4991443704980714
2.590094566345215,0.04572329971638084,[0.04766859],5.0,0.6,0.0,0.31476492777801335,0.05591419035659167,1.4991697092342526
2.599874258041382,0.04611409714985418,[0.04803167],5.0,0.6,0.0,0.3068624869739442,0.05636059198631223,1.4991947618813075
2.608671188354492,0.04611409714985418,[0.04839808],5.0,0.6,0.0,0.29468044370309343,0.051128965657758284,1.4988925925478997
2.620262622833252,0.046504894583327516,[0.04876742],5.0,0.6,0.0,0.5559371510136446,0.06112744868259864,1.49874670646892
2.6296863555908203,0.046895692016800855,[0.04914003],5.0,0.6,0.0,0.5728927561315568,0.05305300498517764,1.49874884137546
2.6382429599761963,0.04709109073353753,[0.04951548],5.0,0.6,0.0,0.5010871282974552,0.05594400047053869,1.4986382873817923
2.6472654342651367,0.04748188816701086,[0.04989335],5.0,0.6,0.0,0.408330407201717,0.05709683774110673,1.4987135487084888
2.654703140258789,0.04767728688374754,[0.05027323],5.0,0.6,0.0,0.3215512461975022,0.05131706945905013,1.4985761637016204
2.6645960807800293,0.04826348303395755,[0.05065473],5.0,0.6,0.0,0.24932628517918826,0.06072237568615545,1.4988107690323016
2.673065185546875,0.048458881750694224,[0.05103818],5.0,0.6,0.0,0.46855696340635133,0.0536215503428023,1.4985069211796662
2.680691957473755,0.04865428046743089,[0.05142243],5.0,0.6,0.0,0.45832148536783224,0.04878961073472924,1.4983122952312864
2.689664125442505,0.049045077900904226,[0.05180576],5.0,0.6,0.0,0.37064278801466854,0.05214437125947452,1.498374634595859
2.6996450424194336,0.0492404766176409,[0.05218805],5.0,0.6,0.0,0.27023861308311437,0.055240215863322804,1.4982095118783
2.7086760997772217,0.04963127405111425,[0.05256984],5.0,0.6,0.0,0.1815707642513176,0.05666948010935675,1.498249917946956
2.721424102783203,0.050217470201324256,[0.05295216],5.0,0.6,0.0,0.11135005453066686,0.06329794049861152,1.4984961836482402
2.7316434383392334,0.050412868918060925,[0.05333643],5.0,0.6,0.0,0.05907505779636332,0.062428907560013076,1.4982894261997912
2.7417056560516357,0.050803666351534264,[0.05372306],5.0,0.6,0.0,0.021801929329624412,0.06081645850915323,1.498296521176801
2.7503199577331543,0.0511944637850076,[0.05411168],5.0,0.6,0.0,-0.003820326298237026,0.059512157195973865,1.4982994050427694
2.7598717212677,0.05158526121848094,[0.05450185],5.0,0.6,0.0,0.25526143129157325,0.05832057967780662,1.498251646740901
2.769965887069702,0.05197605865195429,[0.05489313],5.0,0.6,0.0,0.2776908503412372,0.0573077512461195,1.4982421822327674
2.779217004776001,0.05236685608542762,[0.05528509],5.0,0.6,0.0,0.21632433655743538,0.05644517094940582,1.498263402770947
2.7907028198242188,0.05275765351890097,[0.05567727],5.0,0.6,0.0,0.13703927798149293,0.055848950674558244,1.4982826462424355
2.800302028656006,0.05314845095237431,[0.05606928],5.0,0.6,0.0,0.3414424974548193,0.05523709589756189,1.4982084298964429
2.8086607456207275,0.053343849669110974,[0.05646078],5.0,0.6,0.0,0.31822106111193305,0.055638518211628935,1.4979834637806895
2.8166561126708984,0.05373464710258431,[0.05685084],5.0,0.6,0.0,0.2222979057680345,0.04882396472935595,1.4980229645123782
2.8278250694274902,0.054320843252794335,[0.05723813],5.0,0.6,0.0,0.11852262155193005,0.049544382743596786,1.4982888781618326
2.836660861968994,0.05451624196953099,[0.05762214],5.0,0.6,0.0,0.306552344060092,0.05154118821273086,1.4980025946702333
2.8473093509674072,0.05510243811974101,[0.05800307],5.0,0.6,0.0,0.27310064364952175,0.05125190475958303,1.4982631676514466
2.860081434249878,0.05549323555321435,[0.05838171],5.0,0.6,0.0,0.171410540413328,0.05809069759882387,1.498310863881412
2.8688440322875977,0.05588403298668769,[0.05875934],5.0,0.6,0.0,0.06501186459720434,0.05665217942787552,1.498344737044506
2.8786823749542236,0.05627483042016103,[0.0591365],5.0,0.6,0.0,-0.023467365559762324,0.05558387419500678,1.4983630943013475
2.889172315597534,0.05686102657037104,[0.05951309],5.0,0.6,0.0,-0.08908387209793994,0.05395497065771494,1.4985883965398954
2.900804042816162,0.05725182400384438,[0.05988962],5.0,0.6,0.0,-0.13380243892343535,0.05986647769395672,1.4985960499621758
2.9093847274780273,0.05744722272058106,[0.06026655],5.0,0.6,0.0,-0.16168971219752398,0.052176291255740685,1.4983920810762053
2.917929172515869,0.0578380201540544,[0.06064308],5.0,0.6,0.0,-0.17691845047960947,0.05242437810848995,1.4984042607504355
2.929551839828491,0.0584242163042644,[0.06101857],5.0,0.6,0.0,-0.18305465881492283,0.05182912819084303,1.498629825661193
2.938967227935791,0.058815013737737745,[0.0613931],5.0,0.6,0.0,-0.18290053701788347,0.052087062887531566,1.498646676104096
2.9476468563079834,0.05901041245447442,[0.06176618],5.0,0.6,0.0,-0.17855540561545155,0.046641238954448785,1.4984585747469743
2.959669351577759,0.05959660860468442,[0.06213743],5.0,0.6,0.0,-0.17154367921916006,0.054481874385565406,1.4986877762227566
2.969726324081421,0.059987406038157755,[0.06250783],5.0,0.6,0.0,-0.16294701309951248,0.054386795609046835,1.4987105315824425
2.980670928955078,0.06037820347163111,[0.06287831],5.0,0.6,0.0,-0.15351799879447997,0.054436291249922254,1.4987331282606462
2.9895544052124023,0.060769000905104446,[0.0632491],5.0,0.6,0.0,-0.14377026510617813,0.05444081100274207,1.4987551919251274
2.9986653327941895,0.06115979833857779,[0.06362041],5.0,0.6,0.0,-0.13404672999596262,0.05449321317181325,1.4987764329254372
3.0088911056518555,0.061550595772051124,[0.06399182],5.0,0.6,0.0,-0.12456989773888512,0.04766542757483919,1.498797246440426
3.0199666023254395,0.06213679192226114,[0.06436297],5.0,0.6,0.0,-0.1154782631564964,0.055727965920981774,1.49899938641602
3.029287338256836,0.06252758935573448,[0.06473423],5.0,0.6,0.0,-0.10685233363813128,0.0480884256048636,1.4990181183481113
3.039980173110962,0.06291838678920783,[0.06510584],5.0,0.6,0.0,-0.09873305975521122,0.05623583398254228,1.4990362111310052
3.0486209392547607,0.06330918422268116,[0.06547795],5.0,0.6,0.0,-0.09113479430760157,0.048296968199575865,1.4990535544627475
3.0576066970825195,0.06369998165615451,[0.06585001],5.0,0.6,0.0,-0.08405434647951274,0.049148377323198496,1.4990706428641682
3.066655158996582,0.06409077908962785,[0.0662215],5.0,0.6,0.0,-0.07747726885449505,0.04951122488712991,1.4990879510169663
3.078714370727539,0.06448157652310119,[0.06659308],5.0,0.6,0.0,-0.07138219395736554,0.05589498668926935,1.4991049168419999
3.087865114212036,0.06487237395657452,[0.06696523],5.0,0.6,0.0,-0.06574380184158153,0.04735011264736142,1.4991211607144952
3.100464105606079,0.06545857010678453,[0.06733761],5.0,0.6,0.0,-0.060534830461287895,0.05230449310309074,1.4992913608094116
3.1117184162139893,0.06604476625699454,[0.06771038],5.0,0.6,0.0,-0.055727419154544974,0.049086658394033394,1.4994429872626849
3.1207361221313477,0.06643556369046788,[0.06808353],5.0,0.6,0.0,-0.051293989309910346,0.0470487255321647,1.4994550319715931
3.1306700706481934,0.06682636112394122,[0.06845633],5.0,0.6,0.0,-0.04720780529484102,0.04507008162960004,1.4994671193194962
3.138723373413086,0.06721715855741456,[0.06882757],5.0,0.6,0.0,0.23259504394246816,0.03797783541110972,1.499441178376257
3.150869607925415,0.06780335470762457,[0.06919609],5.0,0.6,0.0,0.26918661782025755,0.042153570588971165,1.4995581959437212
3.1590981483459473,0.06819415214109792,[0.06956181],5.0,0.6,0.0,0.21728152258165598,0.04031198453182562,1.4995908287655921
3.166600227355957,0.06838955085783459,[0.06992415],5.0,0.6,0.0,0.14413508971193895,0.03464691871922941,1.4995136469386274
3.1756629943847656,0.0689757470080446,[0.0702815],5.0,0.6,0.0,0.07631714729370381,0.03232841471020731,1.499654721889553
3.1883134841918945,0.0695619431582546,[0.07063325],5.0,0.6,0.0,0.02218458209277588,0.03608447486884281,1.4997701217081854
3.1966397762298584,0.06975734187499127,[0.07097944],5.0,0.6,0.0,-0.01752231924109865,0.031184440590195386,1.499701110961518
3.207218647003174,0.07034353802520128,[0.07131994],5.0,0.6,0.0,-0.32086793740415154,0.03570184749015357,1.4997327105406464
3.2177460193634033,0.07073433545867464,[0.07165473],5.0,0.6,0.0,-0.37158078000768047,0.02979075004280404,1.4997278176542888
3.228762626647949,0.07112513289214797,[0.07198382],5.0,0.6,0.0,-0.326851459426279,0.03467760883829679,1.4997730219816008
3.2387263774871826,0.07151593032562131,[0.07230766],5.0,0.6,0.0,-0.25596611569668387,0.03325941348699245,1.4998258721204094
3.250779390335083,0.07190672775909465,[0.07262666],5.0,0.6,0.0,-0.4630935141123077,0.032424260564645514,1.4997367292324095
3.2636849880218506,0.07229752519256799,[0.0729413],5.0,0.6,0.0,-0.43879132795170295,0.03656831555571193,1.499773810113972
3.2718284130096436,0.07268832262604133,[0.07325205],5.0,0.6,0.0,-0.33932073499264087,0.029809568973623468,1.4998507427110424
3.280067205429077,0.07288372134277801,[0.0735585],5.0,0.6,0.0,-0.2304734788867916,0.03044241017839202,1.499869399773853
3.2908835411071777,0.07307912005951467,[0.07386031],5.0,0.6,0.0,-0.41256059383982496,0.031112105822651292,1.4997512692218684
3.301637887954712,0.07346991749298801,[0.07415764],5.0,0.6,0.0,-0.3727429376279857,0.030385121680563284,1.4998019973946215
3.3117196559906006,0.07386071492646136,[0.07445058],5.0,0.6,0.0,-0.2645643845297685,0.0295156141018955,1.4998783141121146
3.3226194381713867,0.0742515123599347,[0.07473917],5.0,0.6,0.0,-0.427791134787118,0.028662993781786737,1.4998162280115672
3.332629442214966,0.07444691107667137,[0.07502343],5.0,0.6,0.0,-0.36622545687994457,0.02838196915017752,1.499833696531693
3.3416500091552734,0.07483770851014471,[0.07530329],5.0,0.6,0.0,-0.23957939042359522,0.027012743063087194,1.4999139216223825
3.3509771823883057,0.07503310722688138,[0.07557861],5.0,0.6,0.0,-0.11316523879603561,0.02638936006459393,1.49993095310505
3.360750436782837,0.07522850594361805,[0.07584922],5.0,0.6,0.0,-0.009486469687029812,0.025851776132960618,1.4999228782773344
3.3697659969329834,0.07561930337709137,[0.07611493],5.0,0.6,0.0,-0.20875198192214925,0.024458906808342302,1.4999184350658208
3.378602981567383,0.07561930337709137,[0.07637551],5.0,0.6,0.0,-0.18916172196365433,0.024678857968531344,1.4998590015576296
3.3910233974456787,0.07601010081056472,[0.07663073],5.0,0.6,0.0,-0.10055211208736328,0.023064484645184496,1.499915441289788
3.399674415588379,0.07640089824403806,[0.07688033],5.0,0.6,0.0,-0.005347472068993955,0.0213754430002501,1.4999540084593637
3.4107353687286377,0.07659629696077475,[0.0771241],5.0,0.6,0.0,-0.20208230396221177,0.02094399884692483,1.4999138870875186
3.4207332134246826,0.0767916956775114,[0.07736187],5.0,0.6,0.0,-0.17697868042502496,0.020582563736843792,1.4999116662785619
3.4309029579162598,0.07698709439424807,[0.07759354],5.0,0.6,0.0,-0.08308901854621521,0.020284349000263734,1.4999213073581195
3.441704511642456,0.07718249311098475,[0.07781908],5.0,0.6,0.0,-0.2599305795345063,0.020092117500163778,1.4998686631716163
3.4500443935394287,0.07718249311098475,[0.07803851],5.0,0.6,0.0,-0.21119017106512591,0.02113017204092577,1.4998202575907684
3.458653211593628,0.07737789182772142,[0.07825198],5.0,0.6,0.0,-0.09653876398678372,0.021188102217933515,1.4998402695591897
3.4693334102630615,0.07757329054445808,[0.07845969],5.0,0.6,0.0,0.018710682466609528,0.02127140427013758,1.4998426093102655
3.4795522689819336,0.07776868926119475,[0.07866195],5.0,0.6,0.0,-0.16400758509566032,0.021660459651917104,1.4998204052893378
3.4903883934020996,0.07796408797793142,[0.07885914],5.0,0.6,0.0,-0.12994853503431264,0.02226459654980354,1.4998272183553905
3.500943660736084,0.0781594866946681,[0.07905176],5.0,0.6,0.0,-0.030999025789403944,0.022951881694950885,1.4998400670157424
3.51318621635437,0.07835488541140477,[0.07924076],5.0,0.6,0.0,0.07041679286554617,0.027482163742361867,1.4998393680369335
3.523606061935425,0.07835488541140477,[0.07942711],5.0,0.6,0.0,-0.12352560358697497,0.0248848295666246,1.4997587329317454
3.5380442142486572,0.07874568284487811,[0.07961198],5.0,0.6,0.0,-0.0982036230563994,0.03402116096315374,1.4998427397508405
3.546488046646118,0.07894108156161479,[0.07979693],5.0,0.6,0.0,-0.005911245961396,0.02935662271115922,1.4998534896252462
3.5552010536193848,0.07913648027835145,[0.07998277],5.0,0.6,0.0,0.09048098213083809,0.030827169418611383,1.4998506749277156
3.5651113986968994,0.0793318789950881,[0.08017003],5.0,0.6,0.0,0.16879306712108613,0.03255243406224278,1.4998383033583047
3.5747804641723633,0.0793318789950881,[0.08035977],5.0,0.6,0.0,0.22437853307889566,0.03555661444815916,1.499751234825685
3.583597183227539,0.07952727771182479,[0.0805526],5.0,0.6,0.0,0.2593922467793257,0.03174528382240789,1.4997396808128263
3.592799186706543,0.07972267642856146,[0.08074868],5.0,0.6,0.0,0.2780165436884514,0.03537379465186802,1.4997319497225627
3.6016697883605957,0.07991807514529814,[0.08094886],5.0,0.6,0.0,0.2844886334537773,0.038683719216589925,1.499727275996127
3.6115777492523193,0.08011347386203481,[0.08115454],5.0,0.6,0.0,0.28240415186194323,0.041670166942980084,1.499723896248516
3.6236987113952637,0.08030887257877146,[0.0813671],5.0,0.6,0.0,0.27457165597320965,0.044613859719782045,1.4997199384940656
3.635918617248535,0.08050427129550815,[0.08158856],5.0,0.6,0.0,0.26308161382805395,0.054799632381461905,1.499713370990369
3.6469485759735107,0.08089506872898149,[0.08182215],5.0,0.6,0.0,0.5254783301086556,0.06190372971091595,1.4996226111795745
3.6550073623657227,0.08089506872898149,[0.08206995],5.0,0.6,0.0,0.543867106869053,0.053416983830659924,1.499503831730342
3.662813901901245,0.08109046744571814,[0.08233081],5.0,0.6,0.0,0.4736650542370392,0.04682173248372107,1.4995253732320404
3.6736338138580322,0.08128586616245481,[0.08260292],5.0,0.6,0.0,0.38259116388990466,0.050147793358265684,1.4995441844157278
3.681882381439209,0.0814812648791915,[0.08288599],5.0,0.6,0.0,0.29750948699778257,0.052441921912237816,1.4995395419455648
3.6926136016845703,0.08167666359592816,[0.08318026],5.0,0.6,0.0,0.502991067282383,0.0535263090889179,1.499359642315008
3.704220771789551,0.0820674610294015,[0.0834856],5.0,0.6,0.0,0.4809182636377425,0.05299588512413548,1.4994257181893704
3.7146005630493164,0.08245825846287484,[0.08380212],5.0,0.6,0.0,0.6600341215753993,0.05794108103941977,1.4993146806476414
3.7226827144622803,0.0826536571796115,[0.08412949],5.0,0.6,0.0,0.5859419463968122,0.04876642313952291,1.499308969228481
3.7316794395446777,0.08304445461308485,[0.08446578],5.0,0.6,0.0,0.7134013541606449,0.04675119002504055,1.49921733361759
3.7414588928222656,0.0834352520465582,[0.08480171],5.0,0.6,0.0,0.5969439082282054,-0.03470365217346464,1.4993614359839826
3.753955602645874,0.08382604948003153,[0.08512217],5.0,0.6,0.0,0.6929471829126692,-0.0178828926937814,1.4993067531424478
3.76313853263855,0.0840214481967682,[0.08542079],5.0,0.6,0.0,0.5547684615720927,-0.006462435329310716,1.4993793965763413
3.7736055850982666,0.08421684691350488,[0.08569941],5.0,0.6,0.0,0.36077987302729886,0.007010435355244395,1.499463617263088
3.781791925430298,0.08441224563024154,[0.08595981],5.0,0.6,0.0,0.18134898058993515,0.007143455964107621,1.4994966438607567
3.7913880348205566,0.08441224563024154,[0.0862025],5.0,0.6,0.0,-0.23751701158350827,0.008057939860780943,1.4993172127685797
3.8006041049957275,0.08460764434697822,[0.08642721],5.0,0.6,0.0,-0.6510463632200012,0.008001801248124593,1.4990226306402352
3.8096392154693604,0.08460764434697822,[0.08663394],5.0,0.6,0.0,-0.9764741834340285,0.009153027423176406,1.4984698815859128
3.818600654602051,0.08460764434697822,[0.0868229],5.0,0.6,0.0,-1.199984334488145,0.010279273797038541,1.4979482514729026
3.826902151107788,0.08460764434697822,[0.08699452],5.0,0.6,0.0,-1.3338102553586362,0.011291227034449978,1.4975386378368787
3.8368403911590576,0.08480304306371489,[0.08714938],5.0,0.6,0.0,-1.6733635657589843,0.01151181296946134,1.4968194526996683
3.8448193073272705,0.08480304306371489,[0.08728817],5.0,0.6,0.0,-1.4424888844654011,0.012290018871590463,1.4972190612828769
3.8535995483398438,0.08480304306371489,[0.08741165],5.0,0.6,0.0,-1.3305310723572554,0.013088843064439751,1.4973238709948395
3.8652656078338623,0.08480304306371489,[0.08752071],5.0,0.6,0.0,-0.9861317438803994,0.013977317431142056,1.497800578803511
3.8749380111694336,0.08480304306371489,[0.08761628],5.0,0.6,0.0,-0.8965268982955379,0.014610460299469583,1.4978204270794042
3.8846936225891113,0.08480304306371489,[0.08769933],5.0,0.6,0.0,-0.6191941144047938,0.014976594155898538,1.4980383851335919
3.8926033973693848,0.08480304306371489,[0.08777155],5.0,0.6,0.0,-0.3266758339459388,0.023676347898980706,1.4981597137564215
3.903294563293457,0.08480304306371489,[0.08783843],5.0,0.6,0.0,-0.35696454655066584,0.056555710129804336,1.4980641377526356
3.9124414920806885,0.08480304306371489,[0.08790745],5.0,0.6,0.0,-0.20512032128967855,0.0488561905417621,1.498043063040197
3.921574831008911,0.08480304306371489,[0.08798148],5.0,0.6,0.0,-0.02101824898004398,0.041157814091354966,1.4979812197143751
3.930598497390747,0.08480304306371489,[0.08805976],5.0,0.6,0.0,0.1387436753281866,0.03716851577412014,1.4978666811209562
3.9391894340515137,0.08480304306371489,[0.08814194],5.0,0.6,0.0,0.2586483822574617,0.03774577288069786,1.49772303368484
3.9466004371643066,0.08480304306371489,[0.08822815],5.0,0.6,0.0,0.3398333902870627,0.03549506503034422,1.4975705200537623
3.9606094360351562,0.08499844178045156,[0.08831889],5.0,0.6,0.0,0.389047503061899,0.04077244421715522,1.4976847006589389
3.9719603061676025,0.08519384049718824,[0.08841576],5.0,0.6,0.0,0.6899860957794208,0.04506668984306281,1.4975717338675798
3.980721950531006,0.08519384049718824,[0.08852017],5.0,0.6,0.0,0.7304834455941229,0.041122061684376404,1.4973924894357338
3.988607883453369,0.08538923921392488,[0.08863189],5.0,0.6,0.0,0.9466967770608766,0.037553715585162156,1.4972325394199582
3.998241901397705,0.08538923921392488,[0.08875036],5.0,0.6,0.0,0.8910114006374957,0.04068512640674535,1.4971524933704465
4.007566452026367,0.08558463793066157,[0.08887596],5.0,0.6,0.0,1.0237010846649655,0.04257884549152723,1.4970562947384982
4.017790079116821,0.08558463793066157,[0.08900995],5.0,0.6,0.0,0.903513725497729,0.05054238410423793,1.4970488828343396
4.025610685348511,0.08578003664739824,[0.0891535],5.0,0.6,0.0,0.9899317516362793,0.04536150016280364,1.4969975829786486
4.035592794418335,0.0859754353641349,[0.08930616],5.0,0.6,0.0,0.8385397461786523,0.041794251635364585,1.4972605579815297
4.048191547393799,0.08617083408087158,[0.08946763],5.0,0.6,0.0,0.6292749146298625,0.05084047152252274,1.497533897213649
4.057471036911011,0.08636623279760824,[0.08963918],5.0,0.6,0.0,0.70962241177711,0.05196394663352646,1.4974851454832117
4.067144870758057,0.08656163151434493,[0.08982187],5.0,0.6,0.0,0.5834052256864986,0.05292016712988925,1.4976231278165817
4.075568675994873,0.08695242894781824,[0.09001547],5.0,0.6,0.0,0.6836929739209556,0.046459773744188394,1.4977774778052702
4.085993766784668,0.08734322638129159,[0.09021967],5.0,0.6,0.0,0.5536179634778057,0.053891658111247735,1.4981184833137176
4.093676328659058,0.08734322638129159,[0.09043464],5.0,0.6,0.0,0.6434753408416132,0.048677096750556335,1.497782326504409
4.106719017028809,0.08773402381476494,[0.09066041],5.0,0.6,0.0,0.5033179816113569,0.05563506589945178,1.4981001725038026
4.117994785308838,0.08812482124823828,[0.090898],5.0,0.6,0.0,0.5857243193509043,0.060260250693986404,1.4982077554541031
4.12758994102478,0.08851561868171162,[0.09114868],5.0,0.6,0.0,0.4410719118333227,0.05735010221455825,1.4984695584424532
4.1358802318573,0.08871101739844828,[0.09141169],5.0,0.6,0.0,0.521536042507964,0.04986913359399557,1.4983398981054812
4.1441521644592285,0.08929721354865831,[0.09168515],5.0,0.6,0.0,0.37690272146354703,0.04909076615606572,1.498754466671781
4.151657819747925,0.08968801098213164,[0.09196736],5.0,0.6,0.0,0.4587838789851507,0.042907795299191476,1.4988047961058244
4.163562297821045,0.09007880841560498,[0.09225683],5.0,0.6,0.0,0.3165015124494044,0.04500182201603668,1.4989771318802068
4.173890829086304,0.09046960584907832,[0.09255289],5.0,0.6,0.0,0.4013124823382763,0.04667632005586824,1.4990124894047758
4.182588338851929,0.09086040328255167,[0.09285562],5.0,0.6,0.0,0.2622793128102405,0.04841738874147038,1.4991529342291534
4.1906657218933105,0.09125120071602501,[0.0931652],5.0,0.6,0.0,0.3504756405252525,0.04999190661494821,1.4991761576509879
4.200145244598389,0.09164199814949833,[0.09348192],5.0,0.6,0.0,0.2148384967216866,0.051533167984481446,1.499288806847807
4.210847616195679,0.09203279558297167,[0.09380615],5.0,0.6,0.0,0.030319970451156447,0.05351341303524355,1.4993705559642168
4.220315456390381,0.09261899173318171,[0.09413838],5.0,0.6,0.0,0.14079467905092835,0.054427667140193155,1.4995236397445701
4.230629920959473,0.0932051878833917,[0.09447924],5.0,0.6,0.0,0.047539118817690684,0.05561664189136766,1.4996737293349744
4.240867614746094,0.09359598531686505,[0.09482942],5.0,0.6,0.0,-0.09416950096127005,0.05799761209982202,1.4996891718606344
4.250853538513184,0.09398678275033838,[0.09518976],5.0,0.6,0.0,-0.22342533414441745,0.06087414320208995,1.499673451893976
4.2596869468688965,0.0945729789005484,[0.09556025],5.0,0.6,0.0,-0.04539329805050307,0.05223244847962646,1.499803544369935
4.2716968059539795,0.09515917505075841,[0.0959411],5.0,0.6,0.0,-0.07773429500929224,0.06758449379541348,1.499873226491172
4.280581474304199,0.09574537120096842,[0.09633465],5.0,0.6,0.0,0.10530055202991184,0.068825468890017,1.4999222993034085
4.289247274398804,0.09633156735117841,[0.09674306],5.0,0.6,0.0,0.045607833595982084,0.07057782559834286,1.4999645862862026
4.296559810638428,0.0965269660679151,[0.09716631],5.0,0.6,0.0,-0.08144883842100584,0.06209997844945974,1.4999133134791525
4.309601068496704,0.09730856093486177,[0.09760449],5.0,0.6,0.0,0.07095980993122707,0.07893896494895174,1.4999787367299573
4.3205626010894775,0.09809015580180845,[0.09806016],5.0,0.6,0.0,0.007508770857563622,0.07943781510467852,1.4999997780795844
4.330059051513672,0.09867635195201847,[0.0985356],5.0,0.6,0.0,0.1625548642851481,0.08076427300679385,1.4999763678033513
4.339006185531616,0.09945794681896515,[0.09903166],5.0,0.6,0.0,0.3565476182554731,0.08153902169088151,1.4998690329642492
4.348694324493408,0.10004414296917516,[0.09954914],5.0,0.6,0.0,0.24590564256845918,0.08350483568913958,1.4999059833758974
4.3569183349609375,0.10063033911938518,[0.10008731],5.0,0.6,0.0,0.33128075128016315,0.07068854585764539,1.4998593375679736
4.370773792266846,0.10160733270306853,[0.10064559],5.0,0.6,0.0,0.4595767214976757,0.08972973817986116,1.4996578284547475
4.38158917427063,0.1023889275700152,[0.10122621],5.0,0.6,0.0,0.29576369444207623,0.08957396380112442,1.4996645421893862
4.3896589279174805,0.10297512372022523,[0.10183098],5.0,0.6,0.0,0.34150524075047606,0.09059284073013095,1.4996514110851986
4.400195598602295,0.10395211730390858,[0.10245993],5.0,0.6,0.0,0.441934402994475,0.08986778337557054,1.4994094077991158
4.407562971115112,0.10453831345411858,[0.10311147],5.0,0.6,0.0,0.5355882239074414,0.07535174596616954,1.499379418814351
4.41660213470459,0.10531990832106528,[0.10378263],5.0,0.6,0.0,0.3268007405727959,0.08042958056501556,1.4994479723380323
4.426616668701172,0.10610150318801194,[0.10447224],5.0,0.6,0.0,0.33241352989580675,0.08430922039397111,1.4993869895633491
4.43737006187439,0.1070784967716953,[0.10518068],5.0,0.6,0.0,0.4020078146844579,0.08621290785956932,1.499159632839203
4.448953628540039,0.10805549035537865,[0.10590973],5.0,0.6,0.0,0.4741571331269861,0.10347158172215395,1.4989122380097926
4.456853866577148,0.10883708522232532,[0.10666224],5.0,0.6,0.0,0.5277309163044566,0.10047238355071758,1.4988471882164613
4.466555833816528,0.10981407880600867,[0.1074373],5.0,0.6,0.0,0.5588115873272101,0.08080055642493918,1.4986384185468378
4.476698637008667,0.11079107238969202,[0.10823074],5.0,0.6,0.0,0.2940000500152003,0.08320436635346343,1.4986254646846162
4.48666787147522,0.11176806597337538,[0.10904043],5.0,0.6,0.0,0.25673577278719917,0.08475317480998033,1.4984640414748813
4.496395111083984,0.11254966084032206,[0.10986586],5.0,0.6,0.0,0.020702737027431695,0.08641231171468974,1.4985601603780305
4.506839990615845,0.11372205314074207,[0.11070791],5.0,0.6,0.0,0.041302364649140416,0.10165358282827473,1.498183373662136
4.516521692276001,0.11450364800768877,[0.11156708],5.0,0.6,0.0,-0.1359102074229122,0.0818758110999368,1.4982630525096448
4.526891708374023,0.1156760403081088,[0.1124405],5.0,0.6,0.0,-0.0654786369349041,0.08227344871279631,1.4979052491466618
4.538458585739136,0.1168484326085288,[0.11332714],5.0,0.6,0.0,-0.20394026697074513,0.09827351349928416,1.4974922101687986
4.546539068222046,0.11782542619221216,[0.11422749],5.0,0.6,0.0,-0.1048721549861131,0.07755475411094713,1.4974061327978054
4.556397914886475,0.11899781849263219,[0.1151386],5.0,0.6,0.0,0.05311605851184982,0.07761167533331152,1.4970236210066585
4.567536115646362,0.12036560950978886,[0.11605777],5.0,0.6,0.0,-0.07661696824832684,0.0763393595694125,1.496291015117138
4.576519966125488,0.12134260309347221,[0.11698409],5.0,0.6,0.0,0.0026108040104753233,0.07642065582477606,1.4962078736644517
4.586603879928589,0.12251499539389225,[0.11791661],5.0,0.6,0.0,0.13403934717608634,0.07506697998773582,1.4957665304468422
4.5955846309661865,0.12349198897757559,[0.11885437],5.0,0.6,0.0,-0.02034171647257782,0.07458310948218666,1.4957074341862096
4.605626583099365,0.12466438127799562,[0.1197979],5.0,0.6,0.0,0.03886138885416637,0.08855921258261777,1.4952735389753196
4.615776062011719,0.12564137486167898,[0.12074898],5.0,0.6,0.0,-0.12091468976602475,0.08344777908455048,1.495213445076423
4.623517036437988,0.1266183684453623,[0.12170453],5.0,0.6,0.0,-0.3193936344020932,0.08323079152719366,1.4951065506801873
4.63575553894043,0.1281815581792557,[0.12265889],5.0,0.6,0.0,-0.48879117880160083,0.09193751453333127,1.493740778148867
4.647589921951294,0.12935395047967568,[0.12361317],5.0,0.6,0.0,-0.610773484743396,0.09883094250212769,1.4931527370128461
4.655545711517334,0.13033094406335904,[0.12456974],5.0,0.6,0.0,-0.6869821639559646,0.07395631715865561,1.4930325033524945
4.663528919219971,0.1313079376470424,[0.12552468],5.0,0.6,0.0,-0.7257283003438596,0.05577939558899132,1.4929412092881986
4.672587871551514,0.13208953251398908,[0.12647319],5.0,0.6,0.0,-0.46030263274569583,0.05922839000127271,1.4935534970082698
4.682987213134766,0.1332619248144091,[0.12741564],5.0,0.6,0.0,-0.41787924919340347,0.07518431052505699,1.4930575177887575
4.6920225620269775,0.13423891839809246,[0.12835383],5.0,0.6,0.0,-0.4503084929885048,0.05637599857269376,1.4929461560184407
4.702627420425415,0.13560670941524913,[0.12928638],5.0,0.6,0.0,-0.4952750245525209,0.055931959828564866,1.4918599389723912
4.714020729064941,0.13677910171566918,[0.13021346],5.0,0.6,0.0,-0.5297916214863505,0.07032776407570222,1.4912066219442364
4.724521636962891,0.1379514940160892,[0.13113799],5.0,0.6,0.0,-0.5480276865939855,0.06494487032735115,1.49053467625589
4.733808755874634,0.1391238863165092,[0.13206087],5.0,0.6,0.0,-0.5509802358440085,0.059959943735474114,1.489846425434873
4.7415618896484375,0.1399054811834559,[0.13297993],5.0,0.6,0.0,-0.5418387458002546,0.043542122391337174,1.4902347212000688
4.7519848346710205,0.14107787348387593,[0.13389192],5.0,0.6,0.0,-0.5240377932626125,0.043868680309218755,1.48952116551674
4.7606751918792725,0.14205486706755927,[0.13479531],5.0,0.6,0.0,-0.5005422212649444,0.044201454764278746,1.4893286411047835
4.771761417388916,0.14342265808471594,[0.13569006],5.0,0.6,0.0,-0.4736706338255064,0.04156914151424534,1.487945622915529
4.781560182571411,0.14420425295166264,[0.13657602],5.0,0.6,0.0,-0.721171883100126,0.041661167096373464,1.4880424754457278
4.790780782699585,0.14518124653534598,[0.13745296],5.0,0.6,0.0,-0.7253035261585723,0.04008586940484985,1.4877343157211906
4.80097770690918,0.14615824011902934,[0.13832056],5.0,0.6,0.0,-0.9176198611990865,0.03844205746738509,1.4871628969613684
4.809576988220215,0.14693983498597601,[0.13917731],5.0,0.6,0.0,-0.8469417653870708,0.02493462776089624,1.4874872997160162
4.820087194442749,0.14791682856965938,[0.14002185],5.0,0.6,0.0,-0.9708833595388741,0.038626328557246806,1.4869100465397271
4.8275299072265625,0.14869842343660605,[0.14085415],5.0,0.6,0.0,-1.1222929906557146,0.024946879467366095,1.4868321604077792
4.835609197616577,0.14928461958681605,[0.1416731],5.0,0.6,0.0,-0.9642736241965184,0.02709039211398232,1.487788135156372
4.845154762268066,0.15006621445376275,[0.14247766],5.0,0.6,0.0,-1.0011088763334164,0.0276083974884885,1.4878033430603363
4.853551864624023,0.15084780932070943,[0.143267],5.0,0.6,0.0,-1.0816753112362623,0.016474009555019924,1.4877018721332291
4.861718654632568,0.15143400547091945,[0.14403939],5.0,0.6,0.0,-1.148035460623344,0.01997735993695982,1.488143369772861
4.870969772338867,0.1522156003378661,[0.14479435],5.0,0.6,0.0,-1.1834363321633599,0.021049816775441123,1.4880039909470177
4.882430553436279,0.1529971952048128,[0.14553331],5.0,0.6,0.0,-1.1879409146580326,0.030230384267770125,1.4878705122188067
4.891486883163452,0.15397418878849614,[0.14625399],5.0,0.6,0.0,-1.1673857304302142,-0.02049120974128914,1.4871370341085508
4.9005067348480225,0.15456038493870616,[0.14694201],5.0,0.6,0.0,-0.8526197978772176,-0.0902186947249231,1.4879183385815637
4.9105377197265625,0.15514658108891616,[0.14758211],5.0,0.6,0.0,-0.7687304536527212,-0.05198983716384444,1.4881812829631382
4.919927358627319,0.15573277723912618,[0.14817374],5.0,0.6,0.0,-0.7658975808288528,-0.03532573900317328,1.4882007587639141
4.92962121963501,0.15592817595586284,[0.14872257],5.0,0.6,0.0,-1.0565507263412113,-0.02670543301887986,1.488839304740311
4.937542676925659,0.15612357467259955,[0.14923143],5.0,0.6,0.0,-1.373803663394419,-0.02722819768626593,1.4891416833445394
4.947226285934448,0.1563189733893362,[0.14970148],5.0,0.6,0.0,-1.6228580313229326,-0.02681799595485787,1.4893233335490899
4.958547115325928,0.1563189733893362,[0.15013364],5.0,0.6,0.0,-2.3352345530683607,-0.024978700551474057,1.4883345017580567
4.9665303230285645,0.1563189733893362,[0.15052914],5.0,0.6,0.0,-2.757388094895699,-0.022989206432128814,1.4876900799442407
4.976621866226196,0.1563189733893362,[0.15088946],5.0,0.6,0.0,-2.9727920071034877,-0.02100778333380306,1.4875858815279437
4.986540079116821,0.1563189733893362,[0.15121629],5.0,0.6,0.0,-3.045022291169048,-0.018871735827519182,1.4879512715577738
4.995506286621094,0.15612357467259955,[0.15151143],5.0,0.6,0.0,-2.744848285827631,-0.01624979711133203,1.4901775508254786
5.003568172454834,0.15592817595586284,[0.15177671],5.0,0.6,0.0,-2.348854980882133,-0.014737840988311263,1.492468875453987
5.016003847122192,0.15592817595586284,[0.15201399],5.0,0.6,0.0,-1.9690603296331637,-0.011830273596656686,1.4940626436304685
5.0255653858184814,0.15573277723912618,[0.15222539],5.0,0.6,0.0,-1.3669755449774936,-0.009721011098661496,1.4961536049999264
5.0348711013793945,0.1555373785223895,[0.15241353],5.0,0.6,0.0,-0.7913057399097196,-0.002225775073961325,1.4975843144630714
5.042530298233032,0.15534197980565284,[0.15258473],5.0,0.6,0.0,-0.324023152353217,0.03590918284733164,1.498402523570745
5.052562713623047,0.1549511823721795,[0.15274888],5.0,0.6,0.0,0.023463337357156167,0.04159327971013701,1.499030037509889
5.062605142593384,0.1549511823721795,[0.15291199],5.0,0.6,0.0,0.26607149046783485,0.031146851169046745,1.4991159846577762
5.073179483413696,0.15475578365544285,[0.1530749],5.0,0.6,0.0,0.7016587718954419,0.02793622701860526,1.4990687334358241
5.0815136432647705,0.15475578365544285,[0.15323756],5.0,0.6,0.0,1.1082038439071076,0.023367027972797324,1.498625728093819
5.089523077011108,0.15475578365544285,[0.15339988],5.0,0.6,0.0,1.4148553146777405,0.02089835337582038,1.498144438500765
5.104088544845581,0.15475578365544285,[0.15356339],5.0,0.6,0.0,1.8901373623048847,0.03723375471095871,1.4970632794880894
5.11334753036499,0.15475578365544285,[0.15373168],5.0,0.6,0.0,2.306733218283013,0.038035710934409356,1.495844942448917
5.122616767883301,0.1549511823721795,[0.15390682],5.0,0.6,0.0,2.5975981092949167,0.031651286194995784,1.4947841763961607
5.1334757804870605,0.1549511823721795,[0.15408963],5.0,0.6,0.0,2.7615421229838972,0.041596680435051596,1.4942067779933563
5.141982555389404,0.1549511823721795,[0.15428207],5.0,0.6,0.0,2.8203297460981833,0.04286102801877933,1.4940242292131223
5.151895523071289,0.1549511823721795,[0.15448587],5.0,0.6,0.0,2.5242050464238432,0.04456435290090189,1.495236092775451
5.159550428390503,0.15514658108891616,[0.15470123],5.0,0.6,0.0,2.1397718111926034,0.03818187193521225,1.496563593454845
5.171543598175049,0.15534197980565284,[0.15492764],5.0,0.6,0.0,2.050306640150349,0.041494770300278365,1.4968461585895776
5.180195331573486,0.15534197980565284,[0.15516541],5.0,0.6,0.0,2.0482158885931705,0.045251964725149606,1.4968805962706044
5.187546730041504,0.1555373785223895,[0.15541547],5.0,0.6,0.0,1.7740399925642527,0.04802012135729158,1.497659717167028
5.198174238204956,0.15573277723912618,[0.15567866],5.0,0.6,0.0,1.4430576203501582,0.05042632403122169,1.4984516637807221
5.206037998199463,0.15592817595586284,[0.15595489],5.0,0.6,0.0,1.415391881759593,0.04412826980454272,1.4985107959297328
5.216075420379639,0.15612357467259955,[0.15624326],5.0,0.6,0.0,1.4736658869468973,0.04834758218663511,1.4983831374167664
5.225843191146851,0.1563189733893362,[0.1565446],5.0,0.6,0.0,1.2548180783230423,0.06115926505198723,1.498819081931012
5.2355287075042725,0.15651437210607286,[0.15686035],5.0,0.6,0.0,1.249298672029333,0.052750486994028435,1.4988155883898577
5.243634462356567,0.15670977082280954,[0.15718921],5.0,0.6,0.0,1.0224897547387013,0.04710935092125672,1.499176374259827
5.252036094665527,0.15710056825628288,[0.15752919],5.0,0.6,0.0,1.031287791814096,0.05171128218238869,1.499172172544741
5.26039719581604,0.15729596697301954,[0.15788024],5.0,0.6,0.0,1.101904187649257,0.05614551445244436,1.4990286985545935
5.271529197692871,0.15768676440649287,[0.15824306],5.0,0.6,0.0,0.8897477698659146,0.05864225682734873,1.4993491496490243
5.28148627281189,0.15788216312322959,[0.1586182],5.0,0.6,0.0,0.8922096119165353,0.06159619910267214,1.4992994361944123
5.291318655014038,0.15846835927343958,[0.159006],5.0,0.6,0.0,0.952604268301077,0.0620312704691403,1.4992671364822336
5.301482915878296,0.1586637579901762,[0.15940665],5.0,0.6,0.0,1.0087470549684618,0.06377961286260789,1.4991327232412008
5.310853481292725,0.15905455542364957,[0.15982009],5.0,0.6,0.0,0.7647102857818194,0.06439428012202951,1.4994476745033491
5.320218801498413,0.15983615029059628,[0.16024609],5.0,0.6,0.0,0.7372445220049442,0.06257051220501729,1.49956194993892
5.3284711837768555,0.16022694772406962,[0.16068333],5.0,0.6,0.0,0.49984782314487497,0.05325860913606851,1.499772391621113
5.337468862533569,0.16042234644080625,[0.16112961],5.0,0.6,0.0,0.5099989217723755,0.05666899352602686,1.4997063817845864
5.348567724227905,0.1610085425910163,[0.16158369],5.0,0.6,0.0,0.5918117153903799,0.0570201604764745,1.499673191648995
5.3575279712677,0.16159473874122632,[0.16204513],5.0,0.6,0.0,0.3980150437445425,0.05649692171133226,1.499841519323558
5.366518974304199,0.16179013745796297,[0.16251322],5.0,0.6,0.0,0.4235556710502032,0.05709463444864812,1.4997619081286961
5.375660181045532,0.16237633360817297,[0.16298705],5.0,0.6,0.0,0.23374916169888174,0.055472828726689814,1.4998847376771756
5.387512445449829,0.162962529758383,[0.1634655],5.0,0.6,0.0,0.2838974808590612,0.053181412562232896,1.4998894121609285
5.401979446411133,0.16374412462532967,[0.16394117],5.0,0.6,0.0,0.39837630438920196,-0.017927065559821893,1.4998741098596502
5.411558389663696,0.16433032077553966,[0.16440077],5.0,0.6,0.0,0.23099969852439176,-0.007800385292354768,1.4999592871506733
5.4247307777404785,0.16491651692574968,[0.16483935],5.0,0.6,0.0,0.0018952031264275887,0.014190271012541493,1.499998806319295
5.433516025543213,0.16511191564248637,[0.1652595],5.0,0.6,0.0,-0.20357856101311292,0.013748568043436464,1.4999647933965594
5.443113327026367,0.165307314359223,[0.16566208],5.0,0.6,0.0,-0.6359986314474585,0.016899955850163354,1.4996738129928613
5.455543279647827,0.1655027130759597,[0.16604659],5.0,0.6,0.0,-1.3277419752275124,0.015003127510593862,1.4986302600753425
5.464266300201416,0.16569811179269636,[0.16641225],5.0,0.6,0.0,-1.6795849143252646,0.013722555715892815,1.4978024532306773
5.473491191864014,0.16569811179269636,[0.16675808],5.0,0.6,0.0,-2.11101310539352,0.01288458513060148,1.4964689689007549
5.484502792358398,0.16569811179269636,[0.16708835],5.0,0.6,0.0,-2.4607642340285865,0.06858549710028439,1.4951261665665094
5.495763301849365,0.16589351050943302,[0.16741217],5.0,0.6,0.0,-2.6882334633111595,0.05624876782059479,1.4941881942441482
5.506507396697998,0.16589351050943302,[0.16773276],5.0,0.6,0.0,-2.5248116062001316,0.04600177374576996,1.4946008002023916
5.5155415534973145,0.16628430794290636,[0.1680481],5.0,0.6,0.0,-1.9602368731683737,0.04104155068335353,1.4965257873095639
5.523512840270996,0.16628430794290636,[0.16835735],5.0,0.6,0.0,-1.35023727088815,0.04254658761965187,1.4977855656324062
5.5325236320495605,0.16667510537637972,[0.16866094],5.0,0.6,0.0,-0.8253079378925099,0.04377037023253833,1.4987048226670296
5.540477752685547,0.1668705040931164,[0.16895943],5.0,0.6,0.0,-0.41760410962096234,0.039913545962319684,1.4989978557526853
5.551493406295776,0.16706590280985303,[0.16925306],5.0,0.6,0.0,0.15593898775196582,0.04345170324828239,1.4990256246950353
5.563133478164673,0.1674567002433264,[0.16954346],5.0,0.6,0.0,0.3959995137429754,0.05291677475068832,1.4990127459712603
5.57261848449707,0.16765209896006306,[0.16983284],5.0,0.6,0.0,0.754353517324478,0.047090910467420394,1.498625906086141
5.581474542617798,0.1680428963935364,[0.17012208],5.0,0.6,0.0,1.0736585178017402,0.04962127194088671,1.4982784090647132
5.592473268508911,0.16843369382700976,[0.17041222],5.0,0.6,0.0,1.0307995272964585,0.05239140777824792,1.4984270596161093
5.604064464569092,0.16882449126048307,[0.17070586],5.0,0.6,0.0,1.143135705241921,0.06324774027973472,1.498320531429229
5.614885330200195,0.16921528869395644,[0.17100629],5.0,0.6,0.0,0.9943448654773046,0.0636323994191095,1.4986232058352087
5.6235857009887695,0.16960608612742978,[0.17131493],5.0,0.6,0.0,1.053847606858276,0.055296284580752385,1.4985900999133495
5.632189035415649,0.16980148484416643,[0.17163157],5.0,0.6,0.0,0.8804308295447564,0.059932159931510604,1.4987536836918918
5.641483306884766,0.17038768099437648,[0.17195705],5.0,0.6,0.0,0.9304363446253219,0.06227768105199689,1.4988635183875598
5.651263236999512,0.17077847842784977,[0.17229305],5.0,0.6,0.0,1.031717553855977,0.0653772281027853,1.498749578052665
5.660887718200684,0.17136467457805982,[0.1726412],5.0,0.6,0.0,0.8418471365241844,0.0672606324330158,1.4991468678140096
5.670477628707886,0.17175547201153316,[0.173003],5.0,0.6,0.0,0.8602374687727106,0.07009727736378747,1.499138222284024
5.67969274520874,0.17214626944500647,[0.17337986],5.0,0.6,0.0,0.9318707496336092,0.07262484313774856,1.4990496883972624
5.689964294433594,0.1725370668784798,[0.17377305],5.0,0.6,0.0,0.9958554875885149,0.07518247867352836,1.4989568187066564
5.699507713317871,0.17312326302868986,[0.17418368],5.0,0.6,0.0,0.757231668986516,0.07663262094311289,1.4993484734845484
5.7082719802856445,0.17370945917889985,[0.17461153],5.0,0.6,0.0,0.7334580003584209,0.06544748576533477,1.4994369691458673
5.720621109008789,0.17449105404584653,[0.1750564],5.0,0.6,0.0,0.7745815810569531,0.0815711270938488,1.4994896564291953
5.729772090911865,0.17507725019605655,[0.17552033],5.0,0.6,0.0,0.8194936167332627,0.08126762944558463,1.4994610705295495
5.737946033477783,0.17585884506300323,[0.17600489],5.0,0.6,0.0,0.847258324733113,0.07990740690062757,1.4994616541208758
5.746815204620361,0.17644504121321322,[0.17650888],5.0,0.6,0.0,0.8540591988043729,0.0670354269258553,1.499456501214155
5.755840539932251,0.17703123736342324,[0.17702986],5.0,0.6,0.0,0.5665304822127646,0.07035015592923474,1.499761136290559
5.765565633773804,0.17781283223036992,[0.17756555],5.0,0.6,0.0,0.5080980874722358,0.05903662140031049,1.4997956297946202
5.777374744415283,0.17878982581405328,[0.17811495],5.0,0.6,0.0,0.5284396863187919,0.07463198823144035,1.499701083124115
5.788553714752197,0.17957142068099996,[0.17867938],5.0,0.6,0.0,0.5639403310837072,0.07366081278851859,1.4996041799998057
5.798523902893066,0.18054841426468332,[0.17925967],5.0,0.6,0.0,0.5908097821560143,0.07053306513110422,1.4994081105445756
5.808791637420654,0.18133000913162997,[0.17985494],5.0,0.6,0.0,0.3266667160910003,0.0684917246288412,1.499485498353895
5.818490028381348,0.18211160399857668,[0.18046406],5.0,0.6,0.0,0.29112316114571046,0.06627322190305264,1.4993941819629646
5.826481819152832,0.18289319886552335,[0.18108573],5.0,0.6,0.0,0.05641008660815294,0.06407034366857568,1.4993444591302731
5.834502458572388,0.18347939501573338,[0.18171848],5.0,0.6,0.0,0.0775213495633964,0.062326262633512416,1.4993755568376923
5.846992015838623,0.18465178731615337,[0.18236163],5.0,0.6,0.0,-0.09997170664360955,0.0681763995169986,1.4989441471618736
5.855028390884399,0.18523798346636342,[0.18301419],5.0,0.6,0.0,-0.3064920124618095,0.05266488036784411,1.498941511530921
5.862460374832153,0.18582417961657338,[0.18367291],5.0,0.6,0.0,-0.47944233039981954,0.051265025460835084,1.4989037575959407
5.870968580245972,0.1866057744835201,[0.1843338],5.0,0.6,0.0,-0.32693088418869415,0.03919485948320611,1.4988886027106076
5.882905960083008,0.18777816678394008,[0.18498562],5.0,0.6,0.0,-0.3707131137700864,-0.04636782620365189,1.4983392574527186
5.8907904624938965,0.18836436293415013,[0.18561115],5.0,0.6,0.0,-0.464934725970966,-0.031009657032301814,1.4983242272215689
5.900486946105957,0.18895055908436015,[0.18620395],5.0,0.6,0.0,-0.5519164963454986,-0.007684594823817083,1.4982656600310746
5.909142732620239,0.18953675523457011,[0.18676704],5.0,0.6,0.0,-0.6134175033246403,-0.00048716829621059046,1.4981868888378278
5.917487621307373,0.18992755266804345,[0.18730218],5.0,0.6,0.0,-0.9237058628032101,-0.001633187363188456,1.497987684707383
5.928475856781006,0.19031835010151682,[0.18780918],5.0,0.6,0.0,-1.520102850810706,-0.0008742617561515924,1.4970244620138027
5.938465118408203,0.19070914753499016,[0.18828775],5.0,0.6,0.0,-1.8010317955947,-0.0013135868427044258,1.4964192535967422
5.947540283203125,0.1909045462517268,[0.18873789],5.0,0.6,0.0,-2.4574678687619773,-0.0007261020366008849,1.494586162169846
5.955742359161377,0.1909045462517268,[0.18915973],5.0,0.6,0.0,-2.8045664092630744,0.0009107886157835682,1.4935703071094442
5.966982841491699,0.1910999449684635,[0.18955387],5.0,0.6,0.0,-3.5045314639966563,0.004031704004283,1.4904625901614734
5.975862741470337,0.1909045462517268,[0.18992112],5.0,0.6,0.0,-3.867033438667068,0.004549135243072825,1.4887978677229499
5.984439849853516,0.1910999449684635,[0.19026193],5.0,0.6,0.0,-3.7295541654270883,0.0036942861499722228,1.4896117368919983
5.9950642585754395,0.1910999449684635,[0.19058227],5.0,0.6,0.0,-3.688485701969105,0.0659785960438649,1.489920765843316
6.006776571273804,0.1910999449684635,[0.19089302],5.0,0.6,0.0,-3.365964339215627,0.04910183380360893,1.4916283213489705
6.01486611366272,0.1910999449684635,[0.19119837],5.0,0.6,0.0,-2.697664270062897,0.042926291400973114,1.4946100089168934
6.024442672729492,0.1910999449684635,[0.19149708],5.0,0.6,0.0,-2.012628499347889,0.036225207137009115,1.4969622074477025
6.0334577560424805,0.19129534368520015,[0.19178881],5.0,0.6,0.0,-1.428209087173487,0.03780851517888372,1.4984351883569944
6.044794082641602,0.19149074240193684,[0.19207514],5.0,0.6,0.0,-0.6940509620375342,0.04774304672080318,1.4995732443789618
6.053805589675903,0.19149074240193684,[0.19235908],5.0,0.6,0.0,-0.04283840355934471,0.04921016421623346,1.4998478428029145
6.063503742218018,0.1916861411186735,[0.19264283],5.0,0.6,0.0,0.7344877168655894,0.04967143004270647,1.4994155450868378
6.075462818145752,0.1918815398354102,[0.19292768],5.0,0.6,0.0,1.3959165887542424,0.050208780652084235,1.4983327161225342
6.087017774581909,0.19227233726888354,[0.19321545],5.0,0.6,0.0,1.87760406189032,0.05667093048298993,1.497204689871852
6.09548282623291,0.1924677359856202,[0.19350766],5.0,0.6,0.0,1.9113245763108453,0.04835931968673394,1.4970716994532243
6.106543302536011,0.19266313470235683,[0.19380431],5.0,0.6,0.0,2.047495297048014,0.04940526829607282,1.4966285931569907
6.120733976364136,0.1930539321358302,[0.19410597],5.0,0.6,0.0,2.166212603714513,0.05619086549771772,1.496297759512313
6.132467746734619,0.19364012828604024,[0.19441499],5.0,0.6,0.0,2.506797431217721,0.05983503689205925,1.4952239017017792
6.1424195766448975,0.19403092571951355,[0.19473329],5.0,0.6,0.0,2.271954194672766,0.05606657618174822,1.4960736404258745
6.150738716125488,0.19442172315298686,[0.19506044],5.0,0.6,0.0,2.1452182457904456,0.046115518543069965,1.4965044173140611
6.161047697067261,0.19481252058646023,[0.1953947],5.0,0.6,0.0,2.051630054873659,0.0460577467338438,1.496808692921856
6.169468402862549,0.19520331801993357,[0.19573514],5.0,0.6,0.0,1.9618776376374736,0.045834788099948905,1.4970864572167684
6.181836843490601,0.19578951417014356,[0.19608225],5.0,0.6,0.0,1.8668707671496723,0.05217387342799128,1.4973951911622099
6.190898418426514,0.1961803116036169,[0.19643642],5.0,0.6,0.0,1.489782459223052,0.0431129353935557,1.4983374473704845
6.199453115463257,0.19657110903709027,[0.19679666],5.0,0.6,0.0,1.351671677115195,0.043925284436132306,1.4986316412624834
6.209964036941528,0.19715730518730026,[0.19716213],5.0,0.6,0.0,1.3005326467960872,0.043579487175658516,1.4987425112533865
6.218019008636475,0.1975481026207736,[0.19753276],5.0,0.6,0.0,0.995470184873357,0.04434522573175227,1.499262824999902
6.228290319442749,0.19793890005424694,[0.19790854],5.0,0.6,0.0,0.9306989631997826,0.04501499531102024,1.4993554310538844
6.239449977874756,0.198525096204457,[0.19828948],5.0,0.6,0.0,0.6684013057673331,0.044898680857245375,1.4996564390038087
6.249894857406616,0.19911129235466699,[0.19867562],5.0,0.6,0.0,0.3843158752634859,0.044571298214228075,1.4998521042568171
6.260050058364868,0.19969748850487698,[0.19906701],5.0,0.6,0.0,0.4186175828019016,0.04439671390408943,1.4997900698188003
6.269976615905762,0.20028368465508697,[0.19946372],5.0,0.6,0.0,0.26786085368531587,0.044398872407297396,1.4998121346096163
6.27769923210144,0.20067448208856034,[0.19986591],5.0,0.6,0.0,0.08294475625374792,0.04535546288562937,1.4998641284046108
6.289667367935181,0.20126067823877036,[0.2002737],5.0,0.6,0.0,0.19720642334039135,0.04530041746920676,1.4997762457805148
6.299549579620361,0.20184687438898036,[0.20068729],5.0,0.6,0.0,0.1076887770966711,0.045523190343954675,1.4997224776167952
6.31010627746582,0.20243307053919038,[0.20110687],5.0,0.6,0.0,-0.031729720578279205,0.04551568645911814,1.4996475531999423
6.320472955703735,0.20301926668940037,[0.20153264],5.0,0.6,0.0,-0.16034602120891134,0.04582898959567302,1.499538945381337
6.329707622528076,0.20380086155634705,[0.20196479],5.0,0.6,0.0,-0.2591227650169435,0.04515674979016005,1.4992760132517926
6.34034538269043,0.2043870577065571,[0.20240354],5.0,0.6,0.0,-0.05037575734567415,0.04528320306012884,1.4992115530941743
6.350406646728516,0.20497325385676707,[0.20284911],5.0,0.6,0.0,-0.057701883746157465,0.045608012467291785,1.4990955341638375
6.359435558319092,0.20575484872371377,[0.20330173],5.0,0.6,0.0,-0.1325191726966985,0.045090521592130804,1.4987840900180482
6.3724892139434814,0.20634104487392377,[0.20376257],5.0,0.6,0.0,0.06277525866328096,0.055685540116386226,1.4986682385124652
6.38248872756958,0.20712263974087047,[0.20423364],5.0,0.6,0.0,0.03114805922222337,0.05261977701921701,1.498331405153945
6.390982151031494,0.2075134371743438,[0.2047148],5.0,0.6,0.0,-0.06791251415363889,0.04182441579172327,1.4984313212120353
6.4004807472229,0.2080996333245538,[0.20520404],5.0,0.6,0.0,-0.1690501748252488,0.04410041225954556,1.498303242069208
6.4093101024627686,0.2088812281915005,[0.20570065],5.0,0.6,0.0,0.026426459698099092,0.0451449598355163,1.497978313370426
6.418475151062012,0.20966282305844713,[0.20620404],5.0,0.6,0.0,0.003916859519734112,0.03464120827597724,1.4976102101947086
6.426473617553711,0.2100536204919205,[0.20671269],5.0,0.6,0.0,-0.08455448651293403,0.040009062476862325,1.4977648087322502
6.436485528945923,0.2108352153588672,[0.20722638],5.0,0.6,0.0,-0.17644130512633577,0.042430638193709395,1.4973754700145079
6.445528745651245,0.21122601279234052,[0.20774594],5.0,0.6,0.0,-0.2498521147126542,0.046097510532435784,1.497534283755853
6.453645944595337,0.21181220894255054,[0.20827215],5.0,0.6,0.0,-0.024329010515632396,0.04786585935212156,1.4974962968355852
6.461917161941528,0.21239840509276056,[0.20880457],5.0,0.6,0.0,-0.02114498743030018,0.03768929398047426,1.4974198663542087
6.471158504486084,0.21298460124297056,[0.20934171],5.0,0.6,0.0,-0.08990537299998047,0.04205453716141691,1.4973433780095293
6.480475187301636,0.21357079739318058,[0.20988338],5.0,0.6,0.0,-0.16768852042233204,0.045074656910989955,1.4972633497502583
6.488465070724487,0.2141569935433906,[0.21042932],5.0,0.6,0.0,-0.23158593690592683,0.03576970738838565,1.4971848238215448
6.500499248504639,0.21493858841033725,[0.21097929],5.0,0.6,0.0,-0.276092607652492,0.05100757226116252,1.4968129531970145
6.509417772293091,0.2155247845605473,[0.21153511],5.0,0.6,0.0,-0.30258607953805744,0.050875496661326146,1.49675341345105
6.520410537719727,0.2161109807107573,[0.21209823],5.0,0.6,0.0,-0.3146145087776693,0.050649451072923235,1.4967110661242482
6.531858205795288,0.21689257557770397,[0.2126697],5.0,0.6,0.0,-0.3159244186244224,0.06060400216103737,1.4963655194448409
6.539806365966797,0.217478771727914,[0.21325028],5.0,0.6,0.0,-0.3097429893322916,0.04586504458613773,1.4963589381267168
6.5494444370269775,0.21806496787812396,[0.21383837],5.0,0.6,0.0,-0.2986069045309657,0.04652418752534428,1.4963671706968966
6.560209274291992,0.218651164028334,[0.21443248],5.0,0.6,0.0,-0.2844079939135614,0.046928144106402093,1.4963866542928344
6.568405866622925,0.2194327588952807,[0.21503124],5.0,0.6,0.0,-0.26850775047371567,0.035065432387454354,1.496079157957759
6.580315113067627,0.22021435376222737,[0.21563342],5.0,0.6,0.0,0.02417972856574177,0.048661104080881985,1.4958113694711888
6.589445352554321,0.22080054991243736,[0.21624],5.0,0.6,0.0,0.07405356002930942,0.047794786862166365,1.4958448257770167
6.598501205444336,0.22138674606264738,[0.21685069],5.0,0.6,0.0,0.03537672627501914,0.03614201679609255,1.4958923614777888
6.606436014175415,0.2219729422128574,[0.21746317],5.0,0.6,0.0,-0.024889343981411034,0.03921507400350736,1.4959401866092168
6.615532159805298,0.22236373964633074,[0.21807652],5.0,0.6,0.0,-0.08035792291503753,0.04271381357514986,1.4963258980183838
6.625348806381226,0.22314533451327742,[0.21869109],5.0,0.6,0.0,-0.1227783845703509,0.04385088235310947,1.4960285877178237
6.636780500411987,0.2239269293802241,[0.21930833],5.0,0.6,0.0,-0.15146412413268073,0.05636864045742639,1.495725714146523
6.645424842834473,0.22451312553043412,[0.21992952],5.0,0.6,0.0,-0.16845942317465246,0.04283665684684204,1.4957858058545737
6.656440734863281,0.22529472039738077,[0.22055366],5.0,0.6,0.0,-0.1764397804729828,0.044541941500907,1.4954913950389352
6.670510530471802,0.22627171398106416,[0.22118236],5.0,0.6,0.0,-0.17788378127751264,0.06987156932479648,1.4948095411536566
6.679407596588135,0.22685791013127415,[0.22181936],5.0,0.6,0.0,-0.17481410976284656,0.05284220358564192,1.4949127264569189
6.688416242599487,0.22744410628148415,[0.22246326],5.0,0.6,0.0,-0.16877650403203048,0.04070234578756525,1.4950293118881888
6.6989521980285645,0.22822570114843083,[0.22311184],5.0,0.6,0.0,-0.16090505052407916,0.05788043745569343,1.4947640758333223
6.709331512451172,0.22881189729864085,[0.223767],5.0,0.6,0.0,0.12403054608656358,0.05832556507496806,1.4949112852783217
6.720483303070068,0.22978889088232424,[0.22443044],5.0,0.6,0.0,0.1665163071885263,0.057496392547067086,1.4942532195564155
6.731107473373413,0.2305704857492709,[0.22510255],5.0,0.6,0.0,0.12086273096106243,0.0581217319045547,1.494027293883788
6.740535736083984,0.2313520806162176,[0.22578377],5.0,0.6,0.0,0.054052114825214465,0.059017099402167116,1.4938157909013188
6.750572204589844,0.23193827676642756,[0.22647462],5.0,0.6,0.0,-0.007525676473233087,0.06135395554998861,1.4940474316414858
6.759971380233765,0.2325244729166376,[0.22717565],5.0,0.6,0.0,0.22040994996903965,0.06342428438257648,1.49425819462764
6.769829988479614,0.23330606778358423,[0.22788742],5.0,0.6,0.0,0.2195778488214809,0.06490063584333733,1.494108961582822
6.779435396194458,0.23408766265053094,[0.22861047],5.0,0.6,0.0,0.14260570442216441,0.06638072660938524,1.4940028922713398
6.792604446411133,0.23526005495095098,[0.22934684],5.0,0.6,0.0,0.33006826475726625,0.08166142814331998,1.4929500891863428
6.801472425460815,0.23565085238442432,[0.23009831],5.0,0.6,0.0,0.2870617346974209,0.06487858829303163,1.493791489996012
6.809875726699829,0.236432447251371,[0.23086337],5.0,0.6,0.0,0.17457065742539862,0.06771764434120045,1.4937935816038945
6.818933963775635,0.23721404211831768,[0.23164077],5.0,0.6,0.0,0.33502237242231575,0.07055019628489732,1.4937234387513527
6.826799154281616,0.23780023826852767,[0.23242946],5.0,0.6,0.0,0.2728172125326752,0.05717310472293198,1.4941921459842797
6.8354716300964355,0.23877723185221103,[0.23322535],5.0,0.6,0.0,0.14746171275819542,0.046004286011254995,1.4938381084629608
6.845914602279663,0.2395588267191577,[0.23402666],5.0,0.6,0.0,0.29985816762353823,0.07357959227089308,1.4938307990146646
6.857323884963989,0.24053582030284107,[0.2348368],5.0,0.6,0.0,0.23309876776831498,0.07594761306289735,1.4934848318736342
6.866613864898682,0.24131741516978775,[0.23565877],5.0,0.6,0.0,0.10565828345234911,0.07869329845738614,1.4936080889225056
6.87446403503418,0.24209901003673442,[0.23649186],5.0,0.6,0.0,0.25766264223732177,0.0632587143606202,1.493682278188603
6.8847715854644775,0.24307600362041779,[0.23733556],5.0,0.6,0.0,0.1916371009461015,0.08799296461138431,1.4934037896367842
6.895034551620483,0.2442483959208378,[0.23819296],5.0,0.6,0.0,0.3416894991430233,0.0870704948505414,1.4926062586696218
6.906411409378052,0.24542078822125782,[0.23906672],5.0,0.6,0.0,0.25267040452930867,0.08646306480751516,1.491910157514731
6.914415121078491,0.2462023830882045,[0.2399574],5.0,0.6,0.0,0.10055187235281962,0.08825378452874101,1.4922228429540767
6.925437927246094,0.2473747753886245,[0.24086545],5.0,0.6,0.0,0.23184957960509878,0.08812219394885641,1.4915215290470445
6.935407638549805,0.2483517689723079,[0.24179128],5.0,0.6,0.0,0.4266785566202508,0.0894071946455704,1.4912934320348927
6.9464802742004395,0.24952416127272792,[0.24273522],5.0,0.6,0.0,0.5998269541867216,0.08953151565895356,1.4905566614006331
6.955582141876221,0.2505011548564112,[0.24369753],5.0,0.6,0.0,0.4498597265041758,0.0909273388198243,1.4906342385674076
6.965065956115723,0.2516735471568313,[0.24467834],5.0,0.6,0.0,0.49498308371175226,0.09128331977227638,1.4900788088224337
6.97345495223999,0.25245514202377795,[0.24567574],5.0,0.6,0.0,0.5884123743799738,0.0732212306594419,1.490592398584493
6.9824981689453125,0.2534321356074613,[0.24668608],5.0,0.6,0.0,0.3965453022243036,0.08072811302715614,1.490822397431971
6.993661165237427,0.25479992662461803,[0.24771028],5.0,0.6,0.0,0.4205473610009205,0.10521235169148614,1.4898661011142158
7.002742052078247,0.255972318925038,[0.24875314],5.0,0.6,0.0,0.22841396075947884,0.1030559023134797,1.4895919755250688
7.011162281036377,0.2567539137919847,[0.24981456],5.0,0.6,0.0,0.2764876809096534,0.08253703797459683,1.4903583960048217
7.023491382598877,0.2581217048091414,[0.2508924],5.0,0.6,0.0,0.3894562348265016,0.10775954817783516,1.4894889657309622
7.035452365875244,0.2596848945430347,[0.25199105],5.0,0.6,0.0,0.22114506547541563,0.12494727136781533,1.4881943541437717
7.045515537261963,0.26085728684345477,[0.25311412],5.0,0.6,0.0,0.2676255663017275,0.09664001269697188,1.4880269671674016
7.0534398555755615,0.26202967914387476,[0.254256],5.0,0.6,0.0,0.37122618297254945,0.07584501077693191,1.4878841540878514
7.063606023788452,0.2633974701610315,[0.25541184],5.0,0.6,0.0,0.19304228590347836,0.10421391736979711,1.4872992006319712
7.07243800163269,0.2645698624614515,[0.25658172],5.0,0.6,0.0,0.23170056810114847,0.08169471236604986,1.487279048778892
7.083812952041626,0.2661330521953449,[0.25776565],5.0,0.6,0.0,0.3300565515879236,0.1077441457925266,1.4860137972082001
7.092523574829102,0.2673054444957649,[0.25896357],5.0,0.6,0.0,0.42498687940826796,0.0838407070614268,1.4860445804799447
7.104151010513306,0.2692594316631316,[0.26017534],5.0,0.6,0.0,0.49567754126521735,0.10719621831872066,1.4834484383845568
7.111399412155151,0.27023642524681496,[0.26140078],5.0,0.6,0.0,0.2631453147552955,0.08409687385988816,1.4844560104821483
7.121443033218384,0.27160421626397163,[0.26263747],5.0,0.6,0.0,0.25003705712974456,0.08816479811166465,1.4840015711699561
7.1304612159729,0.2727766085643917,[0.26388332],5.0,0.6,0.0,0.031035082069586828,0.0924036406867815,1.4843056011992537
7.138461351394653,0.27394900086481166,[0.26513654],5.0,0.6,0.0,-0.21302671572793153,0.07348670159186355,1.4845543318757706
7.146433591842651,0.2751213931652317,[0.26639346],5.0,0.6,0.0,-0.14019135459793197,0.08255259690125127,1.4848654705393542
7.1569859981536865,0.27668458289912506,[0.26765316],5.0,0.6,0.0,-0.2535098903314852,0.08751896818337797,1.4837711992024236
7.166426658630371,0.27785697519954505,[0.26891714],5.0,0.6,0.0,-0.4021973403817463,0.0926752341698579,1.4840225464631605
7.176444053649902,0.27942016493343846,[0.27018899],5.0,0.6,0.0,-0.2531582375691912,0.11719998652953262,1.4830537782893916
7.184422016143799,0.28039715851712177,[0.27147173],5.0,0.6,0.0,-0.3095690750970277,0.09205391175520618,1.484122267992097
7.197098016738892,0.28215574696775186,[0.27276557],5.0,0.6,0.0,-0.4177019053830156,0.11612531767316765,1.482389622660309
7.208015203475952,0.2837189367016452,[0.27407287],5.0,0.6,0.0,-0.24089319703949566,0.11102552366044278,1.4815195727734516
7.217310905456543,0.2850867277188019,[0.27539551],5.0,0.6,0.0,-0.2790746091567664,0.10791784881688397,1.4813333875950325
7.226917505264282,0.2862591200192219,[0.27673021],5.0,0.6,0.0,-0.3758794764502553,0.08368521667795564,1.4818987064202673
7.235809564590454,0.28782230975311524,[0.27807173],5.0,0.6,0.0,-0.1926192581286352,0.08759846271070525,1.4811372610496232
7.246351957321167,0.28938549948700865,[0.27941781],5.0,0.6,0.0,-0.2277244523011968,0.09007607567173365,1.480286567719957
7.254470586776733,0.2905578917874287,[0.28076645],5.0,0.6,0.0,-0.3237406289764837,0.07014801345592525,1.4809301779248614
7.263384580612183,0.292121081521322,[0.28211355],5.0,0.6,0.0,-0.41724218090161697,0.07733958444678286,1.4800395419472778
7.271876096725464,0.2934888725384787,[0.28345786],5.0,0.6,0.0,-0.21112346294195272,0.0826284596824737,1.480043718328993
7.282966375350952,0.2952474609891087,[0.28480053],5.0,0.6,0.0,-0.2211944526150766,0.08398027041505246,1.4783724141779415
7.294275999069214,0.2972014481564754,[0.28614239],5.0,0.6,0.0,-0.2963107066766861,0.0828459314722025,1.4757708198681314
7.304367542266846,0.2985692391736321,[0.28748395],5.0,0.6,0.0,-0.09850535944088681,0.08329323653031477,1.4757155825233745
7.314262628555298,0.3001324289075255,[0.28882756],5.0,0.6,0.0,-0.12525856792749074,0.10304064694430572,1.474752219640649
7.32530665397644,0.30189101735815554,[0.29017706],5.0,0.6,0.0,-0.21773341892915402,0.09377660879626253,1.4728944781762245
7.333377122879028,0.30306340965857553,[0.29153307],5.0,0.6,0.0,-0.3111876161031866,0.08865720010132772,1.473688551936894
7.342350959777832,0.3044312006757322,[0.29289157],5.0,0.6,0.0,-0.3834666138884161,0.06324681732695032,1.4736094539209923
7.351412057876587,0.30579899169288893,[0.29424684],5.0,0.6,0.0,-0.43059258852459026,0.06508884149269166,1.4735245879778995
7.362376689910889,0.3071667827100456,[0.29559584],5.0,0.6,0.0,-0.7315366031423046,0.0658795077180193,1.473179799245795
7.373083829879761,0.308729972443939,[0.29693974],5.0,0.6,0.0,-0.772213864940303,0.08359743085345364,1.4721372875172805
7.381372451782227,0.3100977634610957,[0.29827923],5.0,0.6,0.0,-0.7120899862094695,0.05769343854783113,1.4720737319516681
7.391359329223633,0.31146555447825236,[0.29961087],5.0,0.6,0.0,-0.6223865973526643,0.057488041737798166,1.471996342322493
7.4025328159332275,0.3132241429288824,[0.30093152],5.0,0.6,0.0,-0.5327336109498846,0.05470956756755339,1.4700191834906868
7.411520481109619,0.3143965352293024,[0.30224027],5.0,0.6,0.0,-0.7297764779010814,0.054278100584183996,1.4704812463536736
7.421411514282227,0.31595972496319574,[0.3035362],5.0,0.6,0.0,-0.6969015874980478,0.05137860724600276,1.4692413774103876
7.430516958236694,0.31713211726361584,[0.30481838],5.0,0.6,0.0,-0.5878765893535731,0.05006977675176404,1.4698724029065968
7.440365552902222,0.3184999082807725,[0.30608594],5.0,0.6,0.0,-0.7440298467702319,0.04764717525124973,1.4692368927589274
7.4514477252960205,0.32006309801466587,[0.30733963],5.0,0.6,0.0,-0.6709346657284886,0.0606273163939362,1.4678062446232776
7.460671901702881,0.32123549031508586,[0.30858003],5.0,0.6,0.0,-0.8058967155910131,0.03750260178456656,1.4679922135115173
7.468437910079956,0.32221248389876916,[0.30980427],5.0,0.6,0.0,-0.696501284065042,0.03781851891810729,1.4693155219109997
7.478974103927612,0.32358027491592595,[0.31100988],5.0,0.6,0.0,-0.7968882197918241,0.035945182211337925,1.4684186851072758
7.486421346664429,0.3245572684996093,[0.31219484],5.0,0.6,0.0,-0.9361889013484046,0.019981047606767836,1.469244500292922
7.495453119277954,0.32572966080002924,[0.31335601],5.0,0.6,0.0,-0.7742800530715535,0.023059630441283875,1.4693965598277972
7.505688190460205,0.3269020531004493,[0.31449228],5.0,0.6,0.0,-0.8128914164027677,0.024657731589587346,1.4691773619425088
7.513937711715698,0.32787904668413265,[0.31560429],5.0,0.6,0.0,-0.89897943184202,0.025907295127653628,1.46971435546228
7.522475957870483,0.3286606415510793,[0.3166926],5.0,0.6,0.0,-0.9732104531444941,0.027006102564284255,1.471055067223874
7.533938407897949,0.33002843256823605,[0.31775763],5.0,0.6,0.0,-1.0178411028497107,0.024445959075108055,1.4695638173855556
7.543711423873901,0.3310054261519194,[0.31879973],5.0,0.6,0.0,-1.0322465162224508,0.02319081392212362,1.4698511702632782
7.552013397216797,0.3319824197356028,[0.31981791],5.0,0.6,0.0,-0.7457570570819413,0.008176157710746977,1.4704247372265054
7.560381650924683,0.33295941331928613,[0.32081013],5.0,0.6,0.0,-0.6839017212225682,0.010570420496487716,1.470562414937156
7.568410873413086,0.3337410081862328,[0.32177485],5.0,0.6,0.0,-0.6979242662183137,-0.0004558026291835415,1.4714059348204513
7.579391956329346,0.33452260305317943,[0.32271086],5.0,0.6,0.0,-0.7253401141056326,0.003611856233354645,1.4720907500000733
7.587540864944458,0.3353041979201261,[0.32361828],5.0,0.6,0.0,-0.7431555130561457,0.0058127669800033714,1.4726465127351023
7.595402479171753,0.33589039407033616,[0.32449842],5.0,0.6,0.0,-0.7455767754917533,0.007545878230901134,1.4739649071733012
7.605621814727783,0.3366719889372828,[0.32535241],5.0,0.6,0.0,-0.7336341648008955,0.007410891555934083,1.4742985075342485
7.616458892822266,0.33764898252096615,[0.32618217],5.0,0.6,0.0,-0.9865702326956399,0.01597816075844771,1.4733212061936476
7.6277947425842285,0.3384305773879129,[0.32699029],5.0,0.6,0.0,-0.9888621797238992,0.011598449115003736,1.4734361927569744
7.636365175247192,0.3390167735381229,[0.32777706],5.0,0.6,0.0,-1.1741832634198235,-0.0006762236411730853,1.4740250199018636
7.645857334136963,0.33960296968833287,[0.32854094],5.0,0.6,0.0,-1.0931001643807479,0.00011937406889282797,1.4749346666480405
7.655436038970947,0.33999376712180623,[0.32928079],5.0,0.6,0.0,-1.2045618650245782,-0.007480311642837022,1.4762289099612587
7.667371988296509,0.34077536198875297,[0.32999666],5.0,0.6,0.0,-1.342390525663642,0.0033333062284526304,1.4756921933581901
7.676574230194092,0.34097076070548954,[0.33069038],5.0,0.6,0.0,-1.1703748559131213,0.0042839323269288476,1.4780659672383807
7.687395334243774,0.3411661594222262,[0.33136358],5.0,0.6,0.0,-1.4693045101161546,0.005410504855983233,1.4793608981761146
7.699632167816162,0.34136155813896296,[0.33201764],5.0,0.6,0.0,-1.845450270212282,0.01486766703189169,1.4801610204875228
7.708349704742432,0.34136155813896296,[0.33265383],5.0,0.6,0.0,-1.8768081590664691,0.006873174781801101,1.4823342917984723
7.721772193908691,0.34155695685569953,[0.33327329],5.0,0.6,0.0,-2.320741375947039,0.02472510431215526,1.4823767398366832
7.7293665409088135,0.34155695685569953,[0.33387708],5.0,0.6,0.0,-2.2332509213760456,0.028766281970979208,1.4845743104176217
7.740216016769409,0.34155695685569953,[0.33446476],5.0,0.6,0.0,-1.9644662199096414,0.0344533803601365,1.4871260861184488
7.75108528137207,0.3417523555724363,[0.33503681],5.0,0.6,0.0,-1.6648002695826185,0.030641067408500224,1.4889619565139822
7.7606611251831055,0.3417523555724363,[0.33559447],5.0,0.6,0.0,-1.1161111247709223,0.029235900777990362,1.4915183368256062
7.769387483596802,0.3419477542891729,[0.33613753],5.0,0.6,0.0,-0.30205575567346,0.020387473857049136,1.4932030819348956
7.778225898742676,0.34214315300590964,[0.33666527],5.0,0.6,0.0,0.44640168658357426,0.02184133875896268,1.4938682072384122
7.790350675582886,0.34233855172264627,[0.33717793],5.0,0.6,0.0,1.0261728621301671,0.02323511497218333,1.493904502018513
7.800729990005493,0.34253395043938295,[0.33767725],5.0,0.6,0.0,1.4291564620965742,0.031861419987790865,1.493775490666724
7.808351755142212,0.34253395043938295,[0.33816485],5.0,0.6,0.0,1.6814977011873808,0.024760590573954085,1.4940891468013267
7.818354368209839,0.34272934915611963,[0.33864159],5.0,0.6,0.0,2.0932476519134253,0.03402998122434193,1.4934125056220786
7.827671766281128,0.3429247478728562,[0.33910908],5.0,0.6,0.0,2.1769373856464234,0.033863032708022885,1.4935770297217101
7.835643291473389,0.3429247478728562,[0.33956816],5.0,0.6,0.0,2.112967431470641,0.027607374405534752,1.4944367475338958
7.845367193222046,0.34312014658959294,[0.34001905],5.0,0.6,0.0,1.9882497399039796,0.03840847786191854,1.495144416245933
7.855360507965088,0.34331554530632963,[0.34046284],5.0,0.6,0.0,2.11984700109495,0.031174196956782564,1.495039748208064
7.863719701766968,0.3435109440230663,[0.34089992],5.0,0.6,0.0,2.007497673755781,0.03454834075821433,1.495646456692557
7.873394012451172,0.34370634273980294,[0.34133014],5.0,0.6,0.0,1.8138539450192763,0.02942079412396694,1.4964282343267783
7.883680105209351,0.3440971401732763,[0.34175435],5.0,0.6,0.0,1.8850978398312157,0.04243644834014388,1.4962645533971832
7.893482446670532,0.34429253889001293,[0.34217426],5.0,0.6,0.0,1.7294396756548296,0.03587603836436843,1.4968814597950886
7.905014276504517,0.3446833363234863,[0.34259166],5.0,0.6,0.0,1.5095408235698562,0.04940685749307801,1.4974319567370276
7.915836334228516,0.34487873504022304,[0.34300922],5.0,0.6,0.0,1.5686611216703075,0.05161289936196223,1.4974728331781881
7.923799991607666,0.34526953247369635,[0.3434295],5.0,0.6,0.0,1.4115304363526544,0.05317630937717646,1.497842124630321
7.934047698974609,0.345464931190433,[0.34385405],5.0,0.6,0.0,1.473721759027177,0.055974808871824724,1.4978670286947235
7.941385746002197,0.34566032990716966,[0.34428343],5.0,0.6,0.0,1.300995396180014,0.04825495810948108,1.4983625206414377
7.949373245239258,0.34605112734064297,[0.34471624],5.0,0.6,0.0,1.3458699624603416,0.04212221837629962,1.4982971141654675
7.964307546615601,0.346637323490853,[0.34515362],5.0,0.6,0.0,1.4361354207769461,0.07183967196397555,1.4980268631698903
7.974302053451538,0.34683272220758965,[0.34560093],5.0,0.6,0.0,1.2305943245210669,0.07296764889165228,1.4985705595754821
7.98688530921936,0.3476143170745364,[0.34606301],5.0,0.6,0.0,1.2301275537658913,0.08442278916280975,1.4983936386488956
7.996490716934204,0.3480051145080097,[0.34654201],5.0,0.6,0.0,1.0049835119415573,0.06963794764908272,1.4988206853063066
8.006446361541748,0.34839591194148306,[0.34703743],5.0,0.6,0.0,1.0142493143149622,0.07258599101255939,1.4988657946198498
8.016106605529785,0.34898210809169306,[0.34754892],5.0,0.6,0.0,1.085063592297308,0.07449363823788058,1.4987136155759453
8.026391983032227,0.34956830424190305,[0.3480774],5.0,0.6,0.0,0.8731826438228394,0.0766173234402102,1.4989882970308457
8.034340858459473,0.34995910167537636,[0.34862372],5.0,0.6,0.0,0.8760913805922306,0.0796397169270824,1.4990723858495374
8.042395830154419,0.3505452978255864,[0.34918724],5.0,0.6,0.0,0.9370966394568561,0.06707770226656067,1.498977933013739
8.050820112228394,0.35113149397579646,[0.34976606],5.0,0.6,0.0,0.9939728195783909,0.0730183198045947,1.4988922738203843
8.059109926223755,0.35152229140926977,[0.35035994],5.0,0.6,0.0,1.0267852882866093,0.0788579517401674,1.4989456275708544
8.070347547531128,0.35249928499295313,[0.35097003],5.0,0.6,0.0,1.0332934494057435,0.0808245183814842,1.4987382228719603
8.079662084579468,0.3532808798598998,[0.35159729],5.0,0.6,0.0,1.0176955514756905,0.08309751359854237,1.498662881525434
8.089375019073486,0.3538670760101098,[0.35224251],5.0,0.6,0.0,0.9857307565207938,0.0859384518541526,1.4987495138914264
8.099080562591553,0.35464867087705654,[0.35290632],5.0,0.6,0.0,0.9427403626870858,0.0875034028456568,1.498731873777106
8.109227180480957,0.35543026574400316,[0.35358918],5.0,0.6,0.0,0.8930550164905611,0.08884945889423766,1.4987289702075648
8.119776964187622,0.3562118606109498,[0.35429141],5.0,0.6,0.0,0.5638990915339681,0.0902755143972111,1.4990259958085552
8.129337072372437,0.35718885419463325,[0.35501318],5.0,0.6,0.0,0.47656483653866794,0.09047613833610402,1.498884704010258
8.139681816101074,0.3581658477783165,[0.35575454],5.0,0.6,0.0,0.47797188968155,0.09053953048779574,1.49866775813544
8.150725603103638,0.3591428413619999,[0.35651538],5.0,0.6,0.0,0.5019506412716008,0.09057124571119171,1.498432719554899
8.159756422042847,0.3601198349456833,[0.3572955],5.0,0.6,0.0,0.5226181092642654,0.09059517029662956,1.4982026203742522
8.169344425201416,0.36109682852936664,[0.3580946],5.0,0.6,0.0,0.25598274803012094,0.09070568941665534,1.4981501717024421
8.17965579032898,0.36207382211305,[0.35891229],5.0,0.6,0.0,0.49650152080041343,0.09065685851071047,1.497819463802856
8.188323736190796,0.3630508156967333,[0.35974647],5.0,0.6,0.0,0.2965906202868339,0.07361359306351095,1.4977531585486237
8.19832444190979,0.36402780928041667,[0.3605936],5.0,0.6,0.0,0.26532370830866314,0.07851059993191865,1.497591624206612
8.211334705352783,0.36539560029757334,[0.36145388],5.0,0.6,0.0,0.291116989415036,0.09732755364226175,1.4968343137380158
8.220714807510376,0.36637259388125676,[0.36233064],5.0,0.6,0.0,0.32688952541144056,0.09478654931619392,1.496658323217516
8.235272645950317,0.36793578361515006,[0.36322658],5.0,0.6,0.0,0.6311942850168639,0.10683560974802418,1.4952780103236478
8.244634628295898,0.3689127771988334,[0.36414377],5.0,0.6,0.0,0.6805358252004787,0.10038653672641983,1.4951170174139568
8.25467324256897,0.3700851694992534,[0.36508211],5.0,0.6,0.0,0.354199526514301,0.09505989186044031,1.4949130115864544
8.26431918144226,0.3712575617996735,[0.36603961],5.0,0.6,0.0,0.2406868258229194,0.09109078122379417,1.4945262780954471
8.275140047073364,0.3724299541000935,[0.36701441],5.0,0.6,0.0,0.21438249490737107,0.08798255679818322,1.49411733002254
8.285086393356323,0.3736023464005135,[0.36800475],5.0,0.6,0.0,0.21858449199468816,0.0858392659666002,1.4937174183306359
8.294692516326904,0.3747747387009336,[0.36900906],5.0,0.6,0.0,0.22918813334841073,0.08425360095386847,1.49333434677083
8.302812099456787,0.3757517322846169,[0.37002592],5.0,0.6,0.0,-0.03895020498016298,0.08428518502231802,1.4934633315416481
8.310952186584473,0.3769241245850368,[0.37105232],5.0,0.6,0.0,-0.3454297740242381,0.06554483007608064,1.4930392953894103
8.320960521697998,0.3780965168854569,[0.37208396],5.0,0.6,0.0,-0.3258405842733648,0.07027017426336692,1.4927168898483094
8.33047342300415,0.37926890918587697,[0.37311895],5.0,0.6,0.0,-0.4771074729105635,0.07387275932679377,1.4922947149680343
8.340073823928833,0.3804413014862969,[0.37415747],5.0,0.6,0.0,-0.3728856605940667,0.07629814003303528,1.492030289991201
8.350727081298828,0.382199889936927,[0.37519973],5.0,0.6,0.0,-0.47776236266214744,0.07525080973195045,1.49007754708093
8.359400033950806,0.3831768835206103,[0.37624602],5.0,0.6,0.0,-0.6243090646171991,0.07782031054861797,1.4901485754316504
8.370405435562134,0.3847400732545037,[0.37729658],5.0,0.6,0.0,-0.47289956471032635,0.07634213044906714,1.4888136105963543
8.380346059799194,0.38591246555492376,[0.37835157],5.0,0.6,0.0,-0.524679537688356,0.07662722482640923,1.488426799687879
8.389574527740479,0.38708485785534374,[0.37941102],5.0,0.6,0.0,-0.6257521716172212,0.07653141128743908,1.4880001373539637
8.400388240814209,0.3884526488725004,[0.38047489],5.0,0.6,0.0,-0.71598421586638,0.07529416401924235,1.4869702800180733
8.413148164749146,0.3900158386063938,[0.3815448],5.0,0.6,0.0,-0.7769896912409394,0.0909693087301657,1.4853015810888273
8.425496101379395,0.3915790283402871,[0.38262375],5.0,0.6,0.0,-0.8076692948218263,0.08303431195294572,1.4836031811514108
8.436420440673828,0.39294681935744386,[0.38371227],5.0,0.6,0.0,-0.8130628114669003,0.07710676576567076,1.4825973725390171
8.444356441497803,0.3939238129411272,[0.38480702],5.0,0.6,0.0,-0.7995326862184857,0.05627329818697348,1.4830385694993515
8.456704378128052,0.39548700267502057,[0.38590495],5.0,0.6,0.0,-0.7728854798429424,0.07420112074801098,1.4813599424673283
8.467508316040039,0.39685479369217724,[0.38700845],5.0,0.6,0.0,-0.7378029167977138,0.08627286243550403,1.4803916263567491
8.47754192352295,0.3980271859925973,[0.388121],5.0,0.6,0.0,-0.6978162208818499,0.07782775787528737,1.4802024995773264
8.485405683517456,0.3991995782930173,[0.38923855],5.0,0.6,0.0,-0.3794357120764077,0.07730560262754282,1.4802440211914838
8.497987270355225,0.40076276802691063,[0.39035414],5.0,0.6,0.0,-0.30338982332730674,0.08555831588097956,1.4784966400189468
8.506345272064209,0.4021305590440673,[0.3914652],5.0,0.6,0.0,-0.3161837232187454,0.05808471969261622,1.4774324275607755
8.51535415649414,0.4033029513444874,[0.39256958],5.0,0.6,0.0,-0.3513589893944598,0.05568469519416179,1.4771304576467053
8.524336814880371,0.40447534364490745,[0.39366548],5.0,0.6,0.0,-0.3828414470675682,0.0538316996924214,1.476791272042179
8.533934593200684,0.4058431346620641,[0.39475311],5.0,0.6,0.0,-0.402559056080163,0.05138574400813636,1.4755817076296818
8.543320894241333,0.40701552696248405,[0.3958327],5.0,0.6,0.0,-0.40991132943868813,0.050210009306632074,1.4751739778288886
8.552457094192505,0.40838331797964084,[0.39690455],5.0,0.6,0.0,-0.40696609682524865,0.04820305694784989,1.4738685104759721
8.560297966003418,0.4093603115633242,[0.39796742],5.0,0.6,0.0,-0.396381068323473,0.031205216773575798,1.4742575021642066
8.57021427154541,0.41053270386374413,[0.39901873],5.0,0.6,0.0,-0.3805906081410896,0.03553870805741751,1.4737263000965886
8.58076024055481,0.4119004948809009,[0.4000598],5.0,0.6,0.0,-0.6375954587732318,0.05488723155546815,1.4720465595416794
8.58970308303833,0.4128774884645843,[0.40109352],5.0,0.6,0.0,-0.9259583323622254,0.035892137609934004,1.471971904219956
8.598220348358154,0.4138544820482676,[0.4021192],5.0,0.6,0.0,-0.8824796836943981,0.039738171405673366,1.4722530994707657
8.606303930282593,0.41483147563195094,[0.40313474],5.0,0.6,0.0,-1.0058576115811262,0.025249922963542084,1.472255655799291
8.615288257598877,0.4158084692156343,[0.40413855],5.0,0.6,0.0,-1.1474512594809876,0.03285209259184073,1.472151043010348
8.625312089920044,0.4169808615160543,[0.40513116],5.0,0.6,0.0,-0.9781998013316144,0.03747204338237323,1.4715957933419042
8.634945154190063,0.4179578550997376,[0.4061149],5.0,0.6,0.0,-1.0053139581454698,0.04165915874187924,1.471586872943876
8.645317077636719,0.4191302474001577,[0.4070919],5.0,0.6,0.0,-0.8024040260064418,0.04372590716031214,1.4709526184235109
8.655405759811401,0.420107240983841,[0.40806416],5.0,0.6,0.0,-0.830388735697599,0.04609297479910817,1.4708964545133774
8.66690969467163,0.4212796332842611,[0.40903513],5.0,0.6,0.0,-0.9174397603883706,0.06452000781459108,1.469833380455639
8.675373315811157,0.42225662686794435,[0.41000953],5.0,0.6,0.0,-0.7199228070144512,0.060766688724429425,1.4700615550134715
8.684635877609253,0.4230382217348911,[0.41098958],5.0,0.6,0.0,-0.7357024718392562,0.058825348610055395,1.4709807301989821
8.694159269332886,0.42401521531857445,[0.41197532],5.0,0.6,0.0,-0.5322987220665725,0.05670341504252036,1.4712135570145228
8.703298091888428,0.42499220890225775,[0.41296499],5.0,0.6,0.0,-0.2905770405855137,0.037418345961767734,1.4714208280426122
8.714295148849487,0.4259692024859411,[0.41395525],5.0,0.6,0.0,-0.35499553976741965,0.04122598200073384,1.471451874309797
8.722286939620972,0.4267507973528878,[0.4149449],5.0,0.6,0.0,-0.22545335612234407,0.04474831389722421,1.4724712454489055
8.732603311538696,0.4277277909365711,[0.41593444],5.0,0.6,0.0,-0.3314017669047318,0.046172397698653035,1.4724849616938707
8.743316650390625,0.4287047845202545,[0.41692417],5.0,0.6,0.0,-0.2130327701625959,0.046630599272807036,1.4725913300993874
8.75333857536316,0.42968177810393793,[0.41791411],5.0,0.6,0.0,-0.31840564401530325,0.04656782816600788,1.472608957962021
8.765811443328857,0.43085417040435786,[0.41890562],5.0,0.6,0.0,-0.1959433267606657,0.06088618372475726,1.4718216400240345
8.773670196533203,0.43163576527130454,[0.41990108],5.0,0.6,0.0,-0.02103459832673092,0.055802230165966867,1.472834908830245
8.782343864440918,0.43241736013825127,[0.42089917],5.0,0.6,0.0,0.13778163128443477,0.03630132790758036,1.4738010398961947
8.791767835617065,0.4331989550051979,[0.42189542],5.0,0.6,0.0,0.2595876130731213,0.03779617184412046,1.4747195882382216
8.799814462661743,0.43398054987214457,[0.42288735],5.0,0.6,0.0,0.3432181071662494,0.03844124780491834,1.4756009207062974
8.808335065841675,0.43476214473909125,[0.42387276],5.0,0.6,0.0,0.11850932337905229,0.023995025532303156,1.4765528233438843
8.818750143051147,0.43573913832277467,[0.42484954],5.0,0.6,0.0,0.11182620883207464,0.041225910707886886,1.476553071320695
8.828652381896973,0.43671613190645797,[0.42581847],5.0,0.6,0.0,0.1752752370383851,0.038185006660317246,1.4765051752522163
8.836339235305786,0.437302328056668,[0.42677872],5.0,0.6,0.0,0.247148197007559,0.023574974502211084,1.4780487705626464
8.846288681030273,0.4382793216403513,[0.42772684],5.0,0.6,0.0,0.305112022246202,0.02475149884287446,1.4779058816992363
8.855709075927734,0.4388655177905614,[0.42866106],5.0,0.6,0.0,0.06788427536059793,0.02683403650018909,1.4793857392972343
8.865844964981079,0.43984251137424474,[0.42958109],5.0,0.6,0.0,0.05590186253363383,0.026098412540015426,1.479158507963182
8.87527084350586,0.44042870752445473,[0.43048655],5.0,0.6,0.0,-0.15798407631842828,0.02655507747145036,1.4804062692128925
8.884390354156494,0.4412103023914014,[0.43137704],5.0,0.6,0.0,-0.118310453574186,0.02568046668922036,1.4808367767649682
8.89432168006897,0.44218729597508477,[0.43225212],5.0,0.6,0.0,-0.27914727455309674,0.023516139573996057,1.480394060124622
8.90237045288086,0.4425780934085581,[0.43311034],5.0,0.6,0.0,-0.47063969513026255,0.013068752146063428,1.4820672158184642
8.911401271820068,0.4431642895587681,[0.43394942],5.0,0.6,0.0,-0.3539336228481684,0.015908580262051022,1.483067381998863
8.92040228843689,0.4439458844257148,[0.43476851],5.0,0.6,0.0,-0.431952945803469,0.01667048689774766,1.483157354854038
8.932422399520874,0.44453208057592475,[0.43556885],5.0,0.6,0.0,-0.5526667393140668,0.027543958114370073,1.4838331910519633
8.940346479415894,0.4451182767261348,[0.43635151],5.0,0.6,0.0,-0.3815221710260127,0.014936360212930974,1.48463794748118
8.951271295547485,0.4457044728763448,[0.43711553],5.0,0.6,0.0,-0.42037677183989375,0.01570900136839692,1.4852227909367128
8.96230435371399,0.44648606774329147,[0.43786018],5.0,0.6,0.0,-0.5144242096878839,0.015224982633651346,1.4850320204822745
8.971036911010742,0.4468768651767649,[0.43858582],5.0,0.6,0.0,-0.32616327767478925,0.016147312998930432,1.4862665974894333
8.979840755462646,0.44746306132697483,[0.43929288],5.0,0.6,0.0,-0.3548930279955032,0.0161916814667984,1.4866445954708345
8.990677118301392,0.4480492574771848,[0.43998185],5.0,0.6,0.0,-0.44377640913082195,0.016145348146898192,1.4869211595036396
9.00031566619873,0.4486354536273949,[0.44065331],5.0,0.6,0.0,-0.5298161000631711,0.01624980039781649,1.4871290145510034
9.010362148284912,0.44922164977760487,[0.44130795],5.0,0.6,0.0,-0.31619642859358055,0.016340020921242152,1.4874783546317034
9.020381212234497,0.44961244721107824,[0.44194663],5.0,0.6,0.0,-0.3189181825453295,0.018333413538524124,1.488240136180081
9.033392190933228,0.45019864336128823,[0.44257124],5.0,0.6,0.0,-0.3869577240413795,0.027624538644379075,1.4883205105483934
9.041290044784546,0.45058944079476154,[0.44318264],5.0,0.6,0.0,-0.18242022787527035,0.028956378612712427,1.489063072986832
9.049354553222656,0.4509802382282349,[0.44377921],5.0,0.6,0.0,0.07321399288099012,0.027463057498056227,1.4896786329229041
9.061405420303345,0.4515664343784449,[0.44436157],5.0,0.6,0.0,0.01981392941834645,0.03585262788806385,1.4896713934518893
9.073554515838623,0.45215263052865495,[0.44493413],5.0,0.6,0.0,0.1528514310207824,0.042788382916412675,1.4896153652308666
9.081318140029907,0.4525434279621283,[0.44549912],5.0,0.6,0.0,0.31881048609745033,0.043771477363436985,1.490048985295753
9.090299367904663,0.4529342253956016,[0.44605504],5.0,0.6,0.0,0.46001233509509426,0.04017805412161868,1.490422513776212
9.10033631324768,0.4535204215458116,[0.44660181],5.0,0.6,0.0,0.5608938644045968,0.037531072964336665,1.4902381002567964
9.10928225517273,0.453911218979285,[0.44714156],5.0,0.6,0.0,0.6228940338328585,0.03715477920882775,1.4905874663031258
9.119319200515747,0.454497415129495,[0.44767643],5.0,0.6,0.0,0.6531196447819845,0.03688017771231396,1.4904205448150318
9.129261016845703,0.455083611279705,[0.44820857],5.0,0.6,0.0,0.6595335460831195,0.037517513252444956,1.4902676087438278
9.139344692230225,0.4554744087131783,[0.44874017],5.0,0.6,0.0,0.6491470330773925,0.03967717339136803,1.4906574188747448
9.149656534194946,0.4560606048633884,[0.44927337],5.0,0.6,0.0,0.6275344597390162,0.04128593928434792,1.4905359476987543
9.161540508270264,0.4566468010135984,[0.44981155],5.0,0.6,0.0,0.5988830703909408,0.05654101838530473,1.4904324865811176
9.170623064041138,0.4572329971638084,[0.45035913],5.0,0.6,0.0,0.5662223494191871,0.05554138428517026,1.4903558950292108
9.178269147872925,0.4576237945972817,[0.4509176],5.0,0.6,0.0,0.5316814924562188,0.042573103145947845,1.490835322773162
9.18902850151062,0.45820999074749164,[0.4514859],5.0,0.6,0.0,0.772756176296244,0.047295946102860184,1.4905537645124327
9.199281454086304,0.45879618689770174,[0.45206465],5.0,0.6,0.0,0.7714634405509917,0.05173452377648619,1.4905353952331641
9.209393978118896,0.45938238304791174,[0.4526559],5.0,0.6,0.0,0.6831164542042673,0.05611734198831091,1.4906444510072783
9.21930456161499,0.45996857919812173,[0.45326164],5.0,0.6,0.0,0.575326529119299,0.06043964136395678,1.4907973974156314
9.227285623550415,0.4605547753483318,[0.45388223],5.0,0.6,0.0,0.750890504856006,0.0478054157946154,1.4907154160535696
9.239542484283447,0.4611409714985418,[0.45451821],5.0,0.6,0.0,0.6992882355303632,0.07325587822244496,1.490902283984569
9.251439809799194,0.46192256636548845,[0.45517506],5.0,0.6,0.0,0.5759514076401583,0.09272709805074436,1.4906886848652545
9.262659311294556,0.46250876251569845,[0.45586107],5.0,0.6,0.0,0.722076991978292,0.10900019562456341,1.490812616086456
9.270869255065918,0.4632903573826451,[0.45658013],5.0,0.6,0.0,0.6425023284472928,0.08489520191021911,1.49072779423578
9.280386686325073,0.4638765535328551,[0.45733027],5.0,0.6,0.0,0.7736997029106482,0.08755053450533948,1.4910204615369982
9.289596319198608,0.4646581483998018,[0.45810983],5.0,0.6,0.0,0.6625154163465243,0.08986181659751519,1.4911339452553374
9.298369646072388,0.4652443445500118,[0.45891717],5.0,0.6,0.0,0.762497424061251,0.07333860390222162,1.4915927388204457
9.308950901031494,0.4664167368504319,[0.45974895],5.0,0.6,0.0,0.9023284279792484,0.07972604547576488,1.4905418288102945
9.318322658538818,0.46719833171737857,[0.46060418],5.0,0.6,0.0,1.0175949767945125,0.085950764291997,1.4905709170790369
9.327351808547974,0.4679799265843252,[0.46148381],5.0,0.6,0.0,1.0908399870702834,0.0910695924486234,1.4907106198222315
9.335273504257202,0.46876152145127187,[0.46238652],5.0,0.6,0.0,1.1235474301390909,0.07457633489108982,1.4909659946393177
9.34507441520691,0.4695431163182186,[0.46330904],5.0,0.6,0.0,1.1235047932225082,0.08390249695040991,1.4913186437311552
9.354267597198486,0.47052010990190196,[0.46425047],5.0,0.6,0.0,1.099442674046112,0.09010566978185112,1.4912701394403667
9.366343259811401,0.47188790091905863,[0.46521389],5.0,0.6,0.0,1.059024772137021,0.1129825152942587,1.4902969169969942
9.37482500076294,0.472864894502742,[0.46620371],5.0,0.6,0.0,1.0083114122850803,0.10991025688423926,1.4904087201423235
9.384730100631714,0.47384188808642536,[0.4672212],5.0,0.6,0.0,0.95181871639999,0.10741573827576929,1.4905976668798262
9.392254114151001,0.47462348295337203,[0.468263],5.0,0.6,0.0,0.8927768619335914,0.0861567067169891,1.491348528629529
9.401801586151123,0.475795875253792,[0.46932386],5.0,0.6,0.0,0.5573804487307458,0.0897121069828101,1.4914263817185671
9.412296056747437,0.476968267554212,[0.4704029],5.0,0.6,0.0,0.7421113400959105,0.11130739183985126,1.4910064445421407
