t_s,q_rad,q_des_rad,K,B,jerk,tau_Nm,ilc_ff_Nm
0.00572514533996582,0.0,[0.00250156],0.005,0.1,0.0,9.998999999999999,0
0.017656564712524414,0.0,[0.01211474],0.005,0.1,0.0,10.098989999999999,0
0.028465986251831055,0.0,[0.03020263],0.005,0.1,0.0,10.099989899999999,0
0.04029679298400879,0.0,[0.05533775],0.005,0.1,0.0,10.099999898999998,0
0.050908803939819336,-0.00019539871673667023,[0.08621016],0.005,0.1,0.0,10.099999998989999,0
0.06151461601257324,0.0,[0.12162643],0.005,0.1,0.0,10.0999999999899,0
0.07443070411682129,0.0,[0.16052244],0.005,0.1,0.0,9.202434766212633,0
0.08442807197570801,0.0,[0.20195706],0.005,0.1,0.0,6.184575471977564,0
0.09665560722351074,0.0035171769012600643,[0.24509787],0.005,0.1,1.6562301580720857,4.502078430165408,0
0.10973620414733887,0.00840214481967682,[0.28922185],0.005,0.1,5.0,3.404145467430989,0
0.12084412574768066,0.012700916587883566,[0.33370846],0.005,0.1,5.0,2.6961732701333747,0
0.13161778450012207,0.01680428963935364,[0.37801966],0.005,0.1,5.0,2.0359632446185234,0
0.14436769485473633,0.022080054991243738,[0.42169528],0.005,0.1,5.0,1.80302593556957,0
0.15712547302246094,0.027355820343133833,[0.46436032],0.005,0.1,5.0,1.6727175540751216,0
0.16852188110351562,0.032045389544813924,[0.50571775],0.005,0.1,5.0,1.6245032343289443,0
0.1801469326019287,0.036734958746494004,[0.54553511],0.005,0.1,5.0,1.642705225510731,0
0.19146084785461426,0.04142452794817409,[0.58363863],0.005,0.1,5.0,1.7186880101705984,0
0.19949555397033691,0.044550907415960815,[0.61988606],0.005,0.1,3.74806969526412,1.1638891954777093,0
0.20946049690246582,0.048458881750694224,[0.65415628],0.005,0.1,1.176053591421693,1.2297462849057081,0
0.21943140029907227,0.05236685608542762,[0.68638168],0.005,0.1,-1.6224980827787039,1.3261899441321094,0
0.2299807071685791,0.056665627853634375,[0.71653286],0.005,0.1,-3.666761055864278,0.9969178912777257,0
0.2384052276611328,0.059987406038157755,[0.74458375],0.005,0.1,-5.0,0.8197971317672725,0
0.24949097633361816,0.0642861778063645,[0.77054081],0.005,0.1,-5.0,1.082635640850777,0
0.2604548931121826,0.06858494957457126,[0.79446855],0.005,0.1,-5.0,1.3394361052106984,0
0.2712233066558838,0.07288372134277801,[0.81644903],0.005,0.1,-5.0,1.0774010444139546,0
0.27943849563598633,0.07640089824403806,[0.83654616],0.005,0.1,-5.0,0.9325408945711205,0
0.289492130279541,0.08030887257877146,[0.85483947],0.005,0.1,-5.0,1.2661773687861302,0
0.29973602294921875,0.08421684691350488,[0.87144497],0.005,0.1,-5.0,1.3070623715227438,0
0.307903528213501,0.08773402381476494,[0.88647498],0.005,0.1,-5.0,1.109240339601,0
0.31850552558898926,0.09222819429970835,[0.90003744],0.005,0.1,-5.0,1.4656264305967888,0
0.3293263912200928,0.0965269660679151,[0.91226031],0.005,0.1,-5.0,1.4814725670401712,0
0.33867788314819336,0.10023954168591184,[0.923261],0.005,0.1,-5.0,1.2358084277902417,0
0.34874415397644043,0.10395211730390858,[0.93313773],0.005,0.1,-4.919048248866967,1.3242362355812565,0
0.3584573268890381,0.10786009163864198,[0.94200587],0.005,0.1,-4.69683186068259,1.6899451132118242,0
0.3692319393157959,0.11215886340684872,[0.94999386],0.005,0.1,-4.414987390794607,1.662286029011743,0
0.37933349609375,0.11645763517505547,[0.95721327],0.005,0.1,-4.114513279187202,1.6449686229156613,0
0.38859081268310547,0.11977941335957885,[0.9637511],0.005,0.1,-3.8157563448013176,1.3529604587631798,0
0.39847588539123535,0.12388278641104894,[0.96969014],0.005,0.1,-3.5285270828764865,1.733096799815218,0
0.4096202850341797,0.1281815581792557,[0.97512645],0.005,0.1,-3.2572409662552397,1.7119509923425786,0
0.4178330898284912,0.13169873508051574,[0.98013922],0.005,0.1,-3.003546012984805,1.3999004081583168,0
0.4264822006225586,0.13502051326503914,[0.9847834],0.005,0.1,-2.7676749032788726,1.4804367652584687,0
0.4352893829345703,0.13834229144956253,[0.9891106],0.005,0.1,-2.5491464832054893,1.2678864219737906,0
0.44704127311706543,0.14303186065124263,[0.99317839],0.005,0.1,-2.347133051209215,1.6955299115233178,0
0.45575380325317383,0.14674443626923936,[0.99705813],0.005,0.1,-1.8846160411598945,1.7174692800693692,0
0.4653956890106201,0.15065241060397278,[1.00081349],0.005,0.1,-1.6795180780716663,1.7378792680273625,0
0.47539734840393066,0.15456038493870616,[1.00449157],0.005,0.1,-1.5761234441547747,1.7607083395278096,0
0.48337292671203613,0.15788216312322959,[1.00812432],0.005,0.1,-1.5062087813454066,1.4493148245251946,0
0.4923732280731201,0.1613993400244896,[1.01174024],0.005,0.1,-1.4422839497902826,1.9251003667014561,0
0.5014004707336426,0.16511191564248637,[1.01537414],0.005,0.1,-1.375126154497039,1.5554737685235729,0
0.5114645957946777,0.16921528869395644,[1.01904592],0.005,0.1,-1.3031858121318587,1.6518257186656844,0
0.5194072723388672,0.17234166816174315,[1.02277271],0.005,0.1,-1.2277359249133237,1.736828365091029,0
0.528282880783081,0.17566344634626652,[1.02657899],0.005,0.1,-1.1507586117245676,1.8054195729769416,0
0.538250207901001,0.1799622181144733,[1.03047481],0.005,0.1,-1.0741060535386324,1.491882719140376,0
0.5473873615264893,0.18387019244920672,[1.03445769],0.005,0.1,-0.7231944201977852,1.6271428494886093,0
0.5584859848022461,0.18797356550067676,[1.03854566],0.005,0.1,-0.6180046016280221,2.1543213216971013,0
0.5676467418670654,0.19129534368520015,[1.04277389],0.005,0.1,-0.6045072177233254,2.126439835207685,0
0.5753967761993408,0.19442172315298686,[1.04714983],0.005,0.1,-0.6158452141099897,1.6963820062960524,0
0.5843894481658936,0.19813429877098362,[1.05166779],0.005,0.1,-0.6256358410677498,2.2343411469512873,0
0.594933032989502,0.20262846925592706,[1.05633194],0.005,0.1,-0.6255603658545184,1.7639426252500883,0
0.6023964881896973,0.20575484872371377,[1.06112285],0.005,0.1,-0.6148156216424773,1.4841828959898753,0
0.6122899055480957,0.20966282305844713,[1.06601201],0.005,0.1,-0.5952990867535009,1.6491230883173458,0
0.6234240531921387,0.2141569935433906,[1.07100605],0.005,0.1,-0.5695225878543119,2.211033280995667,0
0.6319925785064697,0.21767417044465065,[1.07611991],0.005,0.1,-0.5397936442804983,1.762588516114703,0
0.6414046287536621,0.22138674606264738,[1.0813435],0.005,0.1,-0.5079629890690875,1.865499722164766,0
0.6494331359863281,0.22451312553043412,[1.08664554],0.005,0.1,-0.4754078513316695,1.875284221195222,0
0.6618680953979492,0.22978889088232424,[1.09200923],0.005,0.1,-0.4431000121750932,2.9479706232797698,0
0.6704034805297852,0.23350146650032094,[1.09746219],0.005,0.1,-0.4116930924551065,2.7037667731688706,0
0.6804227828979492,0.23721404211831768,[1.10302668],0.005,0.1,-0.10556490675233118,2.5336746729360065,0
0.6901721954345703,0.2411220164530511,[1.10869872],0.005,0.1,-0.04391240948438713,2.4206653934993354,0
0.6984202861785889,0.24405299720410112,[1.11446284],0.005,0.1,-0.34820646913824493,1.8998603931980855,0
0.709381103515625,0.24854716768904456,[1.12030468],0.005,0.1,-0.4323026114782815,2.441518541016118,0
0.720409631729126,0.253041338173988,[1.12624281],0.005,0.1,-0.4243291260609314,2.8896223712411926,0
0.7321486473083496,0.25773090737566806,[1.13230207],0.005,0.1,-0.383132233222248,2.664716789609603,0
0.7394845485687256,0.2606618881267181,[1.13845932],0.005,0.1,-0.33446722603463486,2.6788890940109216,0
0.7494115829467773,0.26476526117818816,[1.14467234],0.005,0.1,-0.2886302306798205,3.069254642336554,0
0.7602603435516357,0.2692594316631316,[1.15093606],0.005,0.1,-0.24894932148449755,2.788069760783911,0
0.7721049785614014,0.27375360214807504,[1.1572661],0.005,0.1,0.06023570675690809,3.131120751574385,0
0.7794187068939209,0.27687998161586175,[1.16365341],0.005,0.1,-0.15534364187322378,3.1535447622265345,0
0.789421558380127,0.2807879559505952,[1.17006842],0.005,0.1,-0.2210345602351138,3.4105430419295484,0
0.799485445022583,0.2848913290020652,[1.17651622],0.005,0.1,-0.22332771483896957,3.588362990270353,0
0.8093342781066895,0.28860390462006197,[1.18301061],0.005,0.1,0.07394720211877506,2.5815438275248477,0
0.8184070587158203,0.292707277671532,[1.18952137],0.005,0.1,-0.1417632818855047,2.00245579503617,0
0.8284122943878174,0.29661525200626543,[1.19602229],0.005,0.1,-0.2039305539774439,2.4898336120839955,0
0.8389008045196533,0.3007186250577355,[1.20252132],0.005,0.1,-0.2023979634883817,2.387749919296309,0
0.8463776111602783,0.3038450045255222,[1.20901485],0.005,0.1,-0.17821643387927827,1.902853737481432,0
0.8563978672027588,0.3075575801435189,[1.21548944],0.005,0.1,-0.14919783929270988,2.3994373680448002,0
0.8680541515350342,0.31244254806193567,[1.22195356],0.005,0.1,-0.12234486868331662,2.323791107199335,0
0.8787698745727539,0.31693671854687916,[1.22841435],0.005,0.1,-0.09982315498618533,2.272419017638511,0
0.8863804340362549,0.3202584967314025,[1.23485789],0.005,0.1,-0.08177735375738311,1.8427548055490919,0
0.8974261283874512,0.3245572684996093,[1.24127245],0.005,0.1,-0.06762017033184661,2.3462748707297303,0
0.9089608192443848,0.3290514389845527,[1.24766818],0.005,0.1,-0.33263190432439804,2.299519183115314,0
0.9188232421875,0.3327640146025494,[1.25405402],0.005,0.1,-0.35715385773644637,2.2718653346828925,0
0.926384687423706,0.3360857927870728,[1.26041802],0.005,0.1,-0.2952930843605294,1.858764698188492,0
0.9367294311523438,0.33979836840506955,[1.26674057],0.005,0.1,-0.2138271028879189,1.9632041377989404,0
0.9464259147644043,0.3439017414565396,[1.27301566],0.005,0.1,-0.13896085565329405,2.0472112245423926,0
0.9555008411407471,0.3474189183577997,[1.27923896],0.005,0.1,-0.07877677955009978,1.7377813044583923,0
0.9654600620269775,0.35171769012600645,[1.28540775],0.005,0.1,-0.03381001565619185,2.293425546476306,0
0.9757125377655029,0.3558210631774765,[1.29155073],0.005,0.1,0.27415716843294413,2.7849379043020654,0
0.9854423999786377,0.3599244362289466,[1.29769279],0.005,0.1,0.32896847714816924,2.1852547601874734,0
0.9964463710784912,0.36422320799715335,[1.3038251],0.005,0.1,0.2879018236114176,2.2286987149386186,0
1.0054028034210205,0.36793578361515006,[1.30994061],0.005,0.1,0.22031030851813516,2.273075670982843,0
1.0152616500854492,0.37164835923314676,[1.31604396],0.005,0.1,0.15437645216910262,2.3106673185524533,0
1.0253729820251465,0.3759471310013535,[1.32213946],0.005,0.1,0.09965127721606877,2.3407019292210878,0
1.0343866348266602,0.37965970661935033,[1.32823114],0.005,0.1,-0.21830109409165635,2.37111593673976,0
1.044407606124878,0.383958478387557,[1.33432272],0.005,0.1,-0.28194369926936125,2.3960398985761495,0
1.053729772567749,0.38747565528881706,[1.34040724],0.005,0.1,-0.24822314037819673,1.9880926008987678,0
1.0623929500579834,0.39118823090681387,[1.34646885],0.005,0.1,-0.18657987116160585,2.127171820302839,0
1.0723683834075928,0.3947054078080739,[1.35251532],0.005,0.1,-0.1254187519174773,2.7242501664873826,0
1.0826892852783203,0.39880878085954397,[1.35857441],0.005,0.1,-0.07452847259786294,2.674479551810791,0
1.0919380187988281,0.40291215391101404,[1.36464894],0.005,0.1,-0.3117585748122177,2.170448642206141,0
1.103142499923706,0.4072109256792208,[1.37072056],0.005,0.1,-0.3169102578833134,2.284472600035938,0
1.113400936126709,0.41131429873069086,[1.3767952],0.005,0.1,0.03348741256657137,2.898324585118269,0
1.1242821216583252,0.4156130704988976,[1.3828993],0.005,0.1,0.1553562088351519,2.8225378346659067,0
1.1367058753967285,0.42049803841731437,[1.38905542],0.005,0.1,-0.09741899785833957,3.3649846342500878,0
1.1445069313049316,0.42401521531857445,[1.39526118],0.005,0.1,-0.1455948965808616,3.387115394079743,0
1.155411958694458,0.4287047845202545,[1.40149307],0.005,0.1,0.15904910105822442,3.835745363296898,0
1.1664249897003174,0.43300355628846127,[1.40776402],0.005,0.1,0.2414717968828768,4.207846054845336,0
1.177025556564331,0.4374977267734046,[1.41410684],0.005,0.1,-0.04225709992470328,3.7641365993285087,0
1.1843926906585693,0.44023330880771805,[1.42050521],0.005,0.1,-0.11343287428852258,3.78410031439975,0
1.1928629875183105,0.4437504857089781,[1.42690084],0.005,0.1,0.17475640807372356,2.884523559885629,0
1.206547498703003,0.44922164977760487,[1.43327833],0.005,0.1,0.2457698384774414,4.2486109497783335,0
1.2160446643829346,0.4529342253956016,[1.43968128],0.005,0.1,-0.045627504966678875,3.8613058290585602,0
1.2244625091552734,0.456256003580125,[1.44612443],0.005,0.1,-0.12176973259711688,2.9559405783721724,0
1.2360126972198486,0.4611409714985418,[1.45259806],0.005,0.1,0.1633668067840858,3.649086080496902,0
1.2464022636413574,0.4652443445500118,[1.45912878],0.005,0.1,0.23266040530052284,4.252568209380353,0
1.255828619003296,0.4693477176014819,[1.46573905],0.005,0.1,-0.05954349140189047,3.2129240705439774,0
1.2654228210449219,0.4730602932194786,[1.47241278],0.005,0.1,-0.1358779596158325,3.218451015914234,0
1.274482011795044,0.476968267554212,[1.47913624],0.005,0.1,0.14946997229822523,3.2441607366780705,0
1.2854804992675781,0.4812670393224188,[1.48590957],0.005,0.1,0.21923153064356946,3.2751527552150392,0
1.293546438217163,0.4843934187902056,[1.49272092],0.005,0.1,0.20368880224646302,2.6804195688194903,0
1.3034882545471191,0.4884967918416756,[1.49956047],0.005,0.1,0.16118694628685007,3.572903191602497,0
1.3154430389404297,0.49338175976009235,[1.50644448],0.005,0.1,0.11614536052892102,3.56145884368366,0
1.3235454559326172,0.49689893666135243,[1.51337456],0.005,0.1,0.07745013874354037,2.8781590477419527,0
1.3333392143249512,0.5004161135626125,[1.5203277],0.005,0.1,0.04722113663172337,3.0833129772847605,0
1.3433873653411865,0.5041286891806092,[1.5273096],0.005,0.1,0.024895114016415143,4.0297880477933345,0
1.3549513816833496,0.5088182583822893,[1.53435041],0.005,0.1,0.009057053727680996,3.9542658183057076,0
1.3634140491485596,0.5121400365668127,[1.54145055],0.005,0.1,-0.0017913358817989791,3.157346391631696,0
1.37241530418396,0.5162434096182827,[1.54858516],0.005,0.1,-0.008950361476143007,3.3549858531059757,0
1.3824265003204346,0.5205421813864896,[1.5557591],0.005,0.1,-0.01345379265693754,4.370862949681424,0
1.391179084777832,0.5240593582877495,[1.56298948],0.005,0.1,-0.016085025000384882,3.445431853781232,0
1.404144287109375,0.5293351236396396,[1.57027814],0.005,0.1,-0.017420454872890196,4.491026641299941,0
1.4124760627746582,0.532656901824163,[1.5776267],0.005,0.1,-0.0178758592155248,3.542220530837668,0
1.4234821796417236,0.5369556735923698,[1.58503652],0.005,0.1,-0.017746858201860817,4.635118155811071,0
1.4329185485839844,0.5408636479271033,[1.59250869],0.005,0.1,-0.017241226557649175,3.649742654748893,0
1.4445040225982666,0.5459440145622566,[1.60004397],0.005,0.1,-0.01650349514416291,4.771553531972814,0
1.4524719715118408,0.5488749953133067,[1.6076428],0.005,0.1,-0.015633154631732708,3.758602588444018,0
1.4628658294677734,0.5527829696480401,[1.61530523],0.005,0.1,-0.014697880831220164,4.918078981738458,0
1.4711918830871582,0.5563001465493002,[1.62303092],0.005,0.1,-0.013743025964071188,3.8658746724567052,0
1.4804472923278809,0.5598173234505602,[1.63080533],0.005,0.1,-0.012798372106718013,4.058138971791515,0
1.4910120964050293,0.5643114939355037,[1.63861585],0.005,0.1,0.2641554529365575,4.2266489341357785,0
1.502420425415039,0.5686102657037104,[1.64647921],0.005,0.1,0.2981547792296092,5.391821753990378,0
1.5111353397369385,0.5723228413217071,[1.65440907],0.005,0.1,0.2438850275786003,4.184275867625868,0
1.5204341411590576,0.5762308156564405,[1.66238865],0.005,0.1,0.16857726531242573,4.338772533691893,0
1.531428575515747,0.5807249861413839,[1.67041709],0.005,0.1,0.09878081127490872,5.5287719710192675,0
1.5428800582885742,0.585414555343064,[1.6785207],0.005,0.1,0.04283495501894517,5.317946819643648,0
1.5511598587036133,0.5887363335275874,[1.68669331],0.005,0.1,0.0014646844769410257,4.1755078960188685,0
1.560467004776001,0.5922535104288476,[1.69490121],0.005,0.1,-0.02736947227583071,4.379198629299606,0
1.5714490413665771,0.5965522821970541,[1.70314312],0.005,0.1,-0.046360076938153014,5.613904776802099,0
1.5811054706573486,0.600851053965261,[1.71143128],0.005,0.1,-0.05801652201826147,4.382588646680229,0
1.591670274734497,0.604954427016731,[1.71974785],0.005,0.1,-0.06440044488342073,4.554215429841573,0
1.6004362106323242,0.6082762052012545,[1.72807738],0.005,0.1,-0.06710086491246495,4.704507249944049,0
1.6114165782928467,0.612770375686198,[1.73643433],0.005,0.1,-0.06729690684371224,5.935311416388273,0
1.6237010955810547,0.6180461410380881,[1.74484441],0.005,0.1,-0.06584172817849064,5.6815939691068555,0
1.6320326328277588,0.6213679192226114,[1.75330106],0.005,0.1,0.21269711998933333,4.474329738202498,0
1.6414000988006592,0.6252758935573448,[1.76177058],0.005,0.1,0.248943803466487,4.6778976190690145,0
1.6504695415496826,0.6287930704586048,[1.77023829],0.005,0.1,0.19729821441090795,4.853223748579297,0
1.6596992015838623,0.6328964435100749,[1.77870577],0.005,0.1,0.12479639694752803,4.992835684667855,0
1.668384075164795,0.6362182216945983,[1.78717468],0.005,0.1,0.057856662491488,5.11659129825541,0
1.6783781051635742,0.6403215947460684,[1.79564676],0.005,0.1,0.004732188360541258,5.219878684371704,0
1.6872320175170898,0.6436433729305918,[1.80410977],0.005,0.1,-0.033906908121168824,4.284933266057324,0
1.6963810920715332,0.6473559485485886,[1.81253976],0.005,0.1,-0.06013340177082903,4.64209746551608,0
1.7074081897735596,0.6516547203167954,[1.82094552],0.005,0.1,-0.07665840269396389,6.0930317679065995,0
1.7185251712799072,0.6557580933682653,[1.82936346],0.005,0.1,-0.08599987195135433,5.999363526913799,0
1.7275958061218262,0.6596660677029987,[1.83779626],0.005,0.1,-0.09022136639006123,4.804345801819343,0
1.736386775970459,0.6631832446042588,[1.84621792],0.005,0.1,-0.09090948859708045,5.100062376060189,0
1.7462608814239502,0.6674820163724656,[1.85462087],0.005,0.1,-0.08923820786308082,5.319818974031475,0
1.7565488815307617,0.6717807881406723,[1.86301324],0.005,0.1,-0.08605388422717607,5.516399434342653,0
1.7666957378387451,0.6756887624754058,[1.87140239],0.005,0.1,-0.08195473565689043,5.655260039511445,0
1.776376485824585,0.6794013380934025,[1.8797945],0.005,0.1,-0.07735639485825566,5.770564278407811,0
1.786851167678833,0.6837001098616091,[1.88819463],0.005,0.1,-0.07254272217551075,5.8583305073001295,0
1.7964718341827393,0.6876080841963426,[1.89660688],0.005,0.1,-0.06770379776968777,5.932541979886281,0
1.8064792156219482,0.6919068559645494,[1.90503437],0.005,0.1,-0.06296369237287708,5.9851419220568145,0
1.816349744796753,0.6958148302992828,[1.91347919],0.005,0.1,-0.05840046241393451,6.029381230139649,0
1.8274919986724854,0.7001136020674896,[1.92195633],0.005,0.1,-0.054060394489184024,7.364477074655281,0
1.83998703956604,0.7051939687026428,[1.9304911],0.005,0.1,-0.049968072911362356,6.949365314430586,0
1.847801923751831,0.708124949453693,[1.93907513],0.005,0.1,-0.04613344988202828,5.462904316768823,0
1.857374668121338,0.712228322505163,[1.9476717],0.005,0.1,-0.042556782762289684,5.600983370365852,0
1.8660430908203125,0.7159408981231598,[1.95624888],0.005,0.1,-0.31527042248377013,4.680188625837109,0
1.8770263195037842,0.7204350686081032,[1.96479195],0.005,0.1,-0.06927398503384033,6.03362632840947,0
1.889378309249878,0.7253200365265199,[1.97332602],0.005,0.1,0.0218007022915465,7.08446824338492,0
1.8983666896820068,0.72883721342778,[1.98187043],0.005,0.1,-0.23061357262126791,5.525075038289745,0
1.90842866897583,0.7327451877625135,[1.99041296],0.005,0.1,-0.26686685859112685,6.540621177625532,0
1.9191968441009521,0.7374347569641935,[1.99895294],0.005,0.1,-0.22342577948399067,6.147607984265851,0
1.9289321899414062,0.7411473325821902,[2.00747608],0.005,0.1,-0.15989581049863666,4.949155330848559,0
1.9414887428283691,0.7462276992173437,[2.01595579],0.005,0.1,-0.10004916335372022,5.871105728184901,0
1.9513518810272217,0.7501356735520771,[2.02439055],0.005,0.1,-0.05155881883871745,5.5655559823263845,0
1.9626023769378662,0.7548252427537571,[2.03278731],0.005,0.1,-0.015319663402299497,6.191467804122076,0
1.971299648284912,0.7581470209382805,[2.04113859],0.005,0.1,0.2863113652573588,4.922639791491687,0
1.9834051132202148,0.763227387573434,[2.04942497],0.005,0.1,0.3366145855878106,5.5210468200805,0
1.9923443794250488,0.7665491657579574,[2.05762811],0.005,0.1,0.01635490506771528,4.525524099410823,0
2.0033535957336426,0.7710433362429008,[2.06573109],0.005,0.1,-0.08653458940955087,5.090743494419787,0
2.0133135318756104,0.7753421080111076,[2.07371841],0.005,0.1,-0.09884346495740759,4.255517734756311,0
2.022435188293457,0.7790546836291042,[2.08156748],0.005,0.1,-0.07846057327640611,4.235285277196493,0
2.0324020385742188,0.7831580566805743,[2.0892586],0.005,0.1,-0.05048215508785237,4.198550365824261,0
2.0438332557678223,0.7876522271655179,[2.09679176],0.005,0.1,-0.3008064506371976,4.620637314859096,0
2.0513813495635986,0.7907786066333043,[2.10415885],0.005,0.1,-0.3135345667695544,4.661564941135361,0
2.0622520446777344,0.7948819796847746,[2.11133686],0.005,0.1,-0.24357595626317535,4.89312599518725,0
2.0724058151245117,0.7987899540195079,[2.11832869],0.005,0.1,-0.15736144430023047,4.984913560647922,0
2.0844218730926514,0.804065719371398,[2.12515162],0.005,0.1,-0.08040495200969157,4.532751357089288,0
2.0927116870880127,0.8079736937061315,[2.13179867],0.005,0.1,-0.02008641616462354,3.879574447756356,0
2.1054043769836426,0.8122724654743383,[2.13825654],0.005,0.1,0.023655212888342287,4.087056303479724,0
2.1143341064453125,0.815985041092335,[2.14452706],0.005,0.1,0.05346430587946756,3.8948642549585193,0
2.1253833770751953,0.820088414143805,[2.15061222],0.005,0.1,0.07248182291989268,3.74669461907856,0
2.1339211463928223,0.8238009897618018,[2.15650235],0.005,0.1,0.3595797020701359,3.420535928285394,0
2.1455516815185547,0.828881356396955,[2.16218998],0.005,0.1,0.3980975446776364,3.603861034296663,0
2.1543796062469482,0.8325939320149518,[2.16768054],0.005,0.1,0.3444770548869003,3.5127172003535327,0
2.167013645172119,0.8376742986501053,[2.17297941],0.005,0.1,0.2672421904654857,3.4276186082857403,0
2.1780173778533936,0.8421684691350487,[2.17809096],0.005,0.1,0.19387121536744228,3.525759848951489,0
2.1873159408569336,0.8460764434697822,[2.18301965],0.005,0.1,0.13335844331578997,3.2663416740092495,0
2.195394992828369,0.8492028229375689,[2.18776105],0.005,0.1,-0.18915522166354976,3.23912818152346,0
2.2073781490325928,0.853892392139249,[2.19231233],0.005,0.1,-0.2564473554809479,3.2026916129584992,0
2.218167304992676,0.8583865626241924,[2.19668046],0.005,0.1,-0.22569528257310706,3.279292963646394,0
2.2271900177001953,0.8620991382421892,[2.20087237],0.005,0.1,-0.16650752556133852,3.1143265805734415,0
2.236924886703491,0.8658117138601857,[2.20488716],0.005,0.1,-0.10741106179359522,3.092373728302395,0
2.2473864555358887,0.869915086911656,[2.20872801],0.005,0.1,-0.05828338982479271,3.1461208043609084,0
2.258488893508911,0.8744092573965994,[2.21240544],0.005,0.1,-0.02100052581144414,3.0911619068909912,0
2.2679636478424072,0.8783172317313327,[2.21592298],0.005,0.1,0.0056365721874859845,2.9891684615436813,0
2.2763705253601074,0.8816390099158562,[2.21927857],0.005,0.1,0.023717046043703515,2.982295852354904,0
2.2863998413085938,0.8857423829673262,[2.22247773],0.005,0.1,0.03532239234076518,3.021365890168119,0
2.2972230911254883,0.8902365534522696,[2.2255292],0.005,0.1,0.042213863059227724,2.9320295258008033,0
2.30745792388916,0.8945353252204764,[2.22843569],0.005,0.1,0.045771520048152776,2.9150889923112633,0
2.3164455890655518,0.8980525021217365,[2.23120045],0.005,0.1,0.047030475947719794,2.9018663421136037,0
2.326388120651245,0.9019604764564698,[2.23383239],0.005,0.1,0.04674568276425646,2.923157568458475,0
2.33596134185791,0.9058684507912032,[2.23633999],0.005,0.1,0.04545696488768435,2.8572589677556595,0
2.3443987369537354,0.9093856276924633,[2.23872651],0.005,0.1,0.3195827157564575,2.844123086374505,0
2.3554399013519287,0.9138797981774068,[2.24099561],0.005,0.1,0.35043468062849764,2.8233737102091037,0
2.3669724464416504,0.9183739686623502,[2.24315571],0.005,0.1,0.2928853969163534,2.829293988784028,0
2.375670909881592,0.9220865442803469,[2.24521477],0.005,0.1,0.21429065030237968,2.778539047554505,0
2.3844220638275146,0.9254083224648704,[2.24717608],0.005,0.1,0.1412807786871133,2.7659533161076006,0
2.395596504211426,0.929707094233077,[2.2490431],0.005,0.1,0.08224574308404264,2.74610293130902,0
2.4056813716888428,0.9340058660012838,[2.25082157],0.005,0.1,0.03794031252443397,2.7255926125392387,0
2.413386106491089,0.9369368467523338,[2.2525152],0.005,0.1,0.006340562844919108,2.6985653393436437,0
2.4234328269958496,0.9410402198038039,[2.25412775],0.005,0.1,-0.01524009190623015,2.698556444938606,0
2.4313762187957764,0.9443619979883273,[2.25566324],0.005,0.1,-0.02931139258490916,2.6867186641017544,0
2.443453311920166,0.9490515671900073,[2.25712395],0.005,0.1,-0.037939397412308146,2.6765512431277836,0
2.454397439956665,0.9535457376749508,[2.25851576],0.005,0.1,-0.04272006728936818,2.645809025830788,0
2.4644293785095215,0.9574537120096842,[2.25984587],0.005,0.1,-0.04484092722833191,2.6213389982263533,0
2.4732046127319336,0.9613616863444175,[2.2611191],0.005,0.1,-0.04516427385204555,2.5985458868678575,0
2.4830989837646484,0.9650742619624143,[2.26233989],0.005,0.1,-0.044305414043571786,2.5779843361780572,0
2.491351842880249,0.9683960401469377,[2.26351234],0.005,0.1,-0.04269740215903416,2.5606922392983646,0
2.4993512630462646,0.9717178183314611,[2.2646388],0.005,0.1,-0.040641316738114455,2.5356996267707,0
2.508188009262085,0.9752349952327212,[2.26572023],0.005,0.1,-0.31438227174625016,2.5205896341644896,0
2.519437551498413,0.9797291657176646,[2.26676048],0.005,0.1,-0.069069785702768,2.5062292264400123,0
2.528777837753296,0.9836371400523979,[2.26776573],0.005,0.1,0.021559013760863575,2.4846008228953904,0
2.537903070449829,0.9871543169536582,[2.26873873],0.005,0.1,0.044901486082576214,2.4599303127772982,0
2.5464205741882324,0.9902806964214448,[2.26967938],0.005,0.1,0.041603873490421356,2.446296223449765,0
2.5553836822509766,0.9937978733227049,[2.27058787],0.005,0.1,0.029855453466682162,2.4255339713299287,0
2.5672831535339355,0.9988782399578583,[2.27146582],0.005,0.1,0.017259807812866408,2.4050953552654755,0
2.576417922973633,1.002590815575855,[2.27231602],0.005,0.1,0.006577410486686563,2.382222420227516,0
2.5864439010620117,1.0066941886273253,[2.27314093],0.005,0.1,-0.0015381943118772494,2.3668890780990157,0
2.597268581390381,1.0111883591122686,[2.27394383],0.005,0.1,-0.007266868673148978,2.3432054245251117,0
2.6070756912231445,1.0149009347302653,[2.27472758],0.005,0.1,0.2649870587978332,2.324353082631839,0
2.6174099445343018,1.0191997064984721,[2.27549349],0.005,0.1,0.2958049334551073,2.3022504168355447,0
2.6263365745544434,1.0229122821164687,[2.2762427],0.005,0.1,0.23947534371995413,2.283799502565726,0
2.636444330215454,1.0272110538846755,[2.27697619],0.005,0.1,0.16291318837554225,2.2619851849823287,0
2.6444339752197266,1.0305328320691989,[2.27769377],0.005,0.1,0.09242799815975761,2.2436142967699277,0
2.654372215270996,1.034636205120669,[2.27839522],0.005,0.1,0.03618264087860624,2.2261991049225487,0
2.663381576538086,1.0379579833051924,[2.27908135],0.005,0.1,-0.005225064004744446,2.2080435307735833,0
2.671431303024292,1.041084362772979,[2.27975111],0.005,0.1,-0.03392488012017634,2.1926894727314297,0
2.6835718154907227,1.045773931974659,[2.28040366],0.005,0.1,-0.05267269242888763,2.1712436038181986,0
2.692472457885742,1.0494865075926558,[2.28104023],0.005,0.1,-0.0640218028641163,2.1521109198372628,0
2.7013847827911377,1.053003684493916,[2.2816611],0.005,0.1,-0.07006393867895751,2.135806499396616,0
2.713029384613037,1.0576932536955959,[2.28226741],0.005,0.1,-0.07240845559711653,2.1144087786231114,0
2.7224466800689697,1.0614058293135928,[2.28286187],0.005,0.1,-0.34828633922758145,2.0964292995585767,0
2.7323832511901855,1.0657046010817994,[2.28344514],0.005,0.1,-0.37960737330021305,2.0743049505584708,0
2.7403695583343506,1.0688309805495864,[2.2840162],0.005,0.1,-0.04563645718310008,2.0601687882052526,0
2.753422737121582,1.0739113471847397,[2.28457581],0.005,0.1,0.06701327064034662,2.0365696499456907,0
2.7624166011810303,1.0776239228027364,[2.2851262],0.005,0.1,0.08618996829908379,2.0188248104800723,0
2.7713892459869385,1.0811410997039963,[2.28566772],0.005,0.1,0.07059049807006873,2.0015960111880085,0
2.781421661376953,1.0852444727554664,[2.28619915],0.005,0.1,0.04590991514783949,1.9824270202769276,0
2.7894198894500732,1.0885662509399898,[2.28672026],0.005,0.1,0.02244360571186142,1.967396315401214,0
2.799147367477417,1.0924742252747233,[2.28723161],0.005,0.1,0.003557567862766394,1.9493559091894412,0
2.809424877166748,1.09677299704293,[2.28773374],0.005,0.1,-0.010307966158464023,1.9293090023640986,0
2.820408582687378,1.1010717688111367,[2.28822709],0.005,0.1,-0.01979875088909014,1.90930578821342,0
2.834425687789917,1.106347534163027,[2.28871268],0.005,0.1,-0.025840032238680213,1.8850163508989928,0
2.844430685043335,1.1108417046479702,[2.28919203],0.005,0.1,-0.3053510093350102,1.8640330669990137,0
2.8527238368988037,1.1141634828324936,[2.28966576],0.005,0.1,-0.3401095710228011,1.8492073030140141,0
2.860497236251831,1.1174852610170172,[2.29013307],0.005,0.1,-0.285372413375992,1.8343821186270415,0
2.8723978996276855,1.1225656276521707,[2.29059268],0.005,0.1,-0.2087932250959267,1.811147916989561,0
2.88460636138916,1.1270597981371138,[2.29104475],0.005,0.1,-0.13722543002391768,1.7911253983370112,0
2.895883321762085,1.1315539686220573,[2.29149063],0.005,0.1,-0.0792224794683308,1.7709217356426428,0
2.9064152240753174,1.135852740390264,[2.29193086],0.005,0.1,-0.03565729969901331,1.7518606258018934,0
2.9154040813446045,1.1393699172915244,[2.2923653],0.005,0.1,-0.004590578682653463,1.7367182551134168,0
2.9244730472564697,1.1428870941927842,[2.29279437],0.005,0.1,0.01660404856639755,1.721908608215598,0
2.9346234798431396,1.1467950685275177,[2.29321844],0.005,0.1,0.030393633862175345,1.7049215514043705,0
2.9423575401306152,1.1501168467120408,[2.29363613],0.005,0.1,0.03881405083649191,1.691194831820662,0
2.952366590499878,1.1544156184802479,[2.29404575],0.005,0.1,0.043439947776166554,1.6726530688087917,0
2.9656052589416504,1.1596913838321379,[2.2944476],0.005,0.1,0.04544380947286092,1.6495649938765315,0
2.9752931594848633,1.1635993581668713,[2.29484299],0.005,0.1,0.04567731638518285,1.6330833619439553,0
2.987370491027832,1.168484326085288,[2.29523252],0.005,0.1,0.04474827494699678,1.612302816343467,0
2.997022867202759,1.1723923004200216,[2.29561616],0.005,0.1,0.04308443151386514,1.5960702171537686,0
3.005734920501709,1.1761048760380182,[2.29599391],0.005,0.1,0.04098309891252966,1.5808657390583833,0
3.015359401702881,1.1802082490894885,[2.2963658],0.005,0.1,0.03864835080628926,1.5639976214794575,0
3.024876356124878,1.1841162234242217,[2.29673185],0.005,0.1,-0.2398200948406834,1.5480827689355379,0
3.036364793777466,1.1886103939091652,[2.2970921],0.005,0.1,-0.2753783856060824,1.5297001451669905,0
3.0468122959136963,1.1925183682438982,[2.29744702],0.005,0.1,-0.2226589906269159,1.513821326958663,0
3.0594074726104736,1.1975987348790518,[2.29779795],0.005,0.1,-0.14885895799650126,1.4931185273041807,0
3.0704474449157715,1.2020929053639953,[2.29814602],0.005,0.1,-0.08050665874628549,1.4750899040055072,0
3.0797317028045654,1.2058054809819923,[2.29849125],0.005,0.1,-0.025929386597019315,1.4606020696707855,0
3.0874476432800293,1.2091272591665154,[2.2988327],0.005,0.1,0.014153797756528055,1.4481870935663865,0
3.09612774848938,1.2122536386343021,[2.29916871],0.005,0.1,0.04178423523960841,1.4367478324461531,0
3.1088974475860596,1.2175294039861924,[2.29949836],0.005,0.1,-0.2163846653929354,1.4154101584396708,0
3.118062734603882,1.2210465808874524,[2.29982224],0.005,0.1,-0.23889388611518175,1.4020086656035502,0
3.128535270690918,1.225540751372396,[2.30014086],0.005,0.1,-0.1783772113356501,1.3847501187816258,0
3.1364564895629883,1.2288625295569193,[2.30045386],0.005,0.1,0.17555451980209041,1.3727628074868201,0
3.1477203369140625,1.233552098758599,[2.30076094],0.005,0.1,0.2785738562546489,1.3544598524620521,0
3.1573596000671387,1.2376554718100692,[2.30106229],0.005,0.1,0.2778828414175435,1.3395088580563739,0
3.1674795150756836,1.2415634461448029,[2.3013581],0.005,0.1,0.24059379218717913,1.324535694580602,0
3.1763341426849365,1.2452760217627994,[2.30164863],0.005,0.1,0.19571796972971514,1.311329521792587,0
3.1843502521514893,1.2484024012305863,[2.30193376],0.005,0.1,0.15457699692327334,1.299997760388701,0
3.194202184677124,1.2519195781318462,[2.30221343],0.005,0.1,0.12060050657467195,1.2872429843344868,0
3.2032182216644287,1.2556321537498432,[2.30248801],0.005,0.1,0.0939393066647734,1.2738212399091113,0
3.213529109954834,1.2597355268013128,[2.30275783],0.005,0.1,0.07357198657911058,1.258996301465716,0
3.2264244556427,1.2654020895866764,[2.30302357],0.005,0.1,0.05821822277411165,1.2380130441458368,0
3.235322952270508,1.2693100639214097,[2.30328621],0.005,0.1,0.04669742054113364,1.2242187884053621,0
3.247448682785034,1.27399963312309,[2.30354621],0.005,0.1,0.03803941531216852,1.207677192601077,0
3.2575089931488037,1.27810300617456,[2.3038032],0.005,0.1,0.03149177872823293,1.1938042883265148,0
3.2685368061065674,1.2824017779427668,[2.30405689],0.005,0.1,0.026489830454195826,1.1784219940753171,0
3.2778549194335938,1.2863097522775002,[2.30430777],0.005,0.1,0.02261808602258606,1.1650932994245313,0
3.2853403091430664,1.2892407330285505,[2.3045559],0.005,0.1,0.019574481637916082,1.1557810114978917,0
3.2954819202423096,1.293539504796757,[2.30480063],0.005,0.1,0.017140929401856308,1.1411516393715062,0
3.30407977104187,1.2970566816980171,[2.30504179],0.005,0.1,0.015160497729668099,1.129353727146259,0
3.314020872116089,1.3007692573160137,[2.30527958],0.005,0.1,0.01352032692397298,1.1169884982234695,0
3.323396682739258,1.3042864342172737,[2.30551424],0.005,0.1,0.012139108647296351,1.105408622821462,0
3.334355115890503,1.3087806047022175,[2.30574596],0.005,0.1,0.010958035253851275,1.090557207574592,0
3.345360517501831,1.3134701739038972,[2.30597493],0.005,0.1,0.009934316034398542,1.0751435713058102,0
3.3564462661743164,1.3181597431055774,[2.30620129],0.005,0.1,0.00903655971831786,1.0598684232146318,0
3.3687021732330322,1.3230447110239942,[2.30642554],0.005,0.1,0.008241498440538507,1.043744362161236,0
3.3794100284576416,1.3275388815089375,[2.30664839],0.005,0.1,0.007531668626580468,1.0295311618282303,0
3.389115571975708,1.331446855843671,[2.30687012],0.005,0.1,0.006893770985122612,1.0173605857075632,0
3.3973920345306396,1.3349640327449313,[2.30709029],0.005,0.1,0.006317510803195384,1.0069787372389054,0
3.406367063522339,1.3382858109294544,[2.30730821],0.005,0.1,0.005794777188254779,0.9967446305129771,0
3.4182839393615723,1.343170778847871,[2.30752397],0.005,0.1,0.005319061188396909,0.9812366896368732,0
3.429394245147705,1.3478603480495512,[2.30773829],0.005,0.1,0.004885042166331229,0.9669865659522222,0
3.437849521636963,1.3513775249508115,[2.30795142],0.005,0.1,0.004488292679347776,0.9565177947861151,0
3.4453396797180176,1.3541131069851247,[2.30816295],0.005,0.1,0.004125066873005504,0.9490155377384113,0
3.454345703125,1.3576302838863845,[2.30837223],0.005,0.1,0.0037921477925453384,0.9385799933905143,0
3.4662320613861084,1.362319853088065,[2.30857906],0.005,0.1,0.003486736329639394,0.9246532336026104,0
3.4751524925231934,1.365837029989325,[2.30878357],0.005,0.1,0.0032063696615523924,0.9144075972759054,0
3.485328197479248,1.3697450043240584,[2.30898587],0.005,0.1,0.2789872203270115,0.9031269834964825,0
3.495018720626831,1.3740437760922652,[2.30918606],0.005,0.1,0.03583685534627473,0.8907387680610529,0
3.503103494644165,1.3773655542767886,[2.30938425],0.005,0.1,-0.05260247431178919,0.8813497908873403,0
3.5136117935180664,1.381859724761732,[2.30958051],0.005,0.1,0.2022482114095509,0.8686646985927969,0
3.5243301391601562,1.3859630978132023,[2.30977493],0.005,0.1,0.24075131358042337,0.857172629798257,0
3.534226179122925,1.3898710721479355,[2.30996757],0.005,0.1,0.19938588867261778,0.8463684058518812,0
3.5443670749664307,1.3939744451994056,[2.31015851],0.005,0.1,0.13776959811385955,0.8351054051652477,0
3.554694414138794,1.3980778182508755,[2.3103478],0.005,0.1,0.07968638884426224,0.8239389263402901,0
3.5677340030670166,1.4033535836027657,[2.31053577],0.005,0.1,0.03282040484498039,0.8092586093867666,0
3.5774121284484863,1.407261557937499,[2.31072295],0.005,0.1,-0.0019229405156093345,0.798931210534413,0
3.5853891372680664,1.4105833361220224,[2.31090925],0.005,0.1,-0.02613848532986087,0.7906867339260812,0
3.5945048332214355,1.4142959117400193,[2.31109406],0.005,0.1,-0.04204946302947872,0.7809672127318421,0
3.604607105255127,1.4183992847914892,[2.3112771],0.005,0.1,-0.05175869079896335,0.7702807993863924,0
3.614421844482422,1.4223072591262227,[2.31145843],0.005,0.1,0.2190332621536709,0.7602174692128433,0
3.627420663833618,1.4277784231948494,[2.31163838],0.005,0.1,-0.026008994265539973,0.7457906092358842,0
3.638498544692993,1.432663391113266,[2.31181746],0.005,0.1,0.16179698990580774,0.7334865663509001,0
3.6463394165039062,1.4355943718643163,[2.3119956],0.005,0.1,0.17531704699719325,0.7267227441361924,0
3.6543638706207275,1.4389161500488394,[2.31217219],0.005,0.1,0.12804442015745132,0.7185632755109153,0
3.666337251663208,1.443410320533783,[2.31234722],0.005,0.1,0.06864181514957791,0.7071152724343038,0
3.675381898880005,1.4473182948685164,[2.31252096],0.005,0.1,0.015796150341267093,0.6980662268634755,0
3.686879873275757,1.4518124653534599,[2.31269342],0.005,0.1,-0.02508705721333062,0.686827410529462,0
3.696492910385132,1.4555250409714566,[2.31286484],0.005,0.1,-0.05404949941026256,0.678061420838748,0
3.7046310901641846,1.4584560217225064,[2.31303542],0.005,0.1,-0.07302199715167262,0.671313533847626,0
3.7164928913116455,1.46353638835766,[2.31320506],0.005,0.1,-0.08429669424170994,0.6594082257924819,0
3.7275025844573975,1.4682259575593402,[2.3133737],0.005,0.1,-0.08993894674408753,0.6485236604285517,0
3.736377716064453,1.4721339318940736,[2.31354127],0.005,0.1,0.18442210292598832,0.6396342870289171,0
3.746870756149292,1.4760419062288068,[2.31370771],0.005,0.1,-0.0574741681344014,0.6308022025752267,0
3.7548983097076416,1.4791682856965935,[2.31387273],0.005,0.1,-0.14291695527212117,0.6242165666493433,0
3.765413522720337,1.4834670574648006,[2.31403585],0.005,0.1,-0.1600325875673123,0.6145683369704172,0
3.774554491043091,1.4871796330827973,[2.31419691],0.005,0.1,-0.1499745148162719,0.6063136443319805,0
3.783845901489258,1.4910876074175305,[2.31435605],0.005,0.1,0.14476051099343906,0.5977730785651822,0
3.7914278507232666,1.494409385602054,[2.31451316],0.005,0.1,-0.07865198470517712,0.5909505969486978,0
3.80401611328125,1.4990989548037343,[2.31466814],0.005,0.1,-0.1494774246515791,0.580403094937831,0
3.8136487007141113,1.5030069291384676,[2.31482139],0.005,0.1,-0.15591926996012945,0.5721035340723278,0
3.8219244480133057,1.506133308606254,[2.31497326],0.005,0.1,-0.13853461594709546,0.5656194461640384,0
3.829873561859131,1.509259688074041,[2.31512381],0.005,0.1,-0.11511849802367922,0.5591716258818538,0
3.838361978530884,1.5127768649753008,[2.31527288],0.005,0.1,-0.09282788915022824,0.5522876171124457,0
3.847285747528076,1.5166848393100343,[2.31542013],0.005,0.1,-0.07402097520708567,0.5442102968975777,0
3.856191635131836,1.5205928136447677,[2.31556527],0.005,0.1,-0.059020872978151145,0.5365474860285927,0
3.8652443885803223,1.524109990546028,[2.31570809],0.005,0.1,-0.04738833306901466,0.5293510415373278,0
3.8761720657348633,1.528213363597498,[2.31584865],0.005,0.1,-0.038481670812677615,0.521090296332774,0
3.889691114425659,1.5336845276661246,[2.31598746],0.005,0.1,-0.3077215866182636,0.5098297566098889,0
3.8983752727508545,1.537201704567385,[2.31612495],0.005,0.1,-0.3356380978385519,0.5033357286016462,0
3.906339645385742,1.5405234827519083,[2.31626106],0.005,0.1,-0.0004783187977805692,0.49694296623675344,0
3.9193618297576904,1.5456038493870616,[2.31639596],0.005,0.1,-0.16415931184260396,0.48684078399716973,0
3.9291625022888184,1.549511823721795,[2.31653025],0.005,0.1,-0.17935937339953822,0.47955030522113695,0
3.9390406608581543,1.553615196773265,[2.31666419],0.005,0.1,-0.14170825084087002,0.471927544224495,0
3.9487736225128174,1.5573277723912617,[2.31679778],0.005,0.1,0.18354609840580188,0.46514961195583554,0
3.9570372104644775,1.5608449492925216,[2.31693085],0.005,0.1,0.26136944742943413,0.45906523794096393,0
3.9674744606018066,1.564948322343992,[2.31706305],0.005,0.1,-0.034441214981008966,0.4515843106865753,0
3.976907253265381,1.5688562966787254,[2.31719428],0.005,0.1,-0.11790634895682486,0.444541802128179,0
3.9873340129852295,1.5731550684469322,[2.31732464],0.005,0.1,-0.11572297113377056,0.4368997496976656,0
3.9970977306365967,1.577258441498402,[2.31745423],0.005,0.1,-0.08498693864424517,0.4297087026549144,0
4.006363868713379,1.5807756183996624,[2.31758313],0.005,0.1,-0.0498769542613816,0.423620723631604,0
4.02255654335022,1.5876145734854459,[2.31771184],0.005,0.1,-0.01943093095047404,0.41133017364390134,0
4.0303051471710205,1.5905455542364957,[2.317841],0.005,0.1,0.003961723637553732,0.4068015550188831,0
4.04031777381897,1.594453528571229,[2.3179705],0.005,0.1,0.02059104844142153,0.4003649134239791,0
4.05489444732666,1.6003154900733294,[2.31810041],0.005,0.1,-0.2444024429177786,0.39020235997460173,0
4.062791347503662,1.6036372682578528,[2.31823122],0.005,0.1,-0.2707585287296687,0.385198032057904,0
4.073398113250732,1.6077406413093227,[2.31836269],0.005,0.1,-0.21201661130624316,0.3786997247262131,0
4.083928108215332,1.6120394130775293,[2.31849442],0.005,0.1,-0.13448990181592524,0.3719190502864912,0
4.0923590660095215,1.615165792545316,[2.31862606],0.005,0.1,-0.06403068526137404,0.36735088694035584,0
4.100348949432373,1.618292172013103,[2.31875712],0.005,0.1,-0.008466084354381155,0.3624882563823049,0
4.109345436096191,1.621809348914363,[2.31888738],0.005,0.1,0.0318467691540817,0.3570798093260396,0
4.124240875244141,1.6282575065666731,[2.31901724],0.005,0.1,0.05920695660363434,0.3467577927503155,0
4.134368658065796,1.6327516770516164,[2.31914721],0.005,0.1,0.07648746648768937,0.3403718888508487,0
4.145462274551392,1.63724584753656,[2.31927735],0.005,0.1,0.08632117371972478,0.3335401858312199,0
4.155269384384155,1.6411538218712933,[2.3194075],0.005,0.1,0.09085275203918639,0.3281918059489635,0
4.165342092514038,1.6452571949227635,[2.31953734],0.005,0.1,0.09172581194357127,0.3223126807256329,0
4.175130367279053,1.6493605679742336,[2.31966659],0.005,0.1,0.09015423779311554,0.3165053063608387,0
4.187757968902588,1.6546363333261238,[2.3197954],0.005,0.1,0.08701223971216353,0.308888807386837,0
4.198513746261597,1.6587397063775937,[2.31992405],0.005,0.1,0.08291739788433344,0.3032961294180434,0
4.2094502449035645,1.6632338768625372,[2.32005262],0.005,0.1,0.3543371112214073,0.2972506314289084,0
4.220714092254639,1.6675326486307438,[2.32018116],0.005,0.1,0.38261236077414307,0.2913395545177383,0
4.2283549308776855,1.6706590280985305,[2.32030969],0.005,0.1,0.32263144724409565,0.28755351194478523,0
4.24040412902832,1.6755439960169474,[2.32043783],0.005,0.1,0.24175684540514855,0.2811819442310537,0
4.248346567153931,1.678670375484734,[2.32056528],0.005,0.1,0.1666195681352773,0.2771645393641176,0
4.259199142456055,1.6831645459696776,[2.32069198],0.005,0.1,0.10560635724028736,0.2714516025469678,0
4.268394231796265,1.686877121587674,[2.32081768],0.005,0.1,-0.21657203017751597,0.2670192991160975,0
4.277831077575684,1.6907850959224076,[2.32094198],0.005,0.1,-0.2829944867853893,0.2621026264245793,0
4.290276765823364,1.6960608612742978,[2.32106493],0.005,0.1,-0.2510473330756345,0.255341263605861,0
4.299365282058716,1.6997734368922943,[2.32118696],0.005,0.1,0.08555580362706061,0.25091237396289956,0
4.308330297470093,1.7030952150768177,[2.32130823],0.005,0.1,0.17923854155789246,0.2470125944682597,0
4.317831754684448,1.7070031894115512,[2.32142872],0.005,0.1,0.17475032837861826,0.24244357523112195,0
4.328346252441406,1.7113019611797582,[2.32154841],0.005,0.1,0.13740682550531202,0.23746853699055848,0
4.340349197387695,1.7161869290981746,[2.32166727],0.005,0.1,0.09493030299053178,0.23187329146162253,0
4.349369764328003,1.7197041059994347,[2.32178529],0.005,0.1,0.05773232379301548,0.22791039590595172,0
4.358205795288086,1.7234166816174314,[2.32190247],0.005,0.1,0.028608863705700115,0.22378986444718946,0
4.368331670761108,1.7271292572354282,[2.32201882],0.005,0.1,0.007275549824047562,0.21971755588040998,0
4.378338575363159,1.7312326302868983,[2.32213435],0.005,0.1,-0.007583313939829368,0.2152688174848239,0
4.3891613483428955,1.7357268007718416,[2.32224906],0.005,0.1,-0.017443220883351405,0.21045722111059717,0
4.39907431602478,1.7396347751065753,[2.32236296],0.005,0.1,-0.0236107627608797,0.20633430396819408,0
4.408358573913574,1.7433473507245718,[2.32247604],0.005,0.1,-0.027134200977203787,0.20250024738295772,0
4.419305086135864,1.747841521209515,[2.32258828],0.005,0.1,-0.028811174141835427,0.19786328661139987,0
4.427379369735718,1.750967900677302,[2.32269971],0.005,0.1,-0.029229226568873397,0.1947165750702236,0
4.436324596405029,1.7546804762952988,[2.3228102],0.005,0.1,-0.028811725838449133,0.19121496571739827,0
4.448151350021362,1.7595654442137154,[2.3229196],0.005,0.1,-0.027858761419987978,0.18614395598997752,0
4.4593284130096436,1.7640596146986587,[2.32302815],0.005,0.1,-0.02658013579647668,0.18177758133917488,0
4.467943906784058,1.767381392883182,[2.32313606],0.005,0.1,-0.025120624503858636,0.17862076575596902,0
4.476055860519409,1.7708985697844424,[2.3232432],0.005,0.1,-0.023578727677366018,0.17551457026902337,0
4.484622001647949,1.7742203479689658,[2.32334926],0.005,0.1,-0.022020318373761054,0.17240100626996807,0
4.494356393814087,1.778128322303699,[2.32345415],0.005,0.1,-0.020488445999855637,0.1687679092431432,0
4.505033731460571,1.7826224927886425,[2.32355798],0.005,0.1,-0.019010312916260645,0.16466178157919562,0
4.5144360065460205,1.7863350684066395,[2.32366086],0.005,0.1,-0.017602205415116798,0.16132917825615345,0
4.523289203643799,1.7896568465911629,[2.32376289],0.005,0.1,-0.016272960111651563,0.1584002159830142,0
4.5333192348480225,1.793564820925896,[2.32386415],0.005,0.1,-0.015026389522274,0.15500816266751766,0
4.544318199157715,1.797863592694103,[2.32396472],0.005,0.1,-0.013862971928483821,0.15132420763426932,0
4.555088043212891,1.802553161895783,[2.32406482],0.005,0.1,-0.01278102327889782,0.1471858088454384,0
4.563908815383911,1.806070338797043,[2.32416466],0.005,0.1,-0.011777505593536703,0.1444843908681029,0
4.572332382202148,1.809587515698303,[2.32426394],0.005,0.1,-0.01084858097165559,0.14178582253027353,0
4.581380367279053,1.8133000913163,[2.32436224],0.005,0.1,-0.009989988022739224,0.1387403348630618,0
4.590229034423828,1.8168172682175598,[2.32445952],0.005,0.1,0.2668410650021677,0.1359251791213987,0
4.599314212799072,1.8205298438355566,[2.32455575],0.005,0.1,0.3006968976380455,0.13318178478279877,0
4.609217882156372,1.8244378181702903,[2.32465093],0.005,0.1,0.24627373833614588,0.1299244071216339,0
4.6191184520721436,1.8287365899384969,[2.32474538],0.005,0.1,-0.1052285006409673,0.12663961234301288,0
4.6294121742248535,1.8328399629899665,[2.32483937],0.005,0.1,0.06773468349716011,0.12359039199823867,0
4.638312339782715,1.8363571398912268,[2.32493284],0.005,0.1,0.09986155301146843,0.12116261565595447,0
4.648996591567993,1.840460512942697,[2.32502572],0.005,0.1,0.07933668537314399,0.11799685280978581,0
4.658798933029175,1.8439776898439573,[2.32511831],0.005,0.1,-0.2312327166803339,0.11548793627551045,0
4.669346332550049,1.8482764616121639,[2.32521081],0.005,0.1,-0.29737512014644996,0.11248175571384991,0
4.678822040557861,1.852184435946897,[2.32530326],0.005,0.1,-0.26867647196701616,0.10979836726791957,0
4.689323425292969,1.8562878089983674,[2.32539568],0.005,0.1,-0.21166763064828012,0.1070215883448019,0
4.699067115783691,1.8603911820498373,[2.32548807],0.005,0.1,-0.42987293510011904,0.10427591347382818,0
4.7073235511779785,1.8633221628008876,[2.32558044],0.005,0.1,-0.690079711423069,0.10234971194714629,0
4.715365409851074,1.866643940985411,[2.3256725],0.005,0.1,-0.6300523579714061,0.10020187327181636,0
4.724324941635132,1.870161117886671,[2.3257637],0.005,0.1,-0.47075418359244386,0.09795913646500988,0
4.7343854904174805,1.8738736935046676,[2.3258539],0.005,0.1,-0.30410840780374104,0.09563509910330117,0
4.743190288543701,1.8771954716891908,[2.32594329],0.005,0.1,-0.439148460546087,0.0935844241069318,0
4.756156921386719,1.8820804396076078,[2.32603215],0.005,0.1,-0.6404039585277719,0.09046551554932084,0
4.769489526748657,1.8869654075260245,[2.32612106],0.005,0.1,-0.8170574377577242,0.08744496564253681,0
4.778470516204834,1.8904825844272846,[2.32621033],0.005,0.1,-0.9424202166427875,0.08555778645484834,0
4.787360429763794,1.8936089638950713,[2.32629979],0.005,0.1,-1.016139419428922,0.08377029999633465,0
4.796769142150879,1.8971261407963316,[2.32638928],0.005,0.1,-1.0470290691486683,0.08176695354562238,0
4.80714225769043,1.9008387164143281,[2.3264788],0.005,0.1,-1.0456942205045783,0.0796902208610714,0
4.817816495895386,1.9045512920323246,[2.32656838],0.005,0.1,-1.0216883739835758,0.07765145754254824,0
4.829329967498779,1.908459266367058,[2.32665816],0.005,0.1,-0.9826833164974347,0.07542668302050566,0
4.838358163833618,1.9117810445515817,[2.32674825],0.005,0.1,-1.2105056338836322,0.0737993457181643,0
4.84954571723938,1.9158844176030516,[2.32683858],0.005,0.1,-1.1903956983899926,0.07154208533646217,0
4.862301349639893,1.920378588087995,[2.32692937],0.005,0.1,-1.079987716832184,0.06916024275850513,0
4.871320962905884,1.923504967555782,[2.32702082],0.005,0.1,-0.9485214283356802,0.06773131792885842,0
4.8802947998046875,1.9262405495900952,[2.32711253],0.005,0.1,-1.0999090623579733,0.06649163849907212,0
4.8912763595581055,1.9297577264913552,[2.32720395],0.005,0.1,-1.0243747405400656,0.06475418345067456,0
4.90429949760437,1.9340564982595623,[2.32729507],0.005,0.1,-1.1538689328792262,0.06257304636474498,0
4.913395881652832,1.9367920802938754,[2.32738615],0.005,0.1,-1.0348936233592871,0.061302219550762246,0
4.925104379653931,1.9403092571951355,[2.32747741],0.005,0.1,-0.8460977195691819,0.059605106941257244,0
4.93436861038208,1.943044839229449,[2.32756891],0.005,0.1,-0.9365759931880956,0.058476340490428165,0
4.943361043930054,1.9459758199804988,[2.32766039],0.005,0.1,-0.8125124083481188,0.05716466403867918,0
4.954251527786255,1.949492996881759,[2.32775164],0.005,0.1,-0.6331882773037913,0.05562766491852794,0
4.963962078094482,1.952423977632809,[2.32784258],0.005,0.1,-0.7385819356312407,0.05435167830806064,0
4.97235107421875,1.9549641609503858,[2.32793302],0.005,0.1,-0.6307285841478034,0.053351425356911085,0
4.984006643295288,1.958285939134909,[2.32802284],0.005,0.1,-0.4671330892773904,0.051851920077141525,0
4.992390871047974,1.9608261224524859,[2.32811206],0.005,0.1,-0.31106617119042546,0.05089106278500195,0
5.00418496131897,1.9639525019202726,[2.32820069],0.005,0.1,-0.4593817348886189,0.0495332452755448,0
5.013307571411133,1.9664926852378493,[2.32828885],0.005,0.1,-0.3959775601216543,0.04852491439894433,0
5.0274269580841064,1.9705960582893192,[2.3283768],0.005,0.1,-0.5477330517318257,0.04685048704060808,0
5.038374900817871,1.9735270390403694,[2.32846476],0.005,0.1,-0.7333636158887774,0.04573125217752976,0
5.048290729522705,1.9762626210746828,[2.32855289],0.005,0.1,-0.6097934231466127,0.044658587688488974,0
5.056589126586914,1.978607405675523,[2.32864119],0.005,0.1,-0.402821402226171,0.043869525275449885,0
5.066024303436279,1.980952190276363,[2.32872939],0.005,0.1,-0.47952317945917583,0.04301307901468801,0
5.0753819942474365,1.9834923735939396,[2.32881725],0.005,0.1,-0.35120194419109685,0.04209159128249688,0
5.088304281234741,1.9866187530617263,[2.32890483],0.005,0.1,-0.4530682699470065,0.040917074119990515,0
5.098824739456177,1.989158936379303,[2.32899235],0.005,0.1,-0.32822520954099255,0.0400400394419923,0
5.106978893280029,1.9911129235466698,[2.32907971],0.005,0.1,-0.15016320575350262,0.039432211398380435,0
5.114430665969849,1.9928715119973,[2.32916641],0.005,0.1,0.013005475552301415,0.038883823119067046,0
5.1262047290802,1.9954116953148764,[2.32925219],0.005,0.1,-0.13581796781447267,0.037949104506650164,0
5.138512372970581,1.9981472773491897,[2.32933736],0.005,0.1,-0.07915824579362042,0.03699215403443045,0
5.151207685470581,2.00107825810024,[2.32942242],0.005,0.1,-0.24218675243111454,0.036000778368917206,0
5.1593005657196045,2.003032245267607,[2.32950752],0.005,0.1,-0.16603485172762145,0.035450202126389316,0
5.16933274269104,2.0053770298684466,[2.32959232],0.005,0.1,-0.02534330277324598,0.03470648267438808,0
5.178091526031494,2.0071356183190767,[2.32967661],0.005,0.1,-0.166335621428829,0.0341499811327894,0
5.1913230419158936,2.0098712003533903,[2.32976052],0.005,0.1,-0.09320721777442022,0.03326560574633339,0
5.202347755432129,2.01221598495423,[2.32984425],0.005,0.1,0.03609214838273871,0.032566265026801586,0
5.211355447769165,2.01397457340486,[2.32992773],0.005,0.1,0.1584785791153984,0.03208567812636071,0
5.226170063018799,2.0169055541559104,[2.33001087],0.005,0.1,-0.022554479825979815,0.031143325671275025,0
5.236334323883057,2.0188595413232773,[2.33009387],0.005,0.1,0.009416680193103592,0.03062254165523953,0
5.246091604232788,2.0208135284906437,[2.33017674],0.005,0.1,0.10378767815149609,0.030033773916756618,0
5.254453897476196,2.022376718224537,[2.33025935],0.005,0.1,0.19907548217642532,0.029649034268091127,0
5.265036344528198,2.0245261041086406,[2.3303414],0.005,0.1,0.2741649092039501,0.029042560908797276,0
5.273345232009888,2.0260892938425337,[2.33042256],0.005,0.1,0.32519348879262727,0.028641573920185626,0
5.284838438034058,2.028238679726637,[2.33050275],0.005,0.1,0.35487672351858934,0.02801274148527658,0
5.293382883071899,2.029606470743794,[2.33058199],0.005,0.1,0.09175006223995436,0.027670937507223627,0
5.305565595626831,2.0319512553446337,[2.33066033],0.005,0.1,0.05927003902255237,0.027011723337446995,0
5.315277338027954,2.033514445078527,[2.33073792],0.005,0.1,0.10651819720396989,0.02660227662484608,0
5.3234148025512695,2.034882236095684,[2.33081487],0.005,0.1,0.16918346137487225,0.026252776949521404,0
5.33130407333374,2.0362500271128408,[2.33089108],0.005,0.1,0.22287643194534862,0.02592873670607285,0
5.340343475341797,2.037422419413261,[2.33096634],0.005,0.1,-0.015234217293851021,0.025623457628019854,0
5.350364685058594,2.0391810078638906,[2.33104057],0.005,0.1,-0.025843438470090477,0.025176657866748678,0
5.3608081340789795,2.040744197597784,[2.3311138],0.005,0.1,0.3151670331536741,0.024792657080056794,0
5.371308326721191,2.0423073873316775,[2.33118601],0.005,0.1,0.4247866921740286,0.024402572822209485,0
5.381072282791138,2.043675178348834,[2.33125724],0.005,0.1,0.43397333401611904,0.024068482912499082,0
5.393366813659668,2.045433766799464,[2.33132757],0.005,0.1,0.40386740236866564,0.023639730866969508,0
5.404224634170532,2.0469969565333574,[2.33139719],0.005,0.1,0.3619829802421024,0.023246658883658084,0
5.417098045349121,2.0487555449839876,[2.33146648],0.005,0.1,0.04388176894376472,0.022817497687606592,0
5.4274742603302,2.050123336001144,[2.33153576],0.005,0.1,-0.027210239869840724,0.02250477748890019,0
5.436278343200684,2.0511003295848274,[2.33160496],0.005,0.1,-0.004931280930351056,0.022299428208864106,0
5.447383642196655,2.0522727218852475,[2.33167395],0.005,0.1,0.0432393027983132,0.022018908346102966,0
5.455810785293579,2.0534451141856676,[2.3317427],0.005,0.1,0.0900757071670553,0.021771448011233478,0
5.465600490570068,2.0546175064860877,[2.33181106],0.005,0.1,0.12650268046582416,0.02150704283440367,0
5.476670980453491,2.0559852975032444,[2.33187901],0.005,0.1,0.15113865986768665,0.021192212314646703,0
5.484338045120239,2.056962291086928,[2.33194659],0.005,0.1,0.16548343923003692,0.020991474978933163,0
5.494028091430664,2.058134683387348,[2.3320137],0.005,0.1,0.44784150250869265,0.020734221090661337,0
5.504337549209595,2.059307075687768,[2.33208027],0.005,0.1,0.48143935347669986,0.02047988137706464,0
5.514374017715454,2.0604794679881877,[2.33214633],0.005,0.1,0.6988139118337048,0.020228423185663976,0
5.522984743118286,2.061456461571871,[2.33221195],0.005,0.1,0.6496392772614508,0.02002151656483316,0
5.5312957763671875,2.0624334551555545,[2.33227706],0.005,0.1,0.5161833118075535,0.019825308734804103,0
5.542572259902954,2.0636058474559746,[2.33234167],0.005,0.1,0.37475119150435127,0.019566297817667982,0
5.552305698394775,2.064582841039658,[2.33240596],0.005,0.1,0.529164197577873,0.019365998452584996,0
5.562377452850342,2.0657552333400777,[2.3324701],0.005,0.1,0.46711253314113454,0.019124716533274945,0
5.5713210105896,2.066732226923761,[2.332534],0.005,0.1,0.34154371064537165,0.018934832725745768,0
5.581327199935913,2.067709220507444,[2.33259748],0.005,0.1,0.21528191500105678,0.01873483886076733,0
5.590302467346191,2.0684908153743913,[2.3326605],0.005,0.1,0.11020334019530605,0.018578092277204535,0
5.601294279098511,2.069663207674811,[2.33272313],0.005,0.1,0.030588251630346765,0.018343516996680582,0
5.610372066497803,2.070444802541758,[2.3327854],0.005,0.1,0.24997057312136442,0.018189886382213253,0
5.619177341461182,2.0712263974087044,[2.33284735],0.005,0.1,0.24490941301096897,0.018038159257453067,0
5.6303112506866455,2.0722033909923883,[2.33290909],0.005,0.1,0.16560015928974872,0.017846961858004183,0
5.640305519104004,2.0731803845760712,[2.33297069],0.005,0.1,0.35150293540011723,0.017658169980524413,0
5.650335073471069,2.073961979443018,[2.3330322],0.005,0.1,0.30722606275178543,0.01751010039403681,0
5.66327977180481,2.0751343717434376,[2.33309377],0.005,0.1,0.46959559593199257,0.01728253874623202,0
5.6712799072265625,2.075720567893648,[2.3331555],0.005,0.1,0.38598155365488473,0.017178559729813626,0
5.680456876754761,2.076502162760595,[2.3332173],0.005,0.1,0.5104540491480013,0.017033781984836325,0
5.689316749572754,2.077088358910805,[2.3332791],0.005,0.1,0.6721551870696507,0.01692839452692201,0
5.699018716812134,2.077869953777751,[2.33334091],0.005,0.1,0.5310165097246855,0.016785632538842403,0
5.709317445755005,2.0786515486446984,[2.33340276],0.005,0.1,0.5888459221213658,0.016643052702155357,0
5.721200227737427,2.0794331435116447,[2.33346471],0.005,0.1,0.41665096031536303,0.016500453177558647,0
5.73293399810791,2.080410137095328,[2.33352693],0.005,0.1,0.19810538123545032,0.01632243052766723,0
5.744340896606445,2.081191731962275,[2.33358944],0.005,0.1,0.003781298843701278,0.016182666433009515,0
5.753973484039307,2.0817779281124844,[2.33365223],0.005,0.1,0.1301710981325221,0.01608140877040286,0
5.765045166015625,2.0825595229794316,[2.33371533],0.005,0.1,0.058216292601346836,0.01594454728821622,0
5.774288892745972,2.0829503204129045,[2.33377876],0.005,0.1,-0.06463265814215748,0.015880731340785922,0
5.786332368850708,2.0837319152798512,[2.33384244],0.005,0.1,0.0962857285736185,0.015745481138126582,0
5.796875476837158,2.0843181114300617,[2.33390639],0.005,0.1,0.040808916053695354,0.01564620657181524,0
5.805375576019287,2.0849043075802713,[2.33397051],0.005,0.1,0.2017420964447282,0.01554736602408139,0
5.814385890960693,2.0852951050137447,[2.33403454],0.005,0.1,0.12332272544276858,0.015485580780970324,0
5.8263444900512695,2.0860766998806914,[2.33409844],0.005,0.1,0.25729000035600624,0.015353664798637909,0
5.838328838348389,2.0866628960309015,[2.33416241],0.005,0.1,0.15506615333746193,0.015255872582029177,0
5.850259780883789,2.087249092181111,[2.33422653],0.005,0.1,-0.005649497849630786,0.015161452791330667,0
5.861586809158325,2.0878352883313216,[2.33429087],0.005,0.1,0.12144261739942096,0.015064320678359461,0
5.869554281234741,2.088226085764795,[2.33435529],0.005,0.1,0.039565660456115086,0.015001805700627863,0
5.879266262054443,2.088812281915005,[2.3344195],0.005,0.1,0.18152085583931388,0.014906830576972755,0
5.888307332992554,2.0890076806317412,[2.33448337],0.005,0.1,0.36640026687876304,0.014882238697305601,0
5.900317192077637,2.0895938767819517,[2.33454687],0.005,0.1,0.24953902438080683,0.014788318719738682,0
5.908294439315796,2.0901800729321613,[2.33460999],0.005,0.1,0.330764818904526,0.01469378965556576,0
5.920053005218506,2.0907662690823714,[2.33467283],0.005,0.1,0.18033420088418634,0.014602847540382612,0
5.927914619445801,2.091157066515845,[2.33473545],0.005,0.1,0.2577663847165862,0.014539630796647192,0
5.936283826828003,2.0913524652325814,[2.33479761],0.005,0.1,0.11472671952212993,0.014514151156836694,0
5.948352575302124,2.0919386613827915,[2.33485912],0.005,0.1,0.20253429437240053,0.01442406788035093,0
5.958321571350098,2.092329458816265,[2.33492001],0.005,0.1,0.34556082976304076,0.014362195269589453,0
5.967302560806274,2.0925248575330015,[2.33498023],0.005,0.1,0.19900773908763045,0.014338826372982871,0
5.97646951675415,2.0929156549664754,[2.33503973],0.005,0.1,0.2607053628569067,0.014281055918411282,0
5.986458778381348,2.0933064523999483,[2.33509858],0.005,0.1,0.3746087038069291,0.01422231983935686,0
6.000310897827148,2.0936972498334216,[2.33515692],0.005,0.1,0.20314698678428186,0.014168413944888622,0
6.009348392486572,2.094088047266895,[2.33521496],0.005,0.1,0.24597604316601013,0.014109702891411922,0
6.021893262863159,2.0944788447003684,[2.33527293],0.005,0.1,0.07067913567474698,0.014056431400237301,0
6.0312886238098145,2.094674243417105,[2.33533098],0.005,0.1,0.13364229029029956,0.014029762681116463,0
6.0403053760528564,2.0948696421338417,[2.33538906],0.005,0.1,0.25975847804380003,0.014000489605192396,0
6.051177978515625,2.095260439567315,[2.33544706],0.005,0.1,0.1030924053793518,0.013948318452428702,0
6.059328556060791,2.095455838284052,[2.33550495],0.005,0.1,0.15993824948070273,0.013918699834321195,0
6.068309783935547,2.0956512370007885,[2.33556265],0.005,0.1,-0.0032233982710633546,0.013896427480491157,0
6.07799220085144,2.0958466357175247,[2.33562008],0.005,0.1,0.06985029513124393,0.013873286516314167,0
6.087571620941162,2.096042034434262,[2.33567727],0.005,0.1,-0.07176879658154273,0.013850881370718639,0
6.097270488739014,2.096237433150998,[2.33573415],0.005,0.1,0.02128824756169992,0.01382262720289051,0
6.1082823276519775,2.096432831867735,[2.33579067],0.005,0.1,-0.10406364958605667,0.013806530061402315,0
6.116705894470215,2.096628230584472,[2.33584687],0.005,0.1,0.0013607581022766282,0.013776785283294964,0
6.130302429199219,2.096628230584472,[2.33590279],0.005,0.1,-0.11499019028885872,0.013795217707799805,0
6.138485670089722,2.096628230584472,[2.33595856],0.005,0.1,-0.003227881181121668,0.013805167288896773,0
6.150407552719116,2.096823629301208,[2.33601431],0.005,0.1,-0.11524756699372884,0.013782529227482335,0
6.159904479980469,2.096823629301208,[2.33607007],0.005,0.1,-0.276658344062359,0.013792689761644524,0
6.167846441268921,2.096823629301208,[2.33612581],0.005,0.1,-0.419985104743648,0.013804856705725864,0
6.176327705383301,2.096823629301208,[2.33618145],0.005,0.1,-0.24917854668316203,0.01380825515132749,0
6.188227653503418,2.096823629301208,[2.33623693],0.005,0.1,-0.2827225231377938,0.01382874202738865,0
6.197342157363892,2.096823629301208,[2.33629225],0.005,0.1,-0.37230134590226943,0.013832448963279325,0
6.2063984870910645,2.096823629301208,[2.33634738],0.005,0.1,-0.18239743702374658,0.013845293713722728,0
6.216120719909668,2.096823629301208,[2.33640235],0.005,0.1,-0.2124314216774979,0.013867511870264469,0
6.226005792617798,2.096823629301208,[2.33645738],0.005,0.1,-0.028991414225616935,0.013876087384173492,0
6.2335498332977295,2.096823629301208,[2.33651249],0.005,0.1,0.18868151423912438,0.013876427433486035,0
6.241276025772095,2.096823629301208,[2.33656738],0.005,0.1,0.373755408690839,0.01387906685910669,0
6.253329515457153,2.096823629301208,[2.33662192],0.005,0.1,0.5086833093402445,0.013900661973220017,0
6.263319253921509,2.096823629301208,[2.33667627],0.005,0.1,0.5957236991498336,0.013910867741051625,0
6.271383285522461,2.096823629301208,[2.33673056],0.005,0.1,0.6436579520153842,0.0139205195761525,0
6.283353090286255,2.096823629301208,[2.33678482],0.005,0.1,0.6621686253163128,0.013929385933715972,0
6.292202472686768,2.096628230584472,[2.33683908],0.005,0.1,0.6597418545664637,0.013974330156251068,0
6.303254127502441,2.096628230584472,[2.33689338],0.005,0.1,0.6431174110199349,0.013983085034442492,0
6.314327239990234,2.096823629301208,[2.33694772],0.005,0.1,0.6173625521744782,0.013958949532284584,0
6.323360919952393,2.096628230584472,[2.33700211],0.005,0.1,0.5861527721573102,0.014001315963211301,0
6.332451343536377,2.096628230584472,[2.33705655],0.005,0.1,0.5520825324602247,0.014011680826630478,0
6.343946218490601,2.096628230584472,[2.33711104],0.005,0.1,0.5169395798991282,0.014020229613627037,0
6.35335898399353,2.096628230584472,[2.33716558],0.005,0.1,0.4819250998236407,0.014030032149834013,0
6.364439010620117,2.096628230584472,[2.33722014],0.005,0.1,0.4478216379049774,0.014038752667149504,0
6.374027490615845,2.096628230584472,[2.33727472],0.005,0.1,0.4151173219424984,0.01404915021332613,0
6.382374048233032,2.096628230584472,[2.33732933],0.005,0.1,0.3840959431474714,0.014058295434025753,0
6.391296625137329,2.096628230584472,[2.33738387],0.005,0.1,0.3549013807736492,0.014059494755347573,0
6.399410247802734,2.096628230584472,[2.33743808],0.005,0.1,0.32758320356919796,0.014063771180569503,0
6.408363342285156,2.096628230584472,[2.33749176],0.005,0.1,0.3021286776152992,0.01407696108503551,0
6.41683554649353,2.096628230584472,[2.33754491],0.005,0.1,0.27848506316393545,0.014089508106096259,0
6.4262518882751465,2.096628230584472,[2.33759767],0.005,0.1,0.2565750282041799,0.014101382721736364,0
6.4363439083099365,2.096628230584472,[2.33765011],0.005,0.1,0.23630721214462536,0.014110998250044506,0
6.448399305343628,2.096628230584472,[2.33770239],0.005,0.1,0.21758338907651564,0.014129631290711347,0
6.457828044891357,2.096432831867735,[2.33775471],0.005,0.1,0.2003032574656738,0.014170716423462841,0
6.466990232467651,2.096432831867735,[2.33780716],0.005,0.1,0.18436758042054416,0.014178770881095842,0
6.475267648696899,2.096432831867735,[2.33785964],0.005,0.1,0.16968018541910163,0.014179019505302837,0
6.485444068908691,2.096628230584472,[2.33791207],0.005,0.1,0.15614918006097148,0.014163921863798003,0
6.49359917640686,2.096432831867735,[2.33796447],0.005,0.1,0.14368763302530102,0.014197114235133503,0
6.504363775253296,2.096432831867735,[2.33801675],0.005,0.1,0.13221389390993643,0.014207670814060882,0
6.515783786773682,2.096432831867735,[2.33806891],0.005,0.1,0.12165167264991002,0.014225405924331004,0
6.527019739151001,2.096432831867735,[2.33812111],0.005,0.1,0.11192996210690886,0.01423282326976989,0
6.535352945327759,2.096432831867735,[2.33817332],0.005,0.1,0.10298286147267718,0.014232193741641237,0
6.544353008270264,2.096432831867735,[2.33822533],0.005,0.1,0.09474934001190109,0.014242860248697642,0
6.553340911865234,2.096237433150998,[2.33827707],0.005,0.1,0.08717296804238228,0.014286437477178972,0
6.562260866165161,2.096432831867735,[2.33832852],0.005,0.1,0.08020163326674828,0.0142620470236523,0
6.5753960609436035,2.096237433150998,[2.33837977],0.005,0.1,0.07378725447571478,0.014312847064237105,0
6.584426641464233,2.096237433150998,[2.33843088],0.005,0.1,0.06788550042831042,0.014312448790501735,0
6.595082998275757,2.096237433150998,[2.33848174],0.005,0.1,0.06245551881222163,0.014321293526201194,0
6.605317831039429,2.096237433150998,[2.33853223],0.005,0.1,0.05745967820032678,0.014330135508873904,0
6.615339994430542,2.096237433150998,[2.33858233],0.005,0.1,0.05286332456963848,0.014338037196016467,0
6.623309850692749,2.096237433150998,[2.33863199],0.005,0.1,0.04863455304189383,0.014346365859961132,0
6.632266283035278,2.096237433150998,[2.33868111],0.005,0.1,0.044743994905065726,0.014349339405022386,0
6.644178152084351,2.096237433150998,[2.33872961],0.005,0.1,0.04116461958724929,0.014364686348648502,0
6.657517433166504,2.096042034434262,[2.33877761],0.005,0.1,0.03787155101249276,0.014411444522887567,0
6.666280508041382,2.096042034434262,[2.33882526],0.005,0.1,0.03484189762605534,0.014417254162653676,0
6.676254749298096,2.096042034434262,[2.33887255],0.005,0.1,0.03205459530216716,0.014424083715707197,0
6.68628454208374,2.096042034434262,[2.33891942],0.005,0.1,0.02949026231833257,0.014430685689253663,0
6.696281671524048,2.096042034434262,[2.33896575],0.005,0.1,0.02713106558110381,0.014433390431748605,0
6.705280542373657,2.096042034434262,[2.33901136],0.005,0.1,0.024960597308382307,0.014441541697327902,0
6.714306354522705,2.096042034434262,[2.33905616],0.005,0.1,0.022963761405348684,0.014449593469742063,0
6.724304676055908,2.096042034434262,[2.33910013],0.005,0.1,0.021126668810066744,0.014456575100107304,0
6.735284328460693,2.096042034434262,[2.33914324],0.005,0.1,0.019436541127263632,0.014464024440433907,0
6.745301961898804,2.0958466357175247,[2.33918546],0.005,0.1,0.017881621912484092,0.014506239067917884,0
6.753302812576294,2.0958466357175247,[2.33922682],0.005,0.1,0.01645109501226648,0.014514034269235039,0
6.761264085769653,2.0958466357175247,[2.33926727],0.005,0.1,0.015135009408231965,0.014518311665919024,0
6.770305156707764,2.0958466357175247,[2.33930674],0.005,0.1,0.013924210053436182,0.014525665799492677,0
6.780192136764526,2.0958466357175247,[2.33934522],0.005,0.1,0.01281027422766522,0.01453288020556906,0
6.790316581726074,2.0958466357175247,[2.33938277],0.005,0.1,0.011785452974404725,0.014540713640500205,0
6.799896478652954,2.0958466357175247,[2.33941946],0.005,0.1,0.010842617215919267,0.014546931487102814,0
6.8102922439575195,2.0958466357175247,[2.33945533],0.005,0.1,0.009975208174272568,0.014553065575070608,0
6.822571516036987,2.0956512370007885,[2.33949046],0.005,0.1,0.009177191755269558,0.014596761695558598,0
6.83467960357666,2.0956512370007885,[2.33952496],0.005,0.1,0.008443016579305148,0.014602131420230442,0
6.843201160430908,2.0956512370007885,[2.33955889],0.005,0.1,0.007767575368080745,0.014607654032858249,0
6.8543713092803955,2.0956512370007885,[2.33959226],0.005,0.1,0.007146169419218299,0.014612763226403182,0
6.864396810531616,2.0956512370007885,[2.33962511],0.005,0.1,0.006574475922089655,0.014620966535672554,0
6.873250961303711,2.095455838284052,[2.33965749],0.005,0.1,0.00604851788780864,0.014658048059481548,0
6.884291887283325,2.095455838284052,[2.33968934],0.005,0.1,0.005564636484424257,0.014663631550688018,0
6.89354681968689,2.095455838284052,[2.33972062],0.005,0.1,0.005119465585018541,0.014668637117791629,0
6.905634880065918,2.095455838284052,[2.33975135],0.005,0.1,0.004709908351760807,0.01467668671877039,0
6.914250612258911,2.095455838284052,[2.33978158],0.005,0.1,0.00433311569310057,0.014679270739048341,0
6.922251224517822,2.095455838284052,[2.33981127],0.005,0.1,0.00398646644428897,0.01468404989327773,0
6.933135509490967,2.095455838284052,[2.33984037],0.005,0.1,0.0036675491333913574,0.014689434035340404,0
6.94533109664917,2.095260439567315,[2.33986893],0.005,0.1,0.0033741452059719065,0.014731631451222896,0
6.954317092895508,2.095260439567315,[2.339897],0.005,0.1,0.0031042135917704492,0.014734455446482213,0
6.9662792682647705,2.095260439567315,[2.33992455],0.005,0.1,0.002855876506022226,0.014739531844675557,0
6.976130247116089,2.095260439567315,[2.33995156],0.005,0.1,0.0026274063866558333,0.014744575981205436,0
6.987875699996948,2.095260439567315,[2.33997808],0.005,0.1,0.002417213876504136,0.014750458893006298,0
6.9963202476501465,2.095260439567315,[2.34000415],0.005,0.1,0.0022238367669303425,0.01475333924663129,0
7.0063159465789795,2.095260439567315,[2.34002975],0.005,0.1,0.0020459298259584945,0.014758575576270876,0
7.01728892326355,2.095260439567315,[2.34005493],0.005,0.1,0.0018822554401496197,0.01476461539565824,0
7.028253793716431,2.0950650408505784,[2.34007978],0.005,0.1,0.0017316750051251128,0.014803947068839399,0
7.037255048751831,2.095260439567315,[2.34010431],0.005,0.1,0.0015931410048463312,0.014771268833406117,0
7.049278259277344,2.0950650408505784,[2.34012849],0.005,0.1,0.0014656897245504796,0.014812553908486153,0
7.058252811431885,2.0950650408505784,[2.34015237],0.005,0.1,0.0013484345466507417,0.014816727779173873,0
7.0672760009765625,2.0950650408505784,[2.34017603],0.005,0.1,0.0012405597829636896,0.014822266127484487,0
7.078025817871094,2.0950650408505784,[2.34019949],0.005,0.1,0.0011413150003581041,0.014824433106223611,0
7.08530855178833,2.0950650408505784,[2.34022269],0.005,0.1,0.0010500098003515096,0.014827326421206963,0
7.095340967178345,2.0948696421338417,[2.34024554],0.005,0.1,0.0009660090163388273,0.014867160699789916,0
7.10526180267334,2.0948696421338417,[2.34026805],0.005,0.1,0.0008887282950425276,0.01487195959949605,0
7.116814851760864,2.0948696421338417,[2.3402903],0.005,0.1,0.0008176300314466914,0.014878482866281578,0
7.127387523651123,2.0948696421338417,[2.34031241],0.005,0.1,0.0007522196289362513,0.014882110335742913,0
7.13628888130188,2.0948696421338417,[2.34033442],0.005,0.1,0.0006920420586250572,0.014884045148728453,0
7.145263910293579,2.0948696421338417,[2.34035625],0.005,0.1,0.0006366786939376477,0.014888011605559968,0
7.153296232223511,2.0948696421338417,[2.34037786],0.005,0.1,0.0005857443984244517,0.014891960035719881,0
7.164273023605347,2.0948696421338417,[2.34039926],0.005,0.1,0.0005388848465517674,0.01489580767469785,0
7.175747394561768,2.094674243417105,[2.34042046],0.005,0.1,0.0004957740588285155,0.014935076316956914,0
7.186288356781006,2.094674243417105,[2.34044147],0.005,0.1,0.00045611213412285773,0.014939352256787188,0
7.195724964141846,2.094674243417105,[2.34046229],0.005,0.1,0.0004196231633934645,0.014943127847733027,0
7.205266952514648,2.094674243417105,[2.34048295],0.005,0.1,0.00038605331032229317,0.014946817413064103,0
7.217302083969116,2.094674243417105,[2.34050346],0.005,0.1,0.0003551690454967236,0.014951663646861325,0
7.2276551723480225,2.094674243417105,[2.34052388],0.005,0.1,0.0003267555218571356,0.014954775696315042,0
7.237377882003784,2.094674243417105,[2.34054421],0.005,0.1,0.0003006150801086694,0.014958005208950858,0
7.247824668884277,2.094674243417105,[2.34056443],0.005,0.1,0.00027656587370004904,0.01496181037757022,0
7.25896143913269,2.0944788447003684,[2.34058453],0.005,0.1,0.00025444060380409606,0.015000431888798304,0
7.268348932266235,2.0944788447003684,[2.34060449],0.005,0.1,0.00023408535549980454,0.015004315276668817,0
7.278332233428955,2.0944788447003684,[2.34062429],0.005,0.1,0.00021535852705984512,0.01500803974999278,0
7.287295341491699,2.0944788447003684,[2.34064392],0.005,0.1,0.00019812984489507517,0.015011240351698782,0
7.29624080657959,2.0942834459836317,[2.34066333],0.005,0.1,0.00018227945730348155,0.015049215151303403,0
7.3081889152526855,2.0944788447003684,[2.34068248],0.005,0.1,0.00016769710071921155,0.015018912640063347,0
7.318807601928711,2.0942834459836317,[2.34070141],0.005,0.1,0.00015428133266168084,0.015057383115425947,0
7.3262574672698975,2.0942834459836317,[2.34072014],0.005,0.1,0.00014193882604875054,0.015060768941946247,0
7.336272239685059,2.0942834459836317,[2.34073862],0.005,0.1,0.0001305837199648535,0.015063568670730552,0
7.345299243927002,2.0942834459836317,[2.34075683],0.005,0.1,0.00012013702236766735,0.015066979301784751,0
7.353317499160767,2.094088047266895,[2.34077474],0.005,0.1,0.00011052606057825542,0.015106177324269358,0
7.362301588058472,2.094088047266895,[2.34079238],0.005,0.1,0.00010168397573199591,0.015109583745321701,0
7.370305061340332,2.094088047266895,[2.34080972],0.005,0.1,9.354925767343707e-05,0.015111932715772802,0
7.380252361297607,2.094088047266895,[2.34082672],0.005,0.1,8.606531705956279e-05,0.015115399647224501,0
7.3913867473602295,2.094088047266895,[2.34084337],0.005,0.1,7.918009169479803e-05,0.01511865631349747,0
7.400238752365112,2.0938926485501583,[2.34085971],0.005,0.1,-0.27596551399432173,0.015158149615655474,0
7.410260438919067,2.0938926485501583,[2.34087579],0.005,0.1,-0.3090959448105123,0.015161776384142671,0
7.419240474700928,2.0938926485501583,[2.34089164],0.005,0.1,-0.25400404966101636,0.015165482852064444,0
7.429283857345581,2.0938926485501583,[2.34090728],0.005,0.1,-0.17792397703304144,0.015167394156348154,0
7.437244892120361,2.0938926485501583,[2.34092268],0.005,0.1,-0.10740583733191501,0.015169358668790801,0
7.446239948272705,2.0938926485501583,[2.34093777],0.005,0.1,-0.05078821652846496,0.015172618722833885,0
7.456159591674805,2.0938926485501583,[2.34095257],0.005,0.1,-0.00879445216438065,0.015175373596660033,0
7.468386173248291,2.0938926485501583,[2.34096711],0.005,0.1,0.2966555083017056,0.015178573217135942,0
7.479351043701172,2.0936972498334216,[2.34098147],0.005,0.1,0.34930464564577846,0.01521634090315974,0
7.490267992019653,2.0936972498334216,[2.34099567],0.005,0.1,0.30635692610144005,0.01521900368789599,0
7.499240159988403,2.0936972498334216,[2.34100969],0.005,0.1,0.23711080223924014,0.015221457782414734,0
7.5082783699035645,2.0936972498334216,[2.34102354],0.005,0.1,0.1697080260936358,0.015223980567679535,0
7.519254922866821,2.0936972498334216,[2.34103721],0.005,0.1,0.11366883906731648,0.015226103981664695,0
7.527252197265625,2.0936972498334216,[2.34105069],0.005,0.1,0.0705721472035999,0.015228678171467001,0
7.5380988121032715,2.093501851116685,[2.34106398],0.005,0.1,0.03898444446990422,0.015266957861942506,0
7.5488786697387695,2.093501851116685,[2.34107708],0.005,0.1,0.016636486421838716,0.01526972920584113,0
7.559274673461914,2.093501851116685,[2.34108996],0.005,0.1,0.0013102003546165055,0.015271529849960396,0
7.567278861999512,2.093501851116685,[2.34110261],0.005,0.1,-0.008858835386257442,0.015274159633669557,0
7.577153921127319,2.093501851116685,[2.34111503],0.005,0.1,-0.01532881370664599,0.015276890997405063,0
7.585254907608032,2.093501851116685,[2.34112725],0.005,0.1,-0.019194453892284788,0.015278561067993288,0
7.59524130821228,2.0933064523999483,[2.34113926],0.005,0.1,-0.29729505179523624,0.015317192333253885,0
7.608348369598389,2.0933064523999483,[2.34115106],0.005,0.1,-0.3312542921813779,0.015320368202469202,0
7.621551275253296,2.0933064523999483,[2.3411627],0.005,0.1,-0.2761727082675631,0.015322974098153107,0
7.629294395446777,2.0933064523999483,[2.34117419],0.005,0.1,-0.19957140737357662,0.015324260783695342,0
7.640338659286499,2.0931110536832116,[2.34118551],0.005,0.1,-0.12820014789334946,0.015362771536062953,0
7.651661157608032,2.0933064523999483,[2.34119667],0.005,0.1,-0.0705350992748755,0.015329324536529356,0
7.661297559738159,2.0931110536832116,[2.34120769],0.005,0.1,-0.027393388600097962,0.015366762257269285,0
7.67029070854187,2.0931110536832116,[2.34121855],0.005,0.1,0.0032036028918031242,0.015369101414548003,0
7.680288076400757,2.0929156549664754,[2.34122926],0.005,0.1,0.023909323188654786,0.015407111379278875,0
7.6902594566345215,2.0929156549664754,[2.3412398],0.005,0.1,0.037209055426035254,0.015409097584990497,0
7.699304819107056,2.0927202562497382,[2.3412504],0.005,0.1,0.04515060171805127,0.015460126537004962,0
7.712342262268066,2.0925248575330015,[2.34126374],0.005,0.1,-0.2267222485591207,0.016038328639768916,0
7.723272800445557,2.092329458816265,[2.34128261],0.005,0.1,-0.5343188259961995,0.015548817632340782,0
7.7336742877960205,2.092134060099528,[2.34130537],0.005,0.1,-0.5125249082750873,0.015575719661637925,0
7.742077350616455,2.0917432626660553,[2.34132931],0.005,0.1,-0.6586961562594296,0.015644190382735148,0
7.7538886070251465,2.091547863949318,[2.34135251],0.005,0.1,-0.8232752966087895,0.015720545595411344,0
7.766650915145874,2.091157066515845,[2.34137175],0.005,0.1,-0.952632438074002,0.016015203187600083,0
7.775269508361816,2.090961667799108,[2.3413829],0.005,0.1,-1.0346386497632394,0.016247401134413114,0
7.787028551101685,2.0907662690823714,[2.34138202],0.005,0.1,-0.797362658367818,0.016554363088584666,0
7.797969818115234,2.090375471648898,[2.34136548],0.005,0.1,-0.7688302437225343,0.016982921158244985,0
7.8082594871521,2.089984674215425,[2.34132955],0.005,0.1,-0.527670096970048,0.017471124334557914,0
7.8190553188323975,2.089398478065215,[2.34126952],0.005,0.1,-0.25753220719837283,0.019021271734833915,0
7.829134702682495,2.089203079348478,[2.3411799],0.005,0.1,-0.026299296744759726,0.019416775612528168,0
7.838522911071777,2.0890076806317412,[2.34105668],0.005,0.1,0.14878754894319116,0.01988423215331504,0
7.850270509719849,2.0886168831982683,[2.34089732],0.005,0.1,-0.0052949491701120704,0.020366541722295135,0
7.861268758773804,2.088226085764795,[2.34069964],0.005,0.1,0.04000759772283328,0.02088252126244453,0
7.870272636413574,2.0880306870480583,[2.34046188],0.005,0.1,0.14042455402545514,0.02132812363188027,0
7.879986763000488,2.0878352883313216,[2.34018275],0.005,0.1,0.2378240338121883,0.021723022886802897,0
7.888868093490601,2.0874444908978482,[2.33986143],0.005,0.1,0.31289209659558026,0.022111765350180494,0
7.897338390350342,2.087249092181111,[2.33949899],0.005,0.1,0.3627518060159017,0.020518154123491558,0
7.908338785171509,2.087053693464375,[2.33909673],0.005,0.1,0.39066805919126557,0.02320266563513263,0
7.9172937870025635,2.0866628960309015,[2.33865483],0.005,0.1,0.40152641464213945,0.021202616988780874,0
7.930342435836792,2.086272098597428,[2.33817395],0.005,0.1,0.4000107225143542,0.023781702096065723,0
7.941270351409912,2.0860766998806914,[2.33765382],0.005,0.1,0.3899984399003483,0.023448352789905237,0
7.950289964675903,2.085685902447218,[2.33709488],0.005,0.1,0.37447260756764156,0.0231381721300425,0
7.960686206817627,2.0852951050137447,[2.33649833],0.005,0.1,0.35562764907790856,0.024838750357023383,0
7.971278429031372,2.085099706297008,[2.33586598],0.005,0.1,0.33502694228972985,0.021803174207593753,0
7.980238676071167,2.0849043075802713,[2.33520266],0.005,0.1,0.31375469553172997,0.021531219524975113,0
7.9912450313568115,2.084513510146798,[2.33451324],0.005,0.1,0.29254288344108487,0.021153127673750143,0
8.004013776779175,2.084122712713325,[2.3338172],0.005,0.1,0.2718702610092587,0.021439715952286862,0
8.016491413116455,2.0837319152798512,[2.33313975],0.005,0.1,0.2520366127775085,0.017013708101805743,0
8.025265455245972,2.0835365165631146,[2.33248221],0.005,0.1,0.23321706804888542,0.01569056415392084,0
8.03528881072998,2.0831457191296416,[2.33184303],0.005,0.1,0.21550117333011715,0.015525711512021109,0
8.045296430587769,2.0827549216961683,[2.33122907],0.005,0.1,-0.0771176998475549,0.015462186022750237,0
8.053335428237915,2.0825595229794316,[2.33064406],0.005,0.1,-0.12569397410837652,0.015379608708688035,0
8.062264919281006,2.082364124262695,[2.3300905],0.005,0.1,0.19108764795956037,0.01530704508738171,0
8.073100805282593,2.082168725545958,[2.32957015],0.005,0.1,0.28699459299825597,0.015243468731218832,0
8.08310842514038,2.0817779281124844,[2.32908408],0.005,0.1,0.2901136373602017,0.01522256481649055,0
8.09420394897461,2.0813871306790115,[2.32863281],0.005,0.1,0.25928099562714213,0.015209888051244312,0
8.104254245758057,2.081191731962275,[2.32821632],0.005,0.1,0.22026274095324735,0.015168086755729136,0
8.112815141677856,2.080996333245538,[2.32783419],0.005,0.1,0.18337903440900355,0.015132565430084231,0
8.123282194137573,2.0806055358120648,[2.32748566],0.005,0.1,0.1519900081930072,0.015139482788186071,0
8.134251832962036,2.0802147383785914,[2.3271697],0.005,0.1,0.12651030392542972,0.015152613045044522,0
8.14618968963623,2.0800193396618547,[2.32688508],0.005,0.1,0.10625642148897639,0.015136540222356642,0
8.156980752944946,2.0796285422283813,[2.32663024],0.005,0.1,0.09025841428720666,0.01516128523058778,0
8.166293859481812,2.0794331435116447,[2.32640349],0.005,0.1,0.07758731930789123,0.015155690394166813,0
8.175618886947632,2.0790423460781713,[2.3262032],0.005,0.1,0.0674639502785826,0.015190705610083807,0
8.184847593307495,2.0786515486446984,[2.32602767],0.005,0.1,0.059274821717403045,0.015230838493864623,0
8.194265842437744,2.0784561499279612,[2.32587513],0.005,0.1,0.05255315515297444,0.015239361048121318,0
8.202264547348022,2.0782607512112246,[2.3257438],0.005,0.1,0.04695049013690495,0.015251435481016044,0
8.212970495223999,2.078065352494488,[2.32563191],0.005,0.1,0.042209244090821635,0.01526735257022956,0
8.221891641616821,2.077674555061015,[2.32553774],0.005,0.1,0.03813970077273714,0.01532262383418647,0
8.22925329208374,2.077479156344278,[2.32545964],0.005,0.1,0.03460198255422687,0.015345179791242345,0
8.242271900177002,2.077088358910805,[2.325396],0.005,0.1,0.03149245468865344,0.015406201409391902,0
8.252262353897095,2.076697561477331,[2.32534531],0.005,0.1,0.02873370495491745,0.015470997601513974,0
8.263435363769531,2.076502162760595,[2.32530613],0.005,0.1,0.026267263769580197,0.015500086591154986,0
8.27326488494873,2.076111365327121,[2.3252771],0.005,0.1,0.02404836259681395,0.015568453773388948,0
8.281227350234985,2.075915966610385,[2.32525691],0.005,0.1,0.022042180179753332,0.01560206461846117,0
8.290259838104248,2.0755251691769114,[2.32524439],0.005,0.1,0.020221161699115264,0.015673215299525124,0
8.299906253814697,2.0753297704601747,[2.32523843],0.005,0.1,0.01856310557693792,0.01570952821612878,0
8.309225082397461,2.0749389730267014,[2.32523801],0.005,0.1,0.017049796730476637,0.01578345201267895,0
8.321242570877075,2.074548175593228,[2.32524038],0.005,0.1,-0.2603723320518238,0.016062939657332593,0
8.329231023788452,2.0743527768764913,[2.32524159],0.005,0.1,-0.29476406872152655,0.01594398694493379,0
8.338244676589966,2.0741573781597546,[2.32524015],0.005,0.1,-0.24082842033906787,0.015969937943400517,0
8.350246667861938,2.0737665807262813,[2.3252352],0.005,0.1,-0.16580918611841658,0.01616175209114011,0
8.360130310058594,2.073375783292808,[2.3252241],0.005,0.1,-0.09626498152636145,0.016381929404522322,0
8.370264053344727,2.0731803845760712,[2.32520366],0.005,0.1,-0.04054195556889372,0.016622536727857885,0
8.379924535751343,2.072789587142598,[2.32517067],0.005,0.1,0.0006297794031408545,0.016979063877341626,0
8.390260934829712,2.0723987897091245,[2.32512177],0.005,0.1,0.3053241713590329,0.01742358969817056,0
8.400226354598999,2.0722033909923883,[2.32505344],0.005,0.1,0.35727867465711227,0.017915696936306246,0
8.412249565124512,2.0718125935589145,[2.32496104],0.005,0.1,0.3136922340848569,0.01956358123015682,0
8.423107624053955,2.071421796125441,[2.32483897],0.005,0.1,0.2438587264860631,0.02009642288961641,0
8.4343740940094,2.0712263974087044,[2.32468307],0.005,0.1,0.1759157250306618,0.02059850563767649,0
8.444069147109985,2.070835599975231,[2.32449068],0.005,0.1,0.11937964812958615,0.021169947082184955,0
8.454267501831055,2.070444802541758,[2.32425957],0.005,0.1,0.07582589976866208,0.021696248802004152,0
8.464259147644043,2.0700540051082847,[2.32398805],0.005,0.1,0.043817762589010135,0.02211526465230565,0
8.473940134048462,2.0698586063915476,[2.32367507],0.005,0.1,0.02108304512279754,0.022392670430685196,0
8.484254121780396,2.069663207674811,[2.32332163],0.005,0.1,0.005400968581422767,0.02074179394867728,0
8.493524551391602,2.069272410241338,[2.32293053],0.005,0.1,-0.005095374662275742,0.02123658036636998,0
8.50324821472168,2.068686214091128,[2.3225036],0.005,0.1,-0.28790482175055654,0.021497392259460325,0
8.516599655151367,2.0684908153743913,[2.32204075],0.005,0.1,-0.32517207579032315,0.023050632670137815,0
8.526320695877075,2.068100017940918,[2.3215418],0.005,0.1,-0.27239190049143613,0.02221384149331713,0
8.53422999382019,2.0679046192241812,[2.32102275],0.005,0.1,-0.19737598344639093,0.01969749104593923,0
8.545095443725586,2.067513821790708,[2.32050726],0.005,0.1,-0.12708466999628037,0.017193308497909995,0
8.553964138031006,2.067318423073971,[2.31999793],0.005,0.1,-0.07014501241930857,0.01668544846271622,0
8.562030553817749,2.0671230243572345,[2.31949365],0.005,0.1,0.2485569768546041,0.016191504932658012,0
8.5732102394104,2.066732226923761,[2.31900225],0.005,0.1,0.3119720155719494,0.01616121962717372,0
8.581969976425171,2.0663414294902878,[2.31852893],0.005,0.1,0.2773921346669181,0.01614610608035445,0
8.591253995895386,2.066146030773551,[2.31807649],0.005,0.1,0.21449936139943904,0.016094265277514747,0
8.60243272781372,2.0657552333400777,[2.31764696],0.005,0.1,0.15186547137527662,0.01609046006805452,0
8.610281944274902,2.065559834623341,[2.31724168],0.005,0.1,0.0993929952035493,0.016046647777963472,0
8.620921611785889,2.0651690371898677,[2.31685936],0.005,0.1,0.05896954882249377,0.016552495531288014,0
8.630265712738037,2.064973638473131,[2.31648986],0.005,0.1,0.029398710260567056,0.021897405546562967,0
8.642839670181274,2.064387442322921,[2.31612224],0.005,0.1,0.008588086220035545,0.01728197695212408,0
8.65127444267273,2.0641920436061842,[2.31575769],0.005,0.1,-0.005550787211545728,0.01688002013450061,0
8.665268182754517,2.063801246172711,[2.31539751],0.005,0.1,-0.014788361548505647,0.018878783850093894,0
8.673744678497314,2.063410448739238,[2.31503577],0.005,0.1,-0.02051511811438947,0.019056813836503816,0
8.681231498718262,2.063215050022501,[2.31466875],0.005,0.1,-0.02377712619310223,0.018248434209124337,0
8.692257404327393,2.062824252589028,[2.3142957],0.005,0.1,-0.02534037820966868,0.018836800446900476,0
8.701236009597778,2.0626288538722912,[2.31391438],0.005,0.1,-0.025755528352561,0.01947226133599281,0
8.711719512939453,2.0622380564388174,[2.31351973],0.005,0.1,-0.02541304482475475,0.022128198165938424,0
8.721821784973145,2.062042657722081,[2.31310529],0.005,0.1,-0.02458671858736533,0.02263906792553016,0
8.730250358581543,2.061651860288608,[2.31266783],0.005,0.1,-0.02346655635954614,0.02099090931024332,0
8.743236064910889,2.0612610628551344,[2.31220546],0.005,0.1,-0.022183011089781754,0.024921376862016165,0
8.752240657806396,2.0610656641383978,[2.31171473],0.005,0.1,-0.02082453394868615,0.02257757375527211,0
8.762242555618286,2.0604794679881877,[2.31119433],0.005,0.1,-0.01945014499444874,0.023913981087084927,0
8.772547721862793,2.0600886705547143,[2.31064107],0.005,0.1,-0.2941367242764326,0.028663851907923053,0
8.783239603042603,2.0598932718379777,[2.3100487],0.005,0.1,-0.3259564848969021,0.02860064924350396,0
8.791250467300415,2.059697873121241,[2.30941595],0.005,0.1,-0.2696158975717092,0.024842335105782546,0
8.802236557006836,2.059307075687768,[2.30874605],0.005,0.1,-0.19235699902894168,0.025677581561610485,0
8.810226678848267,2.0591116769710314,[2.30804045],0.005,0.1,-0.12073331100889803,0.026146477626155018,0
8.822216987609863,2.0587208795375576,[2.30729741],0.005,0.1,-0.0630838617688694,0.02991486886068724,0
8.831536293029785,2.058330082104084,[2.30651465],0.005,0.1,-0.020130506430381747,0.0285080993884375,0
8.840986490249634,2.058134683387348,[2.30569308],0.005,0.1,0.010171135234655846,0.027159171023076398,0
8.85123324394226,2.057743885953874,[2.30483643],0.005,0.1,0.030519559557672164,0.02590531756788091,0
8.861231088638306,2.0573530885204008,[2.30395213],0.005,0.1,0.04343061256049501,0.019888482473641035,0
8.869239330291748,2.057157689803664,[2.30306537],0.005,0.1,0.050972564576952775,0.018957040406014668,0
8.878682374954224,2.0567668923701907,[2.30220791],0.005,0.1,0.054741024417748745,0.014939589048164685,0
8.8892343044281,2.056376094936718,[2.30138596],0.005,0.1,0.05592152011521849,0.015616606077525259,0
8.899238348007202,2.0559852975032444,[2.30059431],0.005,0.1,-0.2206650207440482,0.014798392023519492,0
8.909252166748047,2.0557898987865078,[2.29983702],0.005,0.1,-0.25545476468371264,0.01467415891810671,0
8.917242527008057,2.0555945000697706,[2.29911886],0.005,0.1,-0.2027104314905201,0.014582514821667537,0
8.927838802337646,2.0552037026362977,[2.29844175],0.005,0.1,-0.12936902358937544,0.014528019665531062,0
8.938503503799438,2.0548129052028243,[2.29780677],0.005,0.1,-0.06177779685040746,0.014480522179530383,0
8.946237802505493,2.0546175064860877,[2.29721438],0.005,0.1,0.26789923171481433,0.014406902026714451,0
8.956274032592773,2.0542267090526143,[2.2966646],0.005,0.1,0.3400761025814435,0.014359647615695971,0
8.966296672821045,2.0540313103358776,[2.29615712],0.005,0.1,0.31154340397348457,0.014304429115520352,0
8.974896907806396,2.0536405129024042,[2.29569104],0.005,0.1,0.25226491588254346,0.014289733020715378,0
8.982398271560669,2.0534451141856676,[2.29526507],0.005,0.1,0.19132201732476997,0.014239056572562029,0
8.993104457855225,2.053054316752194,[2.29487775],0.005,0.1,0.1391264651147518,0.014240137303748953,0
9.003231525421143,2.0528589180354575,[2.29452728],0.005,0.1,0.09799519576723933,0.01421187880506534,0
9.013254404067993,2.052468120601984,[2.29421161],0.005,0.1,0.06706562432827609,0.014223658565823083,0
9.02270793914795,2.0522727218852475,[2.29392853],0.005,0.1,0.044492830697328366,0.014212843563802775,0
9.031262874603271,2.0520773231685108,[2.29367579],0.005,0.1,0.028365836342077927,0.014193060634243884,0
9.04122519493103,2.0516865257350374,[2.29345134],0.005,0.1,0.017038128244986753,0.014220484233542635,0
9.05326509475708,2.0514911270183007,[2.29325304],0.005,0.1,0.00920359732253659,0.01422329243421144,0
9.066258907318115,2.0511003295848274,[2.29307854],0.005,0.1,0.0038719871577107177,0.014261556048238349,0
9.078442811965942,2.0507095321513544,[2.29292559],0.005,0.1,0.00031285956226778547,0.01430108475081953,0
9.088274002075195,2.0503187347178806,[2.2927922],0.005,0.1,-0.002003048717446887,0.014343770016422366,0
9.099217176437378,2.050123336001144,[2.29267653],0.005,0.1,0.2725837784589441,0.014357085830792767,0
9.11320686340332,2.049732538567671,[2.29257681],0.005,0.1,0.30485242426849163,0.014409173274145674,0
9.12422490119934,2.0493417411341976,[2.29249129],0.005,0.1,0.24930534388287898,0.014462253255494,0
9.134448289871216,2.0489509437007243,[2.29241845],0.005,0.1,0.17304388080909822,0.014517219021788458,0
9.143274068832397,2.0487555449839876,[2.29235699],0.005,0.1,0.10252553792403996,0.014541401418162687,0
9.15323281288147,2.048560146267251,[2.29230561],0.005,0.1,0.04602465843281636,0.014567178977057178,0
9.162260055541992,2.048169348833777,[2.29226305],0.005,0.1,0.004220273356552697,0.014629496715649537,0
9.173755407333374,2.047778551400304,[2.29222813],0.005,0.1,-0.02495965063388847,0.014693774298114535,0
9.184325933456421,2.0475831526835675,[2.29219982],0.005,0.1,-0.04423079678890129,0.014724392895616872,0
9.19395923614502,2.047192355250094,[2.29217714],0.005,0.1,-0.05611902914998515,0.014791040395843882,0
9.202768802642822,2.0469969565333574,[2.29215927],0.005,0.1,-0.06269777077102097,0.014823812559555019,0
9.211829662322998,2.0468015578166208,[2.29214544],0.005,0.1,-0.0655645222165086,0.014857051909607075,0
9.224375247955322,2.0462153616664107,[2.29213495],0.005,0.1,-0.06590455578423324,0.014961523590901115,0
9.234257221221924,2.046019962949674,[2.29212713],0.005,0.1,-0.0645755251480358,0.01499690522023895,0
9.243360042572021,2.0458245642329373,[2.29212147],0.005,0.1,-0.06218666535728326,0.015032291112947474,0
9.251309633255005,2.0456291655162007,[2.29211755],0.005,0.1,-0.059164183954713054,0.015068246869186262,0
9.261207580566406,2.0452383680827277,[2.29211503],0.005,0.1,-0.05580197765217246,0.015139908239814237,0
9.271296501159668,2.044847570649254,[2.2921136],0.005,0.1,-0.05229957539749742,0.015212347521533364,0
9.28005838394165,2.0446521719325172,[2.29211299],0.005,0.1,-0.04878989156985421,0.015249138956326597,0
9.290217161178589,2.044261374499044,[2.29211296],0.005,0.1,-0.045359224304125485,0.015321910339541287,0
9.29821515083313,2.0440659757823076,[2.29211335],0.005,0.1,-0.04206151646017421,0.01535949307848092,0
9.30918025970459,2.043675178348834,[2.29211401],0.005,0.1,-0.03892844784286628,0.015432418007062793,0
9.322248458862305,2.043284380915361,[2.2921148],0.005,0.1,-0.035976534719709075,0.015505287476783577,0
9.3307363986969,2.043088982198624,[2.29211558],0.005,0.1,-0.033212098742430946,0.015543485728367503,0
9.339210510253906,2.0426981847651504,[2.29211629],0.005,0.1,-0.30667308773558305,0.015618276771224016,0
9.35425090789795,2.0423073873316775,[2.2921169],0.005,0.1,-0.3374026389290101,0.015692273042314867,0
9.366233587265015,2.041916589898204,[2.29211735],0.005,0.1,-0.28008522075701836,0.01576696832471098,0
9.377650737762451,2.0415257924647303,[2.29211761],0.005,0.1,-0.2019459652529617,0.015841481364115572,0
9.386356830596924,2.041330393747994,[2.29211765],0.005,0.1,-0.12952518509071295,0.015879910826791147,0
9.399552822113037,2.040744197597784,[2.29211747],0.005,0.1,-0.0711513999982654,0.015990100874778902,0
9.408175945281982,2.0405487988810473,[2.29211702],0.005,0.1,-0.02753794968587771,0.01602884540292725,0
9.416661024093628,2.0403534001643107,[2.29211632],0.005,0.1,0.0033665726642016173,0.01606750239639813,0
9.427295923233032,2.0399626027308373,[2.29211544],0.005,0.1,0.02426656209193563,0.016142775108307264,0
9.43525218963623,2.0397672040141006,[2.29211442],0.005,0.1,0.03768289518230662,0.016180805255410467,0
9.445218324661255,2.0393764065806272,[2.29211331],0.005,0.1,0.045688192902683764,0.01625686911302553,0
9.45723581314087,2.038985609147154,[2.2921122],0.005,0.1,0.04988187235221775,0.016333456132816795,0
9.46623182296753,2.038594811713681,[2.29211115],0.005,0.1,0.05145282915490593,0.016409577230200378,0
9.475215435028076,2.0383994129969443,[2.29211022],0.005,0.1,0.051263353522934055,0.016448484721695012,0
9.484859466552734,2.038008615563471,[2.29210949],0.005,0.1,0.049927858774809056,0.01652575696763397,0
9.497629165649414,2.037617818129997,[2.29210903],0.005,0.1,0.04787795556812146,0.016602673000821074,0
9.507031440734863,2.037422419413261,[2.29210891],0.005,0.1,0.045412958980235535,0.016642251015864175,0
9.516701221466064,2.037031621979787,[2.29210921],0.005,0.1,0.042737696167538,0.01672057040802029,0
9.52521562576294,2.036836223263051,[2.29210999],0.005,0.1,0.03999017521084777,0.016759581966445763,0
9.534247398376465,2.0364454258295774,[2.29211128],0.005,0.1,0.037261534011040987,0.016835576873391885,0
9.544227361679077,2.0362500271128408,[2.29211306],0.005,0.1,0.03461027551277547,0.01687535405210903,0
9.5542151927948,2.035859229679367,[2.29211531],0.005,0.1,0.03207235005292773,0.01695277879710527,0
9.56321382522583,2.0356638309626307,[2.29211802],0.005,0.1,0.029668255468185193,0.01699290722352215,0
9.573054552078247,2.0352730335291573,[2.29212138],0.005,0.1,0.02740801333070753,0.017089833958095234,0
9.583800077438354,2.0350776348124207,[2.29212616],0.005,0.1,0.025294641527401414,0.017182050125425247,0
9.594640016555786,2.0346868373789473,[2.29213291],0.005,0.1,0.023326566915997042,0.017198684083425127,0
9.60669732093811,2.034296039945474,[2.29214105],0.005,0.1,0.021499293373564918,0.01726930862344698,0
9.617242574691772,2.0339052425120006,[2.29214964],0.005,0.1,0.019806548227917838,0.017339863357429673,0
9.627246618270874,2.033709843795264,[2.29215782],0.005,0.1,0.018241064224972018,0.017377974296226062,0
9.638030767440796,2.0333190463617905,[2.2921645],0.005,0.1,0.016795107499837286,0.01746408716712332,0
9.650256156921387,2.032928248928317,[2.2921684],0.005,0.1,0.01546082904593591,0.017564172448294252,0
9.660722255706787,2.0325374514948438,[2.29216767],0.005,0.1,0.014230493953063372,0.01775301775776725,0
9.670207738876343,2.032342052778107,[2.29216024],0.005,0.1,0.013096626362645518,0.01778042360391963,0
9.681999683380127,2.0321466540613704,[2.29214406],0.005,0.1,0.012052096633853416,0.01809168561574109,0
9.691208362579346,2.031755856627897,[2.29211694],0.005,0.1,0.01109016918536199,0.0181036747458422,0
9.701070547103882,2.0311696604776874,[2.29207648],0.005,0.1,0.010204523856122447,0.0187763314330741,0
9.709227085113525,2.0309742617609507,[2.29202088],0.005,0.1,0.009389259695559048,0.01881213254728383,0
9.71921181678772,2.0307788630442136,[2.29195055],0.005,0.1,0.00863888734547409,0.018669936760203728,0
9.730222225189209,2.0303880656107403,[2.29186556],0.005,0.1,0.28398667393541593,0.019118824116451046,0
9.740228652954102,2.0299972681772673,[2.29176351],0.005,0.1,0.31647578848604474,0.019617059953403106,0
9.748196601867676,2.0298018694605307,[2.29164123],0.005,0.1,0.2607937694135671,0.020125237430146548,0
9.761208057403564,2.0294110720270573,[2.29149458],0.005,0.1,0.18417070370525632,0.021814737685363104,0
9.769237518310547,2.0292156733103206,[2.29131869],0.005,0.1,0.11315295502032134,0.02213036648297103,0
9.78123164176941,2.0288248758768472,[2.29111027],0.005,0.1,0.05607565520680785,0.02251217640039763,0
9.790297746658325,2.028434078443374,[2.2908676],0.005,0.1,0.013658959031982235,0.022903015043770503,0
9.80024266242981,2.028238679726637,[2.29058933],0.005,0.1,-0.2921801176850393,0.023161517445718708,0
9.812485933303833,2.027847882293164,[2.29027333],0.005,0.1,-0.34518725526951244,0.025356310148797467,0
9.82096529006958,2.027652483576427,[2.28991679],0.005,0.1,-0.02653054557033782,0.025058921803459942,0
9.830263137817383,2.027066287426217,[2.28951902],0.005,0.1,-0.2005012046991882,0.024871395026377602,0
9.840198040008545,2.0266754899927437,[2.28908118],0.005,0.1,-0.22159907722111094,0.024743823138468225,0
9.848224639892578,2.026480091276007,[2.28860474],0.005,0.1,-0.18680412774978933,0.02458063579196603,0
9.861277103424072,2.0260892938425337,[2.28809016],0.005,0.1,-0.13838108046319147,0.0265399441161173,0
9.87012529373169,2.025893895125797,[2.28753841],0.005,0.1,-0.09310959169896749,0.02373989928953604,0
9.88008737564087,2.0255030976923236,[2.28695336],0.005,0.1,-0.05633717254377012,0.023824007873125455,0
9.890262365341187,2.0251123002588503,[2.28633999],0.005,0.1,-0.028612167371633645,0.022171269790964503,0
9.901916027069092,2.024721502825377,[2.28570146],0.005,0.1,-0.008724834476293113,0.024543444358918084,0
9.911177158355713,2.024330705391904,[2.28503815],0.005,0.1,0.004964872709517272,0.024384286529870652,0
9.922233581542969,2.024135306675167,[2.28435073],0.005,0.1,0.013998321579044529,0.02416359542892345,0
9.932009220123291,2.0237445092416935,[2.2836402],0.005,0.1,0.019648120126572167,0.025995726525759214,0
9.941269636154175,2.023549110524957,[2.28290652],0.005,0.1,0.022899144104862885,0.025136785267745737,0
9.954799175262451,2.0227675156580105,[2.28215005],0.005,0.1,0.024485278386726966,0.026717731186827312,0
9.96426272392273,2.022376718224537,[2.28137271],0.005,0.1,0.024940129332143013,0.02357661151431444,0
9.973059177398682,2.0221813195078004,[2.28057902],0.005,0.1,0.024645003811611353,0.0232905510212882,0
9.984235525131226,2.0217905220743266,[2.27977307],0.005,0.1,0.02386871967220622,0.023091889584168527,0
9.993571281433105,2.0213997246408537,[2.27895728],0.005,0.1,0.022798571807946824,0.022892484108525547,0
10.005235195159912,2.021204325924117,[2.27813391],0.005,0.1,0.021563545056792435,0.022680444414163912,0
10.013209819793701,2.0208135284906437,[2.27730498],0.005,0.1,0.020251319846098827,0.022516438051184536,0
10.025619983673096,2.0204227310571703,[2.27647106],0.005,0.1,0.018920543683316974,0.024199497124918184,0
10.035285234451294,2.020031933623697,[2.27563271],0.005,0.1,0.017609595060686246,0.021786690685777644,0
10.04688835144043,2.0196411361902236,[2.27479159],0.005,0.1,0.016342796003553914,0.023635740564031726,0
10.05612564086914,2.019445737473487,[2.2739478],0.005,0.1,0.015134791375330598,0.023156883442188712,0
10.067228555679321,2.0190549400400135,[2.27310128],0.005,0.1,0.013993621936066531,0.022871930806372363,0
10.076752424240112,2.01866414260654,[2.2722531],0.005,0.1,0.012922872157879305,0.022729659118167933,0
10.08730173110962,2.0184687438898035,[2.27140396],0.005,0.1,0.011923165502522544,0.02264122458197058,0
10.097273111343384,2.01807794645633,[2.2705542],0.005,0.1,0.01099320101120263,0.02271092917505525,0
10.108069896697998,2.0176871490228567,[2.26970379],0.005,0.1,0.010130468337917461,0.022876464348159216,0
10.120263576507568,2.017296351589384,[2.26885081],0.005,0.1,0.009331737897907423,0.025692337180271155,0
10.12822937965393,2.0169055541559104,[2.26799325],0.005,0.1,0.00859339410583878,0.02276348121311546,0
10.138965129852295,2.0167101554391738,[2.2671321],0.005,0.1,0.007911659405635025,0.023254988505153413,0
10.150301694869995,2.0163193580057,[2.26626778],0.005,0.1,0.007282742513181822,0.023850242195846128,0
10.160200834274292,2.015928560572227,[2.2653987],0.005,0.1,0.006702934254228269,0.02446015600039219,0
10.171185970306396,2.0157331618554903,[2.26452309],0.005,0.1,0.006168667333415162,0.025042105311183973,0
10.180188179016113,2.015342364422017,[2.26363904],0.005,0.1,0.005676551430434908,0.02566992511574025,0
10.189224243164062,2.0151469657052803,[2.2627446],0.005,0.1,0.005223391559600364,0.026283731438613837,0
10.19889211654663,2.014756168271807,[2.26183776],0.005,0.1,0.004806195207858013,0.026955634694123473,0
10.20829463005066,2.0145607695550702,[2.2609165],0.005,0.1,0.004422172073600312,0.02759595847378895,0
10.219212055206299,2.01397457340486,[2.25997885],0.005,0.1,0.004068729045999675,0.0283024810469538,0
10.229222774505615,2.0137791746881235,[2.25902294],0.005,0.1,0.0037434622394328606,0.028941995585179712,0
10.239222764968872,2.013583775971387,[2.25804699],0.005,0.1,0.0034441473224146903,0.029496110256853166,0
10.248914003372192,2.0131929785379135,[2.25704941],0.005,0.1,0.003168728980197948,0.030146249966515083,0
10.257218360900879,2.0129975798211768,[2.25603099],0.005,0.1,0.0029153100723187846,0.025905869537971273,0
10.26633358001709,2.0126067823877034,[2.25499466],0.005,0.1,0.0026821408539317833,0.02757533558341903,0
10.275192022323608,2.01221598495423,[2.25394064],0.005,0.1,0.002467608496806148,0.029025758145011724,0
10.285195350646973,2.0120205862374934,[2.2528668],0.005,0.1,0.0022702270548988716,0.0301438416319803,0
10.295451402664185,2.0116297888040204,[2.2517689],0.005,0.1,0.0020886279569965432,0.037219443963416206,0
10.30419373512268,2.0114343900872833,[2.25064341],0.005,0.1,0.0019215510669827488,0.030167306234148882,0
10.313241243362427,2.01104359265381,[2.24949228],0.005,0.1,0.0017678363242049759,0.03118394537764024,0
10.321211338043213,2.0108481939370733,[2.24831726],0.005,0.1,0.0016264159580743106,0.032005092337798954,0
10.3302903175354,2.0104573965036003,[2.24712003],0.005,0.1,0.0014963072592886191,0.027005350037184506,0
10.340057373046875,2.0102619977868637,[2.2459046],0.005,0.1,0.001376605883053736,0.028885983619554273,0
10.353214502334595,2.009675801636653,[2.24466951],0.005,0.1,0.0012664796555602864,0.03687411691530749,0
10.362237215042114,2.0094804029199165,[2.24340862],0.005,0.1,0.001165162853326937,0.03602017598682908,0
10.371315002441406,2.0092850042031802,[2.24212208],0.005,0.1,0.0010719509242046758,0.029218212041798218,0
10.381927967071533,2.00869880805297,[2.2408128],0.005,0.1,-0.27505216405900634,0.03674904811466517,0
10.392232656478882,2.008308010619497,[2.23948117],0.005,0.1,-0.30825566233144375,0.029333051854323815,0
10.404068946838379,2.00811261190276,[2.23812794],0.005,0.1,-0.25323098940326283,0.03650502996717033,0
10.417219400405884,2.0077218144692868,[2.23674878],0.005,0.1,0.09882559834667423,0.043239627157242375,0
10.428577661514282,2.0073310170358134,[2.23533453],0.005,0.1,0.20241144413788847,0.04924043400838493,0
10.440587759017944,2.0067448208856034,[2.23387959],0.005,0.1,0.2038794629884113,0.045267167824765614,0
10.450221538543701,2.0065494221688667,[2.23238721],0.005,0.1,0.16974006442657452,0.03468395869579307,0
10.458707332611084,2.0061586247353933,[2.23086555],0.005,0.1,0.12858468241158574,0.03565926078018441,0
10.467007875442505,2.00576782730192,[2.22931843],0.005,0.1,-0.18459169956008786,0.03689981874366329,0
10.475194931030273,2.0055724285851833,[2.22774893],0.005,0.1,-0.24760187086979954,0.03009790080269854,0
10.486842155456543,2.00518163115171,[2.22615888],0.005,0.1,-0.21511536734707332,0.04310171125961554,0
10.496251344680786,2.004790833718237,[2.22454255],0.005,0.1,-0.15546998578945623,0.044650511763434035,0
10.5042142868042,2.0045954350015,[2.22289781],0.005,0.1,-0.09654642817107884,0.03571774716569017,0
10.514233112335205,2.0042046375680265,[2.22122888],0.005,0.1,-0.04789221667057447,0.04040931999371457,0
10.524196863174438,2.00400923885129,[2.21953084],0.005,0.1,-0.011214328205068885,0.05889913944931018,0
10.53618311882019,2.003618441417817,[2.21779078],0.005,0.1,0.014772957373176089,0.06038180223068988,0
10.547088384628296,2.003032245267607,[2.21600057],0.005,0.1,0.03220300907337547,0.062380662716298524,0
10.557034730911255,2.00283684655087,[2.21415653],0.005,0.1,0.043179485532933784,0.06486080657836049,0
10.568287134170532,2.0024460491173963,[2.21225496],0.005,0.1,0.04947422641128725,0.06755195233506048,0
10.578253269195557,2.0018598529671867,[2.21029233],0.005,0.1,0.05247175694867265,0.07041777483355284,0
10.588245868682861,2.0014690555337133,[2.20826547],0.005,0.1,0.053208393870780316,0.07296121749825939,0
10.60161828994751,2.00107825810024,[2.20616674],0.005,0.1,0.05243856130711597,0.09783682938096656,0
10.609239339828491,2.0008828593835033,[2.20399008],0.005,0.1,0.3267390106991264,0.07077340616606394,0
10.621121168136597,2.00049206195003,[2.20173592],0.005,0.1,0.3575357776893138,0.09568651181116497,0
10.630264043807983,2.0002966632332932,[2.19940552],0.005,0.1,0.29978254388570147,0.06903192843930554,0
10.640179872512817,2.0001012645165566,[2.19700599],0.005,0.1,0.22089193372254917,0.07105325329024917,0
10.650237560272217,1.9997104670830832,[2.19454449],0.005,0.1,0.4235719607766337,0.07214896188457781,0
10.660230875015259,1.9995150683663467,[2.19202316],0.005,0.1,0.39728730466639034,0.07226482400062574,0
10.669221639633179,1.99931966964961,[2.18944476],0.005,0.1,0.29750265758218486,0.07217526087612021,0
10.679300785064697,1.999124270932873,[2.18681232],0.005,0.1,0.46547842413805035,0.0718118497537389,0
10.690196514129639,1.9987334734993998,[2.1841295],0.005,0.1,0.4061335474720742,0.06948616915838621,0
10.70122218132019,1.9983426760659266,[2.18140103],0.005,0.1,0.2799933476855321,0.06729666673150224,0
10.714212656021118,1.9981472773491897,[2.17862266],0.005,0.1,0.1529517716413869,0.10566650488840182,0
10.725348234176636,1.9977564799157166,[2.1757823],0.005,0.1,0.04792243063098435,0.09018021184966167,0
10.73521614074707,1.99756108119898,[2.17288479],0.005,0.1,-0.03063846507415103,0.06164011051129361,0
10.745951652526855,1.9973656824822434,[2.16994468],0.005,0.1,-0.08538228962612504,0.0762051994164315,0
10.758491516113281,1.9969748850487696,[2.16696604],0.005,0.1,-0.12103110312638862,0.06887164126415106,0
10.77028203010559,1.9965840876152965,[2.16395305],0.005,0.1,-0.14230567526543753,0.06326061225904661,0
10.779297590255737,1.9963886888985598,[2.16091443],0.005,0.1,-0.15320190487657337,0.05893727079272007,0
10.788333177566528,1.9961932901818233,[2.15785804],0.005,0.1,-0.15684760170908194,0.05566539911590417,0
10.797521829605103,1.9959978914650867,[2.15479082],0.005,0.1,-0.15558377336818566,0.05308811624878214,0
10.80721640586853,1.995607094031613,[2.1517188],0.005,0.1,-0.15111220002580997,0.05109577057393979,0
10.81866455078125,1.9954116953148764,[2.14864261],0.005,0.1,-0.1446439853276964,0.06391530894425156,0
10.826216697692871,1.9952162965981397,[2.1455672],0.005,0.1,-0.13702608508174868,0.06269364127903695,0
10.8357515335083,1.9948254991646663,[2.14250998],0.005,0.1,-0.12884107411514406,0.05698447818824407,0
10.846718788146973,1.9946301004479299,[2.13947613],0.005,0.1,-0.12048251269076002,0.06793152424262436,0
10.857222318649292,1.9942393030144565,[2.13645584],0.005,0.1,-0.3882487642159929,0.06067889635493362,0
10.86632776260376,1.99404390429772,[2.1334493],0.005,0.1,-0.41335427287193827,0.04223571415095891,0
10.874276161193848,1.9938485055809834,[2.13046994],0.005,0.1,-0.3505927244048844,0.03129744593195396,0
10.883233547210693,1.9934577081475098,[2.12752835],0.005,0.1,-0.26725556506010134,0.03531474710128091,0
10.893548488616943,1.9930669107140364,[2.12462293],0.005,0.1,-0.1899200525074803,0.0385969669558799,0
10.902867794036865,1.9928715119973,[2.12174633],0.005,0.1,-0.12693177697684327,0.04123483846074551,0
10.91555643081665,1.992676113280563,[2.11888572],0.005,0.1,-0.07900790279438341,0.05831264031702895,0
10.927176237106323,1.99228531584709,[2.1160182],0.005,0.1,-0.3201305667858557,0.07321743702270686,0
10.939286231994629,1.9918945184136163,[2.1131229],0.005,0.1,-0.32863298343083525,0.06709299773683888,0
10.94722056388855,1.991503720980143,[2.11019735],0.005,0.1,-0.256672625466537,0.0474352405800485,0
10.956945657730103,1.9913083222634063,[2.10725006],0.005,0.1,-0.16939565058566358,0.04862142969864574,0
10.96813154220581,1.9909175248299331,[2.10427682],0.005,0.1,-0.0917366024779935,0.06671665267271255,0
10.979242324829102,1.9905267273964597,[2.10126231],0.005,0.1,-0.030828906702014477,0.0628752092203559,0
10.988214492797852,1.9903313286797228,[2.09819907],0.005,0.1,0.013482338306149387,0.05971422295681252,0
10.997217178344727,1.9899405312462497,[2.0950868],0.005,0.1,0.043868601555852677,0.05724864663293114,0
11.007972717285156,1.9895497338127766,[2.0919258],0.005,0.1,0.06347120744321416,0.05500465315196801,0
11.017648458480835,1.9893543350960396,[2.08871697],0.005,0.1,0.07511532605198669,0.05272435915044307,0
11.026705980300903,1.9889635376625665,[2.0854619],0.005,0.1,0.08108304530875685,0.05052398686305398,0
11.037322759628296,1.9887681389458298,[2.08216289],0.005,0.1,0.08311610077169676,0.04803742918419335,0
11.048583745956421,1.9883773415123565,[2.07882308],0.005,0.1,0.08249852074580238,0.045412111148978425,0
11.060545921325684,1.9879865440788829,[2.07544643],0.005,0.1,0.08015479404847517,0.04269822696534185,0
11.068846702575684,1.9875957466454097,[2.07203765],0.005,0.1,0.07673869866685731,0.03989692841730293,0
11.079286575317383,1.9872049492119364,[2.06860207],0.005,0.1,0.07270549430740375,0.0370166861693073,0
11.089269161224365,1.9870095504951997,[2.06514562],0.005,0.1,0.0683674237536918,0.03403486534942827,0
11.101240396499634,1.9866187530617263,[2.06166973],0.005,0.1,0.06393501060558998,0.040059271746440674,0
11.110251426696777,1.9864233543449896,[2.05817705],0.005,0.1,-0.2164912021657125,0.026090254023342176,0
11.118223667144775,1.9860325569115163,[2.05468113],0.005,0.1,-0.2538701838844699,0.02407912401921,0
11.128249168395996,1.9858371581947796,[2.05119471],0.005,0.1,-0.2028395084711266,0.021950341863739047,0
11.13721752166748,1.9854463607613064,[2.04772913],0.005,0.1,-0.13060267768813397,0.014876363974615297,0
11.14723539352417,1.9850555633278328,[2.04429918],0.005,0.1,-0.06369523059262236,0.014705067992715927,0
11.157233476638794,1.9848601646110962,[2.04091335],0.005,0.1,-0.01045191722551339,0.014035244945386126,0
11.168197870254517,1.984469367177623,[2.03757478],0.005,0.1,0.02840073854799844,0.013136566552252937,0
11.179311275482178,1.9840785697441496,[2.03428656],0.005,0.1,0.054896789116836237,0.012071958179610565,0
11.18819284439087,1.9836877723106763,[2.03105161],0.005,0.1,0.07172100173228362,0.010986634509009554,0
11.198012828826904,1.9834923735939396,[2.02787261],0.005,0.1,0.35741198978769645,0.00984607163822691,0
11.208201169967651,1.9831015761604662,[2.02475173],0.005,0.1,0.39506948824811905,0.008993378160431371,0
11.220234632492065,1.9829061774437293,[2.02168702],0.005,0.1,0.34096444449249474,0.01019888286846971,0
11.233220100402832,1.9823199812935197,[2.01866971],0.005,0.1,0.26350024712296455,0.010898468792153239,0
11.243173599243164,1.982124582576783,[2.0156921],0.005,0.1,0.19007059682449265,0.00873337999954277,0
11.254195213317871,1.9819291838600464,[2.0127507],0.005,0.1,0.40564921675639604,0.009102313884445332,0
11.26621127128601,1.981538386426573,[2.00984557],0.005,0.1,0.39242241163566494,0.005671868077014569,0
11.274189472198486,1.980952190276363,[2.00698324],0.005,0.1,0.3033242836812938,0.005058059132512219,0
11.284187078475952,1.980756791559626,[2.00416828],0.005,0.1,0.20308434268164294,0.0044825600112805885,0
11.292884588241577,1.9805613928428896,[2.00139986],0.005,0.1,0.11586531455916814,0.003956097108302712,0
11.302276134490967,1.9801705954094162,[1.99867624],0.005,0.1,0.04802025195170332,0.0034989197004931315,0
11.312413454055786,1.979779797975943,[1.99599491],0.005,0.1,-0.0012720748879313203,0.0030531622001137744,0
11.322210550308228,1.979584399259206,[1.9933528],0.005,0.1,-0.0352096138121368,0.002556121584006336,0
11.332172393798828,1.9791936018257328,[1.99075049],0.005,0.1,-0.05733226326622639,0.0015613055260750633,0
11.343853950500488,1.978998203108996,[1.98818776],0.005,0.1,-0.07075922775547265,0.0016808735596212264,0
11.351222276687622,1.9788028043922596,[1.98565988],0.005,0.1,-0.07798594770001567,0.0008577422297566085,0
11.363773345947266,1.978412006958786,[1.98316249],0.005,0.1,-0.080907280739299,0.000578931242300305,0
11.372202396392822,1.9782166082420496,[1.9806917],0.005,0.1,-0.08091633854875435,6.487122151419609e-05,0
11.38017201423645,1.9778258108085762,[1.97824802],0.005,0.1,-0.0790149266878206,-0.0003473233596908003,0
11.391196250915527,1.9776304120918395,[1.97583203],0.005,0.1,-0.07591143272634994,-0.000808978401333048,0
11.402009725570679,1.9774350133751026,[1.97343687],0.005,0.1,-0.07209959498846479,-0.0017482626042446632,0
11.414978981018066,1.9768488172248928,[1.97105016],0.005,0.1,-0.06791872458491517,-0.0026444297410975833,0
11.42720103263855,1.9764580197914197,[1.96866256],0.005,0.1,-0.06359836634467518,-0.0027295165867702005,0
11.43823504447937,1.9762626210746828,[1.96627445],0.005,0.1,-0.059290780690533076,-0.0028450064967266223,0
11.446299314498901,1.976067222357946,[1.96389373],0.005,0.1,0.2209440999635689,-0.002201489522491551,0
11.45657205581665,1.9756764249244727,[1.96153086],0.005,0.1,0.2580932534051307,-0.0024532928928077172,0
11.471997499465942,1.9752856274909993,[1.95918595],0.005,0.1,0.20681334448950142,-0.004516145767927286,0
11.484202146530151,1.9748948300575262,[1.95685062],0.005,0.1,0.13432070005495028,-0.004142714330661886,0
11.49453353881836,1.9746994313407895,[1.95452447],0.005,0.1,0.06715930882521307,-0.003922515426008854,0
11.504265785217285,1.974504032624053,[1.95221365],0.005,0.1,0.013669333755169405,-0.003785743362139356,0
11.516239643096924,1.9741132351905792,[1.94992085],0.005,0.1,-0.02541938205319899,-0.00478689913932286,0
11.525198221206665,1.9739178364738426,[1.94764574],0.005,0.1,-0.05213900379108918,-0.0044626541180334805,0
11.533177852630615,1.9735270390403694,[1.94539346],0.005,0.1,-0.06917338106258382,-0.0031955113725520208,0
11.542747259140015,1.973331640323633,[1.94317356],0.005,0.1,-0.07902249736157241,-0.003410508707294365,0
11.55211591720581,1.9729408428901594,[1.94099098],0.005,0.1,-0.08373835756226233,-0.0036191681007993527,0
11.564278364181519,1.972550045456686,[1.93884397],0.005,0.1,-0.0849004355704227,-0.005104352309234033,0
11.574270248413086,1.9723546467399493,[1.9367305],0.005,0.1,-0.08367859566419164,-0.0037226610078260848,0
11.582955598831177,1.9721592480232129,[1.93465365],0.005,0.1,-0.0809171406237463,-0.004073440232642734,0
11.594340562820435,1.971963849306476,[1.93261529],0.005,0.1,-0.07721360028027673,-0.00443571909300347,0
11.602560758590698,1.9715730518730028,[1.93061347],0.005,0.1,-0.07298381793113405,-0.0047841152830957285,0
11.612029790878296,1.9713776531562661,[1.92864575],0.005,0.1,-0.06851243848732382,-0.00517364848514972,0
11.621188402175903,1.970986855722793,[1.92671216],0.005,0.1,-0.06399067761151102,-0.003947263992705471,0
11.630316019058228,1.9707914570060558,[1.92481194],0.005,0.1,-0.059543940349656814,-0.006496573445271226,0
11.641921043395996,1.9705960582893192,[1.92293756],0.005,0.1,-0.05525171348704973,-0.006938986339473137,0
11.649179220199585,1.9704006595725827,[1.92108483],0.005,0.1,-0.051161741515056564,-0.005184933332040007,0
11.657793283462524,1.9700098621391096,[1.91925607],0.005,0.1,-0.04730004939433782,-0.005837822722935618,0
11.666231393814087,1.9698144634223727,[1.91744995],0.005,0.1,-0.04367798429593692,-0.0066245059081288995,0
11.674160718917847,1.969619064705636,[1.91566463],0.005,0.1,-0.04029713565586375,-0.0051688522261832265,0
11.68524980545044,1.9694236659888995,[1.91389762],0.005,0.1,-0.03715275432911562,-0.008835334434251586,0
11.693189859390259,1.9692282672721628,[1.91214633],0.005,0.1,-0.03423611487739096,-0.009120202608614363,0
11.705151081085205,1.9688374698386895,[1.91041136],0.005,0.1,-0.03153613642672529,-0.012742942904399687,0
11.716190814971924,1.9686420711219526,[1.90868603],0.005,0.1,-0.029040485086903305,-0.012371076226651902,0
11.72919487953186,1.9682512736884794,[1.90695755],0.005,0.1,-0.02673631501029755,-0.01603723838085508,0
11.739487648010254,1.9680558749717427,[1.90521457],0.005,0.1,-0.02461075843487958,-0.015052637182936842,0
11.747989416122437,1.967860476255006,[1.90345074],0.005,0.1,-0.02265124205495639,-0.01451670417485675,0
11.757172346115112,1.9676650775382694,[1.90166405],0.005,0.1,0.2551926758531759,-0.014363380154759096,0
11.767196416854858,1.9674696788215327,[1.89985275],0.005,0.1,0.2899803548619268,-0.014451957880428945,0
11.775214672088623,1.9672742801047958,[1.89801901],0.005,0.1,0.2364145016750706,-0.01070461670028325,0
11.787262678146362,1.9670788813880593,[1.89616457],0.005,0.1,0.16173934920663025,-0.016465470869868208,0
11.79712176322937,1.9668834826713226,[1.89428354],0.005,0.1,0.09251440914804648,-0.016649257686842382,0
