t_s,q_rad,q_des_rad,K,B,jerk,tau_Nm,ilc_ff_Nm
0.005201816558837891,-0.04591869843311751,[0.00240153],0.005,0.1,0.0,9.998999999999999,0
0.014384984970092773,-0.04591869843311751,[0.01160586],0.005,0.1,0.0,10.098989999999999,0
0.023864269256591797,-0.04572329971638084,[0.02884524],0.005,0.1,0.0,10.099989899999999,0
0.03380084037780762,-0.04572329971638084,[0.0526561],0.005,0.1,0.0,10.099999898999998,0
0.04240822792053223,-0.04591869843311751,[0.08171565],0.005,0.1,0.0,10.099999998989999,0
0.052309274673461914,-0.04591869843311751,[0.11483727],0.005,0.1,0.0,10.0999999999899,0
0.06302881240844727,-0.04572329971638084,[0.1509649],0.005,0.1,0.0,6.184775107794294,0
0.07324075698852539,-0.04572329971638084,[0.18916653],0.005,0.1,0.0,3.4628747865650773,0
0.0822606086730957,-0.044160109982487476,[0.22862715],0.005,0.1,0.276038359678681,1.9307172337881737,0
0.09026169776916504,-0.04142452794817409,[0.26864124],0.005,0.1,2.24143148059089,1.0756595903409236,0
0.10163545608520508,-0.03732115489670401,[0.30860502],0.005,0.1,5.0,0.6043614377399289,0
0.10931968688964844,-0.034194775428917294,[0.34800853],0.005,0.1,5.0,0.3541875760388343,0
0.12035346031188965,-0.029700604943973877,[0.38642782],0.005,0.1,5.0,0.22552117082988973,0
0.12870025634765625,-0.026378826759450486,[0.4235171],0.005,0.1,5.0,0.16788888228279963,0
0.13747239112854004,-0.022666251141453746,[0.4590012],0.005,0.1,5.0,0.14872077532406539,0
0.1473081111907959,-0.018953675523457014,[0.4926682],0.005,0.1,5.0,0.15126460344616063,0
0.15665888786315918,-0.015241099905460279,[0.52436245],0.005,0.1,5.0,0.1661553806898722,0
0.16553807258605957,-0.011333125570726873,[0.55397787],0.005,0.1,5.0,0.1871931488322964,0
0.1751868724822998,-0.0076205499527301395,[0.58145169],0.005,0.1,5.0,0.21127801391849185,0
0.18537163734436035,-0.0037125756179967346,[0.60675856],0.005,0.1,3.8927418216895138,0.23597134086596838,0
0.19333291053771973,-0.0005861961502100108,[0.62990513],0.005,0.1,1.094407515635547,0.26118933601261607,0
0.2023005485534668,0.0029309807510500534,[0.65092501],0.005,0.1,-1.4538643159105336,0.2848086735663966,0
0.21184802055358887,0.0072297525192568,[0.66987415],0.005,0.1,-3.4199980108803696,0.305689321703772,0
0.21926331520080566,0.009965334553570182,[0.68682671],0.005,0.1,-5.0,0.3267643717766445,0
0.23206639289855957,0.015436498622196948,[0.70187126],0.005,0.1,-5.0,0.34156881518792753,0
0.24129247665405273,0.019149074240193686,[0.71510741],0.005,0.1,-5.0,0.3565896213909284,0
0.25295305252075195,0.02383864344187377,[0.72664284],0.005,0.1,-5.0,0.3677055525638196,0
0.26316308975219727,0.027551219059870506,[0.73659063],0.005,0.1,-5.0,0.3779713266304763,0
0.27231431007385254,0.03126379467786724,[0.74506696],0.005,0.1,-5.0,0.38595588994304686,0
0.2812950611114502,0.0347809715791273,[0.75218916],0.005,0.1,-5.0,0.3920716501766892,0
0.29133152961730957,0.03927514206407072,[0.75807398],0.005,0.1,-5.0,0.39449965528779624,0
0.29935693740844727,0.04259692024859412,[0.76283617],0.005,0.1,-5.0,0.3969705388265483,0
0.31040024757385254,0.046700293300064186,[0.76658734],0.005,0.1,-5.0,0.3964269315375486,0
0.32033371925354004,0.050608267634797595,[0.76943494],0.005,0.1,-5.0,0.39466126780426314,0
0.3307960033416748,0.05451624196953099,[0.77148156],0.005,0.1,-4.860412490518943,0.391550340587218,0
0.33930492401123047,0.05822881758752774,[0.77282431],0.005,0.1,-4.611522992666563,0.3875994884505686,0
0.3486752510070801,0.06213679192226114,[0.77355445],0.005,0.1,-4.319388983238618,0.38234245029796,0
0.35723423957824707,0.06604476625699454,[0.77375708],0.005,0.1,-4.017003035075763,0.3762666275231792,0
0.367264986038208,0.06995274059172794,[0.77351099],0.005,0.1,-3.720565256370312,0.3695316385553243,0
0.3752772808074951,0.07327451877625135,[0.77288865],0.005,0.1,-3.4377191831076823,0.3632044415194203,0
0.38437986373901367,0.07698709439424807,[0.77195617],0.005,0.1,-3.1717377627203076,0.35586436807830035,0
0.394273042678833,0.08089506872898149,[0.77077352],0.005,0.1,-2.923662377279719,0.3479343736305787,0
0.40227580070495605,0.0840214481967682,[0.76939464],0.005,0.1,-2.693403109798254,0.3410044013933262,0
0.41289472579956055,0.08832021996497495,[0.76786766],0.005,0.1,-2.4803090558036174,0.33221775101871287,0
0.4206676483154297,0.09164199814949833,[0.76623524],0.005,0.1,-2.2834663621411178,0.32484077362409547,0
0.4292623996734619,0.09496377633402173,[0.7645348],0.005,0.1,-2.101855121955708,0.3174937371248041,0
0.4421713352203369,0.10023954168591184,[0.76279886],0.005,0.1,-1.9344322839616255,0.30745825699531254,0
0.4542274475097656,0.10492911088759192,[0.76105539],0.005,0.1,-1.7801752632845553,0.2984132086147691,0
0.4630892276763916,0.10864168650558867,[0.75932814],0.005,0.1,-1.6381043665527462,0.290903074955275,0
0.4722018241882324,0.11235426212358537,[0.75763698],0.005,0.1,-1.2312552600331461,0.28361492518089465,0
0.4826629161834717,0.11645763517505547,[0.75599825],0.005,0.1,-1.0777121967587708,0.27600076873553153,0
0.49048829078674316,0.1195840146428422,[0.75442508],0.005,0.1,-1.298012674749054,0.26982614101756935,0
0.49823808670043945,0.12290579282736558,[0.75292774],0.005,0.1,-1.3052191704328067,0.2636201118619162,0
0.5077986717224121,0.12700916587883565,[0.75151391],0.005,0.1,-1.2267775395886455,0.25665131129275237,0
0.5152409076690674,0.1301355453466224,[0.75018903],0.005,0.1,-1.1209397913879577,0.25110398551537083,0
0.5242350101470947,0.13365272224788244,[0.74895652],0.005,0.1,-0.7369000283812182,0.2453227159324572,0
0.5360598564147949,0.13814689273282588,[0.74781809],0.005,0.1,-0.8794806905949317,0.2385505734063044,0
0.5451054573059082,0.1418594683508226,[0.74677398],0.005,0.1,-0.8779506759432661,0.23291826641446034,0
0.5532782077789307,0.14518124653534598,[0.74582314],0.005,0.1,-0.5437339583348334,0.22797043746583603,0
0.5630950927734375,0.14928461958681605,[0.7449635],0.005,0.1,-0.4354068508984749,0.22231531527835302,0
0.5732269287109375,0.1531925939215495,[0.74419211],0.005,0.1,-0.4151734661396381,0.21705766909869062,0
0.5822291374206543,0.15670977082280954,[0.74350536],0.005,0.1,-0.6982068812722027,0.21237774930309852,0
0.5902481079101562,0.16003154900733293,[0.74289906],0.005,0.1,-0.7406990148406517,0.208079514283447,0
0.5982053279876709,0.16315792847511965,[0.74236866],0.005,0.1,-0.6887749621893725,0.20413718384384272,0
0.6082451343536377,0.16706590280985303,[0.74190931],0.005,0.1,-0.608049168032738,0.19951170262727677,0
0.6186020374298096,0.17116927586132313,[0.741516],0.005,0.1,-0.5260905239848566,0.19482060753521635,0
0.6268725395202637,0.17449105404584653,[0.74118362],0.005,0.1,-0.45299395835319994,0.19105555993142453,0
0.6352202892303467,0.1780082309471066,[0.74090708],0.005,0.1,-0.39120340194136366,0.18721079452486478,0
0.6442313194274902,0.18152540784836665,[0.74068134],0.005,0.1,-0.3400991453932556,0.18346853418151549,0
0.6523807048797607,0.1850425847496267,[0.74050149],0.005,0.1,-0.02202613672212278,0.17984733817534726,0
0.6616964340209961,0.18855976165088678,[0.74036277],0.005,0.1,0.04580289244720731,0.1763041904484198,0
0.6705276966094971,0.19227233726888354,[0.74026062],0.005,0.1,-0.2564221497131951,0.1726304722476487,0
0.6789710521697998,0.19559411545340694,[0.74019074],0.005,0.1,-0.3412664193561501,0.16940987048923464,0
0.6882455348968506,0.19950208978814032,[0.74014903],0.005,0.1,-0.0598601123054254,0.16575094754055647,0
0.6991968154907227,0.20380086155634705,[0.7401317],0.005,0.1,0.01069164377005849,0.16180253250378185,0
0.7082340717315674,0.20731803845760713,[0.74013521],0.005,0.1,-0.2762232586266343,0.1586003354108647,0
0.7172079086303711,0.2108352153588672,[0.74015629],0.005,0.1,-0.3443755548138868,0.15547321818178736,0
0.7262330055236816,0.2145477909768639,[0.74019196],0.005,0.1,-0.32500484886837183,0.15223726391955025,0
0.7342410087585449,0.21786956916138733,[0.7402395],0.005,0.1,-0.001193752500689732,0.14941443804369064,0
0.7432003021240234,0.22138674606264738,[0.74029646],0.005,0.1,0.0830990066244622,0.14646516485033798,0
0.7521986961364746,0.22470852424717075,[0.74036067],0.005,0.1,0.07325404884419387,0.1437150949546846,0
0.7602372169494629,0.22783490371495752,[0.74043016],0.005,0.1,0.034088239612597236,0.14116248521699507,0
0.7703688144683838,0.23193827676642756,[0.74050326],0.005,0.1,-0.007486438907754741,0.13784716800941121,0
0.7782249450683594,0.23526005495095098,[0.74057848],0.005,0.1,-0.0418477471533359,0.135198336017584,0
0.7882335186004639,0.2395588267191577,[0.74065461],0.005,0.1,-0.06685552863789726,0.13179264384097658,0
0.8002383708953857,0.2442483959208378,[0.74073075],0.005,0.1,-0.08329772967967206,0.12802847120909017,0
0.812441349029541,0.24913336383925455,[0.74080647],0.005,0.1,-0.09285822286480297,0.12407081811773779,0
0.82179856300354,0.2528459394572513,[0.74088178],0.005,0.1,-0.09727201374057201,0.12111789349304375,0
0.8309991359710693,0.256558515075248,[0.74095697],0.005,0.1,-0.37406104171999016,0.11815227615459131,0
0.8391914367675781,0.2596848945430347,[0.74103237],0.005,0.1,-0.40543788855150065,0.11589443924006991,0
0.8502459526062012,0.26417906502797817,[0.7411088],0.005,0.1,-0.3469651574927767,0.11202902294662125,0
0.8619863986968994,0.2690640329463949,[0.74118818],0.005,0.1,-0.2665070993645814,0.10832383652382832,0
0.8712646961212158,0.2723858111309183,[0.74127227],0.005,0.1,-0.4670970714507949,0.10610439766744033,0
0.8801789283752441,0.2755121905987051,[0.74136241],0.005,0.1,-0.43842889003351143,0.10365103826866834,0
0.8907575607299805,0.27942016493343846,[0.74146182],0.005,0.1,-0.6121637506556435,0.10077668446619943,0
0.9032166004180908,0.2843051328518552,[0.74157566],0.005,0.1,-0.8107168022884015,0.09777061057182294,0
0.9151897430419922,0.2887993033367986,[0.74170994],0.005,0.1,-0.6937692703101428,0.09621042977464765,0
0.9241743087768555,0.292121081521322,[0.74187003],0.005,0.1,-0.7651637099201172,0.09363075761209583,0
0.933617115020752,0.29583365713931875,[0.74205893],0.005,0.1,-0.8744573563364992,0.09236978946728917,0
0.9417297840118408,0.2987646378903688,[0.74228015],0.005,0.1,-0.9646952662493112,0.09202725513492986,0
0.9503443241119385,0.3020864160748922,[0.74253879],0.005,0.1,-0.7440373232509441,0.09185570335186256,0
0.958223819732666,0.30501739682594226,[0.74283805],0.005,0.1,-0.7323058365846158,0.08890689496934047,0
0.9682376384735107,0.30833917501046565,[0.74317927],0.005,0.1,-0.7812899812846312,0.08968075730378486,0
0.9765980243682861,0.31146555447825236,[0.74356602],0.005,0.1,-0.5551037323376236,0.09100908919875335,0
0.9859921932220459,0.3147873326627758,[0.74400387],0.005,0.1,-0.5526651188268143,0.09260380972445262,0
0.9947364330291748,0.31791371213056246,[0.74449817],0.005,0.1,-0.6161045990675503,0.09459547330729305,0
1.0030388832092285,0.3208446928816125,[0.7450512],0.005,0.1,-0.40527170938307666,0.08893069058028388,0
1.012233018875122,0.32436186978287257,[0.7456625],0.005,0.1,-0.4173564647888945,0.09219120797934657,0
1.0216987133026123,0.32768364796739596,[0.74633449],0.005,0.1,-0.49391632080907855,0.09572386484685304,0
1.0316369533538818,0.33120082486865604,[0.74707213],0.005,0.1,-0.5707637907336329,0.09911852072286735,0
1.0402779579162598,0.33393640690296944,[0.74787982],0.005,0.1,-0.6262536875608209,0.10290598479896232,0
1.0492839813232422,0.33706278637075615,[0.74875813],0.005,0.1,-0.38076996152419657,0.09311641474810989,0
1.0582022666931152,0.33999376712180623,[0.74970419],0.005,0.1,-0.356483757012764,0.09903589511975414,0
1.0671727657318115,0.3429247478728562,[0.7507187],0.005,0.1,-0.4037597282054654,0.10460098481048873,0
1.0761902332305908,0.3462465260573797,[0.75180546],0.005,0.1,-0.46025116870977534,0.10945328927350056,0
1.0856313705444336,0.34956830424190305,[0.7529676],0.005,0.1,-0.5034536026120895,0.11381280294264956,0
1.0942113399505615,0.35289008242642644,[0.75420384],0.005,0.1,-0.2520887110371478,0.09946800219366096,0
1.103518009185791,0.3560164618942132,[0.7555129],0.005,0.1,0.04939259447476807,0.12760877089682507,0
1.1139888763427734,0.3593382400787366,[0.75690099],0.005,0.1,0.03309886641461757,0.12931556643232925,0
1.1221718788146973,0.36187842339631326,[0.75836905],0.005,0.1,-0.08281980052113114,0.10928154793582849,0
1.1322925090789795,0.36520020158083666,[0.75990959],0.005,0.1,0.06823904622783011,0.11648836115510897,0
1.1419880390167236,0.36871737848209674,[0.76151989],0.005,0.1,0.2757446029462608,0.12261452192436703,0
1.1506364345550537,0.37145296051641014,[0.76319706],0.005,0.1,0.458691009262941,0.10522049299526534,0
1.1597285270690918,0.3743839412674602,[0.76493411],0.005,0.1,0.593465259838995,0.11498595823128949,0
1.1679389476776123,0.37711952330177356,[0.766729],0.005,0.1,0.403961025860341,0.12352702725394929,0
1.1768555641174316,0.38024590276956033,[0.7685839],0.005,0.1,0.4172357516793329,0.13025117298810673,0
1.1856341361999512,0.3831768835206103,[0.77050042],0.005,0.1,0.48827627562748455,0.13586936836288283,0
1.1941916942596436,0.38630326298839707,[0.77247507],0.005,0.1,0.5585603717154961,0.11342476739629358,0
1.2038986682891846,0.38982043988965714,[0.77450463],0.005,0.1,0.8845825549938842,0.1528904206699033,0
1.2142207622528076,0.39314221807418054,[0.77659504],0.005,0.1,0.9443548371861695,0.15346771900533454,0
1.2241766452789307,0.39665939497544056,[0.7787463],0.005,0.1,0.8957056595658655,0.12356942774712884,0
1.2359812259674072,0.40076276802691063,[0.78095346],0.005,0.1,0.810639647719045,0.16412777736165882,0
1.2460150718688965,0.4042799449281707,[0.78322125],0.005,0.1,0.9963206414081768,0.16215465461204592,0
1.255223274230957,0.4076017231126941,[0.78555318],0.005,0.1,0.9459085747033953,0.16094148748385406,0
1.2644009590148926,0.41072810258048087,[0.78793751],0.005,0.1,0.8177019323292084,0.16036556143712918,0
1.273010015487671,0.4140498807650042,[0.79035428],0.005,0.1,0.9550306351313109,0.15984034855079007,0
1.2832071781158447,0.417762456383001,[0.7927959],0.005,0.1,0.8642705382475471,0.1595211343829586,0
1.2912774085998535,0.42049803841731437,[0.79526535],0.005,0.1,0.982977379492615,0.15998923359317527,0
1.2991902828216553,0.42342901916836445,[0.79776502],0.005,0.1,0.8587441867459462,0.1606507640115649,0
1.30820631980896,0.42655539863615116,[0.80029674],0.005,0.1,0.9456220391135138,0.16122177172302357,0
1.3177592754364014,0.43007257553741124,[0.80286695],0.005,0.1,1.0726233915887222,0.20272374871510693,0
1.325815200805664,0.43300355628846127,[0.80548092],0.005,0.1,0.89950441375057,0.15275838009247192,0
1.3331916332244873,0.43573913832277467,[0.80812787],0.005,0.1,0.9278836020543908,0.12330671259321992,0
1.3421571254730225,0.43945171394077137,[0.81079348],0.005,0.1,1.0046185508535654,0.13480892716074977,0
1.3507318496704102,0.44277349212529477,[0.8134756],0.005,0.1,1.0702889916500875,0.14429678299234105,0
1.3601815700531006,0.44629066902655484,[0.81617751],0.005,0.1,1.1070758092187623,0.1514571527129635,0
1.3681492805480957,0.4494170484943415,[0.81889685],0.005,0.1,1.1142876950592866,0.1227138405368101,0
1.3764426708221436,0.4525434279621283,[0.82162654],0.005,0.1,1.097234742232902,0.13580362525112272,0
1.3859658241271973,0.4560606048633884,[0.82436585],0.005,0.1,1.062441755486068,0.14609428525191825,0
1.3946666717529297,0.45977318048138505,[0.82711943],0.005,0.1,0.7397594845542252,0.1539275253264954,0
1.402167558670044,0.4628995599491718,[0.82988605],0.005,0.1,0.6528477414559182,0.12438388947179764,0
1.4116325378417969,0.46661213556716846,[0.83265951],0.005,0.1,0.37449480693249804,0.13798848606389735,0
1.4191761016845703,0.4695431163182186,[0.83543463],0.005,0.1,0.08289092864641012,0.11512969629926649,0
1.42818021774292,0.4730602932194786,[0.83820723],0.005,0.1,0.11746865187807398,0.13153539627923652,0
1.4369945526123047,0.4765774701207387,[0.84097941],0.005,0.1,-0.02694090011680267,0.1450253250893714,0
1.4484760761260986,0.48107164060568214,[0.84376414],0.005,0.1,0.07481511062445897,0.1990597618078511,0
1.4561996459960938,0.48400262135673217,[0.84657265],0.005,0.1,-0.04043335048024195,0.15196313238408707,0
1.4647743701934814,0.4869336021077822,[0.84939793],0.005,0.1,-0.20317484370361108,0.12377434281316221,0
1.4737446308135986,0.49084157644251564,[0.8522287],0.005,0.1,-0.3478501114324105,0.14070751368057427,0
1.4845962524414062,0.495335746927459,[0.85507257],0.005,0.1,-0.1790071926674681,0.200604240190843,0
1.4921445846557617,0.4980713289617725,[0.85794196],0.005,0.1,0.06085651389506018,0.15415789101619307,0
1.5001871585845947,0.5015885058630325,[0.86083031],0.005,0.1,0.00124617203606283,0.12577867043929897,0
1.5111474990844727,0.506082676347976,[0.86372654],0.005,0.1,-0.14348380252592793,0.1451949883077713,0
1.5201878547668457,0.5097952519659726,[0.86663339],0.005,0.1,-0.010363438342437623,0.16224179776935352,0
1.5315659046173096,0.5144848211676527,[0.86956584],0.005,0.1,0.1870562269823304,0.23042931350317922,0
1.5391550064086914,0.5174158019187027,[0.87253714],0.005,0.1,0.08938749646042372,0.174095381038826,0
1.550213098526001,0.5219099724036462,[0.87555301],0.005,0.1,-0.08581528868255978,0.24754036690824543,0
1.5591793060302734,0.5258179467383796,[0.87861873],0.005,0.1,0.024372632906628888,0.18526327046590646,0
1.568145513534546,0.5293351236396396,[0.88173249],0.005,0.1,-0.07081017431197276,0.2013351015061994,0
1.5771424770355225,0.5328523005408997,[0.88489325],0.005,0.1,0.06285045893525516,0.21596055798704145,0
1.5874032974243164,0.5367602748756332,[0.88811416],0.005,0.1,-0.031989405490382726,0.30231092742529386,0
1.5963387489318848,0.5400820530601566,[0.89140671],0.005,0.1,-0.18200298305997745,0.22243027590536002,0
1.6063883304595947,0.5443808248283633,[0.89476677],0.005,0.1,-0.31909588072689976,0.23827377247367681,0
1.6155545711517334,0.5482887991630967,[0.89819111],0.005,0.1,-0.4221515183397571,0.2535230087239333,0
1.6247367858886719,0.5523921722145668,[0.9016843],0.005,0.1,-0.48960076884870607,0.2670400341682289,0
1.6341452598571777,0.5563001465493002,[0.90524275],0.005,0.1,-0.5268941958872443,0.2047478036884883,0
1.644566297531128,0.5604035196007703,[0.90886358],0.005,0.1,-0.5410689662804379,0.31631589007827887,0
1.6541943550109863,0.5645068926522403,[0.91255198],0.005,0.1,-0.5386134952636887,0.2365586059569286,0
1.662254810333252,0.5676332721200271,[0.91630438],0.005,0.1,-0.5248062640629457,0.26328199873992564,0
1.670600414276123,0.5709550503045504,[0.92011781],0.005,0.1,-0.5036694648423733,0.28620149288195845,0
1.679175853729248,0.5746676259225473,[0.92398942],0.005,0.1,-0.4781445029932621,0.22124215397848637,0
1.6874616146087646,0.577794005390334,[0.92790862],0.005,0.1,-0.45031856149315047,0.25722709884022177,0
1.6967487335205078,0.5817019797250673,[0.93187446],0.005,0.1,-0.42163481069243647,0.28663227643224265,0
1.704146146774292,0.584828359192854,[0.93588593],0.005,0.1,-0.3930651402208748,0.22433883205218333,0
1.7168982028961182,0.5897133271112708,[0.93994219],0.005,0.1,-0.36524365932215996,0.3584563534734515,0
1.7260262966156006,0.5934259027292675,[0.9440592],0.005,0.1,-0.3385662529248351,0.36645253111273757,0
1.7341444492340088,0.5967476809137909,[0.94824164],0.005,0.1,-0.313263150697338,0.27410715793265544,0
1.7431905269622803,0.6004602565317877,[0.9524762],0.005,0.1,-0.28945100602738527,0.3060179942904767,0
1.753511905670166,0.6043682308665211,[0.95675981],0.005,0.1,-0.2671698451059208,0.3318787922273137,0
1.7626328468322754,0.6082762052012545,[0.96109811],0.005,0.1,-0.24640904338523348,0.3522361261717084,0
1.772679090499878,0.6123795782527245,[0.96549558],0.005,0.1,-0.22712544113351762,0.3681306454886453,0
1.7821681499481201,0.6164829513041946,[0.96995565],0.005,0.1,-0.2092558762451042,0.38114437081562735,0
1.791250467300415,0.6201955269221914,[0.97447199],0.005,0.1,0.08331258147726818,0.28639031174625235,0
1.8029263019561768,0.6244942986903982,[0.97903896],0.005,0.1,-0.14433039461029887,0.436455492322049,0
1.812913179397583,0.6284022730251315,[0.98366918],0.005,0.1,-0.21845896251397173,0.43607917666331436,0
1.8217217922210693,0.6321148486431284,[0.98837296],0.005,0.1,-0.22644995553052538,0.4370346944502717,0
1.8316881656646729,0.6362182216945983,[0.99314975],0.005,0.1,0.06712939838474144,0.4393839212772628,0
1.8416874408721924,0.6403215947460684,[0.99799866],0.005,0.1,0.12519041430880037,0.4434122312386413,0
1.850663185119629,0.6438387716473285,[1.00291856],0.005,0.1,0.09488064740248345,0.4498627589971128,0
1.8589773178100586,0.6471605498318519,[1.0079082],0.005,0.1,0.040735776368129126,0.4580231559995907,0
1.8691613674163818,0.6514593216000585,[1.01295696],0.005,0.1,-0.011285302015343286,0.34076240011116754,0
1.878211498260498,0.6551718972180554,[1.01804634],0.005,0.1,-0.05260309064817435,0.38197889559997433,0
1.8871455192565918,0.6590798715527887,[1.02317014],0.005,0.1,-0.08199280305326309,0.4171061992384443,0
1.8961234092712402,0.6625970484540489,[1.02833281],0.005,0.1,-0.1009737159194294,0.44712798322441294,0
1.9052057266235352,0.6665050227887822,[1.03353845],0.005,0.1,-0.11178493729850136,0.47261176084185164,0
1.9151270389556885,0.6706083958402522,[1.03879091],0.005,0.1,-0.11656996670909314,0.4951205588446128,0
1.9261181354522705,0.6749071676084589,[1.04409384],0.005,0.1,-0.1171065671173395,0.5155305515667071,0
1.9351005554199219,0.6784243445097191,[1.04945067],0.005,0.1,-0.11476794050376574,0.5363003766912382,0
1.943166971206665,0.6817461226942425,[1.05485436],0.005,0.1,-0.11057061455980302,0.40375415227011524,0
1.9511439800262451,0.6848725021620292,[1.06027865],0.005,0.1,-0.10524543198607694,0.32400074991068145,0
1.9627788066864014,0.6893666726469726,[1.06571216],0.005,0.1,0.17673244059606094,0.5570292899454172,0
1.9735057353973389,0.6934700456984426,[1.07118776],0.005,0.1,0.2160575346043454,0.7818385590722574,0
1.9816148281097412,0.6969872225997028,[1.07673382],0.005,0.1,-0.10885438404365691,0.5605873666332238,0
1.9910669326782227,0.7008951969344361,[1.08234275],0.005,0.1,-0.21197274393664284,0.5971062736177797,0
2.0001559257507324,0.7048031712691696,[1.08799729],0.005,0.1,0.05450094307508335,0.45340728980446854,0
2.0101685523986816,0.7089065443206396,[1.093694],0.005,0.1,0.11266089766232817,0.7200008841384921,0
2.019200563430786,0.712228322505163,[1.09944116],0.005,0.1,0.09134150826537865,0.5345621212288448,0
2.029149293899536,0.716331695556633,[1.10524606],0.005,0.1,0.04738435599176464,0.8090874661069671,0
2.038135528564453,0.7202396698913666,[1.11111491],0.005,0.1,0.003921090731916623,0.5915448558003605,0
2.047122001647949,0.7241476442261,[1.11704137],0.005,0.1,-0.031172175598913818,0.6478527437489071,0
2.05564284324646,0.7274694224106234,[1.12302],0.005,0.1,-0.05652851556458914,0.6966516134224987,0
2.0631654262542725,0.7305958018784101,[1.12905745],0.005,0.1,-0.07325351846042119,0.7370166688716453,0
2.0744683742523193,0.7350899723633534,[1.1351591],0.005,0.1,-0.08314243804801058,0.7674400255947436,0
2.0835602283477783,0.7384117505478769,[1.14132911],0.005,0.1,-0.08795353483212098,0.7947568864277044,0
2.0911648273468018,0.7415381300156635,[1.14755873],0.005,0.1,-0.08916002186647151,0.5953349813151624,0
2.0991461277008057,0.744859908200187,[1.15381659],0.005,0.1,-0.0879066717625551,0.4738745947889744,0
2.1088385581970215,0.7487678825349204,[1.16008774],0.005,0.1,-0.08504451055874669,0.8045277863611723,0
2.1171584129333496,0.7524804581529171,[1.16639487],0.005,0.1,-0.08118758868277516,0.835863130895031,0
2.127662420272827,0.7567792299211239,[1.17275695],0.005,0.1,-0.07676891796256165,0.8589964583337469,0
2.1364707946777344,0.7602964068223839,[1.17916595],0.005,0.1,-0.07208768453577546,0.6418973569038481,0
2.145148754119873,0.7636181850069071,[1.18560283],0.005,0.1,-0.34338464773287936,0.7227748478239447,0
2.1531331539154053,0.7669399631914308,[1.19205126],0.005,0.1,-0.37184119178391517,0.5641306005102525,0
2.1631197929382324,0.7710433362429008,[1.19849744],0.005,0.1,-0.3122342831988498,0.6681962148741363,0
2.172424554824829,0.7747559118608975,[1.2049419],0.005,0.1,-0.23184944409771951,0.7535615421417322,0
2.181457757949829,0.7784684874788942,[1.21139728],0.005,0.1,-0.15726503747043508,0.8206812634007093,0
2.1906540393829346,0.7823764618136277,[1.21787448],0.005,0.1,-0.0968322269092812,0.8731341553432271,0
2.1981568336486816,0.7851120438479411,[1.22438272],0.005,0.1,-0.05127647756510921,0.9178132575618067,0
2.2069623470306396,0.788629220749201,[1.23091762],0.005,0.1,-0.01855141657741341,0.6942115727275848,0
2.2172627449035645,0.7929279925174079,[1.23746325],0.005,0.1,0.28008537784946014,0.7867843471361325,0
2.2271485328674316,0.7968359668521413,[1.24401835],0.005,0.1,0.32820537528966653,0.8626319885234202,0
2.2379651069641113,0.8013301373370847,[1.25059407],0.005,0.1,0.00653934040447765,0.920751775432166,0
2.247939109802246,0.8052381116718181,[1.2571998],0.005,0.1,-0.09712136266752656,0.9664142084965476,0
2.260608196258545,0.8105138770237083,[1.26385541],0.005,0.1,-0.10972335896003416,1.3168590896549917,0
2.2692253589630127,0.814226452641705,[1.27057704],0.005,0.1,-0.08929339206637701,0.9405157338912931,0
2.278265953063965,0.8181344269764383,[1.27735292],0.005,0.1,-0.061037306031786476,0.9817865030778128,0
2.288350820541382,0.8220424013111718,[1.28418435],0.005,0.1,-0.3109357779867526,1.3371042797021115,0
2.29622220993042,0.8251687807789585,[1.29108363],0.005,0.1,-0.32314971892832156,0.9571675656039671,0
2.304232120513916,0.8282951602467451,[1.29802366],0.005,0.1,-0.25263079547749534,0.7285968190951458,0
2.3124325275421143,0.8314215397145318,[1.30496855],0.005,0.1,-0.16583891560232833,0.8312147876904977,0
2.3215103149414062,0.8351341153325286,[1.31191173],0.005,0.1,-0.08830753394754409,0.9081837629371958,0
2.330925464630127,0.8392374883839987,[1.31885913],0.005,0.1,-0.02742930482680145,0.9624143489810737,0
2.341280937194824,0.8435362601522054,[1.32581511],0.005,0.1,0.01684889730302698,0.9994497015158628,0
2.3501546382904053,0.8470534370534655,[1.33277089],0.005,0.1,0.04716684556942395,0.757278117097133,0
2.359154462814331,0.850375215237989,[1.33970678],0.005,0.1,0.06666317977436413,0.8470383876901203,0
2.367534875869751,0.8535015947057756,[1.3466175],0.005,0.1,0.07817069259530757,0.9150117339783608,0
2.3771326541900635,0.8576049677572457,[1.35351],0.005,0.1,0.08398132918348442,0.9608730278517347,0
2.387089490890503,0.8619037395254524,[1.36038968],0.005,0.1,0.08584577472274837,0.9911914281214653,0
2.3961384296417236,0.8660071125769225,[1.36726058],0.005,0.1,0.08505515279510589,1.0106250686338023,0
2.404686212539673,0.8695242894781825,[1.37412558],0.005,0.1,0.08253915547583701,1.025302967554716,0
2.4151315689086914,0.8736276625296527,[1.38098652],0.005,0.1,0.07895515690544205,1.0296424752296862,0
2.4264304637908936,0.878121833014596,[1.38784425],0.005,0.1,0.07476075977759439,1.0315936650005098,0
2.434764862060547,0.8816390099158562,[1.39468796],0.005,0.1,0.07026962065132682,0.7758888521977559,0
2.443248987197876,0.8849607881003796,[1.40149724],0.005,0.1,0.06569301158767629,0.8477424491067039,0
2.4531068801879883,0.8888687624351129,[1.40826585],0.005,0.1,0.06117012078729654,0.9012827016973788,0
2.4631154537200928,0.8929721354865829,[1.41499953],0.005,0.1,0.05678983507021798,0.9381939741683363,0
2.4731390476226807,0.8972709072547898,[1.42170307],0.005,0.1,0.052606244455481344,0.9626980720195981,0
2.4821009635925293,0.900592685439313,[1.42838038],0.005,0.1,0.0486495969469197,0.9814262043979098,0
2.4920926094055176,0.9048914572075198,[1.43503464],0.005,0.1,0.044933992981893336,0.9915123098294464,0
2.500805377960205,0.9084086341087799,[1.44166837],0.005,0.1,0.04146276187542099,1.000281443786789,0
2.5084421634674072,0.9115350135765666,[1.44828359],0.005,0.1,0.03823219959713107,1.0073104067642025,0
2.5179121494293213,0.9154429879113001,[1.45488189],0.005,0.1,0.03523415311920544,1.0109360446958342,0
2.5261309146881104,0.9187647660958235,[1.46145407],0.005,0.1,0.03245779572237918,0.7689334878453649,0
2.534128189086914,0.9218911455636103,[1.46797151],0.005,0.1,0.029890836566461947,0.6234270473011516,0
2.546063184738159,0.9269715121987636,[1.47442114],0.005,0.1,0.027520335844840895,0.9680424815295978,0
2.5556397438049316,0.9308794865334971,[1.48082411],0.005,0.1,0.30137160552484615,0.9898677994575167,0
2.5631415843963623,0.9342012647180205,[1.48719886],0.005,0.1,0.3324797250898496,1.0067286395976598,0
2.572117328643799,0.9373276441858072,[1.4935404],0.005,0.1,0.2755242508994635,0.7736067295346186,0
2.580118179321289,0.9406494223703306,[1.49982406],0.005,0.1,-0.07831081107344129,0.632625261361635,0
2.5894381999969482,0.9447527954218007,[1.50604022],0.005,0.1,-0.18353434912596744,0.9896638477116928,0
2.5993001461029053,0.948660769756534,[1.51220267],0.005,0.1,0.08952826762211968,0.7691674243640815,0
2.6074397563934326,0.9519825479410575,[1.51831342],0.005,0.1,0.15540443014371574,0.8560599606404578,0
2.616499423980713,0.9556951235590542,[1.52437511],0.005,0.1,-0.13585312931524576,0.927644097064332,0
2.6241226196289062,0.9584307055933676,[1.53039085],0.005,0.1,-0.20910021372415483,0.7390242210549824,0
2.633089065551758,0.9619478824946276,[1.53635351],0.005,0.1,-0.19572177656465437,0.8440398431163181,0
2.6435041427612305,0.9668328504130442,[1.54227948],0.005,0.1,0.12139519647709777,1.214902222973979,0
2.654703140258789,0.9709362234645145,[1.54820507],0.005,0.1,0.19856865115864705,1.2052531580276642,0
2.662114381790161,0.9736718054988278,[1.55414006],0.005,0.1,-0.09460384695404674,0.9167251848690574,0
2.671145439147949,0.9773843811168246,[1.56007157],0.005,0.1,-0.17415136138282672,0.9993678116223758,0
2.679114818572998,0.980706159301348,[1.56598917],0.005,0.1,0.10833057269136873,0.7988761709585152,0
2.6907286643981934,0.9855911272197647,[1.57189596],0.005,0.1,0.17637609515843894,1.2197669508145421,0
2.699099540710449,0.9887175066875513,[1.5778179],0.005,0.1,0.16032793067736023,1.2504908854042174,0
2.707798480987549,0.9924300823055481,[1.58377773],0.005,0.1,0.11832681508227758,1.2778128080845748,0
2.715108871459961,0.9955564617733349,[1.58976091],0.005,0.1,0.07452913941047397,1.2866156185962454,0
2.7249438762664795,0.9994644361080682,[1.59574412],0.005,0.1,0.03758018009876996,1.7018083143488778,0
2.7341017723083496,1.003177011726065,[1.6017313],0.005,0.1,0.009405847563046466,1.244388033057215,0
2.742122173309326,1.0063033911938517,[1.60772635],0.005,0.1,-0.010702802139793768,1.30406340628231,0
2.7511587142944336,1.0100159668118485,[1.61373353],0.005,0.1,-0.024265224901221703,1.3598921211782795,0
2.7591042518615723,1.0133377449963719,[1.61975682],0.005,0.1,-0.03285171956403886,1.0557166612613735,0
2.7691900730133057,1.0176365167645787,[1.62578816],0.005,0.1,-0.037810310758419646,1.1874753245836212,0
2.779656410217285,1.0217398898160488,[1.63183347],0.005,0.1,-0.04020486097988725,1.2993333429510332,0
2.788656711578369,1.0248662692838355,[1.63791053],0.005,0.1,-0.04083636713426596,1.392792235540186,0
2.7991998195648193,1.029165041052042,[1.64403476],0.005,0.1,-0.040290150524142185,1.4642172998082679,0
2.8090944290161133,1.0332684141035122,[1.65021939],0.005,0.1,-0.0389850065334058,1.5310009440656012,0
2.818098306655884,1.036980989721509,[1.65647581],0.005,0.1,-0.03721564520597452,1.5853481852911175,0
2.8280997276306152,1.0412797614897158,[1.66281331],0.005,0.1,-0.03518639680585111,1.6287717783870455,0
2.8362648487091064,1.0447969383909759,[1.66923926],0.005,0.1,-0.033036785202737326,1.673471410352042,0
2.845390796661377,1.0485095140089724,[1.67575942],0.005,0.1,-0.03086040143037945,1.7129167294204173,0
2.8537919521331787,1.051831292193496,[1.68236511],0.005,0.1,-0.02871858511912173,1.3128560016844986,0
2.861848831176758,1.0551530703780192,[1.68903539],0.005,0.1,-0.026650221608021142,1.4626492245411298,0
2.871777057647705,1.0590610447127526,[1.69576525],0.005,0.1,-0.024678696306427293,1.5864730097389086,0
2.8800837993621826,1.0625782216140127,[1.70255013],0.005,0.1,-0.022816798359867017,1.2518686059296527,0
2.8913776874542236,1.067267790815693,[1.70938618],0.005,0.1,-0.021070159451142302,1.9166152930788198,0
2.9000771045684814,1.0705895690002163,[1.71629682],0.005,0.1,0.25659870624677183,1.9523523468274375,0
2.9097988605499268,1.074302144618213,[1.72330168],0.005,0.1,0.29123990033464686,1.985570412820392,0
2.9175143241882324,1.0774285240859998,[1.73039011],0.005,0.1,-0.03848888119538238,1.5177336720835246,0
2.926265239715576,1.0809457009872598,[1.73753911],0.005,0.1,-0.14639610013063692,1.6878818273203025,0
2.9350357055664062,1.08446287788852,[1.74474279],0.005,0.1,0.11542070856762171,1.8312075776585666,0
2.9441115856170654,1.0881754535065165,[1.75199598],0.005,0.1,0.16912005232967797,1.443731809129614,0
2.95285701751709,1.0918880291245132,[1.75926632],0.005,0.1,0.14357325643949687,1.2002832748995367,0
2.9626259803771973,1.0957960034592467,[1.76652664],0.005,0.1,-0.1803981439555273,1.4865851883602919,0
2.9728996753692627,1.1000947752274535,[1.77378303],0.005,0.1,-0.2607045635199102,1.7192528072382378,0
2.9834115505218506,1.10439354699566,[1.78106976],0.005,0.1,0.03187417490139466,2.521793662664095,0
2.9926235675811768,1.1081061226136568,[1.78843058],0.005,0.1,0.11251112411652998,2.511722476102617,0
3.002861499786377,1.1122094956651272,[1.79588828],0.005,0.1,0.10823166336700463,2.514094513219357,0
3.0127010345458984,1.1161174699998604,[1.80344759],0.005,0.1,0.07612343619076437,2.5335319763732143,0
3.020810842514038,1.119243849467647,[1.81111215],0.005,0.1,0.040241428154441636,2.567139438561313,0
3.0281596183776855,1.1221748302186971,[1.81886963],0.005,0.1,0.009478947070163782,1.9561889169328,0
3.0367109775543213,1.125887405836694,[1.82669432],0.005,0.1,-0.01390392229433488,2.1685226598593923,0
3.046828508377075,1.1301861776049007,[1.83457915],0.005,0.1,-0.030300964438334545,2.345816680012543,0
3.0541985034942627,1.1331171583559507,[1.84251788],0.005,0.1,-0.040969520636746824,1.8482412305064135,0
3.064786434173584,1.1374159301241575,[1.85050513],0.005,0.1,-0.047274844435287344,2.8233251468045792,0
3.073956251144409,1.140737708308681,[1.85856676],0.005,0.1,-0.0504098977461431,2.8858204311298525,0
3.083113193511963,1.1444502839266775,[1.86670935],0.005,0.1,-0.051323545057888054,2.194784811043729,0
3.0913734436035156,1.1481628595446745,[1.8749073],0.005,0.1,-0.050732424108059726,2.42708625242155,0
3.101057529449463,1.152461631312881,[1.88315383],0.005,0.1,-0.3251986513478252,2.6184370582314167,0
3.1099233627319336,1.1561742069308776,[1.89145853],0.005,0.1,-0.08010565835558107,2.7750577104309238,0
3.1191132068634033,1.1594959851154014,[1.8998137],0.005,0.1,0.010640643104454311,2.162347750914327,0
3.1299517154693604,1.1639901556003445,[1.90821253],0.005,0.1,-0.24172053478218486,3.245010059591812,0
3.140599489212036,1.1680935286518146,[1.9166801],0.005,0.1,-0.2776746911239657,3.2576306330764173,0
3.1490437984466553,1.171610705553075,[1.92522101],0.005,0.1,-0.23378240052986626,2.4646741273101935,0
3.1584341526031494,1.1753232811710714,[1.9338066],0.005,0.1,-0.16971370042895048,2.6849162437488348,0
3.166764974594116,1.1788404580723315,[1.94242664],0.005,0.1,-0.10928468508085314,2.834460022889408,0
3.174412250518799,1.1817714388233818,[1.95108637],0.005,0.1,-0.06019774491833826,2.953527942813035,0
3.1835339069366455,1.1856794131581152,[1.95978829],0.005,0.1,-0.023367098657462032,2.9996396410961377,0
3.192197561264038,1.1893919887761117,[1.96851735],0.005,0.1,0.002799603361402902,2.3004046660809236,0
3.201474666595459,1.1931045643941083,[1.97724385],0.005,0.1,0.29656560638918883,2.4941301106534195,0
3.2110862731933594,1.1970125387288422,[1.98595542],0.005,0.1,0.3410858968111413,2.618763183818605,0
3.219071388244629,1.2003343169133653,[1.99464032],0.005,0.1,0.016758822153410985,2.0575299722385822,0
3.228065013885498,1.2038514938146252,[2.00327295],0.005,0.1,-0.08887770606212296,2.2575076256208915,0
3.237427234649658,1.2079548668660955,[2.01184375],0.005,0.1,-0.10295840548953941,2.3808141804445047,0
3.2465248107910156,1.211667442484092,[2.02035643],0.005,0.1,-0.08364729429017842,2.4404494221828323,0
3.2540760040283203,1.214598423235142,[2.02879941],0.005,0.1,-0.056249363665358224,1.9169273116218486,0
3.263047456741333,1.2185063975698756,[2.03714848],0.005,0.1,-0.30681645131893814,2.0495695021898785,0
3.27204966545105,1.2220235744711359,[2.04539391],0.005,0.1,-0.319560371109469,2.1234338623355495,0
3.281564712524414,1.225931548805869,[2.05353792],0.005,0.1,-0.24946916163463353,2.136792293832317,0
3.2902088165283203,1.2290579282736558,[2.06158014],0.005,0.1,-0.1630287403969099,2.1207104760711637,0
3.29805850982666,1.2321843077414425,[2.06950792],0.005,0.1,-0.36182956780051756,1.680624218620718,0
3.3060929775238037,1.235506085925966,[2.07729893],0.005,0.1,-0.3343256055678421,1.7535395223052077,0
3.315073013305664,1.2392186615439627,[2.08493422],0.005,0.1,-0.23516534662961452,1.450264045567964,0
3.324047327041626,1.2429312371619592,[2.09239791],0.005,0.1,-0.1289502251908306,1.5484559336127832,0
3.3357205390930176,1.2476208063636394,[2.09969491],0.005,0.1,0.23694145128056707,1.9238481744584328,0
3.344844341278076,1.2515287806983728,[2.10684696],0.005,0.1,0.0620095431703742,1.8243849053193402,0
3.353041172027588,1.2546551601661597,[2.11385353],0.005,0.1,0.02146374852637107,1.4587436573296977,0
3.363058567047119,1.2589539319343666,[2.12069579],0.005,0.1,0.30767477809714516,1.455814566059922,0
3.3720805644989014,1.2628619062690998,[2.12736564],0.005,0.1,0.3649909524308447,1.4509856421065384,0
3.381263017654419,1.2665744818870965,[2.13386442],0.005,0.1,0.3333330188256599,1.4235143177293337,0
3.38908314704895,1.2697008613548835,[2.14018587],0.005,0.1,0.2750404336231582,1.2015037646663027,0
3.3990423679351807,1.2738042344063532,[2.14631747],0.005,0.1,0.21594659659141127,1.2211366940145743,0
3.411076545715332,1.2786892023247702,[2.15226215],0.005,0.1,0.16523122634753565,1.3911139291542534,0
3.4204397201538086,1.2824017779427668,[2.15803553],0.005,0.1,0.12486686803953052,1.3189309450875115,0
3.428417444229126,1.2857235561272902,[2.16363826],0.005,0.1,0.09400636123686903,1.120136445346133,0
3.4380440711975098,1.289436131745287,[2.16905894],0.005,0.1,0.0709415145767047,1.1151298562665846,0
3.4470410346984863,1.292953308646547,[2.17429427],0.005,0.1,0.05391789317283528,1.1033302980610313,0
3.4564132690429688,1.2970566816980171,[2.17934774],0.005,0.1,0.04142701965022061,1.0834142270559572,0
3.4650392532348633,1.300573858599277,[2.18422256],0.005,0.1,0.03227183267879082,1.0618463862906624,0
3.4761030673980713,1.3052634278009572,[2.18892184],0.005,0.1,0.025542960309335366,1.0355451647403908,0
3.4840447902679443,1.308389807268744,[2.19344431],0.005,0.1,0.02056733146813687,0.9395393561492968,0
3.492563247680664,1.3121023828867409,[2.19778532],0.005,0.1,0.01685480854531713,0.9427147716896661,0
3.500769853591919,1.3152287623545271,[2.20194644],0.005,0.1,0.014052127380973983,0.9415483772415582,0
3.5080742835998535,1.3181597431055774,[2.20593035],0.005,0.1,0.011906299155540463,0.8803798119083402,0
3.5185861587524414,1.322458514873784,[2.20973968],0.005,0.1,-0.2658015503292747,0.9334276913992127,0
3.5274553298950195,1.3263664892085176,[2.21338132],0.005,0.1,-0.30024790097490806,0.8689827601150619,0
3.5350611209869385,1.3292974699595674,[2.21685888],0.005,0.1,0.029822092118737348,0.8710691632548947,0
3.545095920562744,1.333205444294301,[2.22017658],0.005,0.1,0.13815682442451332,0.8663202538567915,0
3.5548441410064697,1.3371134186290345,[2.22334246],0.005,0.1,0.15285132172543703,0.8582986062923534,0
3.563045024871826,1.3402397980968213,[2.22636107],0.005,0.1,0.1327674930069176,0.8196551135157296,0
3.572809934616089,1.3443431711482912,[2.22923128],0.005,0.1,0.10370776085051318,0.7938630071766967,0
3.5833826065063477,1.3490327403499716,[2.23195616],0.005,0.1,0.07603464376674374,0.8210568545683375,0
3.5939857959747314,1.3533315121181781,[2.234548],0.005,0.1,0.05315349325694811,0.8113602241428665,0
3.60532808303833,1.3580210813198583,[2.23702041],0.005,0.1,0.035524932661809804,0.8247063463978713,0
3.6140263080596924,1.3615382582211184,[2.23938273],0.005,0.1,0.022510833340329047,0.7846967583311442,0
3.625129461288452,1.3662278274227981,[2.24164079],0.005,0.1,0.28922349909868644,0.7946454392522395,0
3.634998321533203,1.3701358017575318,[2.24380231],0.005,0.1,0.3158237350507366,0.7787738958444324,0
3.644033193588257,1.3740437760922652,[2.24587439],0.005,0.1,0.25626383895370397,0.76508078442169,0
3.654664993286133,1.378342547860472,[2.24786114],0.005,0.1,0.17720159452775539,0.7521450428756924,0
3.6623198986053467,1.3816643260449955,[2.24976457],0.005,0.1,0.10475500124663945,0.7302339241682496,0
3.672067403793335,1.385376901662992,[2.25158498],0.005,0.1,0.04694644034252529,0.7251736446073836,0
3.6820149421691895,1.3892848759977254,[2.25332526],0.005,0.1,0.0042715951514205736,0.7187915321500963,0
3.692047119140625,1.3933882490491956,[2.25499035],0.005,0.1,-0.02547323213553226,0.7113053371932525,0
3.7007031440734863,1.3967100272337187,[2.25658492],0.005,0.1,-0.04509739768715091,0.7054704977369991,0
3.708036184310913,1.3998364067015054,[2.25811165],0.005,0.1,-0.057192949932971776,0.6920167819146192,0
3.717416524887085,1.4035489823195024,[2.2595716],0.005,0.1,-0.06387981836850418,0.6873231154440155,0
3.7268285751342773,1.407261557937499,[2.26096786],0.005,0.1,-0.06678802779388383,0.6818307841174658,0
3.739088535308838,1.4123419245726525,[2.26230678],0.005,0.1,-0.06712549289363887,0.6795623460959203,0
3.7484936714172363,1.4166406963408593,[2.26359554],0.005,0.1,-0.06576555403687903,0.6690636874735271,0
3.756049633026123,1.4195716770919091,[2.26483592],0.005,0.1,-0.06332825284045321,0.6648938380586372,0
3.7640302181243896,1.4226980565596958,[2.26602525],0.005,0.1,-0.06024718916392373,0.6578146645206587,0
3.774556875228882,1.4268014296111662,[2.26716611],0.005,0.1,-0.05682126979736772,0.6548685229639767,0
3.783067226409912,1.4301232077956894,[2.2682639],0.005,0.1,-0.05325337634064044,0.6403313983951224,0
3.7920515537261963,1.434031182130423,[2.26932066],0.005,0.1,-0.04967862646761179,0.632697757947205,0
3.8002946376800537,1.4371575615982095,[2.27033705],0.005,0.1,-0.0461847277868082,0.6233567381218182,0
3.810030698776245,1.4412609346496796,[2.27131396],0.005,0.1,-0.042826487205842034,0.6165190776365131,0
3.8190243244171143,1.4449735102676766,[2.27225377],0.005,0.1,-0.03963607639687039,0.6102817835719627,0
3.829458236694336,1.4492722820358832,[2.27316118],0.005,0.1,-0.03663025191147646,0.6058158676134197,0
3.8378336429595947,1.4527894589371433,[2.27404031],0.005,0.1,0.24222295182725137,0.5954315835590046,0
3.8474905490875244,1.456697433271877,[2.27489237],0.005,0.1,0.2779718678744611,0.588472954385226,0
3.8580830097198486,1.4611916037568202,[2.27571851],0.005,0.1,0.2253132468215418,0.5801635215943348,0
3.8670196533203125,1.4650995780915532,[2.27652095],0.005,0.1,0.15148877786057396,0.5730532882856477,0
3.876066207885742,1.4688121537095502,[2.27730162],0.005,0.1,0.0830576896415213,0.5662926749503524,0
3.8861889839172363,1.4727201280442836,[2.2780621],0.005,0.1,0.02836848450726382,0.5591112793325674,0
3.896050453186035,1.4768235010957538,[2.27880373],0.005,0.1,-0.01184530711226451,0.5515627089929562,0
3.9089388847351074,1.4819038677309073,[2.27952863],0.005,0.1,-0.03961525148706914,0.5438376122609199,0
3.918139934539795,1.4854210446321672,[2.28023862],0.005,0.1,-0.05762660459987843,0.535449276217288,0
3.926024913787842,1.488547424099954,[2.28093335],0.005,0.1,-0.0683820149797828,0.5302456568057538,0
3.935838222503662,1.4922599997179506,[2.28161255],0.005,0.1,-0.0739368996477093,0.5238740788005873,0
3.94445538520813,1.495777176619211,[2.28227617],0.005,0.1,-0.07587454415379696,0.5170696927857613,0
3.9554669857025146,1.5004667458208907,[2.28292417],0.005,0.1,-0.35140715002034684,0.5098781464906338,0
3.963750123977661,1.503788524005414,[2.28355837],0.005,0.1,-0.38243089285143705,0.5042032154335485,0
3.971721887588501,1.5071103021899377,[2.28417949],0.005,0.1,-0.3242390999329883,0.4979421071766736,0
3.979846954345703,1.510432080374461,[2.28478648],0.005,0.1,-0.24448547595844738,0.49259058504990977,0
3.989652156829834,1.5141446559924576,[2.28537933],0.005,0.1,-0.1700083052275928,0.48648554860755977,0
3.998903274536133,1.518052630327191,[2.28595812],0.005,0.1,-0.10934071521724653,0.4796363905779052,0
4.008033037185669,1.5219606046619245,[2.28652228],0.005,0.1,0.21270379596037364,0.47322523412035145,0
4.018035173416138,1.5260639777133946,[2.28707214],0.005,0.1,0.2791324133999406,0.4664656912531173,0
4.026811838150024,1.5295811546146547,[2.28760887],0.005,0.1,0.24728168678151413,0.46082060331673774,0
4.038055658340454,1.534075325099598,[2.28813347],0.005,0.1,0.1868692691925033,0.45337343210266456,0
4.048044204711914,1.5379832994343312,[2.28864749],0.005,0.1,0.12649591522260295,0.44746488385105726,0
4.056007146835327,1.5411096789021181,[2.28915228],0.005,0.1,0.07608812600962939,0.44211799325895645,0
4.064025163650513,1.5444314570866415,[2.28964692],0.005,0.1,0.0375536710867656,0.4368932526091253,0
4.071994304656982,1.547753235271165,[2.29013002],0.005,0.1,0.009713332187616837,0.4317386536985251,0
4.080393314361572,1.5512704121724252,[2.29060181],0.005,0.1,-0.28554875662604196,0.42627401338318555,0
4.089589595794678,1.555373785223895,[2.29106324],0.005,0.1,-0.055317547600645736,0.4198047039458735,0
4.099411487579346,1.5592817595586286,[2.29151512],0.005,0.1,0.025004024506652192,0.4137156227930706,0
4.108124494552612,1.5624081390264153,[2.29195756],0.005,0.1,-0.23454481314692702,0.40905938148219717,0
4.116106271743774,1.5657299172109387,[2.29239007],0.005,0.1,-0.27536474615281575,0.4040285160631324,0
4.12437105178833,1.5692470941121985,[2.29281293],0.005,0.1,-0.23469380763714554,0.39871348241342347,0
4.13304328918457,1.5727642710134586,[2.29322644],0.005,0.1,-0.17269396111789156,0.3935599913824437,0
4.143008232116699,1.5768676440649287,[2.29363089],0.005,0.1,-0.11353384952679715,0.38721699364899004,0
4.153183698654175,1.5807756183996624,[2.29402774],0.005,0.1,-0.06516614759047325,0.38136729151611737,0
4.162055253982544,1.5842927953009225,[2.29441769],0.005,0.1,-0.02868147115989457,0.3763139338516564,0
4.171292781829834,1.588200769635656,[2.29480014],0.005,0.1,-0.0026110398099571455,0.37053939729385166,0
4.17934775352478,1.5911317503867057,[2.29517521],0.005,0.1,0.2912223148239283,0.36637484712079105,0
4.190328121185303,1.595625920871649,[2.29554361],0.005,0.1,0.3359139659181566,0.35979978048265876,0
4.198036432266235,1.5989476990561724,[2.29590542],0.005,0.1,0.287859607173704,0.35528846187520835,0
4.2070231437683105,1.6026602746741694,[2.29626019],0.005,0.1,-0.060421313542115385,0.3499662901845042,0
4.216336727142334,1.6061774515754295,[2.29660811],0.005,0.1,-0.16243839683548741,0.34500713453144133,0
4.224062204360962,1.6096946284766893,[2.29694938],0.005,0.1,-0.1638260178910615,0.3403471103110154,0
4.233003854751587,1.6136026028114228,[2.2972837],0.005,0.1,-0.13058139189085952,0.3348286637800093,0
4.242035150527954,1.6173151784294195,[2.29761134],0.005,0.1,-0.09093468457598566,0.32968803017432813,0
4.252428770065308,1.6214185514808896,[2.29793308],0.005,0.1,-0.3317065249314381,0.32402946381701575,0
4.26053524017334,1.6249357283821497,[2.29824959],0.005,0.1,-0.33700764999135924,0.3193040535960058,0
4.270510911941528,1.62845290528341,[2.29856144],0.005,0.1,-0.26143589916479815,0.3146376550917584,0
4.28071403503418,1.6325562783348797,[2.2988691],0.005,0.1,-0.17104448416984533,0.30918690347732636,0
4.290030002593994,1.6362688539528767,[2.29917295],0.005,0.1,-0.09100297235170329,0.3043403221093912,0
4.2980101108551025,1.6397860308541365,[2.29947288],0.005,0.1,-0.028409980933680995,0.30006373861047575,0
4.306020736694336,1.6431078090386602,[2.29976832],0.005,0.1,0.017012838317259582,0.2957745673189453,0
4.316018104553223,1.6470157833733936,[2.30005928],0.005,0.1,0.048072372412890474,0.29075692841591094,0
4.325741291046143,1.6505329602746535,[2.30034623],0.005,0.1,0.06802874874142059,0.28633684545126886,0
4.333030939102173,1.6534639410257037,[2.30062914],0.005,0.1,0.07980185178160973,0.2829996545322977,0
4.343051910400391,1.65776271279391,[2.30090758],0.005,0.1,0.08574542902395113,0.2775689454095175,0
4.352989196777344,1.662061484562117,[2.30118162],0.005,0.1,0.0876536741350333,0.27221829758103483,0
4.363059759140015,1.6663602563303237,[2.30145218],0.005,0.1,0.08684813163912407,0.2667269904269527,0
4.3711137771606445,1.669682034514847,[2.30172008],0.005,0.1,0.08427962502834346,0.26305490346596233,0
4.380002975463867,1.6731992114161074,[2.30198477],0.005,0.1,0.08062010472828239,0.2591833879266327,0
4.391729831695557,1.678084179334524,[2.30224579],0.005,0.1,0.07633714562050531,0.25302327001335867,0
4.400187730789185,1.6814059575190474,[2.302504],0.005,0.1,0.07175115569976523,0.2492239756699935,0
4.408135175704956,1.684532336986834,[2.30275972],0.005,0.1,0.0670779140737212,0.24597726667790393,0
4.418167352676392,1.6886357100383043,[2.3030124],0.005,0.1,-0.21357880133998344,0.24124650826972716,0
4.428030014038086,1.6927390830897744,[2.303262],0.005,0.1,0.024862245588635076,0.2365967937964493,0
4.43745756149292,1.696451658707771,[2.30350928],0.005,0.1,0.1088122664492775,0.23226709621235395,0
4.445479869842529,1.6997734368922943,[2.30375487],0.005,0.1,0.12575992575523476,0.22895318216547822,0
4.4550299644470215,1.7036814112270278,[2.30399851],0.005,0.1,0.11640365026331212,0.2247115427213964,0
4.4645891189575195,1.7073939868450245,[2.30423999],0.005,0.1,0.09895835630681764,0.22073901202105922,0
4.4731035232543945,1.7109111637462844,[2.30447911],0.005,0.1,0.08103550398078654,0.2173094637538962,0
4.4854896068573,1.7157961316647015,[2.30471576],0.005,0.1,0.06539179375386116,0.21182771994323657,0
4.492994070053101,1.7189225111324882,[2.30495054],0.005,0.1,0.0526695707009906,0.20867278109417325,0
4.50173020362854,1.7226350867504847,[2.30518357],0.005,0.1,0.04267325404980252,0.2051837766425498,0
4.51186990737915,1.7267384598019548,[2.30541425],0.005,0.1,0.0349419003750943,0.2009930088590196,0
4.520751237869263,1.730646434136688,[2.30564243],0.005,0.1,0.0289895191724261,0.19707676937392157,0
4.529886960983276,1.7341636110379486,[2.305868],0.005,0.1,0.024393045304242605,0.19389353259045117,0
4.538585662841797,1.7376807879392087,[2.30609052],0.005,0.1,0.02081378708909376,0.19040834386323294,0
4.549563646316528,1.742174958424152,[2.30631035],0.005,0.1,0.017992365929984606,0.18578578210770783,0
4.55893087387085,1.7460829327588854,[2.30652848],0.005,0.1,0.015735129932017804,0.18212849267233583,0
4.568004846572876,1.7496001096601452,[2.30674503],0.005,0.1,0.013899614836371645,0.17914055578985355,0
4.575963735580444,1.7529218878446686,[2.30695947],0.005,0.1,0.2884202060400855,0.1760679228278801,0
4.584608793258667,1.756243666029192,[2.30717167],0.005,0.1,0.044230789313640384,0.17304193272852825,0
4.592458248138428,1.7595654442137154,[2.30738154],0.005,0.1,-0.0450796705813286,0.17031983269753362,0
4.601372241973877,1.762887222398239,[2.30758866],0.005,0.1,-0.06700916294960885,0.167291487021288,0
4.611246824264526,1.766990595449709,[2.30779305],0.005,0.1,0.21376708940976633,0.16364171984162637,0
4.620960712432861,1.771093968501179,[2.30799506],0.005,0.1,0.26006353887158495,0.16003575356225663,0
4.630940198898315,1.7748065441191758,[2.30819499],0.005,0.1,0.21894040393623576,0.15685347197000904,0
4.640000104904175,1.7787145184539093,[2.30839309],0.005,0.1,0.15485427361539345,0.15354543736280638,0
4.650322675704956,1.7828178915053792,[2.30858961],0.005,0.1,0.09369217225798433,0.1501258223638877,0
4.658999443054199,1.7863350684066395,[2.3087844],0.005,0.1,0.043968101417702576,0.1475028333941402,0
4.6685240268707275,1.7902430427413727,[2.30897735],0.005,0.1,0.006847032646503701,0.14404613768105473,0
4.677024602890015,1.7937602196426328,[2.30916867],0.005,0.1,-0.01924503078359755,0.1415026619099011,0
4.687007665634155,1.797863592694103,[2.30935827],0.005,0.1,-0.036597322072846175,0.1382172837539538,0
4.696015119552612,1.8015761683120999,[2.30954606],0.005,0.1,-0.04739930352288222,0.13531719041704074,0
4.705163478851318,1.8052887439300964,[2.30973227],0.005,0.1,-0.053470917086860435,0.13246567163242948,0
4.7129833698272705,1.8084151233978831,[2.30991681],0.005,0.1,-0.0562240946093764,0.13034828945724117,0
4.722992897033691,1.8125184964493533,[2.31009932],0.005,0.1,-0.05671094286189779,0.1272243117226147,0
4.731011867523193,1.8158402746338766,[2.31027978],0.005,0.1,-0.055695000607252285,0.12474812377843686,0
4.740080833435059,1.8195528502518732,[2.3104582],0.005,0.1,-0.053719848830314734,0.12227206444796362,0
4.749084711074829,1.8228746284363966,[2.31063431],0.005,0.1,-0.05116647223890014,0.1198200983999695,0
4.757830858230591,1.82619640662092,[2.31080819],0.005,0.1,-0.04829805114268259,0.11743433581815177,0
4.766998529434204,1.829908982238917,[2.3109802],0.005,0.1,-0.04529360911052427,0.11481903100760123,0
4.776093006134033,1.8338169565736502,[2.31115067],0.005,0.1,-0.0422726890137535,0.11212349282506108,0
4.7861127853393555,1.83792032962512,[2.31131985],0.005,0.1,-0.0393131655303523,0.10933528771350641,0
4.794260740280151,1.8412421078096437,[2.3114877],0.005,0.1,-0.036463963231991386,0.10734202315933662,0
4.803191900253296,1.8449546834276405,[2.31165392],0.005,0.1,-0.0337540652331148,0.10486434667957951,0
4.8109941482543945,1.8482764616121639,[2.31181823],0.005,0.1,-0.031198855055707964,0.10290648957177073,0
4.818999528884888,1.8514028410799506,[2.31198041],0.005,0.1,-0.028804558029819887,0.10083269953368686,0
4.82738184928894,1.8545292205477373,[2.31214058],0.005,0.1,-0.02657133677723844,0.0988228778995595,0
4.836261510848999,1.8580463974489976,[2.31229914],0.005,0.1,-0.02449543792033869,0.09660770973464326,0
4.843984842300415,1.861368175633521,[2.31245642],0.005,0.1,-0.022570672402678578,0.09456600058527748,0
4.8545143604278564,1.8658623461184642,[2.31261268],0.005,0.1,-0.02078942919967701,0.09184438143985618,0
4.863386631011963,1.8691841243029876,[2.31276814],0.005,0.1,-0.019143363240302892,0.08988293988664682,0
4.870972633361816,1.8721151050540379,[2.31292274],0.005,0.1,-0.2936622162054107,0.08836148804530587,0
4.878969192504883,1.8748506870883508,[2.31307566],0.005,0.1,-0.3253852847276366,0.08680486857632103,0
4.889545202255249,1.8789540601398211,[2.31322624],0.005,0.1,-0.5450344639019564,0.08422201433858027,0
4.899148225784302,1.8830574331912913,[2.31337492],0.005,0.1,-0.5008837334176032,0.08194667912938518,0
4.907866716384888,1.886183812659078,[2.31352235],0.005,0.1,-0.6502058256929792,0.08023793947896533,0
4.9182045459747314,1.8900917869938112,[2.31366886],0.005,0.1,-0.5496141397775813,0.07813670116592018,0
4.927011013031006,1.8936089638950713,[2.31381471],0.005,0.1,-0.6571056276100855,0.07626827034111276,0
4.9381256103515625,1.8979077356632779,[2.31396013],0.005,0.1,-0.8032912471698401,0.07402160249724259,0
4.9469664096832275,1.9010341151310648,[2.31410528],0.005,0.1,-0.9245216144634681,0.07242313109103292,0
4.956967115402222,1.9049420894657982,[2.31425028],0.005,0.1,-0.7275500016893526,0.07045419406980899,0
4.9655070304870605,1.9082638676503216,[2.31439524],0.005,0.1,-0.7328497174189066,0.06881060113060741,0
4.972945928573608,1.9106086522511616,[2.31453975],0.005,0.1,-0.7934796583289235,0.06767259283234742,0
4.981971502304077,1.9141258291524215,[2.31468299],0.005,0.1,-0.8508844870743155,0.06597823732268154,0
4.993189334869385,1.9180338034871551,[2.31482499],0.005,0.1,-0.6100949387174028,0.06399505144249816,0
5.0025670528411865,1.9215509803884152,[2.31496649],0.005,0.1,-0.5877540355354554,0.062401065704329434,0
5.011227607727051,1.9250681572896753,[2.31510788],0.005,0.1,-0.6329453192779979,0.06082145311408938,0
5.020462512969971,1.9279991380407253,[2.31524924],0.005,0.1,-0.6837002794679043,0.05952138174506963,0
5.027981758117676,1.930539321358302,[2.3153904],0.005,0.1,-0.7183988976840203,0.05856162255360754,0
5.036980152130127,1.933470302109352,[2.31553096],0.005,0.1,-0.7327138495513895,0.05724934492437745,0
5.045984506607056,1.9369874790106119,[2.31567084],0.005,0.1,-0.7289528538050624,0.055712060112429844,0
5.05698561668396,1.940504655911872,[2.31581017],0.005,0.1,-0.7113385578731369,0.05421191602892087,0
5.06695294380188,1.9438264340963956,[2.31594905],0.005,0.1,-0.6840741528141723,0.052820013331541064,0
5.075870752334595,1.9467574148474456,[2.31608755],0.005,0.1,-0.6506737597437313,0.05161836675220376,0
5.084534168243408,1.950079193031969,[2.31622577],0.005,0.1,-0.6138355681000216,0.05026893254334224,0
5.092270135879517,1.9528147750662823,[2.31636356],0.005,0.1,-0.5755236349107228,0.0493080977657429,0
5.101733684539795,1.9559411545340692,[2.31650058],0.005,0.1,-0.5371101406309331,0.048052515461702396,0
5.110966682434082,1.9586767365683826,[2.31663671],0.005,0.1,-0.49951718590551086,0.04698896540950282,0
5.1215293407440186,1.9621939134696424,[2.31677211],0.005,0.1,-0.7393752597623306,0.045629044212393104,0
5.132742166519165,1.9653202929374292,[2.3169071],0.005,0.1,-0.7380886679938854,0.04436742999818764,0
5.142332553863525,1.9680558749717427,[2.31704196],0.005,0.1,-0.9265792419929556,0.043479481110591654,0
5.151970148086548,1.9711822544395294,[2.3171765],0.005,0.1,-0.8532075437267097,0.04234075313146922,0
5.16153621673584,1.9741132351905792,[2.31731054],0.005,0.1,-0.6992183259368269,0.04130506504518021,0
5.169061660766602,1.9762626210746828,[2.3174441],0.005,0.1,-0.5401375983292673,0.04056582887204476,0
5.177991628646851,1.9788028043922596,[2.31757698],0.005,0.1,-0.40316109162590963,0.03979102953149314,0
5.186394453048706,1.981342987709836,[2.31770883],0.005,0.1,-0.2944897472277612,0.03890256598280298,0
5.195330858230591,1.983883171027413,[2.31783957],0.005,0.1,-0.21204634356087348,0.03804244819250127,0
5.205288648605347,1.9870095504951997,[2.31796935],0.005,0.1,-0.42720638706207636,0.03700408862620221,0
5.215764045715332,1.989745132529513,[2.31809825],0.005,0.1,-0.41614949596270745,0.03611522250306875,0
5.226649522781372,1.9928715119973,[2.31822636],0.005,0.1,-0.3293577672793362,0.03512102690149384,0
5.235996246337891,1.9954116953148764,[2.31835373],0.005,0.1,-0.5067559158150905,0.034323166887366585,0
5.245626449584961,1.9979518786324533,[2.31848044],0.005,0.1,-0.4533981259251125,0.03354605574484892,0
5.2544944286346436,2.0002966632332932,[2.31860654],0.005,0.1,-0.33043412643010894,0.032839778664059724,0
5.264005899429321,2.00283684655087,[2.31873187],0.005,0.1,-0.20445487782908933,0.0321586503299026,0
5.275109767913818,2.0055724285851833,[2.3188563],0.005,0.1,-0.375025677394932,0.03127004050076729,0
5.2840187549591064,2.00811261190276,[2.31897991],0.005,0.1,-0.32813847274554925,0.030606173660457994,0
5.292983293533325,2.0102619977868637,[2.31910258],0.005,0.1,-0.4922390576279694,0.029982093130745492,0
5.302050828933716,2.0126067823877034,[2.31922419],0.005,0.1,-0.411153371241735,0.02932204297492697,0
5.313886880874634,2.015342364422017,[2.31934503],0.005,0.1,-0.5376285051441749,0.028509387366953895,0
5.3225672245025635,2.0176871490228567,[2.31946534],0.005,0.1,-0.42441804599773625,0.027933430845861005,0
5.3312389850616455,2.019445737473487,[2.31958498],0.005,0.1,-0.2504457965753597,0.0274617332183943,0
5.3404200077056885,2.0215951233575904,[2.31970383],0.005,0.1,-0.3629959881941671,0.026892936005585556,0
5.349954843521118,2.023549110524957,[2.31982199],0.005,0.1,-0.2660275578836675,0.02638454812743545,0
5.358964204788208,2.0256984964090607,[2.31993952],0.005,0.1,-0.11682580237626561,0.02583805893340768,0
5.366921663284302,2.0272616861429538,[2.32005628],0.005,0.1,0.022248659926559333,0.02549335599479152,0
5.374962091445923,2.0288248758768472,[2.32017179],0.005,0.1,0.1313710020608922,0.025144387605128108,0
5.383977890014648,2.030583464327477,[2.32028567],0.005,0.1,0.20853906447072776,0.024687136565908808,0
5.39301872253418,2.0325374514948438,[2.32039799],0.005,0.1,0.2582534481777628,0.02419269016776949,0
5.401824951171875,2.034296039945474,[2.32050902],0.005,0.1,0.010544613381354512,0.023760986702681845,0
5.4110267162323,2.0360546283961036,[2.32061897],0.005,0.1,-0.009957994843755688,0.023338899376521897,0
5.422191858291626,2.038594811713681,[2.32072804],0.005,0.1,0.04671479338795632,0.02273478149265053,0
5.431949853897095,2.0405487988810473,[2.32083637],0.005,0.1,-0.15912870768457046,0.022281030591995207,0
5.442054986953735,2.0425027860484137,[2.3209441],0.005,0.1,-0.1324442845384055,0.021833804521747265,0
5.453025817871094,2.0444567732157806,[2.32105133],0.005,0.1,-0.03436657877708027,0.021394453900457088,0
5.461092948913574,2.0458245642329373,[2.32115818],0.005,0.1,0.06847739883698217,0.021096560470451983,0
5.468972444534302,2.047192355250094,[2.32126452],0.005,0.1,0.15249403145487325,0.02083336675242026,0
5.477926969528198,2.0487555449839876,[2.32137007],0.005,0.1,0.21265517040917525,0.020490546936935864,0
5.489069223403931,2.0507095321513544,[2.3214749],0.005,0.1,0.2511523619575402,0.020043697465737025,0
5.4978413581848145,2.0520773231685108,[2.32157925],0.005,0.1,-0.0036928919751463285,0.01978337115688059,0
5.507027864456177,2.0536405129024042,[2.32168298],0.005,0.1,-0.028491140723123476,0.01945711886463049,0
5.515794515609741,2.0552037026362977,[2.32178592],0.005,0.1,0.02583930714910651,0.01913432106936859,0
5.525060415267944,2.056571493653454,[2.32188809],0.005,0.1,0.09501633855162649,0.01885840566257959,0
5.53394889831543,2.058134683387348,[2.32198949],0.005,0.1,0.15469013782176844,0.01854465621193132,0
5.542675495147705,2.0595024744045043,[2.32208995],0.005,0.1,0.47414795250872244,0.01829949816459427,0
5.54996657371521,2.0606748667049244,[2.32218899],0.005,0.1,0.5348311002606427,0.018088878402155027,0
5.559788465499878,2.0622380564388174,[2.32228626],0.005,0.1,0.49424103398343167,0.017773278252380065,0
5.569440603256226,2.0636058474559746,[2.32238171],0.005,0.1,0.42282221297376316,0.01750416380462983,0
5.5775861740112305,2.0647782397563947,[2.32247546],0.005,0.1,0.349972242376396,0.017278998750098386,0
5.5859599113464355,2.066146030773551,[2.32256758],0.005,0.1,0.28630326911672266,0.017020612541471948,0
5.598264217376709,2.067709220507444,[2.32265821],0.005,0.1,-0.04178631698887303,0.016711070701093574,0
5.606457233428955,2.0688816128078646,[2.32274748],0.005,0.1,-0.1161425235883361,0.01651174583645701,0
5.6139609813690186,2.0698586063915476,[2.32283523],0.005,0.1,-0.09327519244980981,0.016334988781361998,0
5.623228549957275,2.071030998691968,[2.32292123],0.005,0.1,-0.0423273727665818,0.01613514133661688,0
5.632967472076416,2.0722033909923883,[2.32300529],0.005,0.1,0.008490206961442329,0.01592029961698226,0
5.641950607299805,2.073375783292808,[2.32308733],0.005,0.1,0.32554698647065117,0.015712382160011654,0
5.650330305099487,2.0743527768764913,[2.32316739],0.005,0.1,0.3881470766863501,0.015539867041986313,0
5.657924652099609,2.0751343717434376,[2.3232454],0.005,0.1,0.35226033088834807,0.015416481191615653,0
5.669199466705322,2.076502162760595,[2.32332263],0.005,0.1,0.28725218162486654,0.01516853026069301,0
5.676974296569824,2.077479156344278,[2.32341048],0.005,0.1,0.49780982230475235,0.02212674737981806,0
5.687010765075684,2.0786515486446984,[2.32352727],0.005,0.1,0.47508161807090005,0.019432761704439534,0
5.694952011108398,2.0794331435116447,[2.32367547],0.005,0.1,0.37585275116238137,0.014917565941296378,0
5.704483270645142,2.080410137095328,[2.32384457],0.005,0.1,0.266333922571277,0.014921498882976315,0
5.713988780975342,2.0813871306790115,[2.32403099],0.005,0.1,0.17111429667987518,0.015365106667485333,0
5.723965406417847,2.082364124262695,[2.32423679],0.005,0.1,0.09653737141695766,0.015188736902428866,0
5.734495639801025,2.0833411178463783,[2.32446228],0.005,0.1,0.04161856309938957,0.014973760983378867,0
5.746010065078735,2.084513510146798,[2.32470663],0.005,0.1,0.002964819261334222,0.014953811583494386,0
5.755081415176392,2.0852951050137447,[2.32496892],0.005,0.1,-0.023142940316193607,0.014628170819434905,0
5.76495623588562,2.086272098597428,[2.32524711],0.005,0.1,-0.03997270335832272,0.014323214767263831,0
5.774102210998535,2.086858294747638,[2.32553804],0.005,0.1,0.22590073558094215,0.013995312019028665,0
5.782991170883179,2.087639889614585,[2.32583822],0.005,0.1,0.25353948365409185,0.01385832936719731,0
5.79133939743042,2.0884214844815316,[2.32614468],0.005,0.1,0.19617282533060537,0.013721429760308882,0
5.800925016403198,2.089203079348478,[2.32645489],0.005,0.1,0.39601837700357156,0.01358633400833693,0
5.811969995498657,2.089984674215425,[2.32676637],0.005,0.1,0.35992502527483244,0.013462724582667212,0
5.820246696472168,2.0905708703656347,[2.32707651],0.005,0.1,0.25039798317588613,0.01335387808847192,0
5.829940557479858,2.091547863949318,[2.32738276],0.005,0.1,0.41106901465710965,0.013229320629309468,0
5.843029499053955,2.0925248575330015,[2.32768329],0.005,0.1,0.3472451419951579,0.01312970081761833,0
5.851952314376831,2.0931110536832116,[2.32797671],0.005,0.1,0.21909350430091934,0.013045683153786583,0
5.860958099365234,2.0936972498334216,[2.32826125],0.005,0.1,0.36798637505526854,0.012981236924313118,0
5.871798276901245,2.0942834459836317,[2.32853525],0.005,0.1,0.2973437359073838,0.012929769254518041,0
5.880478382110596,2.095260439567315,[2.32879758],0.005,0.1,0.16586463917821423,0.01280777928158016,0
5.888933420181274,2.0958466357175247,[2.32904726],0.005,0.1,0.31382521549493225,0.012751541333797573,0
5.8972766399383545,2.096432831867735,[2.32928351],0.005,0.1,0.2438485947676225,0.012694618982037751,0
5.906594276428223,2.096823629301208,[2.32950587],0.005,0.1,0.11406557139312754,0.012667638853359631,0
5.916635036468506,2.097409825451418,[2.32971396],0.005,0.1,0.264353233629371,0.01260969184412582,0
5.924205541610718,2.0978006228848916,[2.32990755],0.005,0.1,0.19705840232512273,0.012578005225599789,0
5.934002161026001,2.098386819035102,[2.33008662],0.005,0.1,0.07012332522073872,0.012513337192877306,0
5.943979024887085,2.098777616468575,[2.33025134],0.005,0.1,0.22329863339460426,0.012477743517658567,0
5.953119516372681,2.0995592113355217,[2.330402],0.005,0.1,0.1588482337955894,0.012378053449225481,0
5.964951038360596,2.1001454074857318,[2.33053898],0.005,0.1,0.034661753411987004,0.012303623530269701,0
5.975435733795166,2.100731603635942,[2.33066283],0.005,0.1,0.19045810492636597,0.012230845733060736,0
5.985479116439819,2.101122401069415,[2.33077415],0.005,0.1,0.12848376458637317,0.012185745990620623,0
5.992918014526367,2.1015131985028885,[2.33087354],0.005,0.1,0.2826589406375103,0.012140266102842091,0
6.00351619720459,2.101903995936362,[2.3309617],0.005,0.1,0.1977107105505394,0.012090605790132969,0
6.012634515762329,2.1022947933698353,[2.33103935],0.005,0.1,0.3255707385557044,0.012042203341529018,0
6.020999193191528,2.1026855908033086,[2.33110721],0.005,0.1,0.21771641180419826,0.011989831533066073,0
6.0315656661987305,2.1030763882367816,[2.33116583],0.005,0.1,0.32788014764087337,0.011950969152725619,0
6.040549278259277,2.103662584386992,[2.33121562],0.005,0.1,0.20734166837158513,0.0118596935110023,0
6.047916889190674,2.1040533818204654,[2.33125727],0.005,0.1,0.3089696465575731,0.011800176517664535,0
6.056923151016235,2.1042487805372017,[2.33129167],0.005,0.1,0.4591182724301318,0.011775458411826405,0
6.065825462341309,2.104639577970675,[2.33131954],0.005,0.1,0.31481452899414536,0.011718939503497314,0
6.074814796447754,2.1050303754041484,[2.33134151],0.005,0.1,0.3753754192243859,0.011661459462000806,0
6.084919691085815,2.1052257741208855,[2.33135821],0.005,0.1,0.48589164732071455,0.011633169895473573,0
6.09391450881958,2.1056165715543584,[2.33137024],0.005,0.1,0.30962635142509565,0.01157452812145522,0
6.102876663208008,2.105811970271095,[2.33137817],0.005,0.1,0.346830654485809,0.011544415271583933,0
6.112901449203491,2.1062027677045685,[2.33138253],0.005,0.1,0.165503023296428,0.011484469635749657,0
6.121907472610474,2.106398166421305,[2.33138384],0.005,0.1,0.22231268260360743,0.011454115726260972,0
6.129906177520752,2.106593565138042,[2.33138254],0.005,0.1,0.06630260231239213,0.011422823596686331,0
6.13936448097229,2.1069843625715152,[2.33137908],0.005,0.1,0.1466492095767653,0.011362473573538812,0
6.1468846797943115,2.1069843625715152,[2.33137383],0.005,0.1,0.01003866466020692,0.011360336572578112,0
6.155919313430786,2.107179761288252,[2.33136716],0.005,0.1,0.10544181597828609,0.011329358338449409,0
6.165024995803833,2.1073751600049886,[2.33135938],0.005,0.1,-0.01987688273693526,0.01129780268779984,0
6.174235582351685,2.1075705587217253,[2.33135078],0.005,0.1,0.08381941786453989,0.01126644689028723,0
6.181903600692749,2.107765957438462,[2.33134159],0.005,0.1,0.2405504181173354,0.011235445033827235,0
6.191357851028442,2.107961356155198,[2.33133204],0.005,0.1,0.10565473691372798,0.011203555873311049,0
6.199057579040527,2.1081567548719353,[2.33132233],0.005,0.1,0.17725594654556942,0.011172565356204223,0
6.209132432937622,2.108352153588672,[2.33131264],0.005,0.1,0.29961785383782535,0.01114107210977561,0
6.2169342041015625,2.108352153588672,[2.33130315],0.005,0.1,0.13544216946647888,0.011139080867450975,0
6.2260448932647705,2.1085475523054082,[2.33129396],0.005,0.1,0.18460781425508455,0.011108455695915434,0
6.234931468963623,2.1085475523054082,[2.33128519],0.005,0.1,0.29091260075229797,0.011106510837421486,0
6.245887756347656,2.1087429510221454,[2.33127692],0.005,0.1,0.1158889705575018,0.0110759446541131,0
6.2546117305755615,2.1087429510221454,[2.33126926],0.005,0.1,0.15817977195688343,0.011074268240504193,0
6.2639546394348145,2.108938349738882,[2.33126224],0.005,0.1,-0.015525948878447438,0.011043990667658538,0
6.2742228507995605,2.108938349738882,[2.33125592],0.005,0.1,0.050446208150571686,0.011042653592806612,0
6.282282829284668,2.108938349738882,[2.33125031],0.005,0.1,-0.09558378216009476,0.0110416150827587,0
6.291964054107666,2.108938349738882,[2.33124544],0.005,0.1,-0.00494740069050708,0.011040818682596454,0
6.305372953414917,2.1091337484556187,[2.33124131],0.005,0.1,-0.13130435085728936,0.011011242246556995,0
6.316884994506836,2.1091337484556187,[2.33123793],0.005,0.1,-0.025911321390329006,0.011010452252188618,0
6.328912973403931,2.1091337484556187,[2.3312353],0.005,0.1,-0.14164689790202373,0.011010146267509771,0
6.3368821144104,2.1091337484556187,[2.3312334],0.005,0.1,-0.028858003548118766,0.011009927587364632,0
6.348643064498901,2.1091337484556187,[2.33123317],0.005,0.1,0.13643217653984596,0.011090381480339634,0
6.359435081481934,2.1091337484556187,[2.33123563],0.005,0.1,0.009547090620306675,0.011010961163310079,0
6.368703126907349,2.1091337484556187,[2.33123957],0.005,0.1,0.08861352996229802,0.011017884459298752,0
6.377482175827026,2.1091337484556187,[2.33124313],0.005,0.1,0.21791037460397827,0.011023562106819242,0
6.38591742515564,2.1091337484556187,[2.33124496],0.005,0.1,0.33620008477498997,0.01107055002746475,0
6.395915985107422,2.1091337484556187,[2.33124307],0.005,0.1,0.4244360516966568,0.011168307367903205,0
6.407395362854004,2.1091337484556187,[2.33123476],0.005,0.1,0.48113664695655567,0.011323475931823148,0
6.414891719818115,2.1091337484556187,[2.33121762],0.005,0.1,0.5111360996785069,0.011317932801968808,0
6.422882556915283,2.1091337484556187,[2.33118968],0.005,0.1,0.520704255289925,0.011571314091757386,0
6.4318928718566895,2.1091337484556187,[2.33114821],0.005,0.1,0.5156271326021048,0.01187149528655524,0
6.440880060195923,2.1091337484556187,[2.33108984],0.005,0.1,0.5006113580213883,0.01224204014586184,0
6.449867486953735,2.1091337484556187,[2.33101125],0.005,0.1,0.4792409984052399,0.012620104768201426,0
6.45937705039978,2.1091337484556187,[2.33090926],0.005,0.1,0.4541339387538874,0.0130577132311461,0
6.470071315765381,2.1091337484556187,[2.33078086],0.005,0.1,0.42714439575991003,0.013482929857634407,0
6.48039984703064,2.1091337484556187,[2.33062333],0.005,0.1,0.399550973549344,0.013910661302304653,0
6.488586902618408,2.1091337484556187,[2.3304343],0.005,0.1,0.37221124076845147,0.01429350998168792,0
6.49608850479126,2.1091337484556187,[2.33021304],0.005,0.1,0.34568121032306204,0.013481741089024838,0
6.505858898162842,2.1091337484556187,[2.32996035],0.005,0.1,0.32030443529045194,0.013982470566275594,0
6.513875246047974,2.1091337484556187,[2.32967725],0.005,0.1,0.29627694253346737,0.013247900164015693,0
6.5223777294158936,2.1091337484556187,[2.32936508],0.005,0.1,0.27369381898265965,0.013700459389819003,0
6.533867359161377,2.1091337484556187,[2.32902448],0.005,0.1,0.25258224996310263,0.01390500219846081,0
6.542551755905151,2.1091337484556187,[2.32865705],0.005,0.1,0.23292473261676644,0.012649396370432803,0
6.551344394683838,2.1091337484556187,[2.32827988],0.005,0.1,0.2146752514136105,0.015311876938574479,0
6.560180425643921,2.1091337484556187,[2.32791427],0.005,0.1,0.19777045626019502,0.010862628856095666,0
6.569865942001343,2.1091337484556187,[2.32755909],0.005,0.1,0.18213731561882207,0.010751329992555592,0
6.580253839492798,2.1091337484556187,[2.32720939],0.005,0.1,0.16769829666476205,0.010453477570907683,0
6.588984251022339,2.1091337484556187,[2.32686968],0.005,0.1,0.15437481893531124,0.010389630155894216,0
6.598891019821167,2.1091337484556187,[2.32654329],0.005,0.1,0.14208950842155627,0.010340627478940868,0
6.607171058654785,2.1091337484556187,[2.32623198],0.005,0.1,0.13076762264781022,0.010294557426672271,0
6.616587162017822,2.1091337484556187,[2.325937],0.005,0.1,0.12033790646558491,0.010250099149912246,0
6.624967336654663,2.1091337484556187,[2.32565924],0.005,0.1,0.11073306008886522,0.01020881611742631,0
6.633645296096802,2.1091337484556187,[2.32539933],0.005,0.1,0.1018899458800289,0.010168109741537274,0
6.643595218658447,2.1091337484556187,[2.32515764],0.005,0.1,0.09374962177836912,0.010133346800783405,0
6.653908729553223,2.1091337484556187,[2.32493426],0.005,0.1,0.0862572622091954,0.010100495429004305,0
6.663877248764038,2.1091337484556187,[2.32472903],0.005,0.1,0.07936200839111476,0.010070845894803093,0
6.67257833480835,2.1091337484556187,[2.32454162],0.005,0.1,0.07301677674962814,0.010043678223846265,0
6.682527542114258,2.1091337484556187,[2.32437156],0.005,0.1,0.06717804493989156,0.01001909489976322,0
6.691909313201904,2.1091337484556187,[2.32421827],0.005,0.1,0.061805628580549894,0.009996915779758309,0
6.701980352401733,2.1091337484556187,[2.32408111],0.005,0.1,0.056862457361543634,0.009977342890907822,0
6.7099785804748535,2.1091337484556187,[2.32395937],0.005,0.1,0.05231435612099805,0.009960099444983255,0
6.721029281616211,2.1091337484556187,[2.3238523],0.005,0.1,0.048129834375768524,0.009945147176301461,0
6.730855703353882,2.1091337484556187,[2.32375911],0.005,0.1,0.04427988634711516,0.00993236976539687,0
6.740992546081543,2.1091337484556187,[2.323679],0.005,0.1,0.04073780254447802,0.00992167160571905,0
6.751398086547852,2.1091337484556187,[2.32361119],0.005,0.1,0.03747899331458546,0.009912757095073166,0
6.761851787567139,2.1091337484556187,[2.32355488],0.005,0.1,0.0344808243310212,0.009905570055991159,0
6.7715911865234375,2.1091337484556187,[2.32350927],0.005,0.1,0.031722463721679625,0.009900420365227772,0
6.779415130615234,2.1091337484556187,[2.32347361],0.005,0.1,0.02918474035995251,0.009896032277567404,0
6.7869532108306885,2.1091337484556187,[2.32344708],0.005,0.1,0.026850012746365934,0.00989188646332497,0
6.796221017837524,2.1091337484556187,[2.32342889],0.005,0.1,0.02470204785730571,0.009890862873515318,0
6.805596113204956,2.1091337484556187,[2.32341833],0.005,0.1,0.022725909320176707,0.009890965361312594,0
6.812886714935303,2.1091337484556187,[2.32341472],0.005,0.1,0.020907854278581946,0.009889079200479019,0
6.821234703063965,2.1091337484556187,[2.32341733],0.005,0.1,0.01923523832910929,0.009891118361894711,0
6.830187797546387,2.1091337484556187,[2.32342558],0.005,0.1,0.017696427937750406,0.009894568680315373,0
6.841922760009766,2.1091337484556187,[2.32343895],0.005,0.1,0.016280719775209302,0.00989744875640676,0
6.852904558181763,2.1091337484556187,[2.32345706],0.005,0.1,0.01497826644392789,0.00990607833823375,0
6.861523389816284,2.1091337484556187,[2.32347953],0.005,0.1,0.013780008103928383,0.009905377182082259,0
6.869905471801758,2.1091337484556187,[2.32350579],0.005,0.1,0.012677609538474438,0.00990597891386869,0
6.88036584854126,2.1091337484556187,[2.32353532],0.005,0.1,0.011663402233398717,0.009916446741338627,0
6.888796329498291,2.1091337484556187,[2.32356777],0.005,0.1,0.010730331075328382,0.009918067994116375,0
6.897266864776611,2.1091337484556187,[2.3236028],0.005,0.1,0.00987190530372321,0.009924167451021359,0
6.90692925453186,2.1091337484556187,[2.32364004],0.005,0.1,0.009082153379520123,0.009931734741046333,0
6.915153741836548,2.1091337484556187,[2.3236793],0.005,0.1,0.00835558145922486,0.009938659978893634,0
6.923836946487427,2.1091337484556187,[2.32372037],0.005,0.1,0.0076871351875332965,0.009946245258459755,0
6.934099435806274,2.108938349738882,[2.32376308],0.005,0.1,0.007072164544063132,0.009980429608000175,0
6.942679405212402,2.108938349738882,[2.32380719],0.005,0.1,0.0065063915006108395,0.009981148715929955,0
6.951863527297974,2.108938349738882,[2.32385238],0.005,0.1,0.005985880264612912,0.009990098132543776,0
6.961542129516602,2.108938349738882,[2.32389838],0.005,0.1,0.005507009902279527,0.009992477704786553,0
6.969938516616821,2.108938349738882,[2.32394497],0.005,0.1,0.005066449151282126,0.010002182940186255,0
6.9798314571380615,2.108938349738882,[2.32399203],0.005,0.1,0.004661133248009016,0.010011032136305298,0
6.992276191711426,2.108938349738882,[2.32403964],0.005,0.1,0.004288242608348925,0.010027172678817317,0
7.001981973648071,2.108938349738882,[2.32408795],0.005,0.1,0.003945183213807449,0.010033594510743463,0
7.010632276535034,2.108938349738882,[2.32413701],0.005,0.1,0.003629568566591357,0.010039879802420463,0
7.020246982574463,2.108938349738882,[2.32418675],0.005,0.1,0.003339203088186006,0.010046578387684212,0
7.030254364013672,2.108938349738882,[2.32423711],0.005,0.1,0.0030720668459764985,0.010053451026573838,0
7.038846731185913,2.108938349738882,[2.32428793],0.005,0.1,0.0028263015016901393,0.010053165825711937,0
7.0468361377716064,2.1087429510221454,[2.32433902],0.005,0.1,0.002600197383929156,0.010089178700163412,0
7.059174060821533,2.108938349738882,[2.32439031],0.005,0.1,0.002392181594876781,0.01007751241597577,0
7.069910287857056,2.1087429510221454,[2.32444197],0.005,0.1,0.0022008070684500125,0.010110948064094015,0
7.0778234004974365,2.1087429510221454,[2.32449392],0.005,0.1,0.0020247425037883725,0.010110310926742744,0
7.087854862213135,2.1087429510221454,[2.32454597],0.005,0.1,0.0018627631040553547,0.010119235603892043,0
7.096426486968994,2.1087429510221454,[2.32459791],0.005,0.1,0.0017137420561299669,0.010120554585970913,0
7.104902982711792,2.1087429510221454,[2.32464951],0.005,0.1,0.0015766426919188946,0.010124545977401991,0
7.116633415222168,2.1087429510221454,[2.32470061],0.005,0.1,0.0014505112767609102,0.0101400860421145,0
7.128906965255737,2.1087429510221454,[2.32475142],0.005,0.1,0.0013344703747569075,0.010153586942822628,0
7.138943910598755,2.1087429510221454,[2.32480215],0.005,0.1,0.0012277127448721637,0.01015848122130255,0
7.150964975357056,2.1085475523054082,[2.3248529],0.005,0.1,0.0011294957253494566,0.010197017350796492,0
7.159135818481445,2.1085475523054082,[2.32490371],0.005,0.1,0.0010391360673684446,0.010200347093913967,0
7.168826341629028,2.1085475523054082,[2.32495499],0.005,0.1,0.0009560051820118323,0.010257968532943208,0
7.179595708847046,2.1085475523054082,[2.32501534],0.005,0.1,0.0008795247674738902,0.015855538896861,0
7.190959930419922,2.1085475523054082,[2.32509521],0.005,0.1,0.000809162786092081,0.010590898623517477,0
7.199815988540649,2.1085475523054082,[2.32519088],0.005,0.1,0.0007444297632159856,0.010463239671456835,0
7.208946704864502,2.108352153588672,[2.32529493],0.005,0.1,0.0006848753821665974,0.010319189306768615,0
7.219158172607422,2.108352153588672,[2.32540137],0.005,0.1,0.0006300853515987938,0.010653510979087143,0
7.227281808853149,2.108352153588672,[2.32550086],0.005,0.1,0.0005796785234747561,0.010945032550479,0
7.236446142196655,2.108352153588672,[2.32558405],0.005,0.1,0.0005333042415994816,0.012574471386373175,0
7.244945764541626,2.108352153588672,[2.32563962],0.005,0.1,0.000490639902273418,0.015397711776784052,0
7.255544900894165,2.108352153588672,[2.32565345],0.005,0.1,0.00045138871009287095,0.01956881926403721,0
7.264149904251099,2.108352153588672,[2.32561023],0.005,0.1,0.00041527761328636877,0.025253450591268746,0
7.27286958694458,2.1081567548719353,[2.32549762],0.005,0.1,0.00038205540422410906,0.02389787481873091,0
7.281763553619385,2.1081567548719353,[2.32530633],0.005,0.1,0.0003514909718866354,0.032624534449847684,0
7.2908525466918945,2.1081567548719353,[2.3250226],0.005,0.1,0.0003233716941360234,0.043097613693352195,0
7.299962759017944,2.1081567548719353,[2.3246286],0.005,0.1,0.00029750195860536407,0.05527465533265792,0
7.307831525802612,2.1081567548719353,[2.32411216],0.005,0.1,0.0002737018019170913,0.048082613538349056,0
7.316519498825073,2.1081567548719353,[2.3234667],0.005,0.1,0.0002518056577638331,0.06465744516136814,0
7.32602858543396,2.1081567548719353,[2.32267973],0.005,0.1,0.00023166120514280306,0.08251302679826056,0
7.336836814880371,2.1081567548719353,[2.32173352],0.005,0.1,0.00021312830873143214,0.10087092182948539,0
7.347452402114868,2.107961356155198,[2.32061139],0.005,0.1,0.00019607804403295505,0.11968760041396309,0
7.356940984725952,2.1081567548719353,[2.31929807],0.005,0.1,0.000180391800510345,0.13766057788252506,0
7.366891622543335,2.1081567548719353,[2.31777987],0.005,0.1,0.00016596045646953583,0.15582372561470387,0
7.375857591629028,2.107961356155198,[2.31604466],0.005,0.1,0.00015268361995198577,0.1742397350903761,0
7.385206937789917,2.1081567548719353,[2.31408171],0.005,0.1,0.00014046893035583597,0.19208075178182848,0
7.394246578216553,2.1081567548719353,[2.3118817],0.005,0.1,0.00012923141592737522,0.20990492446014095,0
7.40311861038208,2.107961356155198,[2.30943687],0.005,0.1,0.00011889290265318974,0.22656931013253423,0
7.412125110626221,2.1081567548719353,[2.30675112],0.005,0.1,0.0001093814704409376,0.17103509930349586,0
7.423025608062744,2.107961356155198,[2.30382823],0.005,0.1,0.00010063095280566465,0.28090021257125636,0
7.4317028522491455,2.107961356155198,[2.30066222],0.005,0.1,9.258047658121306e-05,0.2085653627823605,0
7.441468954086304,2.1081567548719353,[2.29725939],0.005,0.1,8.517403845471707e-05,0.2353726832018704,0
7.449873447418213,2.1081567548719353,[2.29362593],0.005,0.1,7.836011537834051e-05,0.25818124854275604,0
7.460700988769531,2.1081567548719353,[2.2897576],0.005,0.1,7.209130614807375e-05,0.2766582349420769,0
7.46990180015564,2.107961356155198,[2.28566309],0.005,0.1,6.632400165622829e-05,0.20740614393885184,0
7.480285406112671,2.1081567548719353,[2.28135058],0.005,0.1,6.1018081523730154e-05,0.33039947329848135,0
7.488809823989868,2.107961356155198,[2.27681684],0.005,0.1,5.613663500183188e-05,0.24028872235174528,0
7.496824741363525,2.1081567548719353,[2.27207188],0.005,0.1,5.164570420168556e-05,0.26738783333937405,0
7.50676965713501,2.1081567548719353,[2.26712453],0.005,0.1,4.751404786555076e-05,0.2856277701522607,0
7.516828775405884,2.1081567548719353,[2.26197112],0.005,0.1,4.3712924036306744e-05,0.3007369639311155,0
7.526813745498657,2.1081567548719353,[2.256609],0.005,0.1,4.021589011340225e-05,0.3103249541281759,0
7.534794807434082,2.1081567548719353,[2.25104968],0.005,0.1,3.699861890433007e-05,0.22577605428556397,0
7.546366453170776,2.1081567548719353,[2.24530374],0.005,0.1,3.4038729391983676e-05,0.34495290624709474,0
7.55584979057312,2.1081567548719353,[2.23935447],0.005,0.1,3.131563104062505e-05,0.3348968723073062,0
7.567531585693359,2.1081567548719353,[2.23317495],0.005,0.1,2.8810380557375065e-05,0.42534212132287846,0
7.574811935424805,2.1081567548719353,[2.22677101],0.005,0.1,2.650555011278509e-05,0.4026103942205861,0
7.582804918289185,2.108352153588672,[2.22019089],0.005,0.1,2.4385106103762286e-05,0.35702856984530595,0
7.591176986694336,2.108352153588672,[2.21346253],0.005,0.1,2.2434297615461314e-05,0.3229752278024558,0
7.601381301879883,2.1087429510221454,[2.20658221],0.005,0.1,0.2760589992324872,0.2937460215333222,0
7.6108434200286865,2.108938349738882,[2.19954728],0.005,0.1,0.5852203109083054,0.26844660149292804,0
7.620436429977417,2.1091337484556187,[2.1923563],0.005,0.1,0.8392844980854031,0.24456347493080757,0
7.62791633605957,2.1093291471723554,[2.1850238],0.005,0.1,1.0172638016332394,0.16329593956229022,0
7.637835264205933,2.109524545889092,[2.17757784],0.005,0.1,1.1247205393587656,0.16015917666189455,0
7.648929119110107,2.109524545889092,[2.17002797],0.005,0.1,0.8995172245706724,0.1509254347928567,0
7.658623218536377,2.109524545889092,[2.16235245],0.005,0.1,0.5991917959880839,0.17684225860854244,0
7.666921615600586,2.109524545889092,[2.15453349],0.005,0.1,0.32454857664250086,0.10748944155254612,0
7.677570343017578,2.109524545889092,[2.14658742],0.005,0.1,-0.16957570225149496,0.0885757592128617,0
7.6869142055511475,2.109524545889092,[2.13852874],0.005,0.1,-0.6384543609032023,0.06588361362894431,0
7.695964574813843,2.109524545889092,[2.13035497],0.005,0.1,-1.002455532362231,0.03989218269333338,0
7.705110788345337,2.109524545889092,[2.12206472],0.005,0.1,-1.2514964639796549,0.011404721441488934,0
7.714717388153076,2.109524545889092,[2.11365765],0.005,0.1,-1.4011844637930158,-0.019040178183490252,0
7.7241504192352295,2.1093291471723554,[2.10513428],0.005,0.1,-1.1975875263567324,-0.05038286144148395,0
7.733102321624756,2.1091337484556187,[2.09649596],0.005,0.1,-0.9045452069226764,-0.08300717784177371,0
7.742744207382202,2.1087429510221454,[2.08776085],0.005,0.1,-1.1796016920520989,-0.0794879698443611,0
7.750857830047607,2.108352153588672,[2.07897719],0.005,0.1,-1.2951316800930637,-0.077075042476538,0
7.7588136196136475,2.107765957438462,[2.0701861],0.005,0.1,-1.5978402178613271,-0.11779046463720708,0
7.767276048660278,2.107179761288252,[2.06139007],0.005,0.1,-1.6080931841727941,-0.16119864585540913,0
7.776190280914307,2.1062027677045685,[2.05257476],0.005,0.1,-2.3310453537019624,-0.20366625047445636,0
7.785897493362427,2.1052257741208855,[2.04372778],0.005,0.1,-3.118153210212264,-0.24535207491718874,0
7.795313835144043,2.1038579831037287,[2.03483863],0.005,0.1,-3.7389508666709887,-0.2846192637795009,0
7.802826642990112,2.1024901920865715,[2.02591492],0.005,0.1,-4.419416033264573,-0.2263588409539237,0
7.813830852508545,2.1003408062024684,[2.01696315],0.005,0.1,-5.0,-0.39091583017569215,0
7.8218278884887695,2.0985822177518383,[2.00797256],0.005,0.1,-5.0,-0.2986950777451326,0
7.830379962921143,2.096237433150998,[1.99895065],0.005,0.1,-5.0,-0.3502442689615283,0
7.83913254737854,2.0936972498334216,[1.98990374],0.005,0.1,-5.0,-0.39760417896883754,0
7.846831798553467,2.091547863949318,[1.98083727],0.005,0.1,-5.0,-0.3091180819015503,0
7.856267213821411,2.088226085764795,[1.97177233],0.005,0.1,-5.0,-0.3746416783517413,0
7.866924285888672,2.084513510146798,[1.96269325],0.005,0.1,-5.0,-0.5949475308861696,0
7.87681245803833,2.0806055358120648,[1.95357013],0.005,0.1,-5.0,-0.4329481482549423,0
7.8861024379730225,2.076697561477331,[1.94441123],0.005,0.1,-5.0,-0.4839404508639881,0
7.895801305770874,2.072789587142598,[1.93522369],0.005,0.1,-5.0,-0.5293382312651936,0
7.906389951705933,2.068100017940918,[1.92599693],0.005,0.1,-5.0,-0.5659617841361732,0
7.915429353713989,2.0641920436061842,[1.91672219],0.005,0.1,-5.0,-0.6012942093364709,0
7.922790288925171,2.0610656641383978,[1.90739236],0.005,0.1,-4.52128880288639,-0.6375046506589047,0
7.932527303695679,2.0567668923701907,[1.89800179],0.005,0.1,-3.1923855144917512,-0.6670107205535807,0
7.939868450164795,2.0534451141856676,[1.88856314],0.005,0.1,-1.5278650116470138,-0.4947886438731695,0
7.949844121932983,2.0493417411341976,[1.87910447],0.005,0.1,-0.05320028115005759,-0.572669436760121,0
7.959885358810425,2.0452383680827277,[1.86963259],0.005,0.1,1.6328597145875974,-0.6401617640549245,0
7.969484806060791,2.0411349950312574,[1.8601363],0.005,0.1,3.047043269967597,-0.6977622219288566,0
7.977076053619385,2.0378132168467338,[1.85062322],0.005,0.1,4.068423216790601,-0.5254406763232692,0
7.98689866065979,2.033514445078527,[1.8410998],0.005,0.1,4.996475492839094,-0.8695303305588443,0
7.994799613952637,2.0301926668940036,[1.83157148],0.005,0.1,5.0,-0.8997433144844651,0
8.002808809280396,2.027066287426217,[1.82205985],0.005,0.1,5.0,-1.2306229982466204,0
8.011270999908447,2.0233537118082205,[1.81256564],0.005,0.1,5.0,-0.8593898694734903,0
8.018772840499878,2.0204227310571703,[1.8031063],0.005,0.1,5.0,-0.6393319867770392,0
8.028803825378418,2.0161239592889637,[1.7937131],0.005,0.1,5.0,-0.7441847007162677,0
8.037776947021484,2.01221598495423,[1.78437717],0.005,0.1,5.0,-0.8341241742204194,0
8.047786951065063,2.007917213186023,[1.77507289],0.005,0.1,5.0,-0.9069492743188966,0
8.056829690933228,2.003618441417817,[1.76577799],0.005,0.1,4.945386109006659,-0.9674256785081156,0
8.069934844970703,1.9979518786324533,[1.75645602],0.005,0.1,4.478287549876227,-1.365103596371195,0
8.07820725440979,1.9946301004479299,[1.74707638],0.005,0.1,4.189416562920574,-0.9649719490200478,0
8.08842921257019,1.9901359299629864,[1.73764838],0.005,0.1,3.962547342971715,-1.0257510052630983,0
8.097856044769287,1.9860325569115163,[1.72818039],0.005,0.1,3.751197275673708,-1.0821122626746191,0
8.107608795166016,1.9819291838600464,[1.71866256],0.005,0.1,3.5399865210078243,-1.13076772347676,0
8.11779499053955,1.9772396146583662,[1.7090871],0.005,0.1,3.326470830143859,-1.1712191199955584,0
8.127260446548462,1.9735270390403694,[1.699448],0.005,0.1,3.1128632811265717,-1.2119296084696656,0
8.136422395706177,1.969619064705636,[1.68974092],0.005,0.1,2.902457228723657,-1.2487111690963002,0
8.145812511444092,1.9657110903709027,[1.67996297],0.005,0.1,2.698229721442423,-1.2839011119632453,0
8.155289888381958,1.961803116036169,[1.67011255],0.005,0.1,2.226377815737881,-1.3171307352280412,0
8.164790868759155,1.9578951417014356,[1.66018912],0.005,0.1,2.0073245417146124,-1.350036285784186,0
8.173583745956421,1.9539871673667024,[1.65021056],0.005,0.1,1.887204654656673,-0.9909040052934623,0
8.184433221817017,1.9489068007315489,[1.64021005],0.005,0.1,1.7991176408866627,-1.1185607118384717,0
8.193363904953003,1.9451942251135523,[1.63019849],0.005,0.1,1.7164923332410387,-1.2287630648769996,0
8.201108694076538,1.9414816494955554,[1.62016782],0.005,0.1,1.3546882357425591,-1.318982342649311,0
8.209768533706665,1.938159871311032,[1.61012882],0.005,0.1,1.5075518069645533,-0.9899625322618875,0
8.221257448196411,1.933470302109352,[1.60009061],0.005,0.1,1.5029653076202139,-1.59151032047929,0
8.229576110839844,1.9297577264913552,[1.59002591],0.005,0.1,1.4305157367374064,-1.6109178830762292,0
8.242092847824097,1.9244819611394652,[1.579912],0.005,0.1,1.3328134864461538,-1.62269558326708,0
8.25080394744873,1.9207693855214683,[1.56976521],0.005,0.1,1.2295495391033522,-1.1868604923390462,0
8.258787631988525,1.9170568099034717,[1.55961726],0.005,0.1,1.1293602808358314,-1.3324508432475144,0
8.266779661178589,1.913930430435685,[1.54947742],0.005,0.1,1.0356447081513394,-1.4559050313599355,0
8.276070356369019,1.9096316586674782,[1.53933595],0.005,0.1,0.9493918845368972,-1.5508862501524612,0
8.28682255744934,1.9057236843327447,[1.52918466],0.005,0.1,0.8705373999952019,-1.629616637317413,0
8.29547119140625,1.9018157099980113,[1.51901674],0.005,0.1,0.7986010838979676,-1.6955476479344986,0
8.303285837173462,1.8984939318134881,[1.50884413],0.005,0.1,0.7329771050915713,-1.2595903268047766,0
8.311913967132568,1.8947813561954912,[1.49869439],0.005,0.1,0.673058529604889,-1.437797149829177,0
8.321091890335083,1.890873381860758,[1.48857302],0.005,0.1,0.6182849209743781,-1.581923144092276,0
8.331790208816528,1.8863792113758147,[1.47846682],0.005,0.1,0.5681555582597461,-1.6956799667532907,0
8.340876579284668,1.882471237041081,[1.46836438],0.005,0.1,0.5222283549466036,-1.7892255642989106,0
8.350194692611694,1.8783678639896109,[1.45825595],0.005,0.1,0.48011367533089505,-1.8646815490977773,0
8.360786199569702,1.8742644909381412,[1.44813336],0.005,0.1,0.44146705336870395,-1.9274645856767036,0
8.370057821273804,1.8703565166034077,[1.43798994],0.005,0.1,0.40598239950341414,-1.9823806287083225,0
8.380393743515015,1.8658623461184642,[1.42782027],0.005,0.1,0.3733861948057339,-2.0290561851265836,0
8.388751029968262,1.8625405679339408,[1.41763758],0.005,0.1,0.3434327152947947,-1.5029381490413933,0
8.396785497665405,1.8588279923159439,[1.4074707],0.005,0.1,0.3159001618176133,-1.6949349310962696,0
8.40675687789917,1.8545292205477373,[1.39732623],0.005,0.1,0.29058752974217195,-1.8502759336524963,0
8.415847778320312,1.8508166449297407,[1.38719196],0.005,0.1,0.5433504217741916,-1.9758525375267124,0
8.423814296722412,1.8474948667452171,[1.37707491],0.005,0.1,0.5550701183426867,-1.491945869550285,0
8.435771703720093,1.8424145001100636,[1.36698083],0.005,0.1,0.204247962525144,-2.348201268825259,0
8.447796106338501,1.8371387347581736,[1.35687923],0.005,0.1,0.3529692836517248,-2.3590330456193596,0
8.459970951080322,1.8316675706895469,[1.34672682],0.005,0.1,0.35401256225775923,-3.118484507526658,0
8.47046971321106,1.8273687989213399,[1.33648759],0.005,0.1,0.3030571374899814,-2.915885781513253,0
8.477798223495483,1.8244378181702903,[1.32616721],0.005,0.1,0.2414029752917074,-2.078580081583424,0
8.486796617507935,1.820725242552293,[1.31582416],0.005,0.1,0.18512127475504853,-1.5771560356143484,0
8.495782375335693,1.8172080656510334,[1.30550819],0.005,0.1,0.1390415746783443,-1.8365494210183941,0
8.506333351135254,1.81271389516609,[1.29520839],0.005,0.1,0.1033335628682158,-2.7623824537977546,0
8.51579236984253,1.8086105221146198,[1.28488028],0.005,0.1,0.0765097541693472,-2.729878622735465,0
8.523864030838013,1.8052887439300964,[1.27452162],0.005,0.1,0.05672506547513381,-1.9978758573834354,0
8.53536343574524,1.8004037760116798,[1.26414846],0.005,0.1,0.042285363488571676,-2.9411117396659563,0
8.54423975944519,1.7964958016769463,[1.25373934],0.005,0.1,0.03180286623748386,-2.89004362918073,0
8.551819086074829,1.7933694222091594,[1.24329414],0.005,0.1,0.024204628994075633,-2.1136012800317,0
8.56004285812378,1.7896568465911629,[1.23284837],0.005,0.1,0.018688333001398945,-2.306426932799374,0
8.567755222320557,1.7867258658401126,[1.22243208],0.005,0.1,0.014666258334096228,-1.7771912281402142,0
8.576444864273071,1.783013290222116,[1.21207033],0.005,0.1,0.2877518816990953,-2.0744898421275435,0
8.585199356079102,1.779300714604119,[1.20176604],0.005,0.1,0.3186885331320102,-2.3176879515639213,0
8.594667911529541,1.7751973415526492,[1.19150335],0.005,0.1,0.2619509894329327,-2.505442684428424,0
8.605340957641602,1.7707031710677057,[1.18126829],0.005,0.1,0.18461907633097996,-2.6506162948592795,0
8.613762378692627,1.7671859941664456,[1.17106625],0.005,0.1,0.11313341085471054,-2.015062951476416,0
8.62612009048462,1.7619102288145554,[1.16090136],0.005,0.1,0.05575491262415584,-3.107486861820745,0
8.636882781982422,1.7574160583296121,[1.15072398],0.005,0.1,0.013151777959056875,-4.071615998839463,0
8.64832878112793,1.7527264891279322,[1.14047471],0.005,0.1,-0.016756915387095346,-3.7917479950549278,0
8.655769348144531,1.7496001096601452,[1.13017453],0.005,0.1,-0.03669426390816585,-3.8411088987627897,0
8.665775537490845,1.7454967366086753,[1.1198945],0.005,0.1,-0.04919241200962879,-3.6571327143870658,0
8.674813508987427,1.7413933635572052,[1.10964184],0.005,0.1,-0.0563301804926178,-4.576766555947807,0
8.685789346694946,1.7368991930722617,[1.09936963],0.005,0.1,-0.059709768560825535,-4.183487649182366,0
8.693777322769165,1.7335774148877383,[1.08907359],0.005,0.1,-0.06052058357967115,-2.9769760686424047,0
8.702903270721436,1.7298648392697418,[1.07880309],0.005,0.1,-0.059623951820211976,-2.261554064649471,0
8.715790748596191,1.7241982764843784,[1.06858199],0.005,0.1,-0.05763239481052673,-3.4538011359334915,0
8.725209474563599,1.7198995047161716,[1.05837721],0.005,0.1,-0.05497507896433927,-3.461957987888054,0
8.73485541343689,1.715991530381438,[1.04816063],0.005,0.1,-0.05194857783609155,-3.472092216142921,0
8.744782209396362,1.711888157329968,[1.03792619],0.005,0.1,-0.048754851327264474,-3.491201223509357,0
8.754793405532837,1.707589385561761,[1.02766903],0.005,0.1,-0.04552902806672074,-3.5143842261389504,0
8.762777328491211,1.7040722086605014,[1.01738532],0.005,0.1,-0.04235942773478365,-3.5470964588556297,0
8.77323579788208,1.6993826394588212,[1.00707224],0.005,0.1,-0.039301842116115156,-3.5756049127820426,0
8.784498453140259,1.6950838676906144,[0.9967278],0.005,0.1,-0.03638964439727949,-3.609679898094541,0
8.79539704322815,1.6901988997721975,[0.98633319],0.005,0.1,-0.03364090341597474,-4.737874249565867,0
8.806870460510254,1.6855093305705175,[0.97585573],0.005,0.1,-0.031063365449607833,-4.442940076597656,0
8.817883729934692,1.681015160085574,[0.96528637],0.005,0.1,-0.02865792668232195,-4.247225112035187,0
8.82775592803955,1.676911787034104,[0.9546362],0.005,0.1,-0.02642104210272661,-4.127504669557241,0
8.836777687072754,1.6730038126993705,[0.94393315],0.005,0.1,0.25169197214220507,-3.052668004120133,0
8.84828495979309,1.6681188447809538,[0.93320154],0.005,0.1,0.010698604409861992,-4.345771789028366,0
8.857287406921387,1.6642108704462204,[0.92242733],0.005,0.1,-0.07574830202431024,-4.248991534652294,0
8.866772174835205,1.6601074973947505,[0.91159921],0.005,0.1,0.18094100360493282,-4.186161609698735,0
8.875750064849854,1.6558087256265437,[0.90072578],0.005,0.1,0.22113954972723032,-4.157853760381307,0
8.883826971054077,1.6524869474420203,[0.88983237],0.005,0.1,0.18133667292820482,-3.1196608857440356,0
8.892986536026001,1.6485789731072868,[0.87895819],0.005,0.1,0.12115984446525305,-3.410467713924684,0
8.902790784835815,1.64486639748929,[0.86811868],0.005,0.1,0.0644022828409314,-3.6497764819212937,0
8.911767482757568,1.6411538218712933,[0.85730887],0.005,0.1,0.018756834453121925,-3.8386471911768267,0
8.920917749404907,1.63724584753656,[0.84652416],0.005,0.1,-0.014862960292267581,-3.9882716982823307,0
8.929814338684082,1.6331424744850898,[0.83577781],0.005,0.1,-0.03804437803971663,-3.0671378722028972,0
8.93820834159851,1.62962529758383,[0.82509803],0.005,0.1,-0.05300363648522033,-3.439737608830593,0
8.947766304016113,1.625912721965833,[0.8144903],0.005,0.1,-0.06183705689312589,-3.7420476610049147,0
8.957807302474976,1.6216139501976263,[0.80394077],0.005,0.1,-0.06627756289269526,-3.9737965017432773,0
8.966801404953003,1.6180967732963663,[0.79343691],0.005,0.1,-0.0676645235581266,-4.160850448932809,0
8.977755784988403,1.6132118053779496,[0.7829675],0.005,0.1,-0.06699274581687925,-4.30199130025082,0
8.98849892616272,1.6087176348930061,[0.7725225],0.005,0.1,-0.06498177912964259,-4.418498470223581,0
8.99798059463501,1.6044188631247993,[0.76209306],0.005,0.1,-0.062141895922819906,-4.51893220774893,0
9.009310483932495,1.5995338952063825,[0.75165375],0.005,0.1,-0.05882897665495297,-5.940370651388824,0
9.016707181930542,1.596407515738596,[0.74118314],0.005,0.1,-0.05528724671651504,-4.333520866910815,0
9.026761054992676,1.5923041426871256,[0.73068091],0.005,0.1,-0.05168132146973506,-5.830333365422831,0
9.035747051239014,1.588591567069129,[0.72016466],0.005,0.1,-0.048119675273060186,-5.907900509910581,0
9.046324729919434,1.5839019978674491,[0.70966701],0.005,0.1,-0.04467156360452404,-7.163031053251472,0
9.056957483291626,1.5799940235327155,[0.69917991],0.005,0.1,-0.317417452186456,-6.5298866103428415,0
9.06673812866211,1.5756952517645089,[0.68867856],0.005,0.1,-0.34742872091360427,-6.11041249277415,0
9.076894521713257,1.571396479996302,[0.67815962],0.005,0.1,-0.2894081563383375,-5.845814804813469,0
9.086635828018188,1.567293106944832,[0.66762028],0.005,0.1,-0.21059235083306033,-5.686724819523681,0
9.09674596786499,1.5627989364598887,[0.65705822],0.005,0.1,-0.1375283725842291,-5.597498034793086,0
9.104861736297607,1.559672556992102,[0.64648928],0.005,0.1,-0.3545866577869538,-4.241914474486139,0
9.11272668838501,1.5563507788075785,[0.63594455],0.005,0.1,-0.34352983806045845,-4.601061754205448,0
9.121827840805054,1.5524428044728453,[0.62543196],0.005,0.1,-0.25699839223799303,-4.895002456416441,0
9.129967451095581,1.5487302288548483,[0.61493969],0.005,0.1,-0.15952111081213424,-5.133292754506175,0
9.138801097869873,1.544822254520115,[0.60445717],0.005,0.1,-0.07512570046306057,-5.326787327842418,0
9.150883436203003,1.5399372866016983,[0.59397499],0.005,0.1,-0.010076272161535456,-5.480127356536419,0
9.158730745315552,1.5366155084171749,[0.58352094],0.005,0.1,0.036505273809354255,-5.543089695760153,0
9.166750431060791,1.5332937302326515,[0.57315397],0.005,0.1,0.06785160464959467,-5.690681021572599,0
9.17929720878601,1.5280179648807612,[0.56286836],0.005,0.1,0.08752217410231863,-7.444019093406981,0
9.188749313354492,1.524109990546028,[0.55260385],0.005,0.1,0.09864547410299018,-7.0557585542094055,0
9.1977219581604,1.5202020162112944,[0.54232764],0.005,0.1,0.3797577403294871,-6.777699500431105,0
9.207307815551758,1.5160986431598242,[0.53203094],0.005,0.1,0.41379967053504185,-6.577348523834599,0
9.218212366104126,1.5114090739581443,[0.52169054],0.005,0.1,0.35685138975625735,-8.075376090376352,0
9.227745294570923,1.5076964983401473,[0.51128924],0.005,0.1,0.27714221771148617,-5.827125226491607,0
9.23733401298523,1.503788524005414,[0.5008504],0.005,0.1,0.201923074755056,-5.796042228159015,0
9.246752262115479,1.4994897522372075,[0.49039714],0.005,0.1,0.14001828142969272,-5.7346819750249765,0
9.255804300308228,1.4955817779024738,[0.47995104],0.005,0.1,0.09248240004026226,-4.409215363057388,0
9.265845537185669,1.491478404851004,[0.46954936],0.005,0.1,0.057495336957607585,-4.658019617048503,0
9.274707555770874,1.4877658292330072,[0.45919534],0.005,0.1,0.032506591312044406,-5.971954759220578,0
9.28546929359436,1.4834670574648006,[0.44886506],0.005,0.1,0.01509508645806054,-5.561603559574782,0
9.294732332229614,1.4797544818468038,[0.43857242],0.005,0.1,0.0032504980237820415,-4.19806789638993,0
9.30546522140503,1.475455710078597,[0.42834907],0.005,0.1,-0.004590077497150416,-5.161188690027119,0
9.314745426177979,1.4715477357438635,[0.41819892],0.005,0.1,-0.009596570581045835,-4.764921866170987,0
9.324771881103516,1.4674443626923934,[0.40812943],0.005,0.1,-0.012624096587339274,-4.413114102293918,0
9.334242582321167,1.4631455909241868,[0.39816438],0.005,0.1,-0.014287676094341086,-4.108160956313524,0
9.341988325119019,1.4600192114564001,[0.38833777],0.005,0.1,-0.015024532609161858,-3.229982472057028,0
9.350731372833252,1.45591583840493,[0.37869097],0.005,0.1,-0.015142687191351142,-3.2229842365286143,0
9.360315084457397,1.4520078640701966,[0.36924924],0.005,0.1,-0.014857458134274283,-3.182223603145916,0
9.367799043655396,1.4488814846024096,[0.36003349],0.005,0.1,-0.014318243568607013,-2.6644929395090773,0
9.379335165023804,1.443996516683993,[0.35106203],0.005,0.1,-0.013627877513843773,-3.175300281060572,0
9.386732816696167,1.4406747384994696,[0.3423404],0.005,0.1,-0.01285647569982387,-2.643801784798963,0
9.396672248840332,1.4365713654479997,[0.33388137],0.005,0.1,-0.012051269007575895,-2.663761395416787,0
9.407700777053833,1.4318817962463195,[0.32568751],0.005,0.1,-0.011243551188061276,-3.0200741537132223,0
9.4168062210083,1.4281692206283225,[0.31775159],0.005,0.1,-0.010453568556894605,-2.5288014194695068,0
9.426604986190796,1.4240658475768528,[0.31008258],0.005,0.1,-0.009693950533678187,-2.5102083912123034,0
9.437716245651245,1.4197670758086463,[0.30268733],0.005,0.1,-0.008972109932272036,-2.4788515847450743,0
9.447712421417236,1.4154683040404392,[0.29555627],0.005,0.1,0.26774644162295774,-2.7061218138682572,0
9.458269357681274,1.410974133555496,[0.28867414],0.005,0.1,0.3015080923316398,-2.5580321371062236,0
9.466243267059326,1.407261557937499,[0.2820403],0.005,0.1,0.24700481022512744,-2.2327320273660365,0
9.473696231842041,1.4041351784697123,[0.27567159],0.005,0.1,0.1714717856296652,-2.0486925950411057,0
9.481839418411255,1.4010087990019255,[0.26958003],0.005,0.1,0.10146079719840266,-2.0876220458174206,0
9.491026878356934,1.397296223383929,[0.26376175],0.005,0.1,0.04531246264745492,-2.1028523677091555,0
9.499221563339233,1.393779046482669,[0.25820591],0.005,0.1,0.003752336658952495,-2.101857282584975,0
9.507395029067993,1.3902618695814086,[0.2529069],0.005,0.1,-0.025258990274541177,-1.9658245184716001,0
9.515729665756226,1.3867446926801488,[0.24786329],0.005,0.1,-0.0444143439116637,-1.9887222784433416,0
9.52646541595459,1.3826413196286786,[0.24306697],0.005,0.1,-0.056223584829391486,-1.9942253089298376,0
9.536781311035156,1.3781471491437352,[0.23850448],0.005,0.1,-0.06274893865908651,-1.9855402231906696,0
9.546740055084229,1.3736529786587917,[0.23416308],0.005,0.1,-0.06558007635494724,-1.969545254540394,0
9.55669093132019,1.3697450043240584,[0.23003074],0.005,0.1,-0.06589679937722374,-1.9515944882170277,0
9.566769123077393,1.3654462325558518,[0.2260961],0.005,0.1,-0.06455294190781033,-1.9289725902713146,0
9.576416969299316,1.3615382582211184,[0.22234843],0.005,0.1,0.21388328454228567,-1.9073519081607602,0
9.585065603256226,1.3576302838863845,[0.21877761],0.005,0.1,0.2500354116854092,-1.8852447534184813,0
9.595725297927856,1.3531361134014415,[0.2153741],0.005,0.1,0.19830272975437588,-1.8600062224173834,0
9.604750394821167,1.3492281390667082,[0.21212889],0.005,0.1,0.12572071611119134,-1.8384758441303788,0
9.616775512695312,1.343952373714818,[0.2090335],0.005,0.1,0.05870715165563157,-1.8107726440442302,0
9.626779079437256,1.3398490006633477,[0.20607992],0.005,0.1,0.005514719265148998,-1.7893288712074216,0
9.635798454284668,1.3363318237620878,[0.20326062],0.005,0.1,-0.03318692307732881,-1.771249097978008,0
9.644910335540771,1.3326192481440908,[0.20057129],0.005,0.1,-0.059470975902383746,-1.7180481681190776,0
9.65359091758728,1.3292974699595674,[0.19801006],0.005,0.1,0.19998941652343707,-1.715516507434644,0
9.661725997924805,1.3257802930583074,[0.19557418],0.005,0.1,0.2237238130821962,-1.6814313705943589,0
9.670774698257446,1.3218723187235741,[0.19326019],0.005,0.1,0.16436021786861754,-1.6791201605163555,0
9.680695056915283,1.3177689456721042,[0.19106168],0.005,0.1,0.08754582978042913,-1.6721163159930434,0
9.690279483795166,1.3138609713373708,[0.18896764],0.005,0.1,0.018656470166123824,-1.6876455641509358,0
9.698678493499756,1.3103437944361107,[0.18696823],0.005,0.1,-0.034815929594999684,-1.6472032700580574,0
9.707676887512207,1.3066312188181142,[0.18505916],0.005,0.1,-0.07274652117352556,-1.637080804278465,0
9.716731786727905,1.3027232444833805,[0.18323637],0.005,0.1,-0.09759287986333919,-1.6248967864440846,0
9.72572374343872,1.2990106688653837,[0.18149377],0.005,0.1,-0.11233419285350293,-1.6126075460806313,0
9.733728170394897,1.2956888906808604,[0.17982773],0.005,0.1,0.156365538332557,-1.5880232058919654,0
9.744785070419312,1.2908039227624437,[0.17823661],0.005,0.1,0.18736559067948566,-1.5741033933697637,0
9.754300355911255,1.28689594842771,[0.17671508],0.005,0.1,0.133687949406067,-1.5753531425086236,0
9.762024879455566,1.284160366393397,[0.17525642],0.005,0.1,0.0613385872359467,-1.55300566148644,0
9.772720575332642,1.2796661959084534,[0.17385816],0.005,0.1,-0.004012753297303464,-1.5382776512481517,0
9.780835151672363,1.27634441772393,[0.17251953],0.005,0.1,-0.05464582312266625,-1.5205314048154366,0
9.790588140487671,1.27224104467246,[0.17123803],0.005,0.1,-0.09026357663586819,-1.5162204275206514,0
9.800824880599976,1.2681376716209898,[0.17000843],0.005,0.1,-0.11319586220934233,-1.5009725226338526,0
9.811820983886719,1.2636435011360463,[0.16882617],0.005,0.1,0.14971041717799438,-1.4841543348996307,0
9.822698593139648,1.2589539319343666,[0.16768887],0.005,0.1,0.1768696367142029,-1.4665631741205136,0
9.832656383514404,1.2546551601661597,[0.16659445],0.005,0.1,0.12083561562595425,-1.4508999936734575,0
9.844852924346924,1.2495747935310062,[0.16551641],0.005,0.1,0.047209807675863226,-1.77505553793109,0
9.852795600891113,1.2464484140632193,[0.16436771],0.005,0.1,-0.018658169825341114,-2.9858853787055346,0
9.862906694412231,1.242540439728486,[0.16306473],0.005,0.1,0.20674904751987225,-2.0699753550865045,0
9.87215518951416,1.2386324653937526,[0.16161189],0.005,0.1,0.20460015806103693,-1.6556603518008843,0
9.8823561668396,1.234333693625546,[0.1600556],0.005,0.1,-0.14890707036691936,-1.5090584942293672,0
9.89083218574524,1.230816516724286,[0.15842775],0.005,0.1,-0.2705600660185311,-1.4642541123999717,0
9.898717641830444,1.2276901372564992,[0.15674884],0.005,0.1,-0.29119520875013816,-1.4304529344988663,0
9.907785177230835,1.2241729603552391,[0.15503302],0.005,0.1,0.0041507764611933284,-1.4304307212403167,0
9.919682502746582,1.219483391153559,[0.15328721],0.005,0.1,0.06903877868379049,-1.4369766004732603,0
9.927718877792358,1.2163570116857723,[0.15151782],0.005,0.1,-0.2294762350611837,-1.3926364140566962,0
9.936848163604736,1.2124490373510388,[0.14973812],0.005,0.1,-0.3094970928367566,-1.3713874293884676,0
9.946737289428711,1.2083456642995687,[0.14796234],0.005,0.1,-0.02420654462002933,-1.353231863629344,0
9.956675291061401,1.2040468925313619,[0.14620394],0.005,0.1,0.04876119102175088,-1.3265625093997309,0
9.964694499969482,1.2007251143468387,[0.14447901],0.005,0.1,0.0389119769501524,-1.3127298984683426,0
9.976139783859253,1.1962309438618952,[0.1428041],0.005,0.1,-0.2722382476576686,-1.2988651267560982,0
9.985718011856079,1.192127570810425,[0.14119507],0.005,0.1,-0.06594527665327236,-1.2911507261122546,0
9.994326114654541,1.1888057926259017,[0.13966767],0.005,0.1,-0.007478277511474715,-1.2913834648588605,0
10.001704692840576,1.1854840144413783,[0.13823586],0.005,0.1,-0.007630231816264314,-1.2884840997730584,0
10.011141777038574,1.1815760401066449,[0.13691134],0.005,0.1,-0.02653705503112978,-1.2931663745985396,0
10.019074440002441,1.1786450593555948,[0.13570425],0.005,0.1,-0.04757220496386489,-1.2899893191931169,0
10.029723882675171,1.1741508888706513,[0.1346233],0.005,0.1,-0.06472513115296483,-1.2990281527539633,0
10.039784669876099,1.1702429145359179,[0.13368105],0.005,0.1,-0.07659222374679958,-1.347123643966542,0
10.047717332839966,1.1669211363513945,[0.13289072],0.005,0.1,-0.08358342364519543,-1.3242508099255101,0
10.05663275718689,1.1635993581668713,[0.13225872],0.005,0.1,-0.36271161670999874,-1.3487580872914058,0
10.068684101104736,1.1585189915317178,[0.13179453],0.005,0.1,-0.39604266581277303,-1.4312350815402861,0
10.07754111289978,1.1551972133471944,[0.13150907],0.005,0.1,-0.33914162324052016,-1.3765611345946929,0
10.087711811065674,1.1508984415789878,[0.13140434],0.005,0.1,-0.25992734575873033,-1.4039248585133395,0
10.098693370819092,1.1460134736605712,[0.13148192],0.005,0.1,-0.18545979120846168,-1.4290712936443124,0
10.109678745269775,1.1413239044588908,[0.1317512],0.005,0.1,-0.1244439993122223,-1.5650768655745428,0
10.117704153060913,1.1383929237078407,[0.13221495],0.005,0.1,-0.07785934745920241,-1.5527761111598042,0
10.126725673675537,1.1346803480898442,[0.13286054],0.005,0.1,-0.043838294382565986,-1.555348623510541,0
10.135685205459595,1.131163171188584,[0.13368118],0.005,0.1,-0.01980066066394509,-1.565376105600725,0
10.145677089691162,1.1270597981371138,[0.13468002],0.005,0.1,-0.2793455901358357,-1.576843475872444,0
10.156719446182251,1.1223702289354338,[0.13585927],0.005,0.1,-0.3015000615951319,-1.5893148483156077,0
10.167405366897583,1.1180714571672272,[0.13722621],0.005,0.1,-0.23938745525797817,-1.7877041693782236,0
10.175815343856812,1.1145542802659671,[0.13878638],0.005,0.1,-0.1590695956112545,-1.5757133741241205,0
10.184791088104248,1.1108417046479702,[0.14053184],0.005,0.1,-0.08624120258438836,-1.6079258987018035,0
10.19437575340271,1.1073245277467103,[0.14246183],0.005,0.1,-0.02862691805327148,-1.856539067650099,0
10.202778577804565,1.1038073508454502,[0.14458099],0.005,0.1,0.013485232497964402,-1.6116048900422346,0
10.212239265441895,1.0998993765107168,[0.14687932],0.005,0.1,0.0424425645129451,-1.6523836558248368,0
10.220215559005737,1.0965775983261934,[0.14934065],0.005,0.1,0.061152841102293035,-1.479042970231733,0
10.228658676147461,1.09325582014167,[0.15195017],0.005,0.1,0.07227477919937039,-1.5618564558843215,0
10.239084243774414,1.0891524470901999,[0.15470182],0.005,0.1,0.07797280671306275,-1.6304331927602365,0
10.250772714614868,1.0840720804550465,[0.15760502],0.005,0.1,0.07990603611080017,-1.958320459140136,0
10.262511491775513,1.0793825112533664,[0.16067537],0.005,0.1,0.07930081449627704,-1.9316832100907766,0
10.270855188369751,1.076060733068843,[0.1639182],0.005,0.1,0.07704159398857352,-1.9217747132598808,0
10.281356573104858,1.071957360017373,[0.16732996],0.005,0.1,0.07375453860592991,-1.918628113272343,0
10.29069185256958,1.0682447843993763,[0.1708985],0.005,0.1,0.06987600645298347,-1.618317946584035,0
10.3039071559906,1.0627736203307494,[0.17462207],0.005,0.1,0.06570542781154357,-2.408789344285809,0
10.31270980834961,1.0590610447127526,[0.17851603],0.005,0.1,0.06144475500904706,-1.911062736118604,0
10.323368549346924,1.054762272944546,[0.18258432],0.005,0.1,0.05722726265899614,-2.32037044613374,0
10.33124589920044,1.0514404947600227,[0.18682115],0.005,0.1,0.053138270809271096,-1.8528007149870742,0
10.339793920516968,1.048118716575499,[0.19121143],0.005,0.1,0.04922990532230084,-1.9061387325603976,0
10.350383281707764,1.0436245460905555,[0.19574216],0.005,0.1,0.045531532102874306,-1.9508886460201955,0
10.360276699066162,1.0397165717558223,[0.20041168],0.005,0.1,0.04205708892003014,-1.9921806950200964,0
10.367661476135254,1.036394793571299,[0.20520826],0.005,0.1,0.03881021034668544,-1.6402699421214944,0
10.37600326538086,1.0328776166700389,[0.21011155],0.005,0.1,0.03578779198234825,-1.769219403161216,0
10.387137413024902,1.028188047468359,[0.21512547],0.005,0.1,0.03298245579081731,-2.3213031930700994,0
10.395784378051758,1.0248662692838355,[0.2202638],0.005,0.1,0.030384244465721116,-1.8342319428040954,0
10.405641555786133,1.0211536936658387,[0.22551678],0.005,0.1,0.02798177656590645,-1.9300099141476195,0
10.41615080833435,1.0170503206143686,[0.23087648],0.005,0.1,0.025763025631096434,-2.0108650206295935,0
10.4239022731781,1.0137285424298452,[0.23633588],0.005,0.1,0.023715837929108613,-1.6334091894352742,0
10.433207750320435,1.0100159668118485,[0.24187771],0.005,0.1,0.021828269196361216,-1.7924978543324968,0
10.441594362258911,1.0063033911938517,[0.24749912],0.005,0.1,0.020088796600518287,-1.9199016574260863,0
10.450672149658203,1.0027862142925916,[0.25319762],0.005,0.1,0.018486445194769215,-1.5656893301282688,0
10.460992574691772,0.9982920438076482,[0.2589717],0.005,0.1,0.01701085623701209,-2.235275598799184,0
10.47036361694336,0.9947748669063883,[0.26484481],0.005,0.1,0.01565231641459145,-2.251417644143329,0
10.480452537536621,0.9904760951381815,[0.270837],0.005,0.1,0.014401761183107264,-2.257020107374879,0
10.491936683654785,0.985981924653238,[0.27695305],0.005,0.1,0.013250761349666,-2.261289652773113,0
10.500915050506592,0.9822693490352413,[0.2831969],0.005,0.1,0.012191499186492462,-2.268141261716351,0
10.511272430419922,0.9777751785502978,[0.28957163],0.005,0.1,0.011216738373913519,-2.269335776483434,0
10.5186288356781,0.9748441977992479,[0.2960662],0.005,0.1,0.010319790690238988,-1.7488365366736784,0
10.527671575546265,0.971131622181251,[0.30265749],0.005,0.1,0.009494481405613693,-1.8888765335568976,0
10.537036418914795,0.9674190465632543,[0.30933903],0.005,0.1,0.008735114672640406,-1.9939048287880023,0
10.544672966003418,0.9642926670954678,[0.31610485],0.005,0.1,0.008036439744602218,-1.5655438842566067,0
10.554430723190308,0.9603846927607341,[0.32295003],0.005,0.1,0.007393618537071883,-2.282048332515896,0
10.563113451004028,0.9570629145762107,[0.32989809],0.005,0.1,0.006802194834501004,-2.2709707820703655,0
10.570887088775635,0.9537411363916874,[0.3369546],0.005,0.1,0.006258065294031498,-1.7170945221105847,0
10.580765962600708,0.9496377633402174,[0.34409614],0.005,0.1,0.005757452303012724,-1.8483418568960852,0
10.59173846244812,0.9451435928552739,[0.35131704],0.005,0.1,0.28133523836019764,-1.9428306599305194,0
10.59966230392456,0.9420172133874872,[0.3586122],0.005,0.1,0.31403610702101026,-1.5025833084484608,0
10.61010217666626,0.9377184416192806,[0.36597759],0.005,0.1,0.2585490099503778,-2.2158256008436807,0
10.619657039642334,0.9342012647180205,[0.37343938],0.005,0.1,0.18210534823821892,-2.1962212676001576,0
10.63059687614441,0.9295116955163404,[0.38101962],0.005,0.1,0.11125270425797343,-2.1667463643427953,0
10.639642715454102,0.9257991198983436,[0.38870675],0.005,0.1,0.05432733789258837,-1.6098480027511475,0
10.649186849594116,0.9218911455636103,[0.39647531],0.005,0.1,0.012050446473810587,-1.7301462988697305,0
10.658220529556274,0.9177877725121402,[0.40431864],0.005,0.1,-0.017621632000227726,-1.8126412399897367,0
10.66702914237976,0.9144659943276168,[0.41224613],0.005,0.1,-0.03738580621196991,-1.863591263894224,0
10.674642562866211,0.9113396148598301,[0.42024992],0.005,0.1,-0.049755812476431446,-1.4027415961558471,0
10.684671640396118,0.9072362418083599,[0.42830741],0.005,0.1,-0.05679752572204363,-1.5369341583375975,0
10.693054437637329,0.9035236661903633,[0.43641465],0.005,0.1,-0.06010403279011557,-1.6278109166235897,0
10.702077865600586,0.9002018880058399,[0.44458361],0.005,0.1,-0.06085831873272776,-1.6825705330895049,0
10.711657762527466,0.8960985149543697,[0.45282425],0.005,0.1,-0.0599171753189896,-1.7052328738188791,0
10.719639539718628,0.8929721354865829,[0.46112887],0.005,0.1,-0.05788991479727565,-1.2666585390398706,0
10.728816986083984,0.8892595598685864,[0.46947483],0.005,0.1,-0.055203425088391815,-1.3808213886802119,0
10.738573551177979,0.8853515855338528,[0.47785871],0.005,0.1,-0.052152655524796546,-1.4534745636831963,0
10.748446702957153,0.8812482124823828,[0.48629349],0.005,0.1,-0.04893840219879973,-1.4906232638006198,0
10.757756233215332,0.8773402381476494,[0.49479006],0.005,0.1,-0.04569495440694336,-1.5026804377377592,0
10.76705551147461,0.8738230612463893,[0.50335737],0.005,0.1,-0.04251002162457963,-1.4971913406286608,0
10.775628328323364,0.8703058843451292,[0.51198638],0.005,0.1,-0.03943894764441007,-1.0921555940228016,0
10.787089347839355,0.8654209164267126,[0.52066909],0.005,0.1,-0.03651477288305295,-1.5630131279079473,0
10.79669451713562,0.8613175433752424,[0.52943094],0.005,0.1,-0.03375531560023133,-1.4893370049102161,0
10.807254552841187,0.8570187716070357,[0.53830915],0.005,0.1,-0.03116813044202147,-1.8298273587424614,0
10.81613826751709,0.8531107972723023,[0.54731789],0.005,0.1,-0.028753964522712207,-1.2458498562679465,0
10.823598146438599,0.8501798165212522,[0.55643506],0.005,0.1,-0.026509154748735133,-1.217970789864825,0
10.83268690109253,0.8466626396199921,[0.56562442],0.005,0.1,0.25161107802515387,-0.8725273269387921,0
10.840617895126343,0.8435362601522054,[0.57485456],0.005,0.1,0.286662660162874,-0.9253963212747852,0
10.852047681808472,0.8386512922337885,[0.58411504],0.005,0.1,0.23334638426762644,-0.9424964282154633,0
10.860881567001343,0.8351341153325286,[0.59339682],0.005,0.1,0.15890559389476555,-0.6840742577418077,0
10.87092113494873,0.8310307422810586,[0.60269229],0.005,0.1,0.08989959290409952,-0.996435339026924,0
10.879635334014893,0.8275135653797985,[0.61201157],0.005,0.1,0.034675939167944196,-0.6979725354937288,0
10.890787601470947,0.8230193948948551,[0.62136313],0.005,0.1,-0.00603341581244787,-0.9480991723425438,0
10.90073299407959,0.819502217993595,[0.63077066],0.005,0.1,-0.034261988157440235,-0.8664843494374529,0
10.908631086349487,0.8161804398090716,[0.64023701],0.005,0.1,-0.05269717589038938,-0.5913926046250997,0
10.919363737106323,0.8114908706073914,[0.64974738],0.005,0.1,-0.06384384199829232,-0.7723870592938911,0
10.931135892868042,0.8064105039722381,[0.65932233],0.005,0.1,-0.06975961147851258,-0.6788122730979138,0
10.940293312072754,0.8025025296375047,[0.66897862],0.005,0.1,-0.07202992070561835,-0.5984198187194161,0
10.948622465133667,0.799376150169718,[0.67869608],0.005,0.1,-0.07183067392958373,-0.39595312546410694,0
10.956624746322632,0.7960543719851946,[0.68842339],0.005,0.1,-0.07001211892079957,-0.27245407740649913,0
10.969642162322998,0.7907786066333043,[0.69815083],0.005,0.1,-0.0671775266857394,-0.4722634257836844,0
10.979119777679443,0.786870632298571,[0.70793773],0.005,0.1,-0.06374821266822094,-0.37135402796621664,0
10.987696170806885,0.7835488541140476,[0.71779997],0.005,0.1,-0.33605234902676384,-0.2203933246766238,0
10.997677326202393,0.7796408797793143,[0.72769956],0.005,0.1,-0.3653338826312911,-0.17353536043330453,0
11.006596565246582,0.7761237028780542,[0.73762097],0.005,0.1,-0.3064146401725696,-0.1216841100524346,0
11.015650749206543,0.7724111272600575,[0.74756787],0.005,0.1,-0.22661242820660157,-0.06401903782506385,0
11.023622035980225,0.7688939503587974,[0.75752623],0.005,0.1,-0.15252897119423495,-0.008156036409647115,0
