t_s,q_rad,q_des_rad,K,B,jerk,tau_Nm,ilc_ff_Nm
0.005190372467041016,-0.0017585884506300322,[0.00071523],0.005,0.1,0.0,9.998999999999999,0
0.013805866241455078,-0.0017585884506300322,[0.00345648],0.005,0.1,0.0,10.098989999999999,0
0.025029897689819336,-0.0017585884506300322,[0.00859877],0.005,0.1,0.0,5.156340744023746,0
0.03448891639709473,-0.0015631897338933619,[0.01572357],0.005,0.1,0.0,2.261294857103234,0
0.04767417907714844,0.0019539871673667024,[0.02445387],0.005,0.1,1.3801917983934047,1.0824899553803649,0
0.05666804313659668,0.005471164068626767,[0.03444996],0.005,0.1,4.582236770666103,0.5384000748857648,0
0.06604194641113281,0.009183739686623501,[0.04540809],0.005,0.1,5.0,0.3130284676533819,0
0.07660150527954102,0.013287112738093578,[0.05706152],0.005,0.1,5.0,0.1830797871040873,0
0.08559942245483398,0.01680428963935364,[0.06917558],0.005,0.1,5.0,0.11350631000551023,0
0.09604668617248535,0.02129846012429706,[0.08154578],0.005,0.1,5.0,0.07899205783758316,0
0.10404539108276367,0.02442483959208378,[0.09399583],0.005,0.1,5.0,0.046896023667801795,0
0.11276578903198242,0.027942016493343845,[0.10636778],0.005,0.1,5.0,0.028160914909324937,0
0.12372422218322754,0.03224078826155059,[0.11852904],0.005,0.1,5.0,0.025557567128919035,0
0.13373446464538574,0.036148762596283995,[0.13037809],0.005,0.1,5.0,0.019936661365429105,0
0.14260339736938477,0.03927514206407072,[0.14183308],0.005,0.1,3.903864480322614,0.016626587462426134,0
0.15258574485778809,0.04279231896533078,[0.15282473],0.005,0.1,1.1711861360779774,0.011173565660827582,0
0.16333222389221191,0.04611409714985418,[0.16330039],0.005,0.1,-2.1353810652611136,0.014588646216146356,0
0.17159557342529297,0.049045077900904226,[0.17322479],0.005,0.1,-4.9728681375470885,0.010392775066002544,0
0.18107056617736816,0.05178065993521762,[0.18257517],0.005,0.1,-5.0,0.014510501906366347,0
0.19066762924194336,0.05471164068626767,[0.19133963],0.005,0.1,-5.0,0.010663799549874568,0
0.20061945915222168,0.0578380201540544,[0.19951309],0.005,0.1,-5.0,0.01149468114511057,0
0.20864319801330566,0.06037820347163111,[0.20709891],0.005,0.1,-5.0,0.012388174581589268,0
0.21669912338256836,0.06272298807247115,[0.21410754],0.005,0.1,-5.0,0.009933218112814612,0
0.22563672065734863,0.0650677726733112,[0.22055288],0.005,0.1,-5.0,0.011608641151471196,0
0.23560738563537598,0.06799875342436125,[0.22645678],0.005,0.1,-5.0,0.013137654770659162,0
0.24712920188903809,0.07112513289214797,[0.23185056],0.005,0.1,-5.0,0.01922762726769598,0
0.2554893493652344,0.07307912005951467,[0.23676783],0.005,0.1,-5.0,0.014817953445552182,0
0.2684793472290039,0.07640089824403806,[0.24124105],0.005,0.1,-5.0,0.02166645475245454,0
0.27756571769714355,0.07855028412814144,[0.24530399],0.005,0.1,-5.0,0.016574867061033748,0
0.28832411766052246,0.08109046744571814,[0.24899095],0.005,0.1,-5.0,0.02420137759315524,0
0.2965700626373291,0.08284905589634818,[0.25233623],0.005,0.1,-5.0,0.01836370075784198,0
0.30458831787109375,0.08460764434697822,[0.2553704],0.005,0.1,-5.0,0.020065076595481856,0
0.31355929374694824,0.08636623279760824,[0.25812047],0.005,0.1,-4.709187862771862,0.016008363246804373,0
0.32474732398986816,0.08890641611518496,[0.260616],0.005,0.1,-4.574934986021098,0.024176698718359087,0
0.33446192741394043,0.09086040328255167,[0.26289131],0.005,0.1,-4.1856646582156944,0.02430875414726084,0
0.34598660469055176,0.09300978916665503,[0.26497804],0.005,0.1,-4.014050457233868,0.024184848319828905,0
0.354109525680542,0.09476837761728506,[0.266902],0.005,0.1,-3.344882902431573,0.023895396578127275,0
0.36159849166870117,0.0959407699177051,[0.26868389],0.005,0.1,-2.6025064082824043,0.018101889616500784,0
0.3695831298828125,0.09730856093486177,[0.27033975],0.005,0.1,-2.2224164523310956,0.01923113565575336,0
0.3793978691101074,0.09906714938549181,[0.27188718],0.005,0.1,-2.0045308558823507,0.019776400348937573,0
0.38983654975891113,0.10063033911938518,[0.27334476],0.005,0.1,-1.8562189562480946,0.01987970195162193,0
0.3998274803161621,0.1023889275700152,[0.27472866],0.005,0.1,-1.7362144204435848,0.019593216979789985,0
0.4095878601074219,0.1037567185871719,[0.27605033],0.005,0.1,-1.6272911445498512,0.015036773419423102,0
0.4200267791748047,0.10531990832106528,[0.27731953],0.005,0.1,-1.2470656033538687,0.01968933896621014,0
0.42858338356018066,0.10668769933822195,[0.27854705],0.005,0.1,-1.1127971579962421,0.014852449871573166,0
0.4391601085662842,0.10844628778885199,[0.27974189],0.005,0.1,-0.7938459765418763,0.018620291814018242,0
0.44663286209106445,0.10961868008927202,[0.28091146],0.005,0.1,-0.4665015268222035,0.01403474199546828,0
0.45760107040405273,0.11137726853990204,[0.28205972],0.005,0.1,-0.46909023152462903,0.014009392206354521,0
0.4655592441558838,0.11235426212358537,[0.28318984],0.005,0.1,-0.29575811560055665,0.014019531306747114,0
0.4746286869049072,0.1135266544240054,[0.28430655],0.005,0.1,-0.09516350007313568,0.013890373128823403,0
0.48270177841186523,0.11469904672442544,[0.28541173],0.005,0.1,-0.1987997343013882,0.011119607514800697,0
0.49112510681152344,0.11587143902484545,[0.28650486],0.005,0.1,-0.10228346115733317,0.011670365667799276,0
0.4985928535461426,0.11665303389179212,[0.28758548],0.005,0.1,-0.23446713068160988,0.009827697427453742,0
0.5085747241973877,0.11802082490894884,[0.28865323],0.005,0.1,-0.13632531928855524,0.010632759521313831,0
0.5175976753234863,0.11899781849263219,[0.28970982],0.005,0.1,-0.25706810305202454,0.011300293581441608,0
0.5265600681304932,0.11997481207631551,[0.29075871],0.005,0.1,-0.14622742062555683,0.011832041762715491,0
0.5361323356628418,0.12114720437673555,[0.29180309],0.005,0.1,0.019878137300554488,0.012309156646710307,0
0.545598030090332,0.1221241979604189,[0.29284598],0.005,0.1,0.17198039148399977,0.012854578588099934,0
0.556516170501709,0.12310119154410225,[0.29389268],0.005,0.1,0.01257202919094906,0.016913090721570177,0
0.5654175281524658,0.12407818512778561,[0.29494828],0.005,0.1,0.0590323325565383,0.013396543085125124,0
0.5765724182128906,0.12505517871146896,[0.29601335],0.005,0.1,0.1622465006340903,0.014519855436193718,0
0.5875973701477051,0.12622757101188897,[0.29708907],0.005,0.1,0.2621777632065121,0.015722210154208296,0
0.59800124168396,0.12720456459557233,[0.29818207],0.005,0.1,0.338918857159071,0.02190998362195802,0
0.605565071105957,0.12779076074578233,[0.29929863],0.005,0.1,0.6655832423578147,0.01716553126196562,0
0.6148676872253418,0.128572355612729,[0.3004394],0.005,0.1,0.7266313355631022,0.01897401896381054,0
0.6241250038146973,0.12935395047967568,[0.30160553],0.005,0.1,0.6818322690107085,0.02083767968590773,0
0.634711503982544,0.13033094406335904,[0.30280119],0.005,0.1,0.6032802524332088,0.02264915206894754,0
0.644486665725708,0.13111253893030572,[0.30403035],0.005,0.1,0.5215453060681083,0.02444765586705965,0
0.6548962593078613,0.1318941337972524,[0.30529665],0.005,0.1,0.4480565524479745,0.026164516428460016,0
0.6641073226928711,0.1326757286641991,[0.30660329],0.005,0.1,0.3858092574501767,0.02774004745619383,0
0.6736078262329102,0.1332619248144091,[0.30794966],0.005,0.1,0.6104173467676142,0.021972727796029306,0
0.683584451675415,0.13404351968135578,[0.30933509],0.005,0.1,0.6013539650243498,0.03285343810925457,0
0.6925756931304932,0.13482511454830248,[0.31076202],0.005,0.1,0.5115541645504631,0.025326332134436972,0
0.7015681266784668,0.13560670941524913,[0.3122288],0.005,0.1,0.6827189090394443,0.027772350012803468,0
0.7116191387176514,0.13619290556545915,[0.3137336],0.005,0.1,0.8972003086450973,0.029755417642552406,0
0.7217822074890137,0.13697450043240583,[0.31528106],0.005,0.1,1.0741118015694944,0.04018115635582447,0
0.7311291694641113,0.1379514940160892,[0.31687448],0.005,0.1,1.1924232592680526,0.02978177784006468,0
0.739321231842041,0.1385376901662992,[0.31850938],0.005,0.1,1.2550772495499518,0.031250912645660024,0
0.7466344833374023,0.1391238863165092,[0.32018138],0.005,0.1,1.272844350175521,0.03233912554060792,0
0.7556512355804443,0.1399054811834559,[0.32188619],0.005,0.1,1.2575079910108067,0.025211754253944313,0
0.7651681900024414,0.1404916773336659,[0.32361634],0.005,0.1,1.2193361301427692,0.02784587809442344,0
0.7729558944702148,0.14107787348387593,[0.32536832],0.005,0.1,1.1664318577294852,0.029856811906881824,0
0.780543327331543,0.1416640696340859,[0.32713879],0.005,0.1,1.104838378264394,0.023853201314199702,0
0.7905895709991455,0.1424456645010326,[0.32892131],0.005,0.1,1.0388916746878194,0.02675260834164804,0
0.8005452156066895,0.14322725936797928,[0.33071334],0.005,0.1,0.9716064065306305,0.02894053053809475,0
0.8094143867492676,0.1438134555181893,[0.33251561],0.005,0.1,0.9050150446500104,0.030482296814833977,0
0.8192653656005859,0.14459505038513598,[0.33432837],0.005,0.1,0.8404392988119428,0.031441440736993405,0
0.8294599056243896,0.14537664525208266,[0.33615133],0.005,0.1,0.7786967014630628,0.031944221787617195,0
0.8392775058746338,0.14615824011902934,[0.33798376],0.005,0.1,0.7202531110064527,0.032092691786411144,0
0.8465976715087891,0.14674443626923936,[0.33982153],0.005,0.1,0.3892946859451464,0.025104428752298024,0
0.8565847873687744,0.14733063241944935,[0.34165773],0.005,0.1,0.3048354083500918,0.02687961457023509,0
0.8673100471496582,0.14830762600313271,[0.3434919],0.005,0.1,0.3121380940820512,0.03503134010884806,0
0.8755760192871094,0.14869842343660605,[0.34532614],0.005,0.1,0.34385496458724796,0.026731383204837388,0
0.8835635185241699,0.14928461958681605,[0.3471562],0.005,0.1,0.37328073761838804,0.027507830595494605,0
0.8933179378509521,0.14987081573702607,[0.34897809],0.005,0.1,0.39189851153554506,0.02783651471789489,0
0.9015743732452393,0.1504570118872361,[0.35078829],0.005,0.1,0.3987959505553138,0.022482789189202743,0
0.9104740619659424,0.15123860675418274,[0.35258124],0.005,0.1,0.3958233769177049,0.02429591977403108,0
0.9192233085632324,0.15182480290439276,[0.35435506],0.005,0.1,0.3854875676725618,0.025667682414514757,0
0.9265327453613281,0.1524109990546028,[0.35610827],0.005,0.1,0.3701187495062838,0.0212360101383063,0
0.9378437995910645,0.1531925939215495,[0.35783983],0.005,0.1,0.3516079529249267,0.02931679326356969,0
0.9492402076721191,0.15397418878849614,[0.35955451],0.005,0.1,0.33138319520926957,0.029648196222271328,0
0.9605600833892822,0.1549511823721795,[0.36125681],0.005,0.1,0.3104726476318391,0.03009349293586935,0
0.9692621231079102,0.1555373785223895,[0.36294848],0.005,0.1,0.28958860798703995,0.03089379483482729,0
0.9780788421630859,0.15612357467259955,[0.36463168],0.005,0.1,0.2692060081332144,0.03194916099161294,0
0.9873268604278564,0.15690516953954617,[0.36630897],0.005,0.1,0.24962709376671638,0.03317526566537894,0
0.9976673126220703,0.15768676440649287,[0.36798326],0.005,0.1,0.23103143473155985,0.03461787145937154,0
1.0065441131591797,0.1582729605567029,[0.36965778],0.005,0.1,0.21351318191300336,0.03627201250975614,0
1.0162112712860107,0.15905455542364957,[0.37133596],0.005,0.1,0.1971081637487696,0.038031978550373845,0
1.023533821105957,0.15964075157385957,[0.37301474],0.005,0.1,0.18181326262943992,0.038343115623185674,0
1.03428316116333,0.16042234644080625,[0.37468879],0.005,0.1,0.1676000912596834,0.051192226073905535,0
1.0445873737335205,0.1613993400244896,[0.37636414],0.005,0.1,0.1544245383344397,0.050239516314966745,0
1.0561678409576416,0.16218093489143628,[0.37805342],0.005,0.1,0.4182717188227842,0.06356629068782031,0
1.0652892589569092,0.1627671310416463,[0.3797645],0.005,0.1,0.4401316348729645,0.047298878942390696,0
1.0754947662353516,0.163548725908593,[0.38149724],0.005,0.1,0.37463668810604533,0.04933784163634485,0
1.0859012603759766,0.16452571949227635,[0.38325573],0.005,0.1,0.2889618751404626,0.06617839920414345,0
1.0945472717285156,0.165307314359223,[0.38504735],0.005,0.1,0.48563817689937183,0.04981841333686975,0
1.1025402545928955,0.16589351050943302,[0.38686687],0.005,0.1,0.45399702246388995,0.04010327681156712,0
1.1125433444976807,0.1668705040931164,[0.38870604],0.005,0.1,0.3494015022070004,0.04601442276314643,0
1.123499870300293,0.16784749767679974,[0.39056982],0.005,0.1,0.5130333666566205,0.06645373286883687,0
1.1315891742706299,0.16862909254374644,[0.39246638],0.005,0.1,0.4497496346577431,0.05097873656247917,0
1.139543056488037,0.16921528869395644,[0.39439439],0.005,0.1,0.32002599406635374,0.05533469481566053,0
1.1490123271942139,0.16999688356090312,[0.39635249],0.005,0.1,0.46575424237041074,0.05877541500834465,0
1.157576560974121,0.17097387714458645,[0.39833917],0.005,0.1,0.3908622211339124,0.04660204549108403,0
1.165548324584961,0.17175547201153316,[0.4003487],0.005,0.1,0.2544696104866949,0.05233891150931642,0
1.1755294799804688,0.17292786431195314,[0.40237995],0.005,0.1,0.3971731304250267,0.05665400878966628,0
1.1855239868164062,0.17390485789563648,[0.40443567],0.005,0.1,0.5978658580585198,0.059754459481859486,0
1.1945436000823975,0.17468645276258318,[0.40651769],0.005,0.1,0.49588674234410457,0.06201819951781605,0
1.2045037746429443,0.17566344634626652,[0.40862705],0.005,0.1,0.5859110438279611,0.06352676223171831,0
1.2133584022521973,0.1768358386466866,[0.41076414],0.005,0.1,0.4375865361631122,0.06460086301443543,0
1.2225618362426758,0.1780082309471066,[0.41292883],0.005,0.1,0.5114826896534211,0.06536234693649083,0
1.2324271202087402,0.17898522453078994,[0.41512061],0.005,0.1,0.6367558345966979,0.06606805872764554,0
1.2415249347686768,0.1799622181144733,[0.41733473],0.005,0.1,0.47109104355476,0.05147601728795812,0
1.2495548725128174,0.18093921169815663,[0.41956295],0.005,0.1,0.5136058145795702,0.05631636691472004,0
1.259511947631836,0.18211160399857668,[0.4218022],0.005,0.1,0.3328749686415289,0.06009840275492839,0
1.2689509391784668,0.18308859758226,[0.42405381],0.005,0.1,0.3866417548246645,0.06338904848336432,0
1.2765436172485352,0.18387019244920672,[0.42631899],0.005,0.1,0.22502302843944333,0.06612822430060149,0
1.286989688873291,0.1850425847496267,[0.42859875],0.005,0.1,0.29809580835779226,0.06815158635716273,0
1.29557204246521,0.18601957833331006,[0.43088975],0.005,0.1,0.15323991574246576,0.05371441152430355,0
1.3055071830749512,0.1871919706337301,[0.433185],0.005,0.1,-0.03610526882073195,0.05927606362760524,0
1.3155536651611328,0.18836436293415013,[0.43548673],0.005,0.1,0.0726712025804227,0.08181889795712273,0
1.3245294094085693,0.18953675523457011,[0.43780088],0.005,0.1,-0.02013509647378675,0.0623184806781813,0
1.3325278759002686,0.19031835010151682,[0.4401201],0.005,0.1,0.11606213004201865,0.05064733654574981,0
1.342538595199585,0.19149074240193684,[0.44243816],0.005,0.1,0.022689913514213483,0.07476898719871099,0
1.353330135345459,0.1930539321358302,[0.44476223],0.005,0.1,0.1489031381831616,0.07574218664586525,0
1.362018346786499,0.1942263244362502,[0.44709835],0.005,0.1,0.0440171648934794,0.07670819533885075,0
1.369553565979004,0.1950079193031969,[0.44944338],0.005,0.1,0.1601557384861193,0.06007857995619103,0
1.3792214393615723,0.19637571032035359,[0.4517905],0.005,0.1,0.32347601833041206,0.06559392982084525,0
1.3894243240356445,0.19774350133751029,[0.4541382],0.005,0.1,0.19103788251869763,0.07018769061991703,0
1.3999581336975098,0.19911129235466699,[0.45648953],0.005,0.1,0.2622746877584312,0.07388527993255109,0
1.4106519222259521,0.20067448208856034,[0.45885164],0.005,0.1,0.10637417508939334,0.09883555926057533,0
1.4195168018341064,0.20184687438898036,[0.46123088],0.005,0.1,0.1817184130384645,0.0745649500717611,0
1.4275305271148682,0.2028238679726637,[0.46361983],0.005,0.1,0.03898907484105725,0.0601799335672364,0
1.4375205039978027,0.2043870577065571,[0.46600813],0.005,0.1,-0.1473092495160346,0.06877040443026054,0
1.4455406665802002,0.2055594500069771,[0.46839627],0.005,0.1,-0.034434035115886816,0.0763596014301971,0
1.4542531967163086,0.2067318423073971,[0.47078959],0.005,0.1,-0.12229638322919392,0.0828854964369459,0
1.4665157794952393,0.2086858294747638,[0.47319316],0.005,0.1,0.019403535947129416,0.08819623223231643,0
1.474519968032837,0.20985822177518385,[0.47560695],0.005,0.1,-0.06817168156282727,0.07046805568449518,0
1.4825375080108643,0.2110306140756039,[0.47802655],0.005,0.1,0.063922218098527,0.08035504254058583,0
1.4921565055847168,0.21259380380949724,[0.48045828],0.005,0.1,0.24088466593624006,0.11574322761552114,0
1.5021471977233887,0.2141569935433906,[0.48291746],0.005,0.1,0.3957813052063363,0.1152892542348303,0
1.5115420818328857,0.2155247845605473,[0.48540731],0.005,0.1,0.5093930169938465,0.08793858682417167,0
1.5215647220611572,0.21728337301117734,[0.48792058],0.005,0.1,0.30597368100971856,0.0955129257409831,0
1.5316338539123535,0.21884656274507067,[0.49046093],0.005,0.1,0.31148669698669973,0.13178521286727754,0
1.5419590473175049,0.22080054991243736,[0.49304123],0.005,0.1,0.37949061689567853,0.12774770068308236,0
1.5515167713165283,0.2225591383630674,[0.49566195],0.005,0.1,0.4501419756853256,0.0958021963433833,0
1.561206340789795,0.22431772681369744,[0.498313],0.005,0.1,0.5028203479162845,0.10214805447715403,0
1.571542739868164,0.22627171398106416,[0.50099052],0.005,0.1,0.5336686835764348,0.10709118055531579,0
1.581563949584961,0.22822570114843083,[0.50369595],0.005,0.1,0.5452225394824759,0.11059168954121808,0
1.5921080112457275,0.23017968831579752,[0.50643502],0.005,0.1,0.5418256698117434,0.14496955302726133,0
1.5995118618011475,0.2317428780496909,[0.50921206],0.005,0.1,0.8037965233836777,0.10634674165386566,0
1.6105411052703857,0.23389226393379428,[0.51202014],0.005,0.1,0.8157574037017757,0.10938829756916506,0
1.6205103397369385,0.23584625110116098,[0.51485283],0.005,0.1,1.0111917762059874,0.11145887598061129,0
1.6284897327423096,0.23760483955179101,[0.51770902],0.005,0.1,0.9403994214251471,0.11244543300407531,0
1.6388773918151855,0.2397542254358944,[0.52058701],0.005,0.1,0.786047814809798,0.11223380943435154,0
1.6484689712524414,0.24170821260326106,[0.52348458],0.005,0.1,0.900722720261604,0.11164476656812031,0
1.6565260887145996,0.24327140233715447,[0.52639449],0.005,0.1,0.7933888982413955,0.08554356502254504,0
1.6648402214050293,0.24522538950452114,[0.52930989],0.005,0.1,0.6254410253801287,0.11717675556457104,0
1.6735718250274658,0.24698397795515117,[0.5322246],0.005,0.1,0.46238023168709214,0.11795526924197433,0
1.6835124492645264,0.24932876255599123,[0.53512393],0.005,0.1,0.32632606550766463,0.11359716024326935,0
1.6914935111999512,0.2510873510066213,[0.53799989],0.005,0.1,0.2209024121756718,0.11009235435189438,0
1.700063705444336,0.253041338173988,[0.54085465],0.005,0.1,0.14272144916744325,0.10667193385785839,0
1.710212230682373,0.2551907240580913,[0.54368967],0.005,0.1,0.08645435802509534,0.10317801706991703,0
1.7196073532104492,0.2573401099421947,[0.54650564],0.005,0.1,0.046896828644257794,0.09972516684648634,0
1.729538917541504,0.2596848945430347,[0.54930263],0.005,0.1,0.01967294678930225,0.09623263073011173,0
1.737515926361084,0.26163888171040145,[0.55207617],0.005,0.1,0.0013569616285770362,0.07384986204212245,0
1.7475225925445557,0.26437446374471485,[0.55481817],0.005,0.1,-0.010626927155578048,0.07649273708902743,0
1.758493423461914,0.2671100457790282,[0.55752569],0.005,0.1,-0.018167418911552678,0.0778239857917068,0
1.7695398330688477,0.26965022909660497,[0.56020395],0.005,0.1,-0.02262643436399007,0.0970989318015718,0
1.7784931659698486,0.2717996149807083,[0.56285717],0.005,0.1,-0.3010128439769542,0.0731243465202477,0
1.788527011871338,0.27433979829828503,[0.56548496],0.005,0.1,-0.3350599428767913,0.09158600050251639,0
1.7975010871887207,0.27629378546565175,[0.56808697],0.005,0.1,-0.5559784753001711,0.06981035437234767,0
1.8065857887268066,0.2784431713497551,[0.57065945],0.005,0.1,-0.7884233464541054,0.07151075988264245,0
1.816537618637085,0.2809833546673318,[0.57320332],0.005,0.1,-0.9709540930025513,0.0906612049303799,0
1.8285198211669922,0.28391433541838185,[0.57572735],0.005,0.1,-1.091080200467842,0.08675216149941745,0
1.8365025520324707,0.28586832258574857,[0.57823204],0.005,0.1,-1.1551950913242999,0.06749924233516626,0
1.8495557308197021,0.28919010077027196,[0.58071484],0.005,0.1,-1.1752302000741044,0.08931160045355432,0
1.8585083484649658,0.2913394866543753,[0.58317812],0.005,0.1,-1.1631621859221815,0.06956771936218546,0
1.867490530014038,0.29368427125521535,[0.5856206],0.005,0.1,-1.1290919426537442,0.07390326557485784,0
1.8765296936035156,0.29563825842258207,[0.58804201],0.005,0.1,-1.0808612245189246,0.0779507378640006,0
1.8861937522888184,0.29798304302342216,[0.59044678],0.005,0.1,-1.02426433522854,0.08123494517707908,0
1.8955492973327637,0.2999370301907889,[0.59283925],0.005,0.1,-0.9634357757684715,0.08424739945866534,0
1.9075100421905518,0.30306340965857553,[0.5952279],0.005,0.1,-0.901240815501978,0.10924606652642936,0
1.9164886474609375,0.30501739682594226,[0.59762027],0.005,0.1,-0.8396080268403955,0.08263495993820048,0
1.9260168075561523,0.3071667827100456,[0.60001452],0.005,0.1,-0.7797911909592323,0.08605001309561236,0
1.9355521202087402,0.3097069660276223,[0.6024093],0.005,0.1,-0.7225667963992655,0.08881596845689303,0
1.943939447402954,0.31185635191172567,[0.6048079],0.005,0.1,-0.6683790013543411,0.09118474572874923,0
1.9524931907653809,0.3140057377958291,[0.60721311],0.005,0.1,-0.6174441243955532,0.0925679993173741,0
1.960484504699707,0.3161551236799325,[0.60962281],0.005,0.1,-0.2937866245111689,0.07283464050090326,0
1.9715020656585693,0.3188907057142458,[0.61203075],0.005,0.1,-0.21632028520739474,0.07851702927339217,0
1.980027437210083,0.32104009159834923,[0.61443574],0.005,0.1,-0.23025026065576587,0.08277355041298247,0
1.9884917736053467,0.32318947748245264,[0.61683668],0.005,0.1,-0.268200150991288,0.06675324146466105,0
1.9965248107910156,0.3249480659330826,[0.61922826],0.005,0.1,-0.30345557294487113,0.07363003308092497,0
2.0051848888397217,0.3269020531004493,[0.62161009],0.005,0.1,-0.05146501935420768,0.07853367328061292,0
2.012491464614868,0.32885604026781606,[0.62398181],0.005,0.1,-0.030280246267008766,0.06409021801609953,0
2.0205159187316895,0.33081002743518273,[0.62633892],0.005,0.1,-0.08707667843323233,0.07093883108331944,0
2.0302834510803223,0.33335021075275945,[0.62868173],0.005,0.1,-0.1571468164382868,0.07572639242576636,0
2.040524482727051,0.3360857927870728,[0.63101448],0.005,0.1,-0.21629199970526825,0.07859418860736156,0
2.050288438796997,0.3384305773879129,[0.63334051],0.005,0.1,-0.25808625872937063,0.08037001197113039,0
2.0595569610595703,0.34057996327201623,[0.63566235],0.005,0.1,-0.2832555758279025,0.08119141862203565,0
2.069516181945801,0.34312014658959294,[0.63798179],0.005,0.1,-0.29489042446781105,0.08108000987138966,0
2.079188108444214,0.345464931190433,[0.64029991],0.005,0.1,-0.2964178679287952,0.0805895565189207,0
2.0865585803985596,0.3470281209243264,[0.64261729],0.005,0.1,-0.2908434982494362,0.08020004454904854,0
2.0944664478302,0.34898210809169306,[0.64493035],0.005,0.1,-0.5565897126776767,0.06367723296511353,0
2.1024582386016846,0.35113149397579646,[0.64722845],0.005,0.1,-0.5764919382163632,0.0536973157738176,0
2.1128318309783936,0.35347627857663644,[0.64950637],0.005,0.1,-0.5065330732216999,0.0748462188477399,0
2.120461940765381,0.3552348670272665,[0.65176727],0.005,0.1,-0.4148527245455753,0.0606256421383213,0
2.129505157470703,0.3573842529113699,[0.65401037],0.005,0.1,-0.3286190916779652,0.06523431278253784,0
2.139479875564575,0.3599244362289466,[0.65623535],0.005,0.1,-0.2565802624453971,0.06900457753917782,0
2.150474786758423,0.3624646195465233,[0.65844629],0.005,0.1,-0.19972057438818075,0.07242280245348225,0
2.1615257263183594,0.36500480286410003,[0.66064746],0.005,0.1,-0.15615526362761062,0.07599815611845606,0
2.1715118885040283,0.3675449861816767,[0.66284353],0.005,0.1,-0.39931264791627397,0.07981254413262881,0
2.179480791091919,0.36930357463230673,[0.66503962],0.005,0.1,-0.4077647255422243,0.08437223778596575,0
2.1885154247283936,0.3718437579498835,[0.66723677],0.005,0.1,-0.3341426229673556,0.0684995274237388,0
2.1990976333618164,0.3743839412674602,[0.66943713],0.005,0.1,-0.5201094820601063,0.10090071963332109,0
2.209085464477539,0.3769241245850368,[0.67165252],0.005,0.1,-0.4720506101187819,0.10423884561772497,0
2.2184698581695557,0.37926890918587697,[0.67389392],0.005,0.1,-0.3521020311319514,0.10800179901046289,0
2.2294843196868896,0.3818090925034536,[0.67616688],0.005,0.1,-0.227569972110359,0.11198238402999215,0
2.2374956607818604,0.3837630796708204,[0.67847154],0.005,0.1,-0.1224922840663749,0.0882346930548372,0
2.245868444442749,0.3857170668381871,[0.68080331],0.005,0.1,-0.042173756796732895,0.09932305050305006,0
2.255465507507324,0.3880618514390271,[0.68316363],0.005,0.1,0.015417885603909803,0.10870908179720412,0
2.26440691947937,0.39040663603986714,[0.68555898],0.005,0.1,0.054564044393375755,0.1165396923539359,0
2.274493932723999,0.39255602192397054,[0.68799493],0.005,0.1,0.3557165784359718,0.12282012882613544,0
2.2834739685058594,0.3947054078080739,[0.69047068],0.005,0.1,0.4037092252220811,0.09625872802461027,0
2.2942824363708496,0.3976363885591239,[0.69298512],0.005,0.1,0.6322596343982656,0.1406270807114912,0
2.303802251815796,0.40017657187670064,[0.69554729],0.005,0.1,0.5918995900291304,0.13924623991233806,0
2.3114798069000244,0.4021305590440673,[0.69815868],0.005,0.1,0.46551599296817164,0.10537252894554903,0
2.3205466270446777,0.4046707423616441,[0.70080891],0.005,0.1,0.605897863145103,0.11195051617844066,0
2.3295068740844727,0.4068201282457474,[0.70349325],0.005,0.1,0.7982348840812368,0.11580123597223989,0
2.339498996734619,0.4093603115633242,[0.70621156],0.005,0.1,0.9611786109750499,0.1167415280770258,0
2.3501760959625244,0.41209589359763754,[0.70896224],0.005,0.1,0.7961258860669944,0.11560471811561245,0
2.3590314388275146,0.4144406781984775,[0.71174234],0.005,0.1,0.8233031704571669,0.11306222077802168,0
2.367818832397461,0.41678546279931766,[0.71454779],0.005,0.1,0.8973351957617033,0.1096596082996373,0
2.376461982727051,0.4191302474001577,[0.71736939],0.005,0.1,0.9616203404837091,0.08316851449152833,0
2.3844566345214844,0.4216704307177344,[0.72019371],0.005,0.1,0.9990133680751402,0.08549574258931043,0
2.395691156387329,0.4247968101855211,[0.7230164],0.005,0.1,1.0086542982912452,0.10598476942645135,0
2.404465913772583,0.4275323922198345,[0.72583686],0.005,0.1,0.7193850651532525,0.07877912393954532,0
2.4124958515167236,0.4298771768206745,[0.72864196],0.005,0.1,0.656233652608336,0.06264302976672433,0
2.421464681625366,0.43241736013825127,[0.73141615],0.005,0.1,0.39397778316788495,0.0658226712473228,0
2.4314961433410645,0.4351529421725646,[0.73415329],0.005,0.1,0.11271116040281368,0.0671590619218363,0
2.439595937728882,0.437302328056668,[0.73685142],0.005,0.1,-0.1225888005323179,0.06731550530688937,0
2.449854850769043,0.44023330880771805,[0.73950842],0.005,0.1,-0.020871078495390043,0.06633838480725605,0
2.460476875305176,0.4431642895587681,[0.74212228],0.005,0.1,-0.10574793646526237,0.06496581634820266,0
2.4704627990722656,0.44589987159308153,[0.74469116],0.005,0.1,-0.5093510306241733,0.06348576915567497,0
2.479858160018921,0.44824465619392156,[0.74721349],0.005,0.1,-0.6567488128995433,0.062102385943043535,0
2.489318370819092,0.4507848395114983,[0.74968808],0.005,0.1,-0.6857619203613183,0.060743368227536204,0
2.500455617904663,0.4537158202625483,[0.75211419],0.005,0.1,-0.9389518887497293,0.05957546512426552,0
2.509338617324829,0.4560606048633884,[0.75449171],0.005,0.1,-0.9289149300190006,0.05902833184623501,0
2.518472671508789,0.4584053894642284,[0.75682132],0.005,0.1,-1.1009173034332225,0.05897860255887442,0
2.527474880218506,0.4607501740650684,[0.7591014],0.005,0.1,-1.009606523529563,0.049009050743981666,0
2.535475969314575,0.4627041612324352,[0.76132853],0.005,0.1,-1.1147810378355476,0.05240483901974638,0
2.5442652702331543,0.4648535471165385,[0.763504],0.005,0.1,-1.2498632867048955,0.05552286221678453,0
2.5554473400115967,0.46778452786758856,[0.76563318],0.005,0.1,-1.0778734796993037,0.05797936342879045,0
2.5642151832580566,0.46993391375169197,[0.76772176],0.005,0.1,-1.102788411955315,0.060539824052937515,0
2.5724689960479736,0.4720832996357954,[0.76977566],0.005,0.1,-0.8971010125028069,0.06282314924562919,0
2.5831706523895264,0.4748188816701087,[0.7718008],0.005,0.1,-0.9215134156647665,0.06472826899186299,0
2.5929243564605713,0.4771636662709487,[0.77380305],0.005,0.1,-1.0043214376798786,0.06666834225192261,0
2.6014516353607178,0.4791176534383154,[0.77578452],0.005,0.1,-0.8021091078519191,0.0550597844524353,0
2.613527536392212,0.48204863418936544,[0.7777477],0.005,0.1,-0.8129536177822898,0.074523448570863,0
2.6214730739593506,0.48400262135673217,[0.77969879],0.005,0.1,-0.88058652981468,0.060029917273837746,0
2.631437301635742,0.48654280467430894,[0.78163977],0.005,0.1,-0.6670496560013307,0.06405615030246842,0
2.641446352005005,0.4890829879918856,[0.78357267],0.005,0.1,-0.6715818809768818,0.06729423850452727,0
2.6534485816955566,0.4920139687429357,[0.78550683],0.005,0.1,-0.46137389076665647,0.08662905482763761,0
2.664263963699341,0.494749550777249,[0.78745394],0.005,0.1,-0.21642258271736228,0.08320172592481764,0
2.6761364936828613,0.4974851328115624,[0.78942381],0.005,0.1,-0.2802659635393339,0.09962463286153202,0
2.684445858001709,0.49943911997892915,[0.79141702],0.005,0.1,-0.1520094405805329,0.09985917886513694,0
2.6983883380889893,0.5025654994467159,[0.79342996],0.005,0.1,0.015558625320497232,0.13490623488881595,0
2.707608461380005,0.5047148853308193,[0.79547019],0.005,0.1,0.1637603720238656,0.11412140365280085,0
2.7177438735961914,0.507255068648396,[0.79754352],0.005,0.1,0.27560270760767336,0.10000094040371177,0
2.7283248901367188,0.5097952519659726,[0.79964685],0.005,0.1,0.3511800365587686,0.09046909295475787,0
2.738312244415283,0.5123354352835494,[0.80177693],0.005,0.1,0.672544540113356,0.08381644787019708,0
2.7469642162323,0.5146802198843894,[0.80392698],0.005,0.1,0.7278843640548958,0.06404530135498816,0
2.7549021244049072,0.5166342070517561,[0.80608734],0.005,0.1,0.954353421922169,0.0655531740624883,0
2.765444278717041,0.5191743903693328,[0.80825325],0.005,0.1,1.1814447310556777,0.06661108851909713,0
2.7754757404327393,0.5219099724036462,[0.81042426],0.005,0.1,1.0753733599101825,0.06750028769165321,0
2.7854433059692383,0.5244501557212229,[0.81259648],0.005,0.1,1.14531104559222,0.054565624526343705,0
2.796294927597046,0.526794940322063,[0.81476701],0.005,0.1,0.9688533950674161,0.07437644927891084,0
2.8063607215881348,0.5295305223563763,[0.81694115],0.005,0.1,0.734957159142883,0.07446633467202812,0
2.815462112426758,0.5316799082404797,[0.81912387],0.005,0.1,0.5181864976355804,0.07524351245531333,0
2.82444167137146,0.5338292941245831,[0.82131231],0.005,0.1,0.3418984588053634,0.060186045596366075,0
2.832442045211792,0.5357832812919499,[0.82350062],0.005,0.1,0.20803777034926477,0.06593502624943069,0
2.8424477577209473,0.5383234646095265,[0.82569242],0.005,0.1,-0.16526259340256177,0.09042325816221984,0
2.852159023284912,0.5408636479271033,[0.82789946],0.005,0.1,-0.26671395268724174,0.08969556735982964,0
2.861333131790161,0.5430130338112066,[0.83012384],0.005,0.1,-0.25815360683720434,0.0699578412294578,0
2.8706116676330566,0.5453578184120467,[0.83235934],0.005,0.1,-0.21269811436324698,0.07560813358752086,0
2.879467725753784,0.5475072042961501,[0.83460513],0.005,0.1,-0.1614465508740337,0.08063904025121767,0
2.8889851570129395,0.54985198889699,[0.83686509],0.005,0.1,-0.11612909097041674,0.08492275485743084,0
2.898676872253418,0.5523921722145668,[0.8391429],0.005,0.1,-0.07993918071139403,0.08887185188860913,0
2.9074764251708984,0.5543461593819334,[0.84143756],0.005,0.1,-0.05260515421859992,0.0710775919521744,0
2.9164435863494873,0.5564955452660368,[0.84374413],0.005,0.1,-0.3087232851602339,0.08031798299143462,0
2.9260568618774414,0.5590357285836136,[0.8460636],0.005,0.1,-0.3277075268162073,0.0885891382574361,0
2.935487985610962,0.5613805131844536,[0.84840214],0.005,0.1,-0.2627951598858053,0.09617294874189332,0
2.9460716247558594,0.5639206965020302,[0.85076569],0.005,0.1,-0.1800478927887204,0.10289841699627617,0
2.9551055431365967,0.5662654811028704,[0.8531599],0.005,0.1,-0.10511919387296678,0.10927033948879221,0
2.9625062942504883,0.5680240695535003,[0.85559006],0.005,0.1,-0.04568309637909105,0.11563448466916146,0
2.973883867263794,0.5707596515878138,[0.85806115],0.005,0.1,0.27405808176828406,0.1212219323398583,0
2.9822998046875,0.5731044361886538,[0.8605778],0.005,0.1,0.33753961537822885,0.12719803988161094,0
2.991546869277954,0.5754492207894939,[0.86313875],0.005,0.1,0.3023935766767045,0.09915150148983691,0
3.0014586448669434,0.5781848028238072,[0.8657376],0.005,0.1,0.5145768438026894,0.11283464392459097,0
3.0110769271850586,0.5807249861413839,[0.86837493],0.005,0.1,0.48387204484693475,0.1251678713145092,0
3.0198557376861572,0.5828743720254873,[0.8710572],0.005,0.1,0.6510230955549483,0.13582823460382498,0
3.0295045375823975,0.5852191566263274,[0.87378408],0.005,0.1,0.8423127530735248,0.10649290878802004,0
3.039311170578003,0.5877593399439041,[0.87655536],0.005,0.1,0.994922254019676,0.16467389381894718,0
3.0505290031433105,0.5906903206949541,[0.87938289],0.005,0.1,0.8181035126427829,0.16756829930601075,0
3.0600943565368652,0.5932305040125309,[0.88227658],0.005,0.1,0.8350255556265239,0.17072416265412244,0
3.070815324783325,0.5961614847635809,[0.88524492],0.005,0.1,0.9010966363399123,0.22716803613492098,0
3.078460454940796,0.5988970667978942,[0.88828832],0.005,0.1,0.9596270422306206,0.2277630907456615,0
3.0884451866149902,0.6018280475489444,[0.89138109],0.005,0.1,0.9930930492024425,0.16290765337753335,0
3.096583127975464,0.6043682308665211,[0.8944947],0.005,0.1,1.2762510214860001,0.12467694004239495,0
3.1054134368896484,0.607299211617571,[0.89761119],0.005,0.1,1.570694779608232,0.10157598970104098,0
3.1161909103393555,0.6106209898020944,[0.9007285],0.005,0.1,1.5179415496932862,0.16949883685481257,0
3.126426935195923,0.6137473692698813,[0.90386465],0.005,0.1,1.8972754240752456,0.1770904519764263,0
3.1369669437408447,0.617459944887878,[0.90704201],0.005,0.1,2.044862245140697,0.24166490105004068,0
3.147496223449707,0.6207817230724014,[0.91028009],0.005,0.1,2.0652466720940525,0.2315567343672469,0
3.155463933944702,0.6233219063899781,[0.91358896],0.005,0.1,1.739977567278351,0.22705665095015293,0
3.1634442806243896,0.6264482858577648,[0.91697061],0.005,0.1,1.6203677840194253,0.2261355161473347,0
3.1764988899230957,0.6311378550594449,[0.92044181],0.005,0.1,1.5702617477126828,0.38488787796791785,0
3.185102701187134,0.6340688358104949,[0.9240245],0.005,0.1,1.5332129238502836,0.2632341163478788,0
3.193467378616333,0.6371952152782816,[0.92771514],0.005,0.1,1.489009243842614,0.2620287160682289,0
3.203037738800049,0.6407123921795417,[0.93150347],0.005,0.1,1.709070648110197,0.2639846251544832,0
3.2114744186401367,0.6440341703640652,[0.93538013],0.005,0.1,1.675866535247551,0.194999815348524,0
3.221405029296875,0.6479421446987986,[0.93932886],0.005,0.1,2.099386028247319,0.21726766815341544,0
3.23230242729187,0.6526317139004786,[0.94335168],0.005,0.1,2.564309186325803,0.31661570481314394,0
3.244110107421875,0.6573212831021586,[0.947466],0.005,0.1,2.371380494931488,0.30747388433467965,0
3.2538115978240967,0.6610338587201554,[0.95167784],0.005,0.1,2.25086175311134,0.301874953533082,0
3.262397289276123,0.6645510356214154,[0.95597502],0.005,0.1,1.8735088752838782,0.21865505734753182,0
3.274517059326172,0.6696314022565689,[0.96034616],0.005,0.1,1.4626703459458312,0.3193700577635736,0
3.2836554050445557,0.673148579157829,[0.96479686],0.005,0.1,0.549479993887011,0.30950204865821657,0
3.2914021015167236,0.6760795599088789,[0.96932231],0.005,0.1,-0.35855523812345247,0.2226461737982333,0
3.303018808364868,0.6807691291105592,[0.97390856],0.005,0.1,-1.0881011645388678,0.31666907810927947,0
3.31351637840271,0.6852632995955026,[0.97855829],0.005,0.1,-1.3324642348806313,0.30154939166452877,0
3.3214383125305176,0.6883896790632892,[0.98326453],0.005,0.1,-1.6342182310617401,0.21610390404352461,0
3.330456018447876,0.6921022546812859,[0.98800452],0.005,0.1,-2.1535465869947754,0.23033990072992797,0
3.3404691219329834,0.696205627732756,[0.99277423],0.005,0.1,-2.3423805804180517,0.3226866727013842,0
3.352077007293701,0.7006997982176995,[0.99758577],0.005,0.1,-2.3608083633976342,0.3084886616699037,0
3.3615517616271973,0.7044123738356962,[1.00243344],0.005,0.1,-2.292534367487563,0.2218600547849186,0
3.3724095821380615,0.7089065443206396,[1.0072966],0.005,0.1,-2.1818040455880423,0.23838137854211633,0
3.3804492950439453,0.712228322505163,[1.01216592],0.005,0.1,-2.0522598993337535,0.25373512020613825,0
3.388993740081787,0.7159408981231598,[1.01704188],0.005,0.1,-1.9166439706335474,0.266123121543667,0
3.3974099159240723,0.7194580750244197,[1.02191705],0.005,0.1,-1.7818402267911844,0.19981584855303475,0
3.409440040588379,0.7241476442261,[1.02678548],0.005,0.1,-1.6515286350815326,0.3085866837821447,0
3.419419288635254,0.7278602198440967,[1.03165868],0.005,0.1,-1.5276043751625688,0.30800703397179563,0
3.4304375648498535,0.73235439032904,[1.03654645],0.005,0.1,-1.410951192962818,0.30658635344718554,0
3.440410614013672,0.7364577633805102,[1.0414488],0.005,0.1,-1.3018719880910972,0.30679247938070103,0
3.4490396976470947,0.7397795415650336,[1.04636577],0.005,0.1,-1.2003341889874954,0.3090845393157394,0
3.456472158432007,0.7427105223160836,[1.0512892],0.005,0.1,-1.1061128941030791,0.2282875592111732,0
3.4651973247528076,0.7462276992173437,[1.05620402],0.005,0.1,-1.0188762048759996,0.25338739026557844,0
3.4754579067230225,0.7507218697022872,[1.06110604],0.005,0.1,-0.9382370151652988,0.27240530716085,0
3.4854331016540527,0.7546298440370205,[1.06600026],0.005,0.1,-0.5877464624831514,0.28685536745241824,0
3.494763135910034,0.7587332170884905,[1.07089106],0.005,0.1,-0.4859423780627451,0.2976866726229611,0
3.5034103393554688,0.7618595965562772,[1.07578235],0.005,0.1,-0.47772680392575695,0.30784414399558396,0
3.5130791664123535,0.7661583683244839,[1.08067776],0.005,0.1,-0.4954749675388517,0.31599029645074994,0
3.5214426517486572,0.7692847477922707,[1.08557232],0.005,0.1,-0.5122656040105817,0.23610149154666854,0
3.529665946960449,0.7728019246935308,[1.09045386],0.005,0.1,-0.5194105085650439,0.26719072359933926,0
3.539437770843506,0.7767098990282643,[1.09532131],0.005,0.1,-0.7918973891527568,0.29302482274165875,0
3.547426462173462,0.7804224746462608,[1.10017429],0.005,0.1,-0.8125107503629616,0.22466038838862068,0
3.5554134845733643,0.783353455397311,[1.10500437],0.005,0.1,-1.0143925303779011,0.26376228382624145,0
3.5664455890655518,0.788043024598991,[1.10981378],0.005,0.1,-0.9480741330020115,0.29411642286296197,0
3.5779800415039062,0.7921463976504612,[1.11462266],0.005,0.1,-0.7966188844116302,0.42818754683681876,0
3.586149215698242,0.7952727771182478,[1.11944845],0.005,0.1,-0.6369666403494088,0.30923273865685835,0
3.5973801612854004,0.7997669476031912,[1.12429721],0.005,0.1,-0.4973652904329071,0.4441172719310562,0
3.60548996925354,0.8032841245044513,[1.12917411],0.005,0.1,-0.38477620143027114,0.3193217549500918,0
3.6170754432678223,0.8079736937061315,[1.13408324],0.005,0.1,-0.2976596729352474,0.45428618144676286,0
3.6255064010620117,0.8112954718906548,[1.13902769],0.005,0.1,-0.5077638929411195,0.3261404998452504,0
3.63543963432312,0.8150080475086516,[1.1440007],0.005,0.1,-0.4915218657692878,0.34663283218596547,0
3.645453691482544,0.8191114205601217,[1.14899627],0.005,0.1,-0.39958406977957545,0.3634203646773991,0
3.6546971797943115,0.8232147936115918,[1.15401826],0.005,0.1,-0.2959454086312426,0.37705670345946496,0
3.6628336906433105,0.8265365717961152,[1.15906994],0.005,0.1,-0.20467906961644555,0.3895107351488267,0
3.6742875576019287,0.8312261409977952,[1.16415406],0.005,0.1,-0.1322810739059846,0.39824933523649897,0
3.683398485183716,0.834938716615792,[1.16926364],0.005,0.1,-0.0781269310377222,0.29611603844250867,0
3.692409038543701,0.838455893517052,[1.17438345],0.005,0.1,-0.03919907275709495,0.331925433069585,0
3.700371265411377,0.8417776717015754,[1.17950967],0.005,0.1,0.26393837736471615,0.36025235546946327,0
3.7131094932556152,0.8468580383367289,[1.18465723],0.005,0.1,0.31534958032921134,0.5051116139371318,0
3.722388982772827,0.850375215237989,[1.18983841],0.005,0.1,0.27215260818183945,0.3610163586260589,0
3.730541467666626,0.8536969934225123,[1.19504476],0.005,0.1,0.2034333970582317,0.3807028843344776,0
3.7414095401763916,0.857995765190719,[1.20026864],0.005,0.1,0.13711147433307935,0.3946385666005867,0
3.753173589706421,0.8632715305426091,[1.20552119],0.005,0.1,0.0825173060980017,0.5307227220556717,0
3.76238751411438,0.8669841061606058,[1.21081108],0.005,0.1,0.041082159100226695,0.37485371886333096,0
3.7734856605529785,0.8714782766455493,[1.21613555],0.005,0.1,0.011263908961267798,0.5092142070134378,0
3.7834932804107666,0.875777048413756,[1.22150007],0.005,0.1,-0.0092833997702788,0.47883036174207605,0
3.7914035320281982,0.8787080291648061,[1.22689947],0.005,0.1,-0.022830075912474684,0.3433085269271237,0
3.8018860816955566,0.8828114022162762,[1.23231086],0.005,0.1,-0.031274718982856095,0.36057157852532157,0
3.8129663467407227,0.8871101739844829,[1.23773187],0.005,0.1,-0.03609672859299981,0.4933709504462714,0
3.8214828968048096,0.891213547035953,[1.24316888],0.005,0.1,-0.03840290765984371,0.3517299806013648,0
3.8304364681243896,0.8945353252204764,[1.24860959],0.005,0.1,-0.03899998037716325,0.367431050635329,0
3.842470407485962,0.8990294957054198,[1.25404335],0.005,0.1,-0.03846527726918922,0.37831677165375255,0
3.854387044906616,0.9037190649070999,[1.25947817],0.005,0.1,-0.03720615260861554,0.5049550793048804,0
3.86539626121521,0.9082132353920432,[1.26492889],0.005,0.1,-0.035506524062380376,0.4716058251463573,0
3.875476360321045,0.91251200716025,[1.27039878],0.005,0.1,-0.03356190440003163,0.4470773799719534,0
3.8844432830810547,0.9162245827782467,[1.27588137],0.005,0.1,-0.031505132481290214,0.4302754703069176,0
3.895404577255249,0.9207187532631901,[1.2813706],0.005,0.1,-0.02942497261083238,0.41698659755981327,0
3.9048733711242676,0.9248221263146603,[1.28686084],0.005,0.1,-0.02737941252394554,0.40704341339748346,0
3.9182822704315186,0.930293290383287,[1.29235498],0.005,0.1,-0.025405097033553085,0.5139989342676845,0
3.928408622741699,0.9342012647180205,[1.29786292],0.005,0.1,0.25251437859653947,0.46947280220655535,0
3.937438726425171,0.9381092390527538,[1.30337599],0.005,0.1,0.2874149632002162,0.33311387782680524,0
3.949390172958374,0.9429942069711705,[1.30887805],0.005,0.1,0.2339833742602191,0.44551739293671805,0
3.959228038787842,0.9470975800226407,[1.31437105],0.005,0.1,0.1594530268466593,0.4196162220570893,0
3.9717695713043213,0.9517871492243207,[1.31986418],0.005,0.1,0.09037620889097553,0.5123295428878926,0
3.9804747104644775,0.9553043261255808,[1.32535682],0.005,0.1,0.03509550832565918,0.3574860713551385,0
3.988370895385742,0.9586261043101042,[1.3308325],0.005,0.1,-0.005660655432413286,0.356169326614812,0
3.996533155441284,0.9621432812113643,[1.33626946],0.005,0.1,-0.033928319359370476,0.26670857572425144,0
4.004987001419067,0.965269660679151,[1.34164963],0.005,0.1,-0.052396690362304175,0.291262111626965,0
4.013835191726685,0.9685914388636743,[1.346966],0.005,0.1,-0.0635719382688106,0.3102459253386265,0
4.024754047393799,0.9732810080653544,[1.35222107],0.005,0.1,-0.0695126401767322,0.3232221848622688,0
4.034194707870483,0.9771889824000878,[1.35741784],0.005,0.1,-0.0718049332284903,0.33434023436524896,0
4.043369770050049,0.9810969567348212,[1.36255203],0.005,0.1,-0.07162524375005441,0.2557278386271813,0
4.05413556098938,0.9852003297862914,[1.36762121],0.005,0.1,-0.06982421397275493,0.38130931673358115,0
4.062378168106079,0.9885221079708147,[1.37263223],0.005,0.1,-0.06700541770918525,0.28619959010480855,0
4.070432662963867,0.9914530887218647,[1.37758403],0.005,0.1,-0.06359040691471451,0.31271140258929886,0
4.08142614364624,0.996142657923545,[1.38247677],0.005,0.1,-0.05986918220920985,0.3324897936549612,0
4.092789649963379,1.0010276258419617,[1.38732739],0.005,0.1,-0.05603795913189766,0.4553862411241183,0
4.101442098617554,1.0041540053097484,[1.39215096],0.005,0.1,-0.05222679345394997,0.33207102867673666,0
4.111373424530029,1.0080619796444819,[1.39695283],0.005,0.1,-0.048519486215937005,0.4568920181886902,0
4.119380712509155,1.0113837578290052,[1.40173779],0.005,0.1,-0.0449677759362609,0.3331349242352039,0
4.1273722648620605,1.0147055360135286,[1.40649416],0.005,0.1,-0.041601379519049256,0.2587446587746372,0
4.136741399765015,1.0186135103482619,[1.41121207],0.005,0.1,0.2376033067481236,0.390249415598789,0
4.146906852722168,1.022716883399732,[1.41590708],0.005,0.1,-0.0023489270821857866,0.3890571316586662,0
4.155362844467163,1.026234060300992,[1.4205845],0.005,0.1,-0.08781221795247304,0.2919383201823035,0
4.164363861083984,1.0301420346357255,[1.4252332],0.005,0.1,-0.10623829730884889,0.31664909241806305,0
4.174834251403809,1.0344408064039323,[1.42985181],0.005,0.1,0.17773577976648863,0.3349934794191944,0
4.1853883266448975,1.0385441794554024,[1.4344472],0.005,0.1,0.22695644353252284,0.3480429197763251,0
4.194545745849609,1.0418659576399256,[1.43902531],0.005,0.1,0.18851110477502792,0.35739985552636605,0
4.20337700843811,1.045773931974659,[1.44359105],0.005,0.1,0.12687979431159702,0.362221301893788,0
4.213483095169067,1.0496819063093925,[1.44814819],0.005,0.1,0.06796999241516416,0.36348734824372103,0
4.222382068634033,1.0531990832106526,[1.45269936],0.005,0.1,0.020313738728644868,0.3621178775296744,0
4.23138165473938,1.056520861395176,[1.45724594],0.005,0.1,-0.014907949098517332,0.35849112458848187,0
4.242167949676514,1.0610150318801193,[1.46178813],0.005,0.1,-0.039254690642730135,0.35133121918711185,0
4.252371788024902,1.065313803648326,[1.46632507],0.005,0.1,-0.05500276230264009,0.343086714890064,0
4.261131763458252,1.0690263792663228,[1.47084811],0.005,0.1,0.2117084641818432,0.25712277765080827,0
4.269827127456665,1.0723481574508462,[1.47534226],0.005,0.1,0.24011759038790403,0.2715665718339916,0
4.277859449386597,1.075474536918633,[1.47980114],0.005,0.1,-0.09252406443816663,0.2801679614322682,0
4.286380767822266,1.078991713819893,[1.48422554],0.005,0.1,-0.20107350788771913,0.28290604698563976,0
4.296854734420776,1.0834858843048365,[1.48861546],0.005,0.1,-0.21442798292386855,0.2811910341062903,0
4.305461883544922,1.08680766248936,[1.49296406],0.005,0.1,-0.1920191920790273,0.2162954958138511,0
4.3154730796813965,1.09091103554083,[1.49725909],0.005,0.1,-0.16004806957610196,0.2303438123948163,0
4.325381278991699,1.0950144085923001,[1.50150263],0.005,0.1,-0.1291518127198861,0.3048536415326746,0
4.33685564994812,1.09970397779398,[1.50570891],0.005,0.1,-0.1029221296518831,0.290292031130541,0
4.346290588378906,1.1032211546952402,[1.50987786],0.005,0.1,-0.0819436575708326,0.2194138822169393,0
4.355583906173706,1.106933730313237,[1.51399768],0.005,0.1,-0.06565866123214043,0.2305178482829783,0
4.365487575531006,1.1108417046479702,[1.51806522],0.005,0.1,-0.053191209452096745,0.2399419013452451,0
4.374241828918457,1.1147496789827036,[1.52208494],0.005,0.1,-0.04368352834466105,0.24808382713578292,0
4.383060455322266,1.1182668558839637,[1.52606175],0.005,0.1,-0.03641115046408199,0.2557401154895835,0
4.391365051269531,1.1217840327852238,[1.52999453],0.005,0.1,-0.030803358214291796,0.20187655039670815,0
4.4013831615448,1.1256920071199572,[1.53387704],0.005,0.1,-0.026427402766540882,0.2229884587523479,0
4.410338878631592,1.1292091840212175,[1.53771137],0.005,0.1,-0.022962401470930795,0.24070044351912873,0
4.421475410461426,1.1337033545061608,[1.54151312],0.005,0.1,-0.02017352884076154,0.3262967346264019,0
4.430506467819214,1.1374159301241575,[1.54529627],0.005,0.1,-0.017890173094547206,0.2451968771465966,0
4.438344478607178,1.140737708308681,[1.5490537],0.005,0.1,-0.015988749299619173,0.19727049866470642,0
4.448025703430176,1.1444502839266775,[1.55277995],0.005,0.1,-0.014379713122446219,0.2898346533672959,0
4.458758354187012,1.148944454411621,[1.55649042],0.005,0.1,-0.012997986074330625,0.29102829301428274,0
4.467399835586548,1.152461631312881,[1.56019837],0.005,0.1,-0.011796004872111427,0.29208765825923694,0
4.476663112640381,1.1559788082141411,[1.56390202],0.005,0.1,-0.010738726202187202,0.2252449225350232,0
4.489366292953491,1.1612545735660311,[1.5676],0.005,0.1,-0.009800059980491348,0.3146209261660697,0
4.499788522720337,1.1653579466175013,[1.57130457],0.005,0.1,-0.008960332829451363,0.31020444341911146,0
4.508960962295532,1.169070522235498,[1.57502642],0.005,0.1,-0.008204488224023329,0.308252105057379,0
4.516384124755859,1.1723923004200216,[1.57876832],0.005,0.1,-0.00752081041455877,0.3091128105787197,0
4.5274317264556885,1.1768864709049651,[1.5825329],0.005,0.1,-0.006900019372184707,0.3103977496113521,0
4.537323474884033,1.1811852426731717,[1.58631576],0.005,0.1,-0.282372987613115,0.23823333793948043,0
4.550341367721558,1.1860702105915883,[1.59011342],0.005,0.1,-0.31498144684746887,0.33923640902523183,0
4.5588600635528564,1.1897827862095849,[1.59393695],0.005,0.1,-0.25941214956497144,0.3357699151151674,0
4.57035756111145,1.1938861592610552,[1.59779562],0.005,0.1,-0.18289483537297946,0.3323428331956348,0
4.58006739616394,1.1979895323125254,[1.60168992],0.005,0.1,-0.3880141710867361,0.32976810108488086,0
4.592744827270508,1.2030698989476787,[1.6056266],0.005,0.1,-0.36415330455292283,0.4160356639286241,0
4.601399660110474,1.2065870758489385,[1.60961054],0.005,0.1,-0.26672453788208794,0.2998776295071127,0
4.610411643981934,1.209908854033462,[1.61363101],0.005,0.1,-0.16091767858006575,0.30303716664603164,0
4.621006727218628,1.214207625801669,[1.61767798],0.005,0.1,-0.07058536457519149,0.3038620432409462,0
4.62941575050354,1.2175294039861924,[1.62174901],0.005,0.1,-0.0015519694420026153,0.3038930227143465,0
4.639028549194336,1.2216327770376625,[1.62584128],0.005,0.1,0.04752545237242515,0.30250390302120134,0
4.650318145751953,1.2263223462393424,[1.62995168],0.005,0.1,0.08028203520506476,0.2992488413123659,0
4.660848379135132,1.230816516724286,[1.63407694],0.005,0.1,0.10059617272489618,0.29624113258734897,0
4.6713221073150635,1.2351152884924925,[1.63821376],0.005,0.1,0.11183700265250672,0.29340995259338565,0
4.680025100708008,1.2386324653937526,[1.64235888],0.005,0.1,0.11667842581739932,0.291359780910265,0
4.689321517944336,1.2423450410117491,[1.64650915],0.005,0.1,0.11713922849351852,0.2889941878740949,0
4.699594497680664,1.2466438127799562,[1.65066151],0.005,0.1,0.11469624812184441,0.28594649681470513,0
4.708809852600098,1.2501609896812165,[1.65481298],0.005,0.1,0.11040606090200003,0.2834208357568531,0
4.718311309814453,1.2540689640159497,[1.65895439],0.005,0.1,0.1050113359179014,0.21710738750384648,0
4.729154825210571,1.2585631345008927,[1.66307756],0.005,0.1,0.37506417116836643,0.2953550889260119,0
4.74148964881897,1.2636435011360463,[1.66719372],0.005,0.1,0.40196195238410926,0.354868431292254,0
4.749908924102783,1.26696527932057,[1.67131161],0.005,0.1,0.34062968434113094,0.2551672604095695,0
4.760675430297852,1.2712640510887767,[1.67541935],0.005,0.1,0.25845291515282687,0.24953610873969986,0
4.771666765213013,1.27575822157372,[1.67951139],0.005,0.1,0.18207636775973499,0.30214357694692884,0
4.7813780307769775,1.2794707971917167,[1.68358797],0.005,0.1,0.11989411937620212,0.2201216083996535,0
4.790354251861572,1.2829879740929768,[1.68763703],0.005,0.1,-0.20338002664443577,0.21613901838225685,0
4.798314809799194,1.286505150994237,[1.69164733],0.005,0.1,-0.27082475596196387,0.21084149378133799,0
4.809474229812622,1.2911947201959169,[1.69561399],0.005,0.1,-0.23982801745924004,0.20313984045575062,0
4.819900274276733,1.2956888906808604,[1.69953205],0.005,0.1,-0.18014457042439508,0.19482363203509187,0
4.830323696136475,1.299401466298857,[1.70339656],0.005,0.1,-0.12040212333377821,0.1868159018200612,0
4.839954137802124,1.3031140419168539,[1.70720269],0.005,0.1,-0.07054691769233813,0.17866152662166157,0
4.848760604858398,1.3068266175348506,[1.71094578],0.005,0.1,-0.0325013298571384,0.17062471152638686,0
4.85731315612793,1.3103437944361107,[1.71461727],0.005,0.1,-0.005097084685970407,0.13508422183155397,0
4.867408514022827,1.3142517687708442,[1.71820952],0.005,0.1,0.013735006581169114,0.16332390638133878,0
4.877330303192139,1.318355141822314,[1.72172028],0.005,0.1,0.026063946871414275,0.1289872967583869,0
4.887345790863037,1.322458514873784,[1.72514392],0.005,0.1,0.03364360652953253,0.12848914051565613,0
4.8957133293151855,1.325584894341571,[1.7284758],0.005,0.1,0.037850139210675746,0.12769354292840226,0
4.904138803482056,1.3291020712428308,[1.73171632],0.005,0.1,0.3157554418038642,0.12594785113333323,0
4.914347410202026,1.333205444294301,[1.73486645],0.005,0.1,0.34916231583585244,0.12378206915958853,0
4.923870801925659,1.3369180199122979,[1.73792784],0.005,0.1,0.29330344201497294,0.12207722658029474,0
4.93132758140564,1.3400443993800844,[1.74090286],0.005,0.1,0.21579454210725751,0.1211694622457907,0
4.940955400466919,1.3441477724315547,[1.74379111],0.005,0.1,0.14345149027677642,0.10206361713386546,0
4.950100421905518,1.3476649493328146,[1.74658983],0.005,0.1,0.3608339631703512,0.10607031658517883,0
4.960103511810303,1.351572923667548,[1.74930144],0.005,0.1,0.0737986582598224,0.10897675589051947,0
4.970347166061401,1.3558716954357548,[1.75193275],0.005,0.1,-0.04596968739102532,0.11065182863775462,0
4.978362321853638,1.3589980749035415,[1.75448703],0.005,0.1,-0.0885704502378857,0.09548498051458242,0
4.988683462142944,1.3632968466717486,[1.75696813],0.005,0.1,-0.09716626107817078,0.11839938318272239,0
4.9962944984436035,1.366423226139535,[1.75938387],0.005,0.1,-0.09201327817972636,0.09955256679359177,0
5.004805326461792,1.3697450043240584,[1.7617382],0.005,0.1,-0.0823080911099621,0.10356427538592496,0
5.014375686645508,1.373457579942055,[1.76403531],0.005,0.1,-0.07199338274692854,0.10634576309345842,0
5.0222930908203125,1.376583959409842,[1.76627954],0.005,0.1,-0.3386166422020687,0.09191107222484916,0
5.030620813369751,1.3799057375943653,[1.76847168],0.005,0.1,-0.36365374861317945,0.09743143127464146,0
5.04038405418396,1.3836183132123618,[1.77061669],0.005,0.1,-0.30177921854271345,0.10130403200314483,0
5.0491180419921875,1.3869400913968852,[1.77272296],0.005,0.1,-0.496092311294689,0.10412911090453428,0
5.058537483215332,1.3902618695814086,[1.77479806],0.005,0.1,-0.4539868635583558,0.10580554771402631,0
5.068384408950806,1.394169843916142,[1.77684863],0.005,0.1,-0.6143451981707833,0.10606559753396502,0
5.077334642410278,1.3978824195341388,[1.77887682],0.005,0.1,-0.5260182850663315,0.08926161065943167,0
5.089312791824341,1.402571988735819,[1.78088409],0.005,0.1,-0.3680846162660412,0.10769889491370215,0
5.097304582595825,1.405698368203606,[1.78287477],0.005,0.1,-0.48936631348729653,0.08879503485332194,0
5.108195781707764,1.4099971399718125,[1.78485183],0.005,0.1,-0.671639440333567,0.10356216112891041,0
5.118143558502197,1.413709715589809,[1.78682006],0.005,0.1,-0.5548218804556915,0.09809876670687348,0
5.128701448440552,1.4176176899245425,[1.78878306],0.005,0.1,-0.3572345932638825,0.09360889518931345,0
5.137410879135132,1.420939468109066,[1.79074045],0.005,0.1,-0.4429325830030303,0.09072946691995258,0
5.149313926696777,1.425629037310746,[1.79269207],0.005,0.1,-0.3222122631887951,0.08820403335035049,0
5.1583945751190186,1.4291462142120062,[1.79463815],0.005,0.1,-0.15409556130473379,0.08701579755932144,0
5.166395425796509,1.4322725936797929,[1.79657611],0.005,0.1,-0.0008102510165124421,0.0740286506709359,0
5.175375699996948,1.4353989731475796,[1.79850103],0.005,0.1,-0.15745349444337609,0.07710675957366458,0
5.184859991073608,1.438720751332103,[1.80041234],0.005,0.1,-0.10620371430340542,0.07955528252275103,0
5.194099426269531,1.4418471307998897,[1.80231319],0.005,0.1,-0.2725137539086179,0.08157810787769304,0
5.202283620834351,1.4449735102676766,[1.80420337],0.005,0.1,-0.4740089828998781,0.07060185355971237,0
5.211293935775757,1.4482952884522,[1.80607978],0.005,0.1,-0.36682328189158203,0.07482522790982966,0
5.221354961395264,1.4518124653534599,[1.80794354],0.005,0.1,-0.45224408491094603,0.07830594277933549,0
5.233989238739014,1.4565020345551398,[1.80980289],0.005,0.1,-0.578027300634709,0.09664567385782151,0
5.243844509124756,1.4600192114564001,[1.81166882],0.005,0.1,-0.6859720746541473,0.09475777415060077,0
5.253709316253662,1.4637317870743967,[1.81354767],0.005,0.1,-0.7594316984850964,0.0936808188775908,0
5.264843225479126,1.4676397614091303,[1.81544171],0.005,0.1,-0.522678235367134,0.09312342883897523,0
5.272418260574341,1.4701799447267068,[1.81735317],0.005,0.1,-0.5007855370982853,0.09382688111679792,0
5.281293153762817,1.4733063241944937,[1.81928043],0.005,0.1,-0.2701898316579933,0.07736227495060861,0
5.289807558059692,1.476237304945544,[1.82121857],0.005,0.1,-0.28900102364094027,0.08260253464163733,0
5.29934287071228,1.4791682856965935,[1.82316738],0.005,0.1,-0.38107909783379806,0.08700804210912384,0
5.309295177459717,1.4828808613145905,[1.8251306],0.005,0.1,-0.19864296514891275,0.09007345795283378,0
5.319919109344482,1.486593436932587,[1.82711152],0.005,0.1,0.0399075925223409,0.09224999381112459,0
5.328876733779907,1.489719816400374,[1.82911286],0.005,0.1,-0.025314861707372786,0.09391344296758118,0
5.338289976119995,1.4930415945848974,[1.83113663],0.005,0.1,-0.1756561811250484,0.09470880274257532,0
5.346335172653198,1.4955817779024738,[1.83318029],0.005,0.1,-0.046694690591669016,0.07725270901911009,0
5.354964256286621,1.498512758653524,[1.8352374],0.005,0.1,0.1482599578316747,0.08187591957940678,0
5.365301132202148,1.5022253342715206,[1.8373059],0.005,0.1,0.04960554072255215,0.08460005889606516,0
5.375367164611816,1.5053517137393075,[1.83938745],0.005,0.1,0.15059643695265443,0.08616015986826735,0
5.384835481643677,1.5084780932070943,[1.84148287],0.005,0.1,0.01883933687212279,0.08663779773685276,0
5.393331050872803,1.5116044726748812,[1.84359227],0.005,0.1,0.11298351863122941,0.0863620756762404,0
5.403258562088013,1.515121649576141,[1.84571515],0.005,0.1,0.2606247163847809,0.08534018140204075,0
5.412071704864502,1.5184434277606642,[1.84785047],0.005,0.1,0.11827426944011862,0.08390045805837275,0
5.42072057723999,1.5209836110782413,[1.84999323],0.005,0.1,0.18421216626751163,0.06816755581793778,0
5.430320739746094,1.524109990546028,[1.85213524],0.005,0.1,0.026441803718315726,0.07061575548830278,0
5.439145088195801,1.5268455725803411,[1.85427256],0.005,0.1,0.10233480856842841,0.07197421976141723,0
5.448966026306152,1.5301673507648645,[1.8564048],0.005,0.1,-0.03821863058209665,0.07201670971097521,0
5.4573211669921875,1.5327075340824412,[1.85852795],0.005,0.1,0.05473431198356708,0.05993595960541034,0
5.4678285121917725,1.5364201097004382,[1.86063813],0.005,0.1,0.2045584386305447,0.07388937557993903,0
5.476264953613281,1.5389602930180148,[1.86273493],0.005,0.1,0.06573544154651324,0.06034738185984107,0
5.485286474227905,1.5416958750523284,[1.86481469],0.005,0.1,0.13559397444720533,0.06148423327190247,0
5.495259523391724,1.5450176532368518,[1.86687393],0.005,0.1,-0.018290648620173544,0.06162746461369618,0
5.504890203475952,1.5479486339879014,[1.86891251],0.005,0.1,-0.21476300174306415,0.06129298156575654,0
5.513304948806763,1.5508796147389516,[1.87093002],0.005,0.1,-0.10900334115084374,0.060412513483324715,0
5.522300958633423,1.553615196773265,[1.87292314],0.005,0.1,-0.20074962723977868,0.051005983281698544,0
5.530393123626709,1.5561553800908419,[1.87488621],0.005,0.1,-0.06021367859762963,0.0523419639290239,0
5.539591312408447,1.559086360841892,[1.87681713],0.005,0.1,-0.14690047614951035,0.05290446161736562,0
5.54923939704895,1.5618219428762052,[1.87871688],0.005,0.1,-0.2885197007272725,0.05304026935263132,0
5.559228897094727,1.5647529236272555,[1.88058635],0.005,0.1,-0.41745727772888364,0.0528595284363637,0
5.568312644958496,1.5674885056615686,[1.88242652],0.005,0.1,-0.5128037372479093,0.05261527130616527,0
5.578927040100098,1.5708102838460922,[1.8842385],0.005,0.1,-0.5730643847819025,0.052205830751314845,0
5.591304063796997,1.574327460747352,[1.8860262],0.005,0.1,-0.6037011052078868,0.06024144664721974,0
5.600273370742798,1.5770630427816656,[1.88779335],0.005,0.1,-0.8877718906404009,0.049561510427553884,0
5.608306884765625,1.579212428665769,[1.88953836],0.005,0.1,-0.9127833734064363,0.05038885324337356,0
5.617276668548584,1.5819480107000823,[1.89125776],0.005,0.1,-0.83867217850746,0.043843759114916274,0
5.627816200256348,1.5846835927343956,[1.89295183],0.005,0.1,-0.7366605422890359,0.054218188875751146,0
5.636286973953247,1.5870283773352356,[1.89462409],0.005,0.1,-0.6362072483397734,0.046281685927311106,0
5.649321556091309,1.5905455542364957,[1.89627824],0.005,0.1,-0.5477073794714945,0.057250287133712816,0
5.660280704498291,1.5932811362708093,[1.89792101],0.005,0.1,-0.473299000010572,0.05707766060305952,0
5.672321796417236,1.596407515738596,[1.89956172],0.005,0.1,-0.6879244439150074,0.0684479031466249,0
5.682028293609619,1.5989476990561724,[1.90120902],0.005,0.1,-0.39450813191687034,0.06570137813747648,0
5.689287424087524,1.6009016862235392,[1.90286461],0.005,0.1,-0.2645557358933929,0.05325275128804577,0
5.699012756347656,1.6034418695411163,[1.90452414],0.005,0.1,-0.20875500722751783,0.05530039153093879,0
5.706261873245239,1.6053958567084827,[1.9061841],0.005,0.1,-0.18492819381062392,0.047312035640901154,0
5.717275857925415,1.608131438742796,[1.90784486],0.005,0.1,0.10233342235131535,0.062146856129947546,0
5.725270986557007,1.6102808246268994,[1.90951014],0.005,0.1,0.14257497717954026,0.05146290216717192,0
5.734004259109497,1.6122348117942664,[1.91118007],0.005,0.1,0.36995763679345783,0.054910211219662795,0
5.744009733200073,1.6149703938285795,[1.91285503],0.005,0.1,0.33391917550152345,0.05758327237304104,0
5.753635883331299,1.6171197797126828,[1.91453877],0.005,0.1,0.21589939081733114,0.06005276948110174,0
5.762270450592041,1.619464564313523,[1.91623135],0.005,0.1,0.3673529460797089,0.0503103579036748,0
5.770297288894653,1.6216139501976263,[1.91792963],0.005,0.1,0.29635414627337053,0.05490720890151925,0
5.783456563949585,1.624740329665413,[1.91963801],0.005,0.1,0.4396975700215178,0.0722201016908733,0
5.7912678718566895,1.6268897155495166,[1.92136377],0.005,0.1,0.3435092087231634,0.05786660614191607,0
5.804585695266724,1.63021149373404,[1.92310983],0.005,0.1,0.46038365046049107,0.07562895124890429,0
5.814020872116089,1.6325562783348797,[1.92488231],0.005,0.1,0.34209520736103716,0.07456165998382001,0
5.823308229446411,1.634705664218983,[1.92668635],0.005,0.1,0.4424923367233518,0.07388628816872428,0
5.833089351654053,1.63724584753656,[1.92852254],0.005,0.1,0.31288249812013724,0.07343717984115435,0
5.8413002490997314,1.6391998347039267,[1.93038749],0.005,0.1,0.4061200548679325,0.05864833111221912,0
5.8512890338897705,1.6415446193047667,[1.93227795],0.005,0.1,0.5485258964782129,0.07770717033269983,0
5.863265514373779,1.6444756000558167,[1.93419807],0.005,0.1,0.6731245051505308,0.07567603900244217,0
5.872263193130493,1.64662498593992,[1.93614722],0.005,0.1,0.7602379551073033,0.05949344532197554,0
5.882320404052734,1.64896977054076,[1.93811712],0.005,0.1,0.5335684133258921,0.06231072865724161,0
5.890270471572876,1.6505329602746535,[1.94010385],0.005,0.1,0.5185634998620394,0.06444597208502834,0
5.901312828063965,1.6532685423089668,[1.94211059],0.005,0.1,0.5683427682761868,0.08004543027825232,0
5.910249471664429,1.6554179281930703,[1.94413932],0.005,0.1,0.622704369037095,0.061331242891261975,0
5.9202916622161865,1.65776271279391,[1.94618409],0.005,0.1,0.6607403242406097,0.06173489551137936,0
5.9302589893341064,1.6603028961114872,[1.94823907],0.005,0.1,0.6783637061951149,0.06140302543125736,0
5.940277338027954,1.6626476807123272,[1.95030197],0.005,0.1,0.40188707283908004,0.06066507166865097,0
5.949661731719971,1.664992465313167,[1.95237016],0.005,0.1,0.35445650969528064,0.05957389675812241,0
5.958458662033081,1.6671418511972707,[1.95444077],0.005,0.1,0.38553711004076924,0.0583760591171105,0
5.967857122421265,1.6694866357981104,[1.9565108],0.005,0.1,0.4313665456437167,0.0569329521288636,0
5.976272106170654,1.6712452242487406,[1.95857429],0.005,0.1,0.19202275520855022,0.04636845643362938,0
5.9857563972473145,1.6735900088495805,[1.96062576],0.005,0.1,0.18006259278803785,0.057140815987673135,0
5.995990037918091,1.6759347934504207,[1.96266314],0.005,0.1,-0.03460672134403499,0.04588926581056284,0
6.005260229110718,1.6778887806177873,[1.96468157],0.005,0.1,0.002692427692676601,0.046438782140770705,0
6.013267755508423,1.6796473690684175,[1.96667647],0.005,0.1,0.11400627442046858,0.04653697191946725,0
6.021949768066406,1.681601356235784,[1.96864649],0.005,0.1,0.22663514763343143,0.04611475895407706,0
6.030231952667236,1.6833599446864143,[1.97058777],0.005,0.1,0.039529992013904766,0.03899604753263123,0
6.0415098667144775,1.6859001280039907,[1.97249691],0.005,0.1,-0.20901390122611424,0.04667822438876429,0
6.051544427871704,1.6882449126048311,[1.97437586],0.005,0.1,-0.15157120177100655,0.04503708958545809,0
6.059694290161133,1.690003501055461,[1.97622388],0.005,0.1,-0.2807344376219167,0.037839094428167824,0
6.070105075836182,1.6921528869395643,[1.97803565],0.005,0.1,-0.44207495657824347,0.03844370644973241,0
6.081259727478027,1.6944976715404043,[1.97981131],0.005,0.1,-0.3017786029351827,0.04438723771028684,0
6.091895341873169,1.696451658707771,[1.98155556],0.005,0.1,-0.3634284999507801,0.04249149429648947,0
6.100762367248535,1.698210247158401,[1.98326807],0.005,0.1,-0.47403046724611586,0.03589725201913292,0
6.109273433685303,1.699968835609031,[1.98494436],0.005,0.1,-0.2976539020997462,0.03631768467442832,0
6.118832588195801,1.7017274240596612,[1.98658307],0.005,0.1,-0.33484830973842705,0.03664078946501343,0
6.126262426376343,1.7030952150768177,[1.98818353],0.005,0.1,-0.15368909376702689,0.032567851695460205,0
6.134335994720459,1.7046584048107114,[1.98974364],0.005,0.1,-0.21083435258117167,0.034113580557731955,0
6.142893552780151,1.7062215945446046,[1.99126458],0.005,0.1,-0.3313260408706694,0.03567338055401127,0
6.151020288467407,1.707784784278498,[1.99274822],0.005,0.1,-0.44534594618574075,0.03237679275515794,0
6.162729263305664,1.710129568879338,[1.99419751],0.005,0.1,-0.2542356443403005,0.040808834045359614,0
6.170270204544067,1.711888157329968,[1.99561851],0.005,0.1,-0.27417190508635814,0.035867402456517344,0
6.179078102111816,1.7134513470638615,[1.99701503],0.005,0.1,-0.3549872065841557,0.0390521270488699,0
6.189277410507202,1.7154053342312279,[1.99839174],0.005,0.1,-0.15975244576169995,0.04220271577113709,0
6.19894814491272,1.717163922681858,[1.99975651],0.005,0.1,-0.18684549975794187,0.04547952829224499,0
6.208079814910889,1.7189225111324882,[2.0011173],0.005,0.1,-0.2781382838693956,0.04885722125778099,0
6.217268705368042,1.7204857008663814,[2.00248206],0.005,0.1,-0.36942009269040943,0.05239960980975709,0
6.2266929149627686,1.7222442893170116,[2.00385856],0.005,0.1,-0.4389217826795496,0.055864300768365134,0
6.234800338745117,1.7236120803341684,[2.00525072],0.005,0.1,-0.20689953223608792,0.04725433281575624,0
6.244366645812988,1.7253706687847985,[2.00665896],0.005,0.1,-0.1954263658494188,0.053130580194851264,0
6.2532408237457275,1.7267384598019548,[2.00808395],0.005,0.1,0.021233569926364076,0.04610252049072956,0
6.261240720748901,1.728301649535848,[2.00952651],0.005,0.1,0.2625434548089243,0.05327045726675111,0
6.270242929458618,1.729669440553005,[2.01099136],0.005,0.1,0.1867528640397891,0.0598092669475604,0
6.279258728027344,1.731428029003635,[2.0124865],0.005,0.1,0.29705345766718094,0.06510994484490595,0
6.2872655391693115,1.7327958200207916,[2.01401486],0.005,0.1,0.44275365838894004,0.05428859112112793,0
6.298239231109619,1.7345544084714217,[2.01557877],0.005,0.1,0.29081809087869914,0.07770105587637319,0
6.307614803314209,1.7361175982053152,[2.01718753],0.005,0.1,0.3444601064128398,0.07842150132208037,0
6.316941261291504,1.7376807879392087,[2.01884826],0.005,0.1,0.17393423978012182,0.07845968038191742,0
6.325261831283569,1.7392439776731017,[2.0205583],0.005,0.1,0.23757737855118777,0.061948085557558326,0
6.3352625370025635,1.7410025661237318,[2.02231063],0.005,0.1,0.3616798121531804,0.06572904971166747,0
6.3439881801605225,1.742565755857625,[2.02410223],0.005,0.1,0.47733051856054953,0.06828932080053964,0
6.354510068893433,1.7443243443082552,[2.02593339],0.005,0.1,0.5625581683710559,0.06963887644810693,0
6.365216255187988,1.7462783314756218,[2.02780344],0.005,0.1,0.6150456424729838,0.0700423667683001,0
6.37424111366272,1.747841521209515,[2.02970733],0.005,0.1,0.9156759718863423,0.056104224435001834,0
6.3847877979278564,1.7496001096601452,[2.03163999],0.005,0.1,0.9520620667801569,0.07411530554563268,0
6.393941640853882,1.7511632993940385,[2.03360345],0.005,0.1,0.8850234153274841,0.07234844896048963,0
6.402584075927734,1.7525310904111955,[2.03559872],0.005,0.1,0.7867990583433166,0.07078997052203177,0
6.410238265991211,1.7537034827116156,[2.037619],0.005,0.1,0.6877539433048514,0.056317758155696604,0
6.419240951538086,1.7552666724455086,[2.03965458],0.005,0.1,0.5990100687105727,0.05900935035013906,0
6.428812026977539,1.756829862179402,[2.04170022],0.005,0.1,0.5232564088877367,0.06082105072244318,0
6.437926769256592,1.758588450630032,[2.04375446],0.005,0.1,0.45979971668094244,0.061884166869097125,0
6.44623327255249,1.7599562416471888,[2.0458157],0.005,0.1,0.4068418229656835,0.06256073595101111,0
6.45524263381958,1.7615194313810822,[2.04787903],0.005,0.1,0.3624444402949947,0.05123352888190738,0
6.463881254196167,1.762887222398239,[2.04993687],0.005,0.1,0.32488971160451696,0.054574376496456856,0
6.473212718963623,1.7642550134153956,[2.05198592],0.005,0.1,0.2927750394076538,0.057081355666499356,0
6.482786178588867,1.7660136018660257,[2.05402661],0.005,0.1,0.26500055264622,0.05867380306965026,0
6.491217136383057,1.767381392883182,[2.05605609],0.005,0.1,0.24072075144789223,0.04898661590501226,0
6.499226808547974,1.768749183900339,[2.0580688],0.005,0.1,-0.056747607467449335,0.05272347166648416,0
6.508742332458496,1.7703123736342323,[2.06006332],0.005,0.1,-0.10894436280547705,0.055466546079498615,0
6.516217231750488,1.7714847659346524,[2.0620386],0.005,0.1,-0.07093894592374514,0.047225904552923983,0
6.527247905731201,1.7734387531020193,[2.06399387],0.005,0.1,-0.2862965511223597,0.06212417184502126,0
6.535237789154053,1.7748065441191758,[2.06593174],0.005,0.1,-0.26284518615096086,0.05119230486328912,0
6.543701410293579,1.776369733853069,[2.06785144],0.005,0.1,-0.1637989498955521,0.0540164059366881,0
6.555968523025513,1.778323721020436,[2.06975243],0.005,0.1,-0.05726436257649474,0.055906958255546674,0
6.563601016998291,1.7796915120375927,[2.07163739],0.005,0.1,0.03212707454537791,0.05720606220074476,0
6.572253704071045,1.7810593030547492,[2.07350559],0.005,0.1,-0.1774098403226798,0.04817442999102625,0
6.580207824707031,1.7822316953551693,[2.07535348],0.005,0.1,-0.1652223929439522,0.05147527032091322,0
6.588247299194336,1.7835994863723261,[2.07717822],0.005,0.1,-0.08197264720841886,0.044733176015149485,0
6.596214532852173,1.7847718786727458,[2.07897755],0.005,0.1,0.00932537867475413,0.04862403515490204,0
6.605246543884277,1.7859442709731659,[2.08075263],0.005,0.1,-0.19028193837505983,0.05151076213154698,0
6.616207599639893,1.787702859423796,[2.08250739],0.005,0.1,-0.16731364267070317,0.0531524713509218,0
6.6262311935424805,1.7892660491576893,[2.08424509],0.005,0.1,-0.35107057180997503,0.05414512509314463,0
6.635242938995361,1.7904384414581092,[2.08596839],0.005,0.1,-0.286228000272009,0.05483646194421395,0
6.646234750747681,1.7920016311920028,[2.08767946],0.005,0.1,-0.426260101783597,0.05500353521514235,0
6.654637813568115,1.7933694222091594,[2.08938007],0.005,0.1,-0.3245022678298666,0.05507541264432293,0
6.664783477783203,1.7949326119430529,[2.09107164],0.005,0.1,-0.1603280358935518,0.05493778464839776,0
6.6722612380981445,1.7959096055267365,[2.09275266],0.005,0.1,-0.005324891444024413,0.04650154586802555,0
6.681959390640259,1.7974727952606295,[2.09442184],0.005,0.1,0.11733846408668872,0.05741806941230065,0
6.690211057662964,1.7986451875610496,[2.09608084],0.005,0.1,0.20487430846564197,0.04794733801865603,0
6.700218677520752,1.8002083772949429,[2.0977284],0.005,0.1,-0.014029567558516268,0.049536353678815835,0
6.7102134227752686,1.8015761683120999,[2.09936345],0.005,0.1,-0.013808582618514066,0.050700634272755125,0
6.718884706497192,1.8029439593292562,[2.10098766],0.005,0.1,0.05709432340475999,0.05113945234025916,0
6.727258205413818,1.8039209529129396,[2.10259973],0.005,0.1,-0.13943823568708197,0.044241384009648096,0
6.7379066944122314,1.8054841426468329,[2.10419869],0.005,0.1,-0.10703220981165043,0.054483512255969244,0
6.747236490249634,1.8068519336639899,[2.1057864],0.005,0.1,-0.28181907765401243,0.04612303737513883,0
6.759527683258057,1.8086105221146198,[2.10736442],0.005,0.1,-0.4867307234516124,0.0556762621705336,0
6.771205425262451,1.8101737118485133,[2.10893652],0.005,0.1,-0.3805302066891527,0.05442959569020375,0
6.781355619430542,1.8115415028656698,[2.11050585],0.005,0.1,-0.18976330928696367,0.05344148302819022,0
6.789844036102295,1.8129092938828264,[2.11207242],0.005,0.1,-0.005734588113725292,0.05271137280303133,0
6.799983739852905,1.8142770848999832,[2.11363619],0.005,0.1,0.14122779834821572,0.052120612350264384,0
6.8100481033325195,1.81564487591714,[2.11519703],0.005,0.1,0.24663723802517745,0.05160215653072218,0
6.81865382194519,1.8168172682175598,[2.11675472],0.005,0.1,0.039640828763790326,0.05128597016261272,0
6.827199459075928,1.8177942618012435,[2.11830656],0.005,0.1,0.046941723637421995,0.044097473647741886,0
6.835222005844116,1.8189666541016634,[2.11984776],0.005,0.1,0.12129587973288808,0.04567969981041923,0
6.84531307220459,1.8201390464020832,[2.12137662],0.005,0.1,-0.0743800139518408,0.04676449103356511,0
6.854576826095581,1.8213114387025033,[2.12289398],0.005,0.1,-0.04289624401958472,0.04733927272225116,0
6.863315582275391,1.8226792297196601,[2.1244004],0.005,0.1,-0.2197725834402422,0.04747578504944947,0
6.872198581695557,1.82385162202008,[2.12589393],0.005,0.1,-0.15145874290262926,0.04163767318631141,0
6.880455493927002,1.8248286156037634,[2.1273706],0.005,0.1,-0.29139414888445136,0.043197940615098344,0
6.891006946563721,1.82619640662092,[2.12882922],0.005,0.1,-0.19226299564369892,0.04408940785067556,0
6.900310754776001,1.8275641976380768,[2.130271],0.005,0.1,-0.0326801735012876,0.04454714154711306,0
6.908797979354858,1.8287365899384969,[2.13169683],0.005,0.1,0.1164395119023919,0.04468957457406757,0
6.91820502281189,1.829908982238917,[2.13310738],0.005,0.1,0.23246005290668514,0.044595963872547204,0
6.926239252090454,1.8308859758226002,[2.13450105],0.005,0.1,0.036950886309994796,0.03970474514156208,0
6.935197114944458,1.8320583681230203,[2.13587449],0.005,0.1,0.05387084456213119,0.04080625345203374,0
6.946195363998413,1.8332307604234404,[2.13722881],0.005,0.1,0.1353317388129297,0.04636178502506583,0
6.954203844070435,1.8342077540071235,[2.1385669],0.005,0.1,0.22047326368189307,0.040572290622014485,0
6.962244987487793,1.8349893488740703,[2.13988547],0.005,0.1,0.0119390230419541,0.03725935234928247,0
6.970638036727905,1.8361617411744904,[2.14117986],0.005,0.1,0.024357783031912744,0.03858664339834438,0
6.982968091964722,1.8373341334749105,[2.14245193],0.005,0.1,-0.170766808248482,0.04377420971782458,0
6.994285821914673,1.838701924492067,[2.14370702],0.005,0.1,-0.11755912491698689,0.04301660022201992,0
7.0046937465667725,1.839874316792487,[2.14494781],0.005,0.1,-0.2691255591731209,0.04241882106044927,0
7.0142083168029785,1.841046709092907,[2.14617476],0.005,0.1,-0.1785637703950356,0.041941927705469215,0
7.024210453033447,1.8418283039598535,[2.14738829],0.005,0.1,-0.30113902810170284,0.04171786355053694,0
7.037274360656738,1.8431960949770103,[2.14859064],0.005,0.1,-0.4654414474750038,0.04577848762325796,0
7.045590877532959,1.8441730885606937,[2.14978374],0.005,0.1,-0.3303388961756365,0.04011734681110846,0
7.0542707443237305,1.8451500821443771,[2.1509658],0.005,0.1,-0.12053336231243147,0.040305622895564996,0
7.064272403717041,1.8461270757280606,[2.1521354],0.005,0.1,0.07490988085005222,0.04046061592982028,0
7.073821783065796,1.8471040693117438,[2.15329322],0.005,0.1,0.22769533163584527,0.040552407380190045,0
7.082847356796265,1.848081062895427,[2.15443991],0.005,0.1,0.05894503396873674,0.04062309501580369,0
7.092221736907959,1.8490580564791106,[2.15557442],0.005,0.1,0.09405380112757561,0.03719760221428044,0
7.101215362548828,1.8500350500627938,[2.15669424],0.005,0.1,0.18700587578668224,0.038173258394808694,0
7.109725475311279,1.8506212462130038,[2.15779916],0.005,0.1,0.2786785307661856,0.03903387358197777,0
7.122220277786255,1.851793638513424,[2.15889259],0.005,0.1,0.07313890611488982,0.0433940116410769,0
7.1312031745910645,1.8527706320971074,[2.15997754],0.005,0.1,0.0861101489115047,0.03893104808070422,0
7.140059471130371,1.853552226964054,[2.16105326],0.005,0.1,-0.11009432657062052,0.03957933906068902,0
7.150054931640625,1.8545292205477373,[2.16211924],0.005,0.1,-0.05901504139934577,0.04003186414048017,0
7.16022253036499,1.8553108154146838,[2.16317858],0.005,0.1,-0.2133456286621258,0.04439520261956177,0
7.168189525604248,1.8560924102816307,[2.16423224],0.005,0.1,-0.12589687604610325,0.04455580863924182,0
7.17655086517334,1.8568740051485775,[2.16527594],0.005,0.1,0.024300323526392206,0.043525574073758046,0
7.186189889907837,1.8576556000155238,[2.16630783],0.005,0.1,-0.11016490846091645,0.04282338385496247,0
7.198836326599121,1.8588279923159439,[2.16733144],0.005,0.1,-0.033382710752662206,0.04625091532356523,0
7.207205772399902,1.8596095871828908,[2.16834976],0.005,0.1,-0.17880522539664714,0.04070981622232432,0
7.219037055969238,1.8607819794833107,[2.16936354],0.005,0.1,-0.08996335725224501,0.044226823665814,0
7.2301599979400635,1.8617589730669941,[2.17037487],0.005,0.1,0.058511247489560415,0.04286858817312394,0
7.239219665527344,1.8625405679339408,[2.17138542],0.005,0.1,0.19727528354495633,0.04191358168656788,0
7.247191905975342,1.8635175615176243,[2.17239326],0.005,0.1,0.30418004623025746,0.037995680767299374,0
7.256190299987793,1.8642991563845706,[2.17339513],0.005,0.1,0.37686405742541373,0.0384396406476863,0
7.268246650695801,1.8654715486849907,[2.17439135],0.005,0.1,0.42019665582454324,0.041788565339413615,0
7.277695178985596,1.8662531435519374,[2.1753852],0.005,0.1,0.16476418605894982,0.041031187374823884,0
7.286191701889038,1.8668393397021477,[2.17637636],0.005,0.1,0.1357227230457401,0.03755417879171708,0
7.2952351570129395,1.8678163332858309,[2.17736144],0.005,0.1,0.18346836950278977,0.0379100832797982,0
7.304192066192627,1.868402529436041,[2.17833905],0.005,0.1,0.2446661719483752,0.038276134320866226,0
7.312168121337891,1.8691841243029876,[2.1793081],0.005,0.1,0.019593632415527223,0.03595870923390053,0
7.322344541549683,1.8699657191699341,[2.18026766],0.005,0.1,0.020909061366581785,0.03946123079109483,0
7.332154750823975,1.8707473140368809,[2.18121997],0.005,0.1,0.094620575932333,0.03930658946294247,0
7.34116530418396,1.871333510187091,[2.18216549],0.005,0.1,-0.09953536429131239,0.03666611410936445,0
7.349202632904053,1.8719197063373008,[2.18310171],0.005,0.1,-0.34186057194317593,0.037342842664538106,0
7.359175443649292,1.8727013012042475,[2.184028],0.005,0.1,-0.27351380771106165,0.03780069335116306,0
7.367169618606567,1.8734828960711942,[2.18494388],0.005,0.1,-0.11483438804388335,0.035748333334450134,0
7.377262592315674,1.8740690922214043,[2.18584758],0.005,0.1,-0.23187729008554447,0.03662584699654325,0
7.389186382293701,1.8750460858050875,[2.18674049],0.005,0.1,-0.1366437411698022,0.039690235424415174,0
7.400806427001953,1.8756322819552977,[2.18762803],0.005,0.1,-0.2655501841244357,0.04231416106566191,0
7.408259153366089,1.8762184781055076,[2.188512],0.005,0.1,-0.1629125184117543,0.04246180248112018,0
7.418188810348511,1.8768046742557176,[2.1893884],0.005,0.1,-0.0032638559726894945,0.04131788607169621,0
7.429163455963135,1.8775862691226646,[2.19025663],0.005,0.1,0.14444826782053827,0.04339552595105933,0
7.441079378128052,1.8783678639896109,[2.19112167],0.005,0.1,-0.017520216243443076,0.04491039548632963,0
7.450006484985352,1.8791494588565578,[2.19198626],0.005,0.1,0.027816758208318082,0.0399210371335058,0
7.45917010307312,1.8797356550067679,[2.19284858],0.005,0.1,0.13095826405781763,0.039371296692767295,0
7.469172716140747,1.8803218511569777,[2.19370694],0.005,0.1,-0.04449391594139046,0.03903436821261446,0
7.477789878845215,1.880908047307188,[2.19456121],0.005,0.1,0.0002549380859417638,0.03877622298649535,0
7.488934516906738,1.8814942434573978,[2.1954112],0.005,0.1,0.10740318354759344,0.03857425122225126,0
7.497159719467163,1.8822758383243443,[2.19625673],0.005,0.1,0.2129970282108106,0.03836305780758121,0
7.506180286407471,1.8828620344745544,[2.19709638],0.005,0.1,0.29547156099239186,0.0362773454019718,0
7.515070199966431,1.883252831908028,[2.19792772],0.005,0.1,0.07524749570899544,0.03687556003702238,0
7.5241780281066895,1.8838390280582376,[2.19875008],0.005,0.1,0.07453244398269317,0.037320830707450556,0
7.534228563308716,1.8844252242084478,[2.19956428],0.005,0.1,0.14374076512199066,0.03766897885034967,0
7.542171478271484,1.8850114203586577,[2.20036992],0.005,0.1,0.22058994212606525,0.03604186720050144,0
7.553159713745117,1.8855976165088677,[2.20116679],0.005,0.1,0.006612692103648482,0.03889439189757719,0
7.564156532287598,1.886183812659078,[2.20195749],0.005,0.1,0.015604017456382582,0.03895921698122338,0
7.575175523757935,1.8869654075260245,[2.20274434],0.005,0.1,0.09449562405342252,0.03896212629876509,0
7.584876775741577,1.8873562049594979,[2.20352812],0.005,0.1,-0.0962665912096325,0.03916504807611102,0
7.5941948890686035,1.8881377998264446,[2.20430968],0.005,0.1,-0.06041895743846324,0.03931003447015071,0
7.603509187698364,1.8887239959766546,[2.20508992],0.005,0.1,0.04231102479446948,0.03952123271142526,0
7.611143350601196,1.8891147934101278,[2.20586838],0.005,0.1,0.14655069431029957,0.03750230234499696,0
7.620198011398315,1.8895055908436014,[2.20664339],0.005,0.1,-0.04632602208718735,0.03837304482484504,0
7.6312901973724365,1.8900917869938112,[2.20741639],0.005,0.1,-0.021633366689513052,0.04154498806960943,0
7.6417481899261475,1.890873381860758,[2.20819131],0.005,0.1,0.06868462230092365,0.041215319628070374,0
7.650181770324707,1.891264179294231,[2.20896873],0.005,0.1,0.16214933533242998,0.03863606288534039,0
7.661184072494507,1.8918503754444413,[2.20974635],0.005,0.1,0.23692320600518119,0.039188258939931386,0
7.670161724090576,1.8922411728779145,[2.21052357],0.005,0.1,0.28862851153853886,0.03968692923736752,0
7.679204702377319,1.8928273690281245,[2.21130121],0.005,0.1,0.3196181889072067,0.040022946026287226,0
7.689138174057007,1.8932181664615981,[2.21207998],0.005,0.1,0.05817561736122845,0.04036084448989361,0
7.700167655944824,1.8939997613285446,[2.21286048],0.005,0.1,0.02758420252881541,0.04055259890509452,0
7.7091593742370605,1.894390558762018,[2.21364321],0.005,0.1,0.07680821854598394,0.040799752500071465,0
7.718167304992676,1.8949767549122283,[2.21442724],0.005,0.1,0.1414585416309015,0.03861335458844301,0
7.726165294647217,1.8953675523457014,[2.21521041],0.005,0.1,0.1970950717059399,0.03945303660774724,0
7.734722852706909,1.8959537484959115,[2.21599229],0.005,0.1,0.23689307885705274,0.0400769183312922,0
7.744871139526367,1.8963445459293846,[2.21677394],0.005,0.1,0.26118674332168,0.040629255775887725,0
7.752169847488403,1.896735343362858,[2.21755489],0.005,0.1,0.5487763319517936,0.038708283171949597,0
7.760146617889404,1.8971261407963316,[2.21833337],0.005,0.1,0.5838815106613641,0.039634452510467634,0
7.768134355545044,1.8975169382298047,[2.21910928],0.005,0.1,0.5240101472937687,0.040361317941689845,0
7.776138544082642,1.8979077356632779,[2.21988253],0.005,0.1,0.43864377464965265,0.03868814322049916,0
7.784612655639648,1.8984939318134881,[2.22065172],0.005,0.1,0.3560238945250773,0.03963565611006457,0
7.7938103675842285,1.899080127963698,[2.22141705],0.005,0.1,0.2857138754811592,0.04035105764186168,0
7.804132699966431,1.899666324113908,[2.2221801],0.005,0.1,0.22929796881778025,0.04089201141464539,0
7.812148571014404,1.8998617228306447,[2.22294083],0.005,0.1,0.18532341298116944,0.03917718361850898,0
7.823161840438843,1.900447918980855,[2.22369922],0.005,0.1,0.15148625676395822,0.04242507749493274,0
7.831245422363281,1.9010341151310648,[2.22445661],0.005,0.1,0.12552456782430352,0.04006330577626602,0
7.8393940925598145,1.9014249125645382,[2.22521277],0.005,0.1,0.10552520543266053,0.040751940700956855,0
7.849263668060303,1.9020111087147482,[2.22596745],0.005,0.1,0.08997928857869217,0.041241794012411084,0
7.8588831424713135,1.9024019061482214,[2.22672181],0.005,0.1,0.07774135392716802,0.04165203713700583,0
7.867165803909302,1.9029881022984314,[2.2274753],0.005,0.1,0.06796090088149412,0.03949073241089537,0
7.877151966094971,1.9035742984486415,[2.22822733],0.005,0.1,0.33605287185968796,0.04263081319615474,0
7.885143995285034,1.9041604945988515,[2.22897891],0.005,0.1,0.3626112947467127,0.04035816464195913,0
7.894039630889893,1.9045512920323246,[2.22972979],0.005,0.1,0.3019984792628833,0.04113205702068267,0
7.90313982963562,1.9049420894657982,[2.23047984],0.005,0.1,0.22120897821441426,0.041795798532985755,0
7.911796808242798,1.9053328868992714,[2.23123041],0.005,0.1,0.1466180818747571,0.04235806725062727,0
7.919581651687622,1.9059190830494817,[2.23198131],0.005,0.1,0.08643598957338677,0.04041649641394581,0
7.929157495498657,1.9065052791996915,[2.23273114],0.005,0.1,0.04129089783472237,0.04140812031182256,0
7.939145565032959,1.9070914753499015,[2.23348023],0.005,0.1,0.009069796933574393,0.04225476293918062,0
7.947179317474365,1.9076776715001116,[2.23422898],0.005,0.1,-0.01297660730986982,0.04050703938258081,0
7.957372665405273,1.908068468933585,[2.23497789],0.005,0.1,-0.02740222313557021,0.04453459198996912,0
7.966437578201294,1.9086546650837948,[2.23573053],0.005,0.1,-0.0363042514062417,0.04493295908960894,0
7.9746479988098145,1.909240861234005,[2.23648854],0.005,0.1,-0.041300648095884754,0.04234508972673087,0
7.983130693435669,1.9096316586674782,[2.23725046],0.005,0.1,-0.04359450826826883,0.043570905487821124,0
7.992680788040161,1.9106086522511616,[2.23801675],0.005,0.1,-0.04405918415011165,0.04445289660058465,0
8.001203775405884,1.910999449684635,[2.23878786],0.005,0.1,-0.043317864063050784,0.04230840329318155,0
8.012147665023804,1.911585645834845,[2.2395627],0.005,0.1,-0.041809249721791224,0.043836256303961395,0
8.020279169082642,1.9121718419850549,[2.24034215],0.005,0.1,-0.039838492358854206,0.045159203285956705,0
8.028643131256104,1.9127580381352651,[2.24112872],0.005,0.1,-0.03761530693359129,0.04627833885678691,0
8.038720607757568,1.9133442342854752,[2.24192463],0.005,0.1,-0.03528186121985383,0.04722647358650789,0
8.046178102493286,1.9137350317189483,[2.24273011],0.005,0.1,-0.032932884044202734,0.0443695710931372,0
8.0548677444458,1.9145166265858953,[2.24354357],0.005,0.1,0.24540834288603228,0.04583978867265956,0
8.065142393112183,1.915102822736105,[2.24436721],0.005,0.1,0.28075098132717774,0.05144199895698418,0
8.07315707206726,1.9154936201695782,[2.2452046],0.005,0.1,0.22776396119509218,0.04712145746898504,0
8.081271171569824,1.9162752150365252,[2.24605338],0.005,0.1,0.15366915729318145,0.04440687493580344,0
8.091147661209106,1.9168614111867353,[2.24690975],0.005,0.1,0.08501162987122551,0.046269151519760125,0
8.102589845657349,1.9178384047704187,[2.24777579],0.005,0.1,0.03012969612754654,0.0520677913682931,0
8.111133337020874,1.9182292022038918,[2.24865497],0.005,0.1,0.2657878742847028,0.047634066797726804,0
8.121118307113647,1.9190107970708385,[2.24954649],0.005,0.1,0.27099710045398284,0.04871764577523161,0
8.131226301193237,1.9195969932210482,[2.25044951],0.005,0.1,0.19776004590555984,0.049608108437690805,0
8.13973593711853,1.9201831893712586,[2.25136496],0.005,0.1,0.11080520877936387,0.050274432241182665,0
8.14813756942749,1.9207693855214683,[2.25229342],0.005,0.1,0.03462500221175224,0.050799269187954466,0
8.156164169311523,1.9213555816716783,[2.25323341],0.005,0.1,-0.024027034094699015,0.04698427399360306,0
8.165169954299927,1.9219417778218884,[2.2541817],0.005,0.1,-0.06560278826968566,0.04839758801321173,0
8.174107551574707,1.9225279739720984,[2.25513722],0.005,0.1,-0.09299335284586094,0.04950389955077929,0
8.184008836746216,1.9231141701223082,[2.25610071],0.005,0.1,-0.10949615886758365,0.05030751063400578,0
8.193803787231445,1.9238957649892552,[2.25707265],0.005,0.1,-0.11804361958424832,0.05078114908241585,0
8.20444655418396,1.9246773598562017,[2.25805321],0.005,0.1,-0.12098891814150634,0.05107116123272929,0
8.214132308959961,1.9252635560064117,[2.25904232],0.005,0.1,-0.12011884673984709,0.05131288110313089,0
8.222769021987915,1.9256543534398853,[2.26003972],0.005,0.1,0.1592942460618146,0.051524693079676886,0
8.231129169464111,1.9262405495900952,[2.26104328],0.005,0.1,0.1973598134905461,0.047660926066044516,0
8.240108251571655,1.9268267457403054,[2.26204932],0.005,0.1,0.14811070217584876,0.04883551429364652,0
8.248530626296997,1.9274129418905153,[2.26305634],0.005,0.1,0.07832626702944975,0.04970634199961018,0
8.257143259048462,1.9279991380407253,[2.26406301],0.005,0.1,0.014248585082701111,0.046710686239780745,0
8.26611876487732,1.9285853341909356,[2.26506643],0.005,0.1,-0.03598774578486666,0.0481225293792152,0
8.274591445922852,1.9291715303411452,[2.26606581],0.005,0.1,-0.07179040579068426,0.04919009669948651,0
8.283111810684204,1.9297577264913552,[2.26706213],0.005,0.1,-0.09528143350842977,0.049927420530797795,0
8.295135974884033,1.9307347200750387,[2.26805776],0.005,0.1,-0.10920144316093586,0.054351443837066964,0
8.308141946792603,1.9315163149419852,[2.2690562],0.005,0.1,-0.11608436584452864,0.053387148074248145,0
8.316142559051514,1.9321025110921954,[2.27005706],0.005,0.1,-0.1180005788241118,0.049029155234001,0
8.32519817352295,1.932884105959142,[2.27105669],0.005,0.1,-0.1165374238669993,0.04966629921157246,0
8.334139108657837,1.933470302109352,[2.27205363],0.005,0.1,-0.11286566278972021,0.05027574103249455,0
8.343549013137817,1.9340564982595623,[2.27304829],0.005,0.1,-0.10782597719294049,0.05075664486385159,0
8.352136611938477,1.934642694409772,[2.27403947],0.005,0.1,-0.10200944843796358,0.04770885919597791,0
8.36414623260498,1.9356196879934555,[2.27502618],0.005,0.1,-0.09582380326824183,0.052461512611189746,0
8.37544560432434,1.9364012828604023,[2.2760109],0.005,0.1,-0.08954468955599801,0.052331264419240374,0
8.387652397155762,1.9371828777273485,[2.2769973],0.005,0.1,-0.08335397430371097,0.05635128703365208,0
8.395990133285522,1.9375736751608224,[2.27798678],0.005,0.1,-0.07736771156182415,0.05114215259769334,0
8.407187700271606,1.9385506687445055,[2.27897718],0.005,0.1,-0.07165625991049751,0.051198295760408484,0
8.419178485870361,1.939332263611452,[2.27996808],0.005,0.1,-0.06625859812516852,0.05504925346186184,0
8.428627729415894,1.9397230610449256,[2.28096201],0.005,0.1,-0.06119242923839042,0.05387356197086366,0
8.437737464904785,1.940504655911872,[2.28195926],0.005,0.1,-0.33249962368124936,0.05288656224206895,0
8.447186946868896,1.9410908520620822,[2.2829568],0.005,0.1,-0.36122231900927004,0.04901204506155271,0
8.457112312316895,1.9416770482122923,[2.28395037],0.005,0.1,-0.302040825681868,0.04938545144859465,0
8.470109462738037,1.9426540417959755,[2.28494032],0.005,0.1,-0.22217417743143858,0.055752090518372606,0
8.479118585586548,1.943044839229449,[2.28592949],0.005,0.1,-0.1481554823342056,0.05060356719374365,0
8.487157583236694,1.9436310353796589,[2.28691454],0.005,0.1,-0.3643438741114406,0.04759306177812032,0
8.498138189315796,1.944217231529869,[2.28789095],0.005,0.1,-0.35249266725657113,0.050219519494321144,0
8.50612211227417,1.944803427680079,[2.2888573],0.005,0.1,-0.26523452693749544,0.04735062104932748,0
8.514687538146973,1.9451942251135523,[2.289811],0.005,0.1,-0.16709158638033145,0.047531632761578166,0
8.52239727973938,1.9455850225470255,[2.29074973],0.005,0.1,-0.08208579981580483,0.04761806907293613,0
8.53054428100586,1.9461712186972357,[2.29167151],0.005,0.1,-0.01647624668637069,0.045905814845804346,0
8.53913402557373,1.946562016130709,[2.29257364],0.005,0.1,-0.24541874053607765,0.04642320408169719,0
8.54824185371399,1.9469528135641823,[2.29345394],0.005,0.1,-0.2467245351165045,0.04535364475568748,0
8.55617642402649,1.9473436109976556,[2.29431075],0.005,0.1,-0.17152251714055278,0.04599896130170552,0
8.564115285873413,1.9477344084311288,[2.2951439],0.005,0.1,-0.35995345640986015,0.046498536823297756,0
8.574113130569458,1.9481252058646024,[2.29595446],0.005,0.1,-0.3171145282953792,0.046836121647510214,0
8.58215880393982,1.9485160032980757,[2.2967425],0.005,0.1,-0.4801790845641994,0.04579022325935829,0
8.592949867248535,1.9491021994482856,[2.29750826],0.005,0.1,-0.39676178841991894,0.047628332963985054,0
8.604119539260864,1.9492975981650225,[2.29825408],0.005,0.1,-0.5211038402836805,0.04771865783865232,0
8.614123106002808,1.9496883955984958,[2.29898211],0.005,0.1,-0.6824661662685138,0.04773884425198515,0
8.62207317352295,1.950079193031969,[2.29969234],0.005,0.1,-0.816900584587981,0.04649166230252887,0
8.633157730102539,1.9504699904654423,[2.30038493],0.005,0.1,-0.9073188701434534,0.04818043702069094,0
8.644575357437134,1.950665389182179,[2.30106196],0.005,0.1,-0.6794583005729806,0.04814978070109846,0
8.655152082443237,1.9508607878989157,[2.30172534],0.005,0.1,-0.9363286676208196,0.04815808547274778,0
8.665269136428833,1.9510561866156522,[2.30237578],0.005,0.1,-1.013202722830548,0.04819117314036036,0
8.675859212875366,1.9512515853323888,[2.30301393],0.005,0.1,-1.0053534624645772,0.04822377164332194,0
8.683747291564941,1.9512515853323888,[2.30364038],0.005,0.1,-0.6836120527245104,0.048317555719648006,0
8.69398546218872,1.951446984049126,[2.30425561],0.005,0.1,-0.8658016134612725,0.04835299648604487,0
8.703912496566772,1.951446984049126,[2.30486003],0.005,0.1,-0.889212951111376,0.04843917588896452,0
8.712106466293335,1.951446984049126,[2.30545389],0.005,0.1,-0.8463789913607105,0.04851250010163732,0
8.723397016525269,1.951446984049126,[2.30603733],0.005,0.1,-0.7801959503032945,0.04855843674837255,0
8.733684539794922,1.951446984049126,[2.30661039],0.005,0.1,-0.9857452911410588,0.04862189541516324,0
8.744356870651245,1.951446984049126,[2.30717298],0.005,0.1,-0.675832421338842,0.04866768911830177,0
8.754114151000977,1.951446984049126,[2.30772501],0.005,0.1,-0.5267525355955881,0.04872154987279084,0
8.764313697814941,1.951446984049126,[2.30826636],0.005,0.1,-0.45146501858338345,0.04879986715872929,0
8.77288556098938,1.951446984049126,[2.30879692],0.005,0.1,-0.1327873326332221,0.0488750421756447,0
8.782194137573242,1.951446984049126,[2.30931662],0.005,0.1,0.2053066753760323,0.04894408248143978,0
8.792488098144531,1.9512515853323888,[2.30982541],0.005,0.1,0.482951197462042,0.04910645376459461,0
8.800541162490845,1.951446984049126,[2.31032268],0.005,0.1,0.6825831115148812,0.0485221076187954,0
8.808634996414185,1.951446984049126,[2.31080736],0.005,0.1,0.8109739047728215,0.04877159446580326,0
8.81849217414856,1.951446984049126,[2.31127916],0.005,0.1,0.8822991195585204,0.04897889391616036,0
8.826124668121338,1.951446984049126,[2.31173792],0.005,0.1,0.911109837832174,0.04866552952211866,0
8.836106300354004,1.951446984049126,[2.31218349],0.005,0.1,0.9098235337029723,0.04937408455689145,0
8.846116542816162,1.951446984049126,[2.3126163],0.005,0.1,0.8881725037401583,0.0490096952198747,0
8.85452914237976,1.951446984049126,[2.31303624],0.005,0.1,0.8534196577069773,0.0491880010504913,0
8.863197326660156,1.951446984049126,[2.31344318],0.005,0.1,0.8108100317529571,0.04932338073577085,0
8.872092008590698,1.951446984049126,[2.31383709],0.005,0.1,0.7640366312146549,0.049120635345620514,0
8.881094932556152,1.951446984049126,[2.3142175],0.005,0.1,0.7156410017879177,0.04930849877095746,0
8.88974142074585,1.951446984049126,[2.3145845],0.005,0.1,0.6673304922287274,0.04944957911622599,0
8.90010380744934,1.951446984049126,[2.31493858],0.005,0.1,0.6202184221763889,0.0495711575981346,0
8.908790349960327,1.951446984049126,[2.31528022],0.005,0.1,0.5750009218890841,0.04968035014871453,0
8.918572664260864,1.951446984049126,[2.31560991],0.005,0.1,0.5320847870580402,0.04978504217923994,0
8.928985595703125,1.951446984049126,[2.31592813],0.005,0.1,0.491678740077113,0.049879654175976916,0
8.937108278274536,1.951446984049126,[2.31623505],0.005,0.1,0.4538579454293749,0.04977797790386434,0
8.945889472961426,1.951446984049126,[2.31653056],0.005,0.1,0.41860925767084123,0.04993990128858653,0
8.95622181892395,1.951446984049126,[2.31681509],0.005,0.1,0.3858627279127023,0.05008117389031967,0
8.966168642044067,1.951446984049126,[2.31708943],0.005,0.1,0.35551338094978524,0.05021409208689556,0
8.976186752319336,1.951446984049126,[2.3173544],0.005,0.1,0.327436142198486,0.050329858483413335,0
8.984120845794678,1.951446984049126,[2.31761076],0.005,0.1,0.30149596394769307,0.0504325465325804,0
8.995053768157959,1.951446984049126,[2.31785923],0.005,0.1,0.27755460147834055,0.05053075148078747,0
9.006160020828247,1.951446984049126,[2.31810047],0.005,0.1,0.2554750613420499,0.05061494257134209,0
9.016204118728638,1.951446984049126,[2.31833508],0.005,0.1,0.23512443988679493,0.050691087643123134,0
9.024098873138428,1.951446984049126,[2.31856357],0.005,0.1,0.2163756550446905,0.050764757288621135,0
9.035188436508179,1.951446984049126,[2.31878641],0.005,0.1,0.19910842285148442,0.05083587625430753,0
9.043545722961426,1.951446984049126,[2.31900399],0.005,0.1,0.18320972365371493,0.05089653286024752,0
9.05242657661438,1.951446984049126,[2.31921665],0.005,0.1,0.16857392824420755,0.050955986094928726,0
9.063106536865234,1.951446984049126,[2.31942464],0.005,0.1,0.15510270184339628,0.051016751425840154,0
9.072111129760742,1.951446984049126,[2.31962794],0.005,0.1,0.14270476725741907,0.050955382311652045,0
9.080312252044678,1.9512515853323888,[2.31982627],0.005,0.1,0.13129558300006453,0.051137558016994135,0
9.088059663772583,1.951446984049126,[2.32001947],0.005,0.1,0.12079697436142339,0.051038197373730936,0
9.096068859100342,1.951446984049126,[2.3202074],0.005,0.1,0.11113674302101273,0.05114675915806592,0
9.106148958206177,1.9512515853323888,[2.32039048],0.005,0.1,0.10224827220905777,0.05143060293830563,0
9.116073608398438,1.951446984049126,[2.32056958],0.005,0.1,0.09407013847502865,0.05139857896107199,0
9.124637126922607,1.9512515853323888,[2.32074495],0.005,0.1,0.08654573702785677,0.05143103006949113,0
9.133072853088379,1.9512515853323888,[2.32091631],0.005,0.1,0.07962292480768121,0.051501005329850344,0
9.144078016281128,1.9512515853323888,[2.32108356],0.005,0.1,0.0732536835427397,0.051560148803078173,0
9.156590223312378,1.951446984049126,[2.32124699],0.005,0.1,0.0673938037632096,0.05158854823940281,0
9.166080951690674,1.9512515853323888,[2.32140669],0.005,0.1,0.06200258989493418,0.05162292029627767,0
9.174084663391113,1.951446984049126,[2.32156228],0.005,0.1,0.05704258600631577,0.051577107467635996,0
9.18405556678772,1.951446984049126,[2.32171333],0.005,0.1,0.05247932143790871,0.051609368725525996,0
9.19205904006958,1.9512515853323888,[2.32185944],0.005,0.1,0.04828107534135222,0.05170042783188243,0
9.201056480407715,1.9512515853323888,[2.32200007],0.005,0.1,0.044418659046981085,0.051741908180880605,0
9.213086605072021,1.9512515853323888,[2.32213485],0.005,0.1,0.04086521513628026,0.05178688861781934,0
9.221065998077393,1.9512515853323888,[2.32226345],0.005,0.1,0.037596032094519186,0.05181235688617559,0
9.229749917984009,1.9512515853323888,[2.32238541],0.005,0.1,0.03458837344535702,0.051847608561047226,0
9.240072011947632,1.9512515853323888,[2.32250019],0.005,0.1,0.03182132031260826,0.051880900997438084,0
9.252062797546387,1.951446984049126,[2.32260729],0.005,0.1,0.029275626407615576,0.05183882750140628,0
9.26106595993042,1.9512515853323888,[2.32270627],0.005,0.1,0.026933584499017598,0.05195848795542366,0
9.27078652381897,1.9512515853323888,[2.32279648],0.005,0.1,0.024778903481904098,0.052013604550230984,0
9.27907919883728,1.9512515853323888,[2.32287435],0.005,0.1,0.022796595223317246,0.053249142086423215,0
9.288942575454712,1.9512515853323888,[2.32292976],0.005,0.1,0.02097287041942776,0.058497333403472095,0
9.297078371047974,1.9512515853323888,[2.32294984],0.005,0.1,0.01929504275565666,0.05989423249424958,0
9.306055068969727,1.9512515853323888,[2.32292283],0.005,0.1,0.017751440714052324,0.06977730533606755,0
9.314663887023926,1.9512515853323888,[2.32283343],0.005,0.1,0.01633132642212188,0.08351503493685009,0
9.324626207351685,1.9512515853323888,[2.32266234],0.005,0.1,0.015024820983987757,0.10206114254664352,0
9.335084915161133,1.9512515853323888,[2.32238907],0.005,0.1,0.013822835778213657,0.12590737205319133,0
9.344602823257446,1.9512515853323888,[2.32199201],0.005,0.1,0.01271700924701805,0.15505354200267457,0
9.35390853881836,1.9512515853323888,[2.32144905],0.005,0.1,0.011699648738999622,0.18821981925363285,0
9.363069772720337,1.9512515853323888,[2.32073861],0.005,0.1,0.01076367700209975,0.22235068784545017,0
9.372156381607056,1.9512515853323888,[2.31984822],0.005,0.1,0.009902582955485854,0.18769078462260316,0
9.381500244140625,1.9512515853323888,[2.31876786],0.005,0.1,0.00911037639853484,0.2970537033355148,0
9.39106297492981,1.9512515853323888,[2.31748405],0.005,0.1,0.008381546342293553,0.23221128850274794,0
9.40015459060669,1.9512515853323888,[2.31599588],0.005,0.1,0.007711022673859119,0.25176861258638733,0
9.40972900390625,1.9512515853323888,[2.31430678],0.005,0.1,0.0070941408872147085,0.26105912107977425,0
9.41911792755127,1.9512515853323888,[2.31241704],0.005,0.1,0.006526609635322565,0.2620614972255776,0
9.428470373153687,1.9512515853323888,[2.31033144],0.005,0.1,0.006004480877856282,0.25710237190443375,0
9.438359260559082,1.9512515853323888,[2.30805844],0.005,0.1,0.0055241224169794555,0.24835334402442258,0
9.44710111618042,1.9512515853323888,[2.30561498],0.005,0.1,0.005082192630167263,0.18800557593671746,0
9.456194400787354,1.9512515853323888,[2.30302445],0.005,0.1,0.004675617224336208,0.1945203874210467,0
9.46709132194519,1.9512515853323888,[2.30030324],0.005,0.1,0.004301567849596931,0.1989736955751296,0
9.47711443901062,1.9512515853323888,[2.2974611],0.005,0.1,0.003957442423874512,0.20305964552133585,0
9.485687971115112,1.9512515853323888,[2.294507],0.005,0.1,0.003640847031536279,0.2086758563705037,0
9.495069742202759,1.9512515853323888,[2.29144827],0.005,0.1,0.0033495792701135926,0.21817494330706627,0
9.505067110061646,1.9512515853323888,[2.28828957],0.005,0.1,0.0030816129292746556,0.23387691255677606,0
9.515100002288818,1.9512515853323888,[2.28503196],0.005,0.1,0.002835083895471785,0.257195881327741,0
9.525041818618774,1.9512515853323888,[2.28167258],0.005,0.1,0.0026082771842114182,0.2868213012331412,0
9.536740064620972,1.951446984049126,[2.278196],0.005,0.1,0.002399615009738662,0.43106263481821044,0
9.544480800628662,1.9512515853323888,[2.27458591],0.005,0.1,0.002207645809144486,0.32540302267234295,0
9.55480146408081,1.9512515853323888,[2.27084414],0.005,0.1,0.002031034144542366,0.3707506527279399,0
9.564089298248291,1.951446984049126,[2.26696922],0.005,0.1,0.0018685514130695874,0.4190531522683733,0
9.57459306716919,1.9516423827658624,[2.26294687],0.005,0.1,0.0017190673000874465,0.47712410172063335,0
9.584334135055542,1.9520331801993358,[2.25876025],0.005,0.1,0.2776199015948058,0.5404429947592931,0
9.59470820426941,1.952423977632809,[2.25439017],0.005,0.1,0.8626947007603505,0.6112982919475606,0
9.606043338775635,1.953205572499756,[2.24981572],0.005,0.1,1.4258069683637236,0.6858005434541322,0
9.61607837677002,1.9539871673667024,[2.24501503],0.005,0.1,2.1337846460177534,0.7597961511495867,0
9.6249418258667,1.9551595596671225,[2.23996662],0.005,0.1,3.2803645305589764,0.8265303361513192,0
9.634722709655762,1.9567227494010155,[2.23465095],0.005,0.1,4.034921413609656,0.8798788509691313,0
9.644149780273438,1.9586767365683826,[2.22905168],0.005,0.1,5.0,0.9164003177731685,0
9.656089782714844,1.9616077173194326,[2.22315676],0.005,0.1,5.0,0.9329068991897882,0
9.664552211761475,1.9641479006370093,[2.21695905],0.005,0.1,5.0,0.933190989690722,0
9.67304015159607,1.9670788813880593,[2.21045671],0.005,0.1,5.0,0.9151463735505371,0
9.683853149414062,1.9711822544395294,[2.2036535],0.005,0.1,5.0,0.8760447570855905,0
9.692035436630249,1.974504032624053,[2.19657414],0.005,0.1,5.0,0.6149768876270956,0
9.7000412940979,1.9776304120918395,[2.1892615],0.005,0.1,5.0,0.6238242790748211,0
9.710026741027832,1.981538386426573,[2.18174394],0.005,0.1,5.0,0.5974471778227832,0
9.71864628791809,1.9850555633278328,[2.17403919],0.005,0.1,5.0,0.5459628054470032,0
9.728554010391235,1.9887681389458298,[2.16617232],0.005,0.1,5.0,0.4804349856188278,0
9.736709833145142,1.9916991196968798,[2.15817458],0.005,0.1,4.906775188189636,0.4110212628910549,0
9.745638847351074,1.9948254991646663,[2.15009176],0.005,0.1,3.3748027515934687,0.26854161179311475,0
9.753162145614624,1.9977564799157166,[2.14198029],0.005,0.1,1.6301307097504514,0.23857608241648576,0
9.761032581329346,2.00107825810024,[2.13389245],0.005,0.1,-0.42318120490626054,0.15732267821601817,0
9.769925832748413,2.004400036284763,[2.12587639],0.005,0.1,-2.1806677203653626,0.14058294174874753,0
9.780020952224731,2.007917213186023,[2.11796274],0.005,0.1,-4.034884726058531,0.14443326928631245,0
9.789058685302734,2.0106527952203366,[2.11017432],0.005,0.1,-5.0,0.08754107634422358,0
9.797048330307007,2.0129975798211768,[2.10255434],0.005,0.1,-5.0,0.05452868845473723,0
9.808131694793701,2.0161239592889637,[2.0951441],0.005,0.1,-5.0,0.053054261901571226,0
9.819029092788696,2.01925033875675,[2.08796491],0.005,0.1,-5.0,0.037669828161329626,0
9.829413175582886,2.0219859207910633,[2.08103577],0.005,0.1,-5.0,0.026732501554504403,0
9.838414430618286,2.0237445092416935,[2.07437663],0.005,0.1,-5.0,0.019718555465311247,0
9.848136901855469,2.0256984964090607,[2.06800075],0.005,0.1,-5.0,0.015062648156151659,0
9.856074333190918,2.0272616861429538,[2.06191826],0.005,0.1,-5.0,0.009086265138580345,0
9.866038084030151,2.0286294771601106,[2.05613532],0.005,0.1,-5.0,0.008039037963873865,0
9.874016761779785,2.029606470743794,[2.05064424],0.005,0.1,-5.0,0.007079495951299966,0
9.882126569747925,2.030583464327477,[2.04543098],0.005,0.1,-5.0,0.0039495923992362405,0
9.892081022262573,2.0311696604776874,[2.04048058],0.005,0.1,-5.0,0.002750664880199304,0
9.90005612373352,2.0315604579111604,[2.03576374],0.005,0.1,-5.0,0.0001636107114371409,0
9.909651041030884,2.031755856627897,[2.03123756],0.005,0.1,-5.0,-0.004344180996331217,0
9.918611288070679,2.031755856627897,[2.02685319],0.005,0.1,-5.0,-0.01153389611027635,0
9.929094552993774,2.031755856627897,[2.02255592],0.005,0.1,-5.0,-0.022781206850660773,0
9.940107345581055,2.0315604579111604,[2.01828528],0.005,0.1,-5.0,-0.039466321799420244,0
9.950023412704468,2.0313650591944237,[2.01397556],0.005,0.1,-5.0,-0.06375810657250315,0
9.95813536643982,2.0309742617609507,[2.00955696],0.005,0.1,-5.0,-0.09701618464450922,0
9.969046354293823,2.0299972681772673,[2.00495745],0.005,0.1,-5.0,-0.13851026661639973,0
9.977064609527588,2.0294110720270573,[2.00012688],0.005,0.1,-4.318105523207253,-0.12199767720345066,0
9.985696792602539,2.0288248758768472,[1.99503642],0.005,0.1,-2.9937090705465037,-0.18977205793130933,0
9.994524955749512,2.027847882293164,[1.98963414],0.005,0.1,-2.2302145181726027,-0.26957582939244984,0
10.003029584884644,2.026480091276007,[1.98387417],0.005,0.1,-1.4895934087453604,-0.22990659440723185,0
10.01113247871399,2.0255030976923236,[1.97773973],0.005,0.1,-0.8791804378331771,-0.3377817329602569,0
10.019754648208618,2.024135306675167,[1.97119189],0.005,0.1,-0.41612278674214864,-0.44977224144840755,0
10.028076171875,2.0221813195078004,[1.96417477],0.005,0.1,-0.6355777482572892,-0.5557518011785946,0
10.037078142166138,2.0196411361902236,[1.95664522],0.005,0.1,-1.301516755043331,-0.6502142691785905,0
10.047074794769287,2.0169055541559104,[1.94859902],0.005,0.1,-2.5211537314141057,-0.5047873380632003,0
10.056854009628296,2.0137791746881235,[1.94004136],0.005,0.1,-3.657096583703745,-0.8779209856633875,0
10.066155910491943,2.0102619977868637,[1.9309603],0.005,0.1,-5.0,-0.6474961520835883,0
10.076519966125488,2.00635402345213,[1.92135809],0.005,0.1,-5.0,-0.9983588206311681,0
10.089035749435425,2.00107825810024,[1.91122751],0.005,0.1,-5.0,-0.9598030668739067,0
10.098523378372192,1.9969748850487696,[1.90057732],0.005,0.1,-5.0,-0.9268538459356679,0
10.10629153251648,1.99404390429772,[1.88947442],0.005,0.1,-5.0,-0.6655517410582279,0
10.117289304733276,1.9895497338127766,[1.87798969],0.005,0.1,-5.0,-0.9357508630841394,0
10.126996517181396,1.9854463607613064,[1.86617415],0.005,0.1,-4.230267804397146,-0.6564115289754952,0
10.136024951934814,1.9817337851433097,[1.85410051],0.005,0.1,-2.1111909784252028,-0.6734785356072612,0
10.14453673362732,1.978021209525313,[1.84184191],0.005,0.1,0.06508451333200371,-0.6733677405555066,0
10.152024507522583,1.9748948300575262,[1.82946737],0.005,0.1,2.3975813372355548,-0.4870024220170726,0
10.160771608352661,1.9711822544395294,[1.81705978],0.005,0.1,4.308436057501741,-0.5152590946512949,0
10.169034957885742,1.9674696788215327,[1.80468126],0.005,0.1,5.0,-0.5173983097474224,0
10.177810192108154,1.9635617044867992,[1.79237726],0.005,0.1,5.0,-0.4951331047093984,0
10.1878662109375,1.959458331435329,[1.78019557],0.005,0.1,5.0,-0.45471526647336985,0
10.197525978088379,1.9555503571005957,[1.76818542],0.005,0.1,5.0,-0.4046276920240835,0
10.205706119537354,1.952423977632809,[1.75640476],0.005,0.1,5.0,-0.2734538049890109,0
10.214491605758667,1.9487114020148124,[1.74491647],0.005,0.1,5.0,-0.25386723588963644,0
10.224164247512817,1.944803427680079,[1.73376813],0.005,0.1,5.0,-0.22590654621197323,0
10.233983039855957,1.9407000546286088,[1.72299419],0.005,0.1,5.0,-0.19403054681012327,0
10.242138624191284,1.9373782764440857,[1.71263157],0.005,0.1,5.0,-0.12948156201400401,0
10.252008199691772,1.9330795046758789,[1.70271272],0.005,0.1,5.0,-0.14363958231884177,0
10.26164984703064,1.928780732907672,[1.69325485],0.005,0.1,5.0,-0.11428067262533989,0
10.271525859832764,1.9248727585729384,[1.68427203],0.005,0.1,5.0,-0.08948575838620149,0
10.279017686843872,1.9219417778218884,[1.67578299],0.005,0.1,4.926580147209206,-0.05897514048901498,0
10.289693593978882,1.9174476073369449,[1.66780406],0.005,0.1,4.742148026345362,-0.04870564314066494,0
10.296993017196655,1.913930430435685,[1.66034497],0.005,0.1,4.500106281809935,-0.03502473300592426,0
10.305687427520752,1.910413253534425,[1.65340927],0.005,0.1,3.955462534853674,-0.03111149165535102,0
10.31714940071106,1.905528285616008,[1.64699194],0.005,0.1,3.64543606430008,-0.03058322182601361,0
10.326060771942139,1.9020111087147482,[1.64108168],0.005,0.1,3.7021545130602527,-0.024808656911580206,0
10.335038661956787,1.8984939318134881,[1.63566598],0.005,0.1,3.5457241067397733,-0.024171876422459507,0
10.3450026512146,1.8941951600452813,[1.63072696],0.005,0.1,3.3078328570032376,-0.02451087743471309,0
10.35654592514038,1.8893101921268645,[1.62623675],0.005,0.1,3.0492165588526814,-0.031227526572583687,0
10.366523027420044,1.8852068190753946,[1.62215905],0.005,0.1,2.7964732930551914,-0.03500432272003178,0
10.37627649307251,1.8811034460239244,[1.61845892],0.005,0.1,2.5600846846601693,-0.031267652921549226,0
10.385107517242432,1.8771954716891908,[1.61510351],0.005,0.1,2.3431550953280036,-0.04045602190048479,0
10.393798589706421,1.8738736935046676,[1.61205194],0.005,0.1,2.145590070963147,-0.05404107774191993,0
10.402026653289795,1.8703565166034077,[1.60926215],0.005,0.1,1.966050710295611,-0.048727812906404364,0
10.411082029342651,1.866643940985411,[1.60669545],0.005,0.1,1.8028354833418443,-0.07133496205194798,0
10.419859647750854,1.8627359666506773,[1.60430476],0.005,0.1,1.6542534947650083,-0.10065649928512993,0
10.430840253829956,1.8580463974489976,[1.6020353],0.005,0.1,1.5187629448379947,-0.13652287030527505,0
10.440996408462524,1.8539430243975272,[1.59983155],0.005,0.1,1.3950058873043025,-0.17971223352687563,0
10.449463129043579,1.8504258474962672,[1.59763805],0.005,0.1,1.2818007846050046,-0.22950216543805307,0
10.45916199684143,1.8465178731615337,[1.5954006],0.005,0.1,1.1781207714599766,-0.2829580591527669,0
10.470014810562134,1.8420237026765904,[1.59306747],0.005,0.1,1.0830695903914282,-0.33750635344723373,0
10.479239702224731,1.8385065257753306,[1.59059059],0.005,0.1,0.7198214228912698,-0.3920494589705716,0
10.488478183746338,1.8347939501573334,[1.58792669],0.005,0.1,0.8826698398677013,-0.4424528170006998,0
10.497018575668335,1.8310813745393368,[1.58503825],0.005,0.1,0.897349760063027,-0.4868176149425596,0
10.508039712905884,1.8263918053376569,[1.58189429],0.005,0.1,0.8507620423369717,-0.520066877754213,0
10.517003774642944,1.8224838310029234,[1.57848394],0.005,0.1,0.783088667060122,-0.3826558585934252,0
10.527029514312744,1.81798966051798,[1.57481453],0.005,0.1,0.7120865873498068,-0.4385714700968527,0
10.536010980606079,1.8142770848999832,[1.57088361],0.005,0.1,0.6449580209086778,-0.476471099755882,0
10.547056436538696,1.809587515698303,[1.56668153],0.005,0.1,0.584091657113157,-0.49255449024128356,0
10.555587768554688,1.806070338797043,[1.56220669],0.005,0.1,0.5297972318053031,-0.49425374539650896,0
10.565329551696777,1.8021623644623095,[1.55746501],0.005,0.1,0.4815773447173664,-0.48177587805375566,0
10.574974298477173,1.7980589914108396,[1.55246926],0.005,0.1,0.4386963093462195,-0.4588024993432165,0
10.584970474243164,1.7937602196426328,[1.54723824],0.005,0.1,0.40041742523631874,-0.4278142647056904,0
10.594236373901367,1.790047644024636,[1.54179605],0.005,0.1,0.3660884127105844,-0.3922457286376147,0
10.603976964950562,1.7859442709731659,[1.53617138],0.005,0.1,0.3351607102622612,-0.35187195697143314,0
10.616482973098755,1.7808639043380126,[1.53038967],0.005,0.1,0.3071825646009784,-0.3855370136060313,0
10.62774133682251,1.7757835377028592,[1.52447426],0.005,0.1,0.2817838331254747,-0.3070480224439803,0
10.635998487472534,1.7720709620848625,[1.51846712],0.005,0.1,0.2586600260006486,-0.1968430390109102,0
10.644996404647827,1.7685537851836022,[1.5124237],0.005,0.1,0.23755834755846986,-0.17006608890136193,0
10.656004190444946,1.7638642159819222,[1.50638982],0.005,0.1,0.21826641328546906,-0.14350208760075683,0
10.665005207061768,1.7603470390806621,[1.500403],0.005,0.1,0.20060348718730484,-0.11940905284087988,0
10.674564123153687,1.756243666029192,[1.49449943],0.005,0.1,0.1844138158339081,-0.0975282012850282,0
10.682304620742798,1.7531172865614053,[1.48871338],0.005,0.1,0.1695616042753718,-0.07903917543454866,0
10.690480709075928,1.749795508376882,[1.4830792],0.005,0.1,0.1559272357156513,-0.054091404865468255,0
10.698972702026367,1.7462783314756218,[1.47763232],0.005,0.1,0.1434044157993885,-0.039973107457284,0
10.711064100265503,1.7411979648404683,[1.47240066],0.005,0.1,0.13189799734068977,-0.040907247549108024,0
10.719005584716797,1.7376807879392087,[1.46740259],0.005,0.1,0.12132230369041117,-0.03116896460825139,0
10.729523658752441,1.7333820161710016,[1.46265384],0.005,0.1,0.11159981757775846,-0.0295542348332177,0
10.737988471984863,1.7298648392697418,[1.45816751],0.005,0.1,0.1026601388427121,-0.024478944121979363,0
10.749025344848633,1.7251752700680614,[1.45395387],0.005,0.1,0.37047750105549443,-0.022747958670720683,0
10.75702166557312,1.7218534918835382,[1.45002043],0.005,0.1,0.3960412419416399,-0.02099936512083977,0
10.766211986541748,1.7181409162655412,[1.4463719],0.005,0.1,0.057951351410234636,-0.02034137013602197,0
10.775970935821533,1.7136467457805982,[1.4430104],0.005,0.1,0.2183833739038683,-0.019991158307524563,0
10.784745454788208,1.7097387714458647,[1.43993504],0.005,0.1,0.23019840795221136,-0.020110259335654176,0
10.793002843856812,1.706026195827868,[1.43714264],0.005,0.1,0.1891515343565024,-0.02048679514465665,0
10.801063060760498,1.7028998163600813,[1.43462747],0.005,0.1,0.13661221407034208,-0.020788411495073652,0
10.809409141540527,1.6997734368922943,[1.43238148],0.005,0.1,0.08871545023540273,-0.02135832225210819,0
10.818991661071777,1.695865462557561,[1.43039525],0.005,0.1,0.050349389303586845,-0.02165320207273632,0
10.826968669891357,1.6925436843730375,[1.42865756],0.005,0.1,0.021737573611935408,-0.021321602874329444,0
10.83700704574585,1.6884403113215678,[1.42715516],0.005,0.1,0.0014420189857573748,-0.02114394209263545,0
10.846978425979614,1.6841415395533608,[1.42587403],0.005,0.1,-0.012336848426270055,-0.020821565338415143,0
10.854970693588257,1.6808197613688374,[1.42479994],0.005,0.1,0.25478704411283254,-0.02059755000825469,0
10.863410711288452,1.6776933819010509,[1.42391823],0.005,0.1,0.2825122815656724,-0.020271661893021015,0
10.872992038726807,1.6733946101328439,[1.42321384],0.005,0.1,0.2244932095859446,-0.019455922931240665,0
10.882756471633911,1.6694866357981104,[1.42267107],0.005,0.1,0.14719417512999378,-0.01842720056263264,0
10.892707586288452,1.6651878640299036,[1.42227353],0.005,0.1,0.07660747920179972,-0.017102969198123093,0
10.899978399276733,1.662061484562117,[1.42200432],0.005,0.1,0.2967126984340387,-0.016054131449325614,0
10.90901255607605,1.6581535102273839,[1.42184646],0.005,0.1,0.2890018106340765,-0.014789199636732432,0
10.918012380599976,1.6544409346093867,[1.42178334],0.005,0.1,0.48196954300279915,-0.013851278587671784,0
10.928576707839966,1.650337561557917,[1.42179769],0.005,0.1,0.42106992772106105,-0.012255646832522312,0
10.93599247932434,1.6474065808068667,[1.42187166],0.005,0.1,0.28494311426670565,-0.011700894031167306,0
10.948806524276733,1.6423262141717134,[1.42198736],0.005,0.1,0.14703792018588108,-0.010891402270976472,0
10.958004236221313,1.6386136385537167,[1.42212734],0.005,0.1,0.30903597905518243,-0.010286604492294247,0
10.965974569320679,1.63548725908593,[1.42227684],0.005,0.1,0.2570764627619754,-0.010172407081060701,0
10.974584579467773,1.63197008218467,[1.42242226],0.005,0.1,0.14300999780893928,-0.010135013367646004,0
10.982990026473999,1.62845290528341,[1.42255032],0.005,0.1,0.3049399634333747,-0.010112380762109772,0
10.99405550956726,1.6239587347984663,[1.42264964],0.005,0.1,0.24527644699535622,-0.009926854070019066,0
11.005005121231079,1.6192691655967864,[1.42271072],0.005,0.1,0.3986909397711862,-0.009717874163808158,0
11.013739347457886,1.615947387412263,[1.42272563],0.005,0.1,0.31074514693053423,-0.009692229174184832,0
11.02299427986145,1.6122348117942664,[1.42268777],0.005,0.1,0.15806210099790222,-0.009684458490877191,0
11.033207893371582,1.6083268374595328,[1.42259147],0.005,0.1,0.011646693084881046,-0.009775203547502736,0
11.040995597839355,1.605200457991746,[1.42243381],0.005,0.1,0.17096699147937308,-0.00833004281571065,0
11.049006223678589,1.6020740785239593,[1.42221414],0.005,0.1,0.12037336703346231,-0.009100998859425015,0
11.0583815574646,1.5981661041892261,[1.42192947],0.005,0.1,0.010355767673269657,-0.010003152684698986,0
11.065989017486572,1.5952351234381759,[1.42157723],0.005,0.1,-0.0980172769430107,-0.008518182917529721,0
11.074965953826904,1.5917179465369158,[1.4211572],0.005,0.1,-0.18409368913127902,-0.010154182168734855,0
11.084996461868286,1.5878099722021823,[1.42066592],0.005,0.1,-0.24442694309245072,-0.012154843293866525,0
11.093027591705322,1.5846835927343956,[1.42010005],0.005,0.1,-0.28207445853471547,-0.010219283249001846,0
11.102979898452759,1.580971017116399,[1.41945488],0.005,0.1,-0.3018792447374683,-0.020084435023120954,0
11.112961769104004,1.576672245348192,[1.41871709],0.005,0.1,-0.3085532118097193,-0.024128694640758768,0
11.123641014099121,1.5723734735799855,[1.41787275],0.005,0.1,-0.30602836283654083,-0.029350193569182954,0
11.135971307754517,1.567293106944832,[1.41691074],0.005,0.1,-0.29734887604750626,-0.035621353040021314,0
11.146011590957642,1.563189733893362,[1.4158189],0.005,0.1,-0.28476851185915597,-0.04342944487773353,0
11.156001806259155,1.5592817595586286,[1.4145842],0.005,0.1,-0.2699051122017826,-0.05266838502801139,0
11.164974689483643,1.5555691839406316,[1.41319298],0.005,0.1,-0.2538917597117268,-0.06332097045343332,0
11.173635005950928,1.5520520070393715,[1.41163124],0.005,0.1,-0.23750395826624698,-0.07524937608631464,0
11.183964014053345,1.547753235271165,[1.40988503],0.005,0.1,-0.49729757871116,-0.087432701983462,0
11.191937685012817,1.544626855803378,[1.40794958],0.005,0.1,-0.7906932581757588,-0.06660641447789799,0
11.20100998878479,1.5405234827519083,[1.4058288],0.005,0.1,-1.0296753024482934,-0.08493955553450809,0
