t_s,q_rad,q_des_rad,K,B,Kff,jerk,tau_Nm,reward
0.0059621334075927734,-0.05178065993521762,[0.00099599],9.825212432529046,0.9790254919034855,1.9737818648793566,0.0,9.998999999999999,1.0728823273794703
0.017982006072998047,-0.05178065993521762,[0.00480101],9.650424865058092,0.9580509838069711,1.9475637297587132,0.0,10.098989999999999,1.0271358058327738
0.030156373977661133,-0.05178065993521762,[0.01189185],9.475637297587138,0.9370764757104565,1.92134559463807,0.0,10.099989899999999,0.9444856031479245
0.041062355041503906,-0.05158526121848094,[0.02162321],9.300849730116184,0.9161019676139419,1.8951274595174268,0.0,10.099999898999998,0.8423587873931853
0.050180673599243164,-0.05178065993521762,[0.03342314],9.12606216264523,0.8951274595174274,1.8689093243967834,0.0,10.099999998989999,0.7341162715331144
0.059049367904663086,-0.05178065993521762,[0.04679425],8.951274595174274,0.8741529514209129,1.84269118927614,0.0,-9.898000000010098,0.6432157989984191
0.06991815567016602,-0.05178065993521762,[0.0613005],8.77648702770332,0.8531784433243983,1.8164730541554968,0.0,-10.0979800000001,0.5775005729444237
0.08087420463562012,-0.05178065993521762,[0.07655392],8.601699460232366,0.8322039352278838,1.7902549190348536,0.0,-10.0999798,0.5371068758106076
0.0939328670501709,-0.05178065993521762,[0.09221761],8.426911892761412,0.8112294271313693,1.7640367839142101,0.0,-10.099999797999999,0.5158101938073804
0.10679864883422852,-0.05178065993521762,[0.10800821],8.252124325290458,0.7902549190348547,1.7378186487935667,0.0,-10.09999999798,0.506057266371034
0.11893868446350098,-0.05178065993521762,[0.12369163],8.077336757819502,0.7692804109383402,1.7116005136729235,0.0,-5.1004999999797995,0.5021162602675842
0.12694168090820312,-0.05178065993521762,[0.13907744],7.902549190348549,0.7483059028418256,1.6853823785522803,0.0,-5.050504999999798,0.5006854994859897
0.13792014122009277,-0.05178065993521762,[0.15401286],7.727761622877595,0.727331394745311,1.659164243431637,0.0,-5.0500050499999976,0.5002096240776528
0.15188908576965332,-0.05178065993521762,[0.16837957],7.55297405540664,0.7063568866487966,1.6329461083109935,0.0,-5.0500000505,0.5000616458280401
0.16392111778259277,-0.05178065993521762,[0.1820918],7.378186487935686,0.685382378552282,1.6067279731903503,0.0,-5.050000000504999,0.5000177475046548
0.17589378356933594,-0.05178065993521762,[0.1950931],7.203398920464732,0.6644078704557674,1.5805098380697071,0.0,-5.050000000005049,0.5000050844121844
0.18588972091674805,-0.05178065993521762,[0.20735029],7.028611352993777,0.643433362359253,1.5542917029490637,0.0,-5.05000000000005,0.5000014707027325
0.1938624382019043,-0.05178065993521762,[0.21884171],6.853823785522822,0.6224588542627384,1.5280735678284203,0.0,-5.05,0.5000004352724143
0.20490336418151855,-0.05178065993521762,[0.22955796],6.679036218051868,0.6014843461662238,1.501855432707777,0.0,-5.05,0.5000001333506494
0.2168900966644287,-0.05178065993521762,[0.23951489],6.504248650580913,0.6,1.475637297587134,0.0,-5.05,0.5000000426337521
0.22888994216918945,-0.05178065993521762,[0.24874879],6.329461083109958,0.6,1.4494191624664907,0.0,-1.294593598973667,0.5000000142916536
0.24191546440124512,-0.05178065993521762,[0.25730558],6.154673515639004,0.6,1.4232010273458477,0.0,5.869357608861107,0.5000000050349553
0.2543940544128418,-0.05099906506827094,[0.26523758],5.97988594816805,0.6,1.3969828922252046,0.0,10.05769357608861,0.5000000020588389
0.267148494720459,-0.046700293300064186,[0.27260189],5.805098380697095,0.6,1.3707647571045614,2.208306877429448,10.099576935760885,0.4963829896274741
0.2748849391937256,-0.04396471126575081,[0.27944156],5.63031081322614,0.6,1.3445466219839184,5.0,10.099995769357607,0.48173206294672305
0.2849233150482178,-0.03986133821428073,[0.2857847],5.455523245755186,0.6,1.3183284868632752,5.0,10.099999957693575,0.48173206273913843
0.29608750343322754,-0.03536716772933732,[0.29168069],5.280735678284231,0.6,1.292110351742632,5.0,10.099999999576935,0.48173206263626106
0.30497288703918457,-0.03165459211134058,[0.2971858],5.105948110813277,0.6,1.2658922166219888,5.0,10.099999999995768,0.48173206252890854
0.31496357917785645,-0.027746617776607176,[0.30233539],5.0,0.6,1.2396740815013456,5.0,10.099999999999957,0.4817320624677819
0.325991153717041,-0.02305704857492709,[0.30716921],5.0,0.6,1.2134559463807026,5.0,10.099999999999998,0.4817320624612935
0.33904004096984863,-0.018367479373247002,[0.31174657],5.0,0.6,1.1872378112600595,5.0,9.399038662873277,0.48173206246632994
0.35074853897094727,-0.013677910171566917,[0.31613142],5.0,0.6,1.1610196761394163,5.0,8.757550508210253,0.4817320624803812
0.3619105815887451,-0.009574537120096843,[0.32037778],5.0,0.6,1.1348015410187733,5.0,5.087075505082102,0.4817320624737193
0.369870662689209,-0.0062527589355734475,[0.32451276],5.0,0.6,1.10858340589813,3.0913005268871396,5.05037075505082,0.49293676949259724
0.38194799423217773,-0.0009769935836833512,[0.32854968],5.0,0.6,1.082365270777487,0.4447766664792452,5.050003707550507,0.4998527600634309
0.39493846893310547,0.0042987717682067455,[0.33252477],5.0,0.6,1.0561471356568437,-2.21786279283662,6.834547537721237,0.49635173217960016
0.40694427490234375,0.009183739686623501,[0.33648865],5.0,0.6,1.0299290005362005,-4.353175624216753,6.580903930000864,0.48609064252718664
0.41985177993774414,0.0144595050385136,[0.34048617],5.0,0.6,1.0037108654155575,-5.0,7.533445953548277,0.4817320627093639
0.43186020851135254,0.019149074240193686,[0.34455657],5.0,0.6,0.9774927302949143,-5.0,10.074334459535482,0.48173206275854696
0.4449644088745117,0.02462023830882045,[0.34873364],5.0,0.6,0.9512745951742712,-5.0,10.099743344595353,0.4817320628747226
0.45758962631225586,0.02989600366071055,[0.35304588],5.0,0.6,0.9250564600536281,-5.0,10.099997433445953,0.4817320629744596
0.465101957321167,0.0328269844117606,[0.3574915],5.0,0.6,0.898838324932985,-5.0,10.099999974334459,0.4817320628229078
0.4749476909637451,0.036344161313020665,[0.36204272],5.0,0.6,0.8726201898123418,-5.0,10.099999999743343,0.4817320627349436
0.4890425205230713,0.04220612281512077,[0.36670046],5.0,0.6,0.8464020546916986,-5.0,10.099999999997433,0.48173206283852354
0.49892187118530273,0.04611409714985418,[0.37149005],5.0,0.6,0.8201839195710555,-5.0,9.26688504075917,0.4817320627611584
0.507343053817749,0.04943587533437757,[0.3764099],5.0,0.6,0.7939657844504124,-5.0,4.4519488106082505,0.481732062641233
0.5188817977905273,0.05393004581932099,[0.38143164],5.0,0.6,0.7677476493297692,-5.0,1.3155044919347205,0.4817320626067159
0.5299479961395264,0.058619615021001076,[0.38654853],5.0,0.6,0.741529514209126,-5.0,0.08223966906870442,0.4817320625804162
0.5429596900939941,0.06389538037289116,[0.39178004],5.0,0.6,0.715311379088483,-4.848003925941566,-0.1724889196288448,0.48280681100091327
0.5549342632293701,0.06878034829130793,[0.39714564],5.0,0.6,0.6890932439678399,-4.596916482253798,0.041411111386387554,0.48451446647670743
0.5669066905975342,0.07307912005951467,[0.40266077],5.0,0.6,0.6628751088471967,-4.582503593737721,3.6677977537087365,0.48460991125507363
0.5785579681396484,0.07659629696077475,[0.40833726],5.0,0.6,0.6366569737265535,-4.868086677358828,5.823903311954591,0.4826665740974065
0.5858619213104248,0.07972267642856146,[0.41415684],5.0,0.6,0.6104388386059104,-4.861552278313072,6.585928241993678,0.48271226250641325
0.597874641418457,0.08441224563024154,[0.42007583],5.0,0.6,0.5842207034852673,-4.703858958327557,6.610330583920929,0.4837975122056921
0.607886791229248,0.08832021996497495,[0.42608348],5.0,0.6,0.5580025683646241,-4.471007889096721,6.302676551361144,0.4853387482158043
0.6199100017547607,0.09300978916665503,[0.43219735],5.0,0.6,0.531784433243981,-4.204545633093615,5.876063078237023,0.48701200305230263
0.6321401596069336,0.09828555451854513,[0.43843206],5.0,0.6,0.5055662981233379,-3.3753571366359525,5.445607654695798,0.49159054026697435
0.6399586200714111,0.10141193398633185,[0.44477149],5.0,0.6,0.4793481630026947,-2.2059739597605037,5.047584611147272,0.4963905988443619
0.6509394645690918,0.10571070575453859,[0.45117345],5.0,0.6,0.4531300278820516,-1.1227592118797864,4.698152212021777,0.499062497490811
0.6628446578979492,0.11079107238969202,[0.45763049],5.0,0.6,0.42691189276140845,-0.5356667493687945,4.411484724462304,0.4997864482079051
0.6748340129852295,0.11606683774158212,[0.46416512],5.0,0.6,0.4006937576407653,-0.21344522963156398,4.189041993758489,0.49996608713582996
0.6828367710113525,0.11899781849263219,[0.4707752],5.0,0.6,0.3744756225201221,-0.03517289946198643,2.1492211522213482,0.49999907909633245
0.6928207874298096,0.12290579282736558,[0.4774298],5.0,0.6,0.3482574873994789,-0.2127402359505431,0.8098092293463626,0.4999663107640939
0.7048459053039551,0.12739996331230902,[0.48411753],5.0,0.6,0.3220393522788358,-0.46859726833880533,0.5575696045157901,0.4998365687245726
0.7178404331207275,0.1326757286641991,[0.49085953],5.0,0.6,0.2958212171581926,-0.6954275794328544,0.7903307531261574,0.49964012295376853
0.7305293083190918,0.13756069658261585,[0.49768275],5.0,0.6,0.2696030820375494,-0.86146839620918,1.198256488811955,0.49944786475533526
0.7418529987335205,0.14205486706755927,[0.50461111],5.0,0.6,0.24338494691690624,-0.9660496198731227,2.7965847859818944,0.49930576921889647
0.7498440742492676,0.14537664525208266,[0.51163336],5.0,0.6,0.21716681179626307,-1.0193778266203357,3.8331491999318144,0.49922706825778723
0.7665255069732666,0.1524109990546028,[0.5187409],5.0,0.6,0.19094867667561988,-1.033837668718879,5.598472326794275,0.4992050022746535
0.7738678455352783,0.15534197980565284,[0.52595867],5.0,0.6,0.16473054155497668,-0.7445901156985195,6.537424115172468,0.4995874638760277
0.7859151363372803,0.15983615029059628,[0.53327455],5.0,0.6,0.13851240643433352,-0.9556474544927155,6.3171656826932985,0.4993206292018604
0.7999179363250732,0.16569811179269636,[0.54067894],5.0,0.6,0.11229427131369034,-1.0001959449477147,5.607144867079843,0.4992558620074818
0.8119196891784668,0.1705830797111131,[0.54819718],5.0,0.6,0.08607613619304716,-0.6946236620329841,4.759004300603926,0.49964095420641125
0.8249187469482422,0.17585884506300323,[0.55585088],5.0,0.6,0.05985800107240398,-0.8781124592600262,3.4800941280482007,0.49942633586987867
0.838930606842041,0.18133000913162997,[0.56365801],5.0,0.6,0.0336398659517608,-0.8976403436297347,2.6524693330404627,0.499400552801195
0.851862907409668,0.1866057744835201,[0.57163306],5.0,0.6,0.0074217308311176206,-0.5738524722268702,2.346360878022911,0.4997549240289011
0.8639123439788818,0.1910999449684635,[0.57978719],5.0,0.6,0.0,-0.47018875304383223,2.3219082029867297,0.49983545689881953
0.8772599697113037,0.19676650775382695,[0.58812844],5.0,0.6,0.0,-0.7274972121624425,2.335812794354776,0.49960617956105263
0.8869707584381104,0.20086988080529702,[0.59664209],5.0,0.6,0.0,-0.7673817792370683,2.2934292958063183,0.49956183339096344
0.8971776962280273,0.20516865257350375,[0.6052836],5.0,0.6,0.0,-0.7204692039784613,2.300163857908444,0.4996137489096711
0.9088740348815918,0.20966282305844713,[0.61401797],5.0,0.6,0.0,-0.6458757077399437,2.328978244245988,0.49968956568510314
0.9172921180725098,0.21278920252623387,[0.62280924],5.0,0.6,0.0,-0.8448295704169402,2.2795439951783214,0.499468975980917
0.9319233894348145,0.21884656274507067,[0.63164272],5.0,0.6,0.0,-0.807888134232543,2.4413036733018503,0.49951437823156364
0.94492506980896,0.22412232809696078,[0.6405727],5.0,0.6,0.0,-0.4162742674003157,2.464269640574721,0.4998710237380113
0.9529306888580322,0.2270533088480108,[0.64960801],5.0,0.6,0.0,-0.5319439407461228,2.4947480982837957,0.4997894055450169
0.964914083480835,0.23193827676642756,[0.65868819],5.0,0.6,0.0,-0.5065599891259503,2.5188217177757295,0.49980902105549724
0.9769361019134521,0.2368232446848443,[0.66779847],5.0,0.6,0.0,-0.15846264152642744,2.542812627453756,0.4999813081477326
0.988929271697998,0.24131741516978775,[0.67696325],5.0,0.6,0.0,-0.04672688444578566,2.5690482991167825,0.4999983746772304
0.9969255924224854,0.24444379463757446,[0.68616618],5.0,0.6,0.0,-0.03176863074414947,2.5993788197902825,0.4999992487173791
1.0148985385894775,0.25186894587356795,[0.69539409],5.0,0.6,0.0,-0.32647193744360725,2.7357220470834305,0.49992066516341704
1.0268936157226562,0.25694931250872133,[0.70471124],5.0,0.6,0.0,-0.10889825571270728,2.724675812832092,0.4999911723584844
1.0389065742492676,0.26183428042713813,[0.71417183],5.0,0.6,0.0,-0.31848032352484373,2.7246500095146566,0.4999245013656254
1.0510904788970947,0.26691464706229157,[0.72378343],5.0,0.6,0.0,-0.3459258262446073,2.7318438012235116,0.4999109294849772
1.0589056015014648,0.2698456278133416,[0.7335128],5.0,0.6,0.0,-0.30535759957293984,2.7655770612525092,0.49993059448244753
1.0719192028045654,0.2751213931652317,[0.74329233],5.0,0.6,0.0,-0.24693262390990978,2.77784863299747,0.49995461170120237
1.0839054584503174,0.27961556365017515,[0.75310262],5.0,0.6,0.0,-0.4669336886394908,2.7970570120265235,0.4998377268714841
1.0978553295135498,0.2852821264355385,[0.76296505],5.0,0.6,0.0,-0.4531461721344719,2.8125009424895113,0.4998471670753894
1.1098999977111816,0.29016709435395527,[0.77289649],5.0,0.6,0.0,-0.3612606065422118,2.832856724444351,0.4999028583004714
1.122908592224121,0.2952474609891087,[0.78290919],5.0,0.6,0.0,-0.2573505993279629,2.8527461697911454,0.4999507012812536
1.1349029541015625,0.2999370301907889,[0.7930108],5.0,0.6,0.0,-0.1662234160901852,2.8746044908503268,0.4999794324695234
1.143162488937378,0.30306340965857553,[0.80318976],5.0,0.6,0.0,-0.09453178599488697,2.8554181742689364,0.49999334788861444
1.151869773864746,0.30677598527657224,[0.81339711],5.0,0.6,0.0,-0.04158543229767166,2.826593844489006,0.49999871267395096
1.1639411449432373,0.31205175062846235,[0.82358277],5.0,0.6,0.0,0.2718025200632317,2.876804324055579,0.4999450092364192
1.1769089698791504,0.31713211726361584,[0.83373862],5.0,0.6,0.0,0.05417060664705273,2.9181151322693,0.4999978155951854
1.1909053325653076,0.3229940787657159,[0.84387652],5.0,0.6,0.0,-0.017711327601294256,2.9478327287608357,0.4999997664882136
1.2038493156433105,0.328269844117606,[0.85400333],5.0,0.6,0.0,0.2472466945594619,2.9749245264954514,0.4999544961753668
1.21693754196167,0.33335021075275945,[0.86412156],5.0,0.6,0.0,0.2913198384599623,2.9992952681603486,0.4999368287660968
1.2268126010894775,0.33745358380422946,[0.87422662],5.0,0.6,0.0,-0.02364004352061741,3.014697159579934,0.4999995839907013
1.2380385398864746,0.34214315300590964,[0.88430264],5.0,0.6,0.0,0.15799421762109545,3.0218801168708755,0.49998141849054556
1.2459015846252441,0.3450741337569596,[0.89431056],5.0,0.6,0.0,0.1870869929410349,2.9902323568538987,0.49997394551165286
1.2568633556365967,0.34937290552516637,[0.90420423],5.0,0.6,0.0,0.15928873860035236,3.0400496521595035,0.49998111275478513
1.2698824405670166,0.35464867087705654,[0.91397139],5.0,0.6,0.0,0.11654177617035841,3.0766173574259885,0.49998988966490726
1.281951665878296,0.35972903751220986,[0.92362264],5.0,0.6,0.0,0.07570475128340728,3.107764558412303,0.49999573370289463
1.293572187423706,0.36422320799715335,[0.93316661],5.0,0.6,0.0,0.04233330399833915,3.137619909950672,0.49999866595516246
1.302049160003662,0.3675449861816767,[0.94258753],5.0,0.6,0.0,0.017198348037276913,3.0943648820426803,0.49999977981889526
1.3129394054412842,0.3722345553833568,[0.95184448],5.0,0.6,0.0,-0.0007151962612843062,3.1237118174501206,0.4999999996192349
1.3238933086395264,0.3769241245850368,[0.96092248],5.0,0.6,0.0,-0.012891290232648098,3.1677504686809907,0.4999998762915419
1.3358936309814453,0.381613693786717,[0.96983929],5.0,0.6,0.0,-0.0207517718613734,3.2045846519539554,0.49999967943440854
1.3438422679901123,0.3847400732545037,[0.97858895],5.0,0.6,0.0,-0.025480113543921542,3.2327882335736384,0.4999995167084706
1.3548777103424072,0.38903884502271047,[0.98714054],5.0,0.6,0.0,-0.027995759881546123,3.2654076530001706,0.49999941656706465
1.3679466247558594,0.3945100090913372,[0.99549921],5.0,0.6,0.0,-0.028984996395468025,3.288756257014031,0.4999993746071595
1.380967617034912,0.3995903757264907,[1.00370105],5.0,0.6,0.0,0.24709140562695614,3.3116495147327467,0.499954553314252
1.3939204216003418,0.40486614107838076,[1.01177998],5.0,0.6,0.0,0.004886610648946868,3.3322708028320838,0.49999998222448705
1.4059548377990723,0.4097511089967975,[1.01976798],5.0,0.6,0.0,-0.08220609836644122,3.3540017554644086,0.4999949694836673
1.4189209938049316,0.41463607691521426,[1.02769519],5.0,0.6,0.0,0.17421973187003562,3.3752888044069955,0.4999774060821804
1.4308562278747559,0.419521044833631,[1.03558999],5.0,0.6,0.0,0.21440862753956214,3.396451686687194,0.4999657802898058
1.4388623237609863,0.4226474243014178,[1.04344746],5.0,0.6,0.0,-0.1012779231077206,3.4201222563716285,0.49999236457997176
1.451073169708252,0.4277277909365711,[1.05123881],5.0,0.6,0.0,-0.19432222809011312,3.4554978419041915,0.4999718913860728
1.4608287811279297,0.43163576527130454,[1.0589732],5.0,0.6,0.0,-0.19566544528463173,3.460668268138836,0.49997150146274955
1.4709506034851074,0.43573913832277467,[1.06668286],5.0,0.6,0.0,-0.16487771560114745,3.486033842410349,0.4999797641332909
1.4833815097808838,0.4406241062411914,[1.0743975],5.0,0.6,0.0,-0.1276149570756178,3.5071788745982087,0.4999878771545681
1.4968070983886719,0.44629066902655484,[1.08214892],5.0,0.6,0.0,-0.0938157838978328,3.524058484639954,0.4999934482751014
1.50919508934021,0.4509802382282349,[1.08996535],5.0,0.6,0.0,0.20961042097953983,3.5454805574800607,0.4999672946943933
1.516892433166504,0.4541066176960216,[1.09783714],5.0,0.6,0.0,0.2636518664071778,3.56915925613866,0.4999482576793329
1.5298447608947754,0.45938238304791174,[1.10572217],5.0,0.6,0.0,0.22395972226380725,3.5876069172085066,0.49996266378399706
1.5419392585754395,0.4642673509663285,[1.11361975],5.0,0.6,0.0,0.15893935299866005,3.607487071232809,0.4999811955173276
1.5539414882659912,0.4689569201680086,[1.12156442],5.0,0.6,0.0,0.0962098931687147,3.628064018724693,0.49999310962041144
1.5661144256591797,0.47345109065295204,[1.12958592],5.0,0.6,0.0,0.04498218482649281,3.6494565186424817,0.49999849378449956
1.5782513618469238,0.4781406598546321,[1.13770927],5.0,0.6,0.0,0.006651518830495362,3.6698145266559843,0.4999999670657096
1.588721513748169,0.48302562777304886,[1.14594313],5.0,0.6,0.0,-0.020323291216707524,3.6500549329991823,0.49999969253575255
1.5968594551086426,0.48615200724083557,[1.15425827],5.0,0.6,0.0,-0.03827242224488284,3.610967859871823,0.4999989096194385
1.6089365482330322,0.491232373875989,[1.16261724],5.0,0.6,0.0,-0.04944568066668603,3.6597507836243355,0.4999981800368089
1.6208443641662598,0.49611734179440575,[1.17102329],5.0,0.6,0.0,-0.05572084084106453,3.700616257619438,0.499997688781557
1.6317572593688965,0.5002207148458758,[1.17950206],5.0,0.6,0.0,-0.058557882856520915,3.738467325877723,0.49999744743799845
1.6398265361785889,0.5035424930303992,[1.18803874],5.0,0.6,0.0,-0.05904611824759618,3.764659569282669,0.49999740469590453
1.651930570602417,0.508427460948816,[1.19658444],5.0,0.6,0.0,-0.05797671976229862,3.793696615716881,0.49999749785272396
1.6639041900634766,0.5135078275839694,[1.20513271],5.0,0.6,0.0,-0.0559132282439512,3.8181600193202203,0.49999767279414936
1.6769332885742188,0.5185881942191228,[1.21371293],5.0,0.6,0.0,0.2227876162601794,3.8401275435819495,0.499963053549392
1.6899311542510986,0.5236685608542763,[1.22234898],5.0,0.6,0.0,0.25890071689618543,3.8606180381753394,0.4999501056336423
1.7029497623443604,0.5287489274894297,[1.23105982],5.0,0.6,0.0,-0.0691060933956264,3.880359390113522,0.4999964450146368
1.7149369716644287,0.5336338954078464,[1.23986011],5.0,0.6,0.0,-0.1751705882513507,3.9007323691930837,0.49997715878866017
1.7283475399017334,0.5391050594764732,[1.2487607],5.0,0.6,0.0,0.08852300322362545,3.9181790968110644,0.4999941666716811
1.7400403022766113,0.5437946286781532,[1.2577692],5.0,0.6,0.0,0.14407628039949827,3.9397369447561648,0.4999845479914352
1.7513997554779053,0.5484841978798334,[1.26688274],5.0,0.6,0.0,-0.1557140213358663,3.936455336567932,0.49998195095292086
1.7589175701141357,0.5516105773476201,[1.27606288],5.0,0.6,0.0,0.04098048946248989,3.8852760316840493,0.4999987498549234
1.7689106464385986,0.5557139503990901,[1.285257],5.0,0.6,0.0,0.08364102729283002,3.9415748836330655,0.4999947923339072
1.781897783279419,0.5607943170342435,[1.29445472],5.0,0.6,0.0,0.06759343131211723,3.984440640541112,0.49999659894084814
1.7949016094207764,0.5658746836693971,[1.30367378],5.0,0.6,0.0,0.034879738304838676,4.02043254079665,0.4999990943660021
1.8033833503723145,0.5697826580041304,[1.3129058],5.0,0.6,0.0,0.0025966068667641895,3.9821665507983757,0.49999999498097825
1.8138427734375,0.5738860310556004,[1.32210905],5.0,0.6,0.0,-0.023445248055226926,3.9990594166337603,0.49999959081833834
1.8229429721832275,0.5774032079568606,[1.33125972],5.0,0.6,0.0,-0.042248116527101615,4.058698732735056,0.49999867131876047
1.835245132446289,0.5820927771585406,[1.34037203],5.0,0.6,0.0,-0.054640508954173925,4.102638889231179,0.49999777753371155
1.8429419994354248,0.585414555343064,[1.34943553],5.0,0.6,0.0,-0.061958487426139484,4.13149972757925,0.4999971423630807
1.8558456897735596,0.5904949219782174,[1.35840775],5.0,0.6,0.0,-0.06550858684581685,4.165208883294519,0.49999680550840486
1.866835355758667,0.5951844911798975,[1.3672869],5.0,0.6,0.0,-0.3424231669575419,4.195150731640618,0.49991272395686137
1.8778586387634277,0.599678661664841,[1.3761052],5.0,0.6,0.0,-0.3745999019485584,4.221701061713323,0.49989555284153137
1.8903758525848389,0.6051498257334678,[1.38488901],5.0,0.6,0.0,-0.3173622723391575,4.2401449120256824,0.49992503048373743
1.898911476135254,0.6082762052012545,[1.39364159],5.0,0.6,0.0,0.03763833999266125,4.209479135747071,0.4999989454500891
1.9078598022460938,0.6117933821025145,[1.40233267],5.0,0.6,0.0,-0.1314598630192885,4.204931916150749,0.4999871356620914
1.9188494682312012,0.6160921538707212,[1.41093971],5.0,0.6,0.0,-0.15957334796472336,4.250151634380289,0.49998104520214776
1.9309287071228027,0.620977121789138,[1.41947459],5.0,0.6,0.0,-0.13503331137757107,4.283270172618187,0.49998642678850563
1.9425854682922363,0.6252758935573448,[1.42795994],5.0,0.6,0.0,-0.09658104807192384,4.3123477764959945,0.4999930563553425
1.9516336917877197,0.6289884691753416,[1.43638914],5.0,0.6,0.0,-0.05979600521405784,4.261070035576284,0.4999973383566479
1.96293306350708,0.6336780383770215,[1.44472617],5.0,0.6,0.0,-0.30585777309954626,4.286603486549801,0.49993036694061177
1.974928379058838,0.6387584050121751,[1.45295879],5.0,0.6,0.0,-0.04049746551163788,4.324021629666197,0.4999987791513323
1.986926555633545,0.6436433729305918,[1.46110549],5.0,0.6,0.0,0.06356990184450144,4.353906280731739,0.4999969917879221
1.9998323917388916,0.6489191382824818,[1.46918641],5.0,0.6,0.0,0.09516530382615743,4.376055000311968,0.4999932584303702
2.010434865951538,0.653022511333952,[1.47721774],5.0,0.6,0.0,0.09627962293490111,4.40030730142941,0.49999309962901994
2.0187859535217285,0.656539688235212,[1.48519554],5.0,0.6,0.0,0.086211957252627,4.368820522663327,0.4999944672724795
2.028975248336792,0.6608384600034187,[1.49308935],5.0,0.6,0.0,0.0734220054602224,4.371827262933371,0.49999598710849535
2.040926456451416,0.6657234279218355,[1.50088132],5.0,0.6,0.0,-0.2147338553631899,4.409362856478238,0.4999656764016328
2.0539066791534424,0.6709991932737257,[1.50858494],5.0,0.6,0.0,-0.25819275939520353,4.438291872074632,0.49995037811682297
2.067455530166626,0.6760795599088789,[1.51622327],5.0,0.6,0.0,-0.2115037384615217,4.463609511552808,0.4999667012209384
2.0799314975738525,0.6809645278272958,[1.52381762],5.0,0.6,0.0,-0.14211995480476064,4.487124410817295,0.4999849647633911
2.0929253101348877,0.6864356918959225,[1.531388],5.0,0.6,0.0,-0.35294429666699845,4.506252685391827,0.4999072788646673
2.1059250831604004,0.6917114572478126,[1.53895352],5.0,0.6,0.0,-0.05762697907504226,4.525540644633157,0.49999752794966823
2.1180317401885986,0.6964010264494928,[1.54653268],5.0,0.6,0.0,-0.20682753308993276,4.547669312566849,0.4999681573245898
2.1267497539520264,0.6999182033507527,[1.55412435],5.0,0.6,0.0,-0.19229444642353288,4.512530623116446,0.4999724749444211
2.1368155479431152,0.7038261776854862,[1.56169922],5.0,0.6,0.0,-0.12549288056735783,4.517946065539785,0.4999882769731278
2.1498920917510986,0.7094927404708496,[1.56924226],5.0,0.6,0.0,-0.05304724735788691,4.5578976319901665,0.4999979052535078
2.1618566513061523,0.7143777083892665,[1.57677375],5.0,0.6,0.0,0.00808767219778055,4.5954957970674295,0.49999995130843483
2.1759088039398193,0.7202396698913666,[1.58432539],5.0,0.6,0.0,0.053867855175052846,4.623867986676064,0.4999978399435303
2.1880931854248047,0.7249292390930466,[1.59192704],5.0,0.6,0.0,0.08535916394623314,4.655126101201434,0.49999457618802956
2.1986753940582275,0.7292280108612532,[1.59960672],5.0,0.6,0.0,0.38128015626797235,4.686551303250222,0.4998917948119342
2.2079739570617676,0.7329405864792501,[1.60736172],5.0,0.6,0.0,0.14947043691908596,4.624749427632337,0.49998336931795023
2.2189443111419678,0.7372393582474569,[1.6151561],5.0,0.6,0.0,0.06601998952430058,4.657671701232969,0.4999967554373205
2.230933904647827,0.7421243261658735,[1.62298298],5.0,0.6,0.0,0.32144293250822636,4.708014658987493,0.49992309031463095
2.240561008453369,0.7462276992173437,[1.63087116],5.0,0.6,0.0,0.35755707315827956,4.745686239692295,0.49990483963663146
2.249567985534668,0.7497448761186037,[1.6388287],5.0,0.6,0.0,0.3119014078554363,4.718495929311032,0.49992758810791565
2.258842706680298,0.7538482491700736,[1.64683176],5.0,0.6,0.0,0.24484762454896203,4.735841036745826,0.4999553749121468
2.2698473930358887,0.7583424196550171,[1.65487391],5.0,0.6,0.0,0.18070569457905444,4.796213983175854,0.4999756925279004
2.2803287506103516,0.7624457927064873,[1.66298064],5.0,0.6,0.0,0.12751987974282847,4.8295922021631865,0.49998789521145615
2.2886345386505127,0.7659629696077473,[1.67115406],5.0,0.6,0.0,0.08643700024162361,4.790523057888214,0.4999944383502808
2.2988264560699463,0.7696755452257441,[1.67936899],5.0,0.6,0.0,0.05601976902054172,4.842536961189078,0.4999976639168955
2.3109283447265625,0.7749513105776341,[1.68763323],5.0,0.6,0.0,0.03414391324950843,4.900595027152474,0.499999132173541
2.3206558227539062,0.7788592849123676,[1.69598887],5.0,0.6,0.0,0.01876506601086637,4.955248272645886,0.4999997378760194
2.3327291011810303,0.7835488541140476,[1.70447568],5.0,0.6,0.0,0.008175055702849217,4.988729324133577,0.49999995025057165
2.3408477306365967,0.7862844361483611,[1.7130855],5.0,0.6,0.0,0.0010410521765890253,4.9102575225577105,0.4999999991932264
2.352846384048462,0.7909740053500411,[1.72177537],5.0,0.6,0.0,-0.0036371491219951415,4.98375905178586,0.49999999015243435
2.3649191856384277,0.7964451694186679,[1.73055154],5.0,0.6,0.0,-0.006592078067125969,5.040782069958544,0.49999996765170873
2.376823902130127,0.8013301373370847,[1.73945916],5.0,0.6,0.0,-0.00835157187814439,5.090892381403446,0.4999999480789939
2.388921022415161,0.8064105039722381,[1.74853672],5.0,0.6,0.0,-0.009291612889277438,5.1334907932625855,0.4999999357328764
2.401822566986084,0.8114908706073914,[1.75781649],5.0,0.6,0.0,-0.009677682952054133,5.171791327862671,0.4999999302812767
2.409878730773926,0.8146172500751782,[1.76728002],5.0,0.6,0.0,-0.009695888862094527,5.203543238388014,0.4999999300187166
2.4208152294158936,0.8191114205601217,[1.77686573],5.0,0.6,0.0,-0.009475832725711028,5.242397937132157,0.49999993315923413
2.4317967891693115,0.8238009897618018,[1.78656563],5.0,0.6,0.0,-0.009107156883613337,5.278202890086074,0.4999999382591955
2.4439785480499268,0.8286859576802185,[1.79641753],5.0,0.6,0.0,-0.008651388023677533,5.311773469483249,0.4999999442842176
2.456202268600464,0.8335709255986353,[1.8064529],5.0,0.6,0.0,-0.008150354639024934,5.344757132421372,0.49999995055075486
2.464240312576294,0.8365019063496852,[1.8166664],5.0,0.6,0.0,-0.007632138164912485,5.285179631533889,0.4999999566390185
2.4738242626190186,0.8404098806844187,[1.8270059],5.0,0.6,0.0,-0.007115264208059743,5.300420714377225,0.499999962313247
2.485893964767456,0.8452948486028355,[1.83744179],5.0,0.6,0.0,-0.006611645423056603,5.368641418957585,0.49999996745938396
2.496642827987671,0.8495936203710422,[1.84799487],5.0,0.6,0.0,-0.006128642627512917,5.4294482211798964,0.49999997204012286
2.5098986625671387,0.8546739870061957,[1.85869748],5.0,0.6,0.0,-0.00567050500016834,5.478647651811204,0.49999997606407914
2.5221002101898193,0.859754353641349,[1.86957536],5.0,0.6,0.0,-0.005239374046210634,5.522126865569339,0.4999999795654313
2.5298917293548584,0.8628807331091358,[1.88060116],5.0,0.6,0.0,-0.0048359816336910125,5.56166379135237,0.4999999825909147
2.540816307067871,0.8675703023108159,[1.8917026],5.0,0.6,0.0,-0.004460133810395471,5.602823170491128,0.49999998519179406
2.5518109798431396,0.8718690740790227,[1.90286329],5.0,0.6,0.0,-0.004111044825474868,5.641708890058952,0.49999998741911783
2.563601493835449,0.8763632445639661,[1.91411321],5.0,0.6,0.0,-0.003787566555730219,5.676006298011236,0.49999998932108286
2.5736677646636963,0.8804666176154361,[1.92544736],5.0,0.6,0.0,-0.003488345008854948,5.623098384743546,0.4999999909417243
2.582892656326294,0.8841791932334329,[1.9368133],5.0,0.6,0.0,0.2728264335980195,5.624084542202543,0.49994459416508835
2.5949058532714844,0.8888687624351129,[1.94817178],5.0,0.6,0.0,0.3062061367611816,5.687097456971668,0.4999302082410459
2.607905387878418,0.894144527787003,[1.95952962],5.0,0.6,0.0,0.25134412838930975,5.733767514918232,0.49995297554829354
2.619926691055298,0.899420293138893,[1.97090462],5.0,0.6,0.0,0.17547594095312452,5.769944641914258,0.49997707908869854
2.6316425800323486,0.9039144636238364,[1.98230482],5.0,0.6,0.0,0.1051530081796978,5.802295737226255,0.49999176911557786
2.6421256065368652,0.9086040328255167,[1.99371109],5.0,0.6,0.0,0.048715168536400885,5.767531712448019,0.49999823341586086
2.652942180633545,0.9127074058769867,[2.00507466],5.0,0.6,0.0,0.00688693639089865,5.787640428409934,0.4999999646931637
2.661834955215454,0.9164199814949833,[2.01635182],5.0,0.6,0.0,-0.022372281269435745,5.806515094354855,0.4999996274135514
2.673879861831665,0.9213049494134001,[2.02751869],5.0,0.6,0.0,-0.041756557534849206,5.847766375834452,0.4999987020573992
2.6858081817626953,0.9257991198983436,[2.03856619],5.0,0.6,0.0,-0.05377701149019816,5.881218509556091,0.49999784722288476
2.697770357131958,0.9306840878167605,[2.04948945],5.0,0.6,0.0,-0.06049710427234428,5.905666537204586,0.4999972755761911
2.7075841426849365,0.9347874608682304,[2.06026213],5.0,0.6,0.0,-0.06350769787679325,5.8750230587029835,0.49999699767217265
2.71693754196167,0.9381092390527538,[2.07083218],5.0,0.6,0.0,0.21204863209202612,5.886928973145145,0.4999665294314743
2.726853132247925,0.9418218146707505,[2.08116107],5.0,0.6,0.0,-0.029673494185208177,5.9304103219221815,0.4999993445436586
2.735295534133911,0.9453389915720106,[2.0912297],5.0,0.6,0.0,-0.115637637772035,5.955004045640962,0.4999900459280613
2.743928909301758,0.9490515671900073,[2.10100736],5.0,0.6,0.0,-0.1337268719977957,6.045951241379401,0.49998668815456543
2.7569031715393066,0.9543273325418974,[2.11046743],5.0,0.6,0.0,0.15111965123631796,6.039111544729659,0.4999830003031187
2.768812417984009,0.9590169017435776,[2.11960998],5.0,0.6,0.0,0.20153885346447392,6.04612012606658,0.4999697649207534
2.781087636947632,0.9640972683787309,[2.12844554],5.0,0.6,0.0,-0.11156401601497473,6.065134150439074,0.49999073488252505
2.793821096420288,0.9691776350138844,[2.13698167],5.0,0.6,0.0,0.07118404016651228,6.092774556873434,0.49999622801198534
2.806920289993286,0.9746487990825112,[2.1452237],5.0,0.6,0.0,0.10198139557558021,6.12135030622883,0.4999922581417605
2.8197097778320312,0.9797291657176646,[2.15317537],5.0,0.6,0.0,-0.1992630086174804,6.150374720364807,0.4999704438946678
2.8311855792999268,0.9850049310695548,[2.16083524],5.0,0.6,0.0,-0.2717589068235121,6.184256666778594,0.49994502688159115
2.8409581184387207,0.9881313105373414,[2.16818864],5.0,0.6,0.0,0.02247590111794412,6.192467178578524,0.4999996239542043
2.85288667678833,0.9928208797390216,[2.17521925],5.0,0.6,0.0,0.10258531243795296,6.209430089660242,0.4999921661789949
2.864178419113159,0.9975104489407016,[2.18192175],5.0,0.6,0.0,-0.17874382553295776,6.190104581301611,0.49997621744861676
2.876969575881958,1.0027862142925916,[2.18830263],5.0,0.6,0.0,-0.24482035457592963,6.2298389604363615,0.49995538485141316
2.887932300567627,1.0072803847775351,[2.19438303],5.0,0.6,0.0,-0.2260931587710993,6.233886869494959,0.49996194909482466
2.900428056716919,1.0119699539792153,[2.20018188],5.0,0.6,0.0,-0.18090421286287464,6.233450209403886,0.4999756390928318
2.9082956314086914,1.0152917321637385,[2.20570065],5.0,0.6,0.0,-0.13360963258960518,6.189430970611932,0.4999867114852244
2.9189682006835938,1.0195905039319453,[2.2109326],5.0,0.6,0.0,-0.09301969271160722,6.191091355938549,0.49999355899436604
2.9309563636779785,1.0244754718503621,[2.21588136],5.0,0.6,0.0,-0.06118449930512374,6.196120751555334,0.49999721331239494
2.9410717487335205,1.028578844901832,[2.22056172],5.0,0.6,0.0,-0.037482807018151536,6.198631133224037,0.4999989541475093
2.953749179840088,1.0336592115369856,[2.22498905],5.0,0.6,0.0,-0.020453629941842296,6.1917268848663864,0.4999996885794062
2.9619781970977783,1.036980989721509,[2.22916999],5.0,0.6,0.0,-0.008563102848676413,6.195910938410385,0.4999999454155458
2.973862409591675,1.0414751602064523,[2.23310426],5.0,0.6,0.0,-0.000483663963560141,6.187268856586999,0.49999999982586174
2.98587965965271,1.0463601281248691,[2.23680167],5.0,0.6,0.0,0.004839315097938135,6.173897153360869,0.4999999825669061
2.998783588409424,1.0516358934767591,[2.24028004],5.0,0.6,0.0,0.008205276293451424,6.1564798578926485,0.4999999498820761
3.0108642578125,1.056520861395176,[2.24355574],5.0,0.6,0.0,0.010203081793405323,6.139356190774815,0.4999999225057681
3.0228347778320312,1.0616012280303293,[2.2466429],5.0,0.6,0.0,0.011258321132843679,6.112327131353496,0.49999990564739416
3.0356953144073486,1.0668769933822195,[2.24955393],5.0,0.6,0.0,-0.2643639008381279,6.095580911321757,0.4999479778395245
3.04842209815979,1.0717619613006362,[2.25230213],5.0,0.6,0.0,-0.29749731668786283,6.082220403820227,0.49993412142918664
3.0559113025665283,1.0746929420516864,[2.25489568],5.0,0.6,0.0,-0.24268402015477897,6.0804560276702055,0.4999561600554282
3.066821336746216,1.0787963151031563,[2.25733641],5.0,0.6,0.0,-0.167054200333986,6.062129378630086,0.4999792263670904
3.0789175033569336,1.0836812830215732,[2.25963203],5.0,0.6,0.0,-0.37312483505514654,6.039723462808721,0.4998963737028014
3.090869188308716,1.0887616496567265,[2.2617955],5.0,0.6,0.0,-0.35023373784237744,6.016076254426068,0.49990869743502403
3.1031737327575684,1.0936466175751434,[2.26383855],5.0,0.6,0.0,-0.25376346656321064,5.993229710626225,0.49995206595780517
3.1109321117401123,1.0963821996094567,[2.26576738],5.0,0.6,0.0,-0.14888489117900355,5.9890293924445785,0.4999834993609294
3.1228811740875244,1.1010717688111367,[2.26758365],5.0,0.6,0.0,-0.0594391525017983,5.966652602857491,0.49999737003026845
3.1359238624572754,1.106347534163027,[2.26929423],5.0,0.6,0.0,0.008755792237101694,5.941104605512667,0.49999994293135697
3.1478066444396973,1.1114279007981802,[2.27091012],5.0,0.6,0.0,0.05704587232058793,5.916439574710891,0.4999975775541692
3.159801959991455,1.1165082674333338,[2.27244114],5.0,0.6,0.0,0.08906692030139146,5.891758998716575,0.49999409476775697
3.171109914779663,1.121197836635014,[2.27389598],5.0,0.6,0.0,0.10869653778519167,5.869010840367083,0.4999912050317106
3.182819366455078,1.1256920071199572,[2.27528196],5.0,0.6,0.0,0.11930212887348586,5.843287219266393,0.49998940506099304
3.1965243816375732,1.1313585699053208,[2.27660555],5.0,0.6,0.0,0.12355529560926612,5.820906098669958,0.49998863617680067
3.2048397064208984,1.1344849493731075,[2.27786995],5.0,0.6,0.0,0.12347221647645067,5.811465582496818,0.4999886514536604
3.214921236038208,1.1383929237078407,[2.27907497],5.0,0.6,0.0,0.12052698461135848,5.792154285462979,0.4999891863935026
3.2279305458068848,1.1438640877764674,[2.28022384],5.0,0.6,0.0,0.11577340980560417,5.765130655632618,0.49999002254009656
3.238957166671753,1.1481628595446745,[2.28132289],5.0,0.6,0.0,0.10995144686833616,5.74394092223772,0.4999910007842391
3.2468392848968506,1.151289239012461,[2.28237475],5.0,0.6,0.0,0.1035722185483983,5.7334601598328385,0.49999201472705257
3.2569375038146973,1.1551972133471944,[2.283379],5.0,0.6,0.0,0.0969827375334348,5.714217151452348,0.4999929984771228
3.2699108123779297,1.160668377415821,[2.28433858],5.0,0.6,0.0,0.0904137636931282,5.687212823863838,0.4999939148242072
3.282893419265747,1.1657487440509746,[2.28525915],5.0,0.6,0.0,0.36005289270707164,5.661963755471755,0.4999035066522014
3.2935659885406494,1.1702429145359179,[2.2861456],5.0,0.6,0.0,0.38704060193629963,5.639786811576013,0.4998885009158021
3.306386709213257,1.1755186798878081,[2.28700212],5.0,0.6,0.0,0.3261224020180371,5.613885066958234,0.49992083493786815
3.3137762546539307,1.1786450593555948,[2.28782985],5.0,0.6,0.0,0.24455948851447273,5.602226668202695,0.4999554798750442
3.3237898349761963,1.182748432407065,[2.28862744],5.0,0.6,0.0,0.16891121694003797,5.58217681169865,0.49997876196005286
3.3367919921875,1.1876334003254816,[2.28939642],5.0,0.6,0.0,0.10751369706261181,5.558226995244803,0.4999913954030805
3.3477835655212402,1.192127570810425,[2.29014059],5.0,0.6,0.0,0.06108028364360206,5.53622909160416,0.4999972227974232
3.3557841777801514,1.195253950278212,[2.29086104],5.0,0.6,0.0,0.027554697650027656,5.5240984208823365,0.49999943480575654
3.3667781352996826,1.1997481207631555,[2.29155654],5.0,0.6,0.0,0.004224637054475618,5.502144799957114,0.4999999867142683
3.3767924308776855,1.2036560950978887,[2.29222845],5.0,0.6,0.0,-0.011440448494402108,5.483032749573778,0.49999990256999305
3.3899178504943848,1.2089318604497787,[2.29288019],5.0,0.6,0.0,-0.021523760442064388,5.457223919144772,0.49999965513999906
3.403859853744507,1.2144030245184054,[2.29351467],5.0,0.6,0.0,-0.027635626894827965,5.43043170935939,0.49999943148088694
3.4158518314361572,1.2190925937200856,[2.2941343],5.0,0.6,0.0,-0.030975805749331245,5.407553144157561,0.4999992857477955
3.423856258392334,1.222414371904609,[2.29473923],5.0,0.6,0.0,-0.03241715754592378,5.393875918572207,0.4999992177308582
3.442120313644409,1.2298395231406025,[2.29532951],5.0,0.6,0.0,-0.03258422429800198,5.377253667620014,0.4999992096470014
3.4498279094696045,1.2329659026083892,[2.29590717],5.0,0.6,0.0,-0.03191821789124903,5.364471245007065,0.499999241625684
3.4672014713287354,1.2398048576941727,[2.29647385],5.0,0.6,0.0,-0.03072748452993722,5.3431054470120625,0.4999992971536602
3.4748270511627197,1.2429312371619592,[2.2970309],5.0,0.6,0.0,-0.029225298613520793,5.33017360944337,0.49999936419445107
3.4869134426116943,1.247816205080376,[2.29757775],5.0,0.6,0.0,-0.02755753671515087,5.295959792132529,0.4999994346892824
3.4988460540771484,1.252701172998793,[2.29811387],5.0,0.6,0.0,-0.025822643670697042,5.264700704290948,0.4999995036273264
3.5119102001190186,1.2577815396339465,[2.29864048],5.0,0.6,0.0,-0.024085892351588756,5.234760843706664,0.49999956815094876
3.5239038467407227,1.262666507552363,[2.29915855],5.0,0.6,0.0,-0.022389494710439915,5.20740450317595,0.4999996268399881
3.5359082221984863,1.2675514754707797,[2.29966886],5.0,0.6,0.0,-0.020759732568873687,5.181212856242466,0.49999967918841337
3.5438737869262695,1.2704824562218298,[2.30017095],5.0,0.6,0.0,-0.01921196507427416,5.154319536023146,0.49999972524213504
3.5548770427703857,1.2747812279900368,[2.300663],5.0,0.6,0.0,-0.017754132099133797,5.131383467797891,0.4999997653581537
3.566805839538574,1.2794707971917167,[2.30114408],5.0,0.6,0.0,-0.01638919671926642,5.1120210643783714,0.4999998000497623
3.579793930053711,1.2849419612603434,[2.3016149],5.0,0.6,0.0,0.2609215179519526,5.087703391906168,0.4999493237512951
3.5928664207458496,1.2902177266122334,[2.3020765],5.0,0.6,0.0,0.2952283198734653,5.063731150649711,0.4999351224370357
3.606862783432007,1.2958842893975973,[2.30252973],5.0,0.6,0.0,-0.03481152999270612,5.037589171052233,0.49999909790452135
3.6201140880584717,1.301355453466224,[2.30297529],5.0,0.6,0.0,0.1330310274573494,5.0118507492790405,0.49998682632804226
3.632873296737671,1.3062404213846404,[2.30341376],5.0,0.6,0.0,0.15166690213948147,4.988863457491414,0.4999828769599995
3.6448705196380615,1.3111253893030574,[2.30384559],5.0,0.6,0.0,0.11689740595509004,4.965791977642162,0.4999898278675723
3.6578729152679443,1.3165965533716841,[2.30427114],5.0,0.6,0.0,0.0701348157553179,4.9397409457169825,0.49999633838729785
3.6701438426971436,1.3210907238566276,[2.30469069],5.0,0.6,0.0,0.027553723631422663,4.918445386923673,0.4999994348457134
3.677872896194458,1.3242171033244143,[2.3051033],5.0,0.6,0.0,-0.005921163292010411,4.904795948762197,0.49999997390118794
3.689826488494873,1.3289066725260943,[2.30550703],5.0,0.6,0.0,-0.030032569666004913,4.882577225345144,0.499999328584489
3.7028629779815674,1.3341824378779843,[2.30590148],5.0,0.6,0.0,-0.04618737725605914,4.857333322536317,0.499998411992355
3.7148549556732178,1.3390674057964012,[2.30628749],5.0,0.6,0.0,-0.05615649806845495,4.833968640467722,0.49999765249951655
3.7268829345703125,1.3437569749980813,[2.30666581],5.0,0.6,0.0,-0.06156581680719484,4.811574047835189,0.4999971784695508
3.739856243133545,1.3492281390667082,[2.3070371],5.0,0.6,0.0,-0.06374031891629715,4.785310622344531,0.49999697563762835
3.7508795261383057,1.353917708268388,[2.30740176],5.0,0.6,0.0,-0.06369517084285789,4.761173225364139,0.49999697992048625
3.7621655464172363,1.3580210813198583,[2.30775975],5.0,0.6,0.0,-0.062179531494452794,4.73967807439724,0.4999971219368675
3.769819736480713,1.3611474607876448,[2.30811037],5.0,0.6,0.0,-0.05973221105383551,4.719130325143154,0.49999734403282226
3.78181529045105,1.3656416312725883,[2.30845278],5.0,0.6,0.0,-0.05673309365259713,4.700739308220247,0.4999976040454948
3.794490098953247,1.3709173966244785,[2.30878723],5.0,0.6,0.0,-0.05344533281243957,4.677563284253833,0.4999978736961596
3.8068926334381104,1.3761931619763685,[2.3091146],5.0,0.6,0.0,-0.05004795935078739,4.653682829631917,0.4999981354303356
3.819594383239746,1.3810781298947854,[2.30943568],5.0,0.6,0.0,-0.04666021607052174,4.631270151899131,0.49999837931182795
3.8338048458099365,1.3869400913968852,[2.30975113],5.0,0.6,0.0,-0.04335932233912004,4.603714446113743,0.49999860050600414
3.846845865249634,1.3918250593153023,[2.31006154],5.0,0.6,0.0,-0.0401932521033361,4.580718608778939,0.4999987974242354
3.860852003097534,1.3978824195341388,[2.31036741],5.0,0.6,0.0,-0.037189829352640036,4.551808048246618,0.4999989704330346
3.873070240020752,1.4029627861692924,[2.31066915],5.0,0.6,0.0,-0.03436315146258285,4.527565025980927,0.4999991209931362
3.885498285293579,1.4078477540877092,[2.31096707],5.0,0.6,0.0,-0.03171809639921122,4.5035362013621665,0.4999992511056061
3.892787218093872,1.410974133555496,[2.31126052],5.0,0.6,0.0,-0.02925346719132238,4.480126930237489,0.49999936296822867
3.9037764072418213,1.4150775066069659,[2.31154822],5.0,0.6,0.0,-0.02696417305206872,4.463573873937498,0.4999994587715073
3.916431188583374,1.4201578732421194,[2.31183004],5.0,0.6,0.0,-0.024842732614762268,4.441314641668708,0.499999540584963
3.9268381595611572,1.4242612462935895,[2.31210671],5.0,0.6,0.0,-0.0228803019611639,4.42317665417935,0.49999961030035556
3.940823793411255,1.4297324103622162,[2.31237885],5.0,0.6,0.0,-0.2971057303371958,4.398019002557648,0.4999342947314367
3.949188709259033,1.4330541885467396,[2.31264644],5.0,0.6,0.0,-0.3285571894866796,4.376583199855714,0.4999196485484803
3.9588780403137207,1.4371575615982095,[2.31290864],5.0,0.6,0.0,-0.271916967032903,4.356799473994437,0.4999449629196685
3.9668495655059814,1.4404793397827331,[2.3131649],5.0,0.6,0.0,-0.19440986176480585,4.341302953891582,0.49997186602873445
3.9753003120422363,1.4438011179672565,[2.31341496],5.0,0.6,0.0,-0.12257705189021492,4.322802954198326,0.4999888154076012
3.9868063926696777,1.4482952884522,[2.31365851],5.0,0.6,0.0,-0.06474867438575943,4.303310009957809,0.49999687919176805
3.997911214828491,1.4527894589371433,[2.3138959],5.0,0.6,0.0,-0.021640131737814945,4.284469095925872,0.49999965140084945
4.011872053146362,1.4588468191559802,[2.31412809],5.0,0.6,0.0,0.008797682564137306,4.257029778022869,0.4999999423839838
4.023796796798706,1.46353638835766,[2.31435603],5.0,0.6,0.0,0.02926676543059618,4.235668502093668,0.49999936238892495
4.0326316356658936,1.4672489639756567,[2.31458021],5.0,0.6,0.0,0.04228558984491187,4.215024183695537,0.4999986689606856
4.040779113769531,1.4705707421601801,[2.31480027],5.0,0.6,0.0,-0.22611393235782462,4.1964520543954,0.4999619421024856
4.053776979446411,1.4756511087953337,[2.31501588],5.0,0.6,0.0,-0.255382526085815,4.174662469121609,0.49995145237961075
4.065779447555542,1.4801452792802772,[2.31522755],5.0,0.6,0.0,-0.19902533772354572,4.154861007022507,0.4999705143566136
4.077820062637329,1.484834848481957,[2.31543614],5.0,0.6,0.0,-0.12341620926432156,4.133504976890615,0.4999886617466494
4.088837146759033,1.4895244176836373,[2.31564239],5.0,0.6,0.0,-0.054492695990025375,4.111714315693888,0.4999977895418085
4.1025309562683105,1.494995581752264,[2.31584694],5.0,0.6,0.0,-0.00016350597547858114,4.085761277656402,0.49999999998009903
4.110835075378418,1.498121961220051,[2.3160496],5.0,0.6,0.0,0.03914572791835414,4.063572998555091,0.4999988592908468
4.125150680541992,1.5039839227221508,[2.3162498],5.0,0.6,0.0,0.06568003276645834,4.040599301064621,0.4999967887656387
4.1348021030426025,1.508087295773621,[2.31644772],5.0,0.6,0.0,0.08227113214755086,4.018554467030147,0.4999949615212104
4.146804094314575,1.5129722636920375,[2.31664368],5.0,0.6,0.0,0.09152095690003734,3.9964874726069564,0.4999937648763288
4.159805536270142,1.5182480290439277,[2.31683796],5.0,0.6,0.0,0.09555117303635641,3.9719830780175824,0.4999932036494734
4.170308351516724,1.5223514020953979,[2.31703106],5.0,0.6,0.0,-0.1800500396228071,3.9530785619059934,0.4999758685933863
4.1778223514556885,1.5254777815631846,[2.31722273],5.0,0.6,0.0,0.06090897788408835,3.938277415656542,0.4999972383534197
4.1881678104400635,1.529385755897918,[2.31741207],5.0,0.6,0.0,0.14564890876476577,3.9199664303509367,0.49998420883077954
4.198809385299683,1.5336845276661246,[2.31759902],5.0,0.6,0.0,0.16223791997931847,3.8995301638276065,0.49998040691126266
4.206793308258057,1.5368109071339113,[2.31778354],5.0,0.6,0.0,-0.12425479178785429,3.8849236031555687,0.4999885071437172
4.221393823623657,1.5426728686360116,[2.31796534],5.0,0.6,0.0,0.09966157373953731,3.860872587903113,0.4999926063490176
4.229858636856079,1.5461900455372717,[2.31814486],5.0,0.6,0.0,0.16815125414188337,3.8384120229951604,0.49997895263386266
4.241793394088745,1.5512704121724252,[2.31832237],5.0,0.6,0.0,0.1715626876079363,3.8141593631179935,0.49997808997657633
4.2538018226623535,1.5561553800908419,[2.31849809],5.0,0.6,0.0,0.15131200095059766,3.7907071394010456,0.4999829570008473
4.264808177947998,1.5604541518590485,[2.31867259],5.0,0.6,0.0,0.12547399806700074,3.7700598936491057,0.4999882805006715
4.272796630859375,1.5637759300435718,[2.31884572],5.0,0.6,0.0,0.10124041192968135,3.7542647674281557,0.4999923702348739
4.282764196395874,1.5674885056615686,[2.31901671],5.0,0.6,0.0,0.0809129444075712,3.7365111562282216,0.49999512650449845
4.294766426086426,1.5723734735799855,[2.31918557],5.0,0.6,0.0,0.06473451057583521,3.7128761962788475,0.49999688055697167
4.306767225265503,1.577453840215139,[2.31935294],5.0,0.6,0.0,0.0521891538935728,3.688175599974917,0.49999797247458494
4.3148767948150635,1.5807756183996624,[2.31951874],5.0,0.6,0.0,0.04257099597629455,3.672306332566613,0.49999865093240276
4.327184200286865,1.5852697888846057,[2.31968246],5.0,0.6,0.0,0.03521199411396518,3.652285289681607,0.4999990770301474
4.337763786315918,1.589373161936076,[2.31984429],5.0,0.6,0.0,0.029556106925711076,3.6301334359529,0.49999934971932025
4.350800275802612,1.5946489272879658,[2.32000469],5.0,0.6,0.0,0.02516856794529219,3.6045595203444316,0.49999952845463363
4.362797260284424,1.599924692639856,[2.32016406],5.0,0.6,0.0,0.021721046678599108,3.578894771030581,0.499999648789072
4.3740997314453125,1.6044188631247993,[2.32032287],5.0,0.6,0.0,0.018970587596384134,3.5570604232460257,0.49999973210283055
4.386943578720093,1.6094992297599529,[2.32048152],5.0,0.6,0.0,0.016739522711938744,3.5323386794930087,0.4999997914103638
4.394874811172485,1.6130164066612127,[2.32063973],5.0,0.6,0.0,0.014898730814703161,3.515464606402707,0.4999998347638183
4.405770301818848,1.6173151784294195,[2.3207967],5.0,0.6,0.0,0.2893929321887639,3.494467219239944,0.49993766163017433
4.415782928466797,1.6210277540474165,[2.32095231],5.0,0.6,0.0,0.3212020282701855,3.4763994173505672,0.49992320554195174
4.428765296936035,1.6264989181160432,[2.32110706],5.0,0.6,0.0,-0.01106999182606469,3.449859421165791,0.49999990877765416
4.441056728363037,1.6315792847511963,[2.32126134],5.0,0.6,0.0,0.1547651117460146,3.4246997014407077,0.49998217025782615
4.453449010848999,1.6362688539528767,[2.32141545],5.0,0.6,0.0,0.17158649844104895,3.40206765802531,0.4999780838945933
4.460763216018677,1.63900443598719,[2.32156914],5.0,0.6,0.0,0.1351703668482291,3.3890342941525806,0.49998639922195
4.472772121429443,1.6440848026223436,[2.32172161],5.0,0.6,0.0,0.08690877496722384,3.3643021817529153,0.4999943774737703
4.483867645263672,1.6483835743905502,[2.32187275],5.0,0.6,0.0,0.04295974203120389,3.343329324711013,0.4999986261813482
4.496842384338379,1.6534639410257037,[2.32202299],5.0,0.6,0.0,0.00823415242892193,3.318530135422923,0.49999994952870386
4.509844541549683,1.6589351050943304,[2.32217273],5.0,0.6,0.0,-0.017022436224546633,3.2917624727786223,0.49999978430006553
4.5178446769714355,1.662061484562117,[2.32232172],5.0,0.6,0.0,-0.034226985493730336,3.2767558878030187,0.49999912794555884
4.53483772277832,1.669291237081374,[2.32246976],5.0,0.6,0.0,-0.04515918989399796,3.247247466508527,0.4999984819072676
4.542845249176025,1.6724176165491607,[2.32261733],5.0,0.6,0.0,-0.051452670131802505,3.2254903195624918,0.49999802929483783
4.553833723068237,1.676325590883894,[2.32276427],5.0,0.6,0.0,-0.054439287902519375,3.205612398407118,0.49999779387259924
4.565892696380615,1.681210558802311,[2.32291027],5.0,0.6,0.0,-0.055140367127540946,3.1822611700552694,0.4999977366850137
4.577801942825317,1.6860955267207276,[2.32305558],5.0,0.6,0.0,-0.054310613482497404,3.1587347218369732,0.49999780428919605
4.5888776779174805,1.6903942984889342,[2.32320049],5.0,0.6,0.0,-0.052493857484134474,3.137801148469129,0.49999794873032255
4.60151743888855,1.6954746651240877,[2.32334521],5.0,0.6,0.0,-0.05007454407791202,3.1132321450508895,0.49999813344895017
4.608798027038574,1.6984056458751378,[2.32348944],5.0,0.6,0.0,-0.04731998220458282,3.0938057104415133,0.4999983331554603
4.6187920570373535,1.702509018926608,[2.32363243],5.0,0.6,0.0,0.23162536238436357,3.0754580944910415,0.49996006427671047
4.630882978439331,1.707589385561761,[2.32377408],5.0,0.6,0.0,0.2676866595085402,3.0518348753150644,0.49994666197063126
4.643920183181763,1.7128651509136512,[2.32391476],5.0,0.6,0.0,-0.0605629526972217,3.027030730961313,0.49999726964214974
4.656837224960327,1.7183363149822781,[2.32405482],5.0,0.6,0.0,-0.1669881362771624,3.000922316967393,0.499979242793982
4.664781332015991,1.7210718970165915,[2.32419402],5.0,0.6,0.0,-0.17976121132406747,2.98784117188981,0.49997594595049505
4.682732343673706,1.7281062508191116,[2.32433218],5.0,0.6,0.0,-0.15779428862854755,2.9592676093921706,0.4999814654867357
4.691397428512573,1.7316234277203715,[2.32446969],5.0,0.6,0.0,-0.12692127050854637,2.9360056314455023,0.4999880085889813
4.702838659286499,1.7361175982053152,[2.32460638],5.0,0.6,0.0,0.17851505182002997,2.913818300592614,0.4999762782866539
4.714820623397827,1.7406117686902585,[2.32474203],5.0,0.6,0.0,0.2361473165608512,2.8923433895586297,0.4999584898142439
4.72783350944519,1.7460829327588854,[2.32487689],5.0,0.6,0.0,0.2002027766589956,2.865917552798172,0.49997016445944986
4.735830545425415,1.7494047109434088,[2.3250108],5.0,0.6,0.0,0.13855353492360595,2.8498524925543522,0.499985709886111
4.748193264007568,1.7542896788618254,[2.32514331],5.0,0.6,0.0,0.07867809270845258,2.8284144611920956,0.49999539200158766
4.76322340965271,1.7601516403639255,[2.325275],5.0,0.6,0.0,0.029806010847249566,2.8022908421888064,0.4999993386762823
4.770839214324951,1.7632780198317124,[2.32540647],5.0,0.6,0.0,-0.006594965556536518,2.78720217078182,0.49999996762336385
4.783834457397461,1.768749183900339,[2.32553725],5.0,0.6,0.0,-0.031984920899686464,2.7592236534923047,0.499999238452658
4.796838283538818,1.774024949252229,[2.32566715],5.0,0.6,0.0,-0.04862141689531353,2.7324615339797864,0.49999824020883765
4.807780742645264,1.778128322303699,[2.32579648],5.0,0.6,0.0,-0.3347332674177019,2.7119508775110366,0.49991659958607576
4.819953918457031,1.783013290222116,[2.32592548],5.0,0.6,0.0,-0.3731997716108179,2.687734968473455,0.49989633207934625
4.8300323486328125,1.7869212645568493,[2.32605418],5.0,0.6,0.0,-0.04409908155129663,2.666206552936193,0.4999985523447965
4.840382099151611,1.7910246376083194,[2.3261823],5.0,0.6,0.0,0.06531994324624392,2.6454414240981627,0.4999968238800668
4.848855972290039,1.7943464157928428,[2.32630952],5.0,0.6,0.0,0.08242801779900898,2.6280712149636494,0.4999949422868888
4.860774993896484,1.7992313837112597,[2.3264357],5.0,0.6,0.0,-0.21046606368432696,2.6053802520754763,0.49996702714807834
4.868850469589233,1.8027485606125195,[2.32656054],5.0,0.6,0.0,-0.26896701148665836,2.5884386385052243,0.49994615054368896
4.877142667770386,1.806070338797043,[2.3266833],5.0,0.6,0.0,0.038387773655219615,2.57053768292356,0.49999890303682193
4.89075779914856,1.8113461041489332,[2.32680384],5.0,0.6,0.0,0.12865168266571372,2.5482075754550313,0.4999876793884211
4.902837038040161,1.8162310720673498,[2.32692292],5.0,0.6,0.0,-0.14571999302066674,2.5245517992350504,0.49998419341343525
4.9158337116241455,1.8213114387025033,[2.32704117],5.0,0.6,0.0,-0.20758670900424395,2.4998047944081945,0.4999679231412432
4.929831027984619,1.8269780014878667,[2.32715895],5.0,0.6,0.0,-0.18678111141854126,2.4720823054675196,0.49997403063638146
4.941828727722168,1.8318629694062836,[2.32727651],5.0,0.6,0.0,-0.1410667190677482,2.4481628702563465,0.4999851867833977
4.954835414886475,1.836943336041437,[2.32739411],5.0,0.6,0.0,-0.0943246287204837,2.423293633461299,0.49999337701139507
4.966951131820679,1.8418283039598535,[2.3275119],5.0,0.6,0.0,0.2210376384389133,2.399199983681226,0.4999636316712497
4.979503631591797,1.8467132718782704,[2.32763004],5.0,0.6,0.0,0.2842859604316714,2.3751937072059754,0.49993984227934185
4.986835718154907,1.849448853912584,[2.32774821],5.0,0.6,0.0,-0.025113380301635402,2.3621265710486186,0.49999953052030016
4.998834133148193,1.8543338218310006,[2.32786571],5.0,0.6,0.0,0.15665868622746568,2.338201084310925,0.499981731297584
5.009752511978149,1.8590233910326808,[2.32798237],5.0,0.6,0.0,0.18413298934114025,2.315181217366698,0.4999747617683631
5.023019552230835,1.8646899538180441,[2.32809849],5.0,0.6,0.0,-0.12154466050731752,2.2875278106876977,0.49998900301407495
5.035824298858643,1.8697703204531975,[2.32821429],5.0,0.6,0.0,-0.19892159013354072,2.262655692957706,0.4999705450881484
5.0457494258880615,1.8734828960711942,[2.3283298],5.0,0.6,0.0,-0.18569701213772272,2.2427147297047116,0.49997433121222573
5.0537474155426025,1.876609275538981,[2.32844463],5.0,0.6,0.0,-0.14358305436112692,2.2254403366541284,0.49998465360452954
5.065819501876831,1.8812988447406611,[2.32855838],5.0,0.6,0.0,-0.37448373129899015,2.203909108909725,0.49989561760687856
5.078819751739502,1.8865746100925513,[2.32867112],5.0,0.6,0.0,-0.3688918275424808,2.1789779689159268,0.49989871135754926
5.090819358825684,1.891459578010968,[2.32878317],5.0,0.6,0.0,-0.2837850725856072,2.1556466306785724,0.49994005406553793
5.103744029998779,1.8965399446461213,[2.32889478],5.0,0.6,0.0,-0.18583939811302497,2.13116316734055,0.49997429183428904
5.116823434829712,1.9014249125645382,[2.32900617],5.0,0.6,0.0,-0.10013919692878209,2.107499998862564,0.49999253531231647
5.129280090332031,1.9065052791996915,[2.32911752],5.0,0.6,0.0,-0.03346340600526212,2.082786116911579,0.4999991664213198
5.1386802196502686,1.9106086522511616,[2.32922874],5.0,0.6,0.0,0.014819685410979392,2.060441474491786,0.49999983651249275
5.147754192352295,1.9143212278691581,[2.32933938],5.0,0.6,0.0,0.047828703991749766,2.0412254340340366,0.49999829712346333
5.159773111343384,1.919206195787575,[2.3294491],5.0,0.6,0.0,0.06907381314129776,2.0184761168679906,0.4999964483350012
5.171406269073486,1.9240911637059919,[2.32955799],5.0,0.6,0.0,0.08166548695786566,1.995338065291817,0.4999950354300883
5.183191299438477,1.928780732907672,[2.32966632],5.0,0.6,0.0,0.08809835072864833,1.972916393871171,0.49999422250309267
5.194892168045044,1.9330795046758789,[2.32977423],5.0,0.6,0.0,0.09026865333943239,1.951329390581881,0.49999393434134676
5.2028443813323975,1.9362058841436656,[2.32988145],5.0,0.6,0.0,-0.1864675297581451,1.9335619011767273,0.49997411775946116
5.21473503112793,1.941286250778819,[2.32998755],5.0,0.6,0.0,0.05388260324922882,1.9099867257367829,0.49999783876067505
5.2268226146698,1.9459758199804988,[2.33009254],5.0,0.6,0.0,0.13838305385336208,1.8879080268795094,0.4999857450302307
5.239818334579468,1.9510561866156522,[2.33019676],5.0,0.6,0.0,0.15498422446254628,1.8636355809989258,0.4999821197374792
5.250952482223511,1.9557457558173323,[2.33030047],5.0,0.6,0.0,0.1447077938041179,1.8410798397335382,0.49998441223922147
5.263168573379517,1.9606307237357492,[2.33040391],5.0,0.6,0.0,0.12599280383695693,1.8174354811296594,0.49998818338798573
5.270874500274658,1.9637571032035361,[2.33050689],5.0,0.6,0.0,0.10660453222009784,1.802230552779062,0.49999154031421594
5.282819509506226,1.9682512736884794,[2.33060889],5.0,0.6,0.0,0.08940398113261466,1.7804915327261563,0.49999404999240105
5.294851541519165,1.973136241606896,[2.33070986],5.0,0.6,0.0,0.07510313298862098,1.7566788112374032,0.49999580124871673
5.30684232711792,1.9782166082420496,[2.3308101],5.0,0.6,0.0,0.06355191274382962,1.7318265495117942,0.4999969935061166
5.319845676422119,1.9834923735939396,[2.33090991],5.0,0.6,0.0,0.05431818157627575,1.7059610241410539,0.4999978037100439
5.331746816635132,1.9879865440788829,[2.3310095],5.0,0.6,0.0,0.04693327263452561,1.683929986395429,0.4999983603479784
5.34465765953064,1.9934577081475098,[2.33110906],5.0,0.6,0.0,0.04098361787672257,1.6570850127663614,0.49999874978917397
5.358108997344971,1.9987334734993998,[2.33120875],5.0,0.6,0.0,0.3121731056343921,1.6309779834558438,0.4999274621563104
5.3705527782440186,2.003618441417817,[2.33130869],5.0,0.6,0.0,0.34129095766172746,1.6068918894132558,0.4999133005736265
5.378762483596802,2.0067448208856034,[2.33140862],5.0,0.6,0.0,0.006795499928054338,1.5917981350509918,0.4999999663235014
5.390758037567139,2.0116297888040204,[2.33150794],5.0,0.6,0.0,0.17076586677901393,1.567792751099442,0.4999782943166711
5.404840469360352,2.017100952872647,[2.33160653],5.0,0.6,0.0,0.1860003093644883,1.5408429975979676,0.4999742498580181
5.416832685470581,2.0217905220743266,[2.33170463],5.0,0.6,0.0,0.14821523653280586,1.5177548400654746,0.4999836520023722
5.429786682128906,2.027066287426217,[2.33180244],5.0,0.6,0.0,0.09875846073655484,1.491814284591595,0.4999927483290898
5.441833019256592,2.0321466540613704,[2.33190014],5.0,0.6,0.0,0.0537550824580518,1.4668178380586956,0.49999786466527285
5.453832387924194,2.036836223263051,[2.33199786],5.0,0.6,0.0,0.01809127906373257,1.443768405698505,0.4999997834525674
5.466832399368286,2.042111988614941,[2.33209571],5.0,0.6,0.0,-0.008006153921763556,1.4178387748659007,0.5000000019427885
5.479078054428101,2.047192355250094,[2.33219377],5.0,0.6,0.0,-0.025968629521283298,1.3928486966112428,0.4999995860666841
5.4868388175964355,2.050123336001144,[2.33229176],5.0,0.6,0.0,-0.037587154924361106,1.3785750894628972,0.49999906976138503
5.498831748962402,2.0548129052028243,[2.33238911],5.0,0.6,0.0,-0.04450436267853088,1.3556316376447737,0.499998728685091
5.5108418464660645,2.059697873121241,[2.33248566],5.0,0.6,0.0,-0.04805942432423764,1.3316281490570694,0.4999986246510656
5.524831771850586,2.0653644359066043,[2.33258164],5.0,0.6,0.0,-0.04927970011851413,1.3037392251610997,0.49999882005855373
5.537836313247681,2.070444802541758,[2.33267722],5.0,0.6,0.0,-0.048924966066295386,1.2787071416076066,0.49999928249371695
5.5478291511535645,2.0741573781597546,[2.33277256],5.0,0.6,0.0,-0.04754337872056123,1.2604679327498318,0.49999986876462577
5.5558860301971436,2.077283757627541,[2.33286746],5.0,0.6,0.0,-0.04552312566546446,1.2452796742168861,0.5000005762574812
5.566791534423828,2.0817779281124844,[2.33296139],5.0,0.6,0.0,-0.04313479282433916,1.223256912359088,0.5000019247493042
5.576800584793091,2.0858813011639548,[2.33305429],5.0,0.6,0.0,-0.04056410401813097,1.2030877916879423,0.5000037114174688
5.586183547973633,2.0901800729321613,[2.33314621],5.0,0.6,0.0,-0.03793635821603818,1.1800032024274298,0.5000063845563066
5.597018718719482,2.0942834459836317,[2.33323702],5.0,0.6,0.0,-0.03533427546510233,1.160146288920948,0.500010047018013
5.606767654418945,2.0979960216016282,[2.33332665],5.0,0.6,0.0,-0.032810840633742296,1.1411191984787876,0.5000146764599943
5.617873430252075,2.1024901920865715,[2.33341512],5.0,0.6,0.0,0.24563990671574737,1.119574114481523,0.4999784274632359
5.627982139587402,2.106593565138042,[2.3335026],5.0,0.6,0.0,0.2810475681405362,1.0997832460766779,0.499974920804599
5.636298179626465,2.109915343322565,[2.33358909],5.0,0.6,0.0,-0.04794303026950475,1.0812022848262746,0.500043417802337
5.646824359893799,2.1144095138075087,[2.3336743],5.0,0.6,0.0,-0.15514797860663246,1.0596031709269536,0.5000487750429967
5.6551353931427,2.117731291992032,[2.33375793],5.0,0.6,0.0,-0.16870723169285504,1.041773520040965,0.5000672253097418
5.670781373977661,2.1235932534941324,[2.33384008],5.0,0.6,0.0,0.12852653363694366,1.0164978621861345,0.5001324181805425
5.682766914367676,2.1280874239790757,[2.33392129],5.0,0.6,0.0,-0.08425780227679364,0.9945754933110862,0.5002036442421082
5.695797443389893,2.1333631893309657,[2.33400203],5.0,0.6,0.0,-0.14378948966140803,0.9686849925648748,0.5003033321166981
5.707831144332886,2.1382481572493823,[2.33408244],5.0,0.6,0.0,-0.14093732974058792,0.9443808295870907,0.5004517320911895
5.715731143951416,2.1413745367171693,[2.33416235],5.0,0.6,0.0,-0.11684823341551664,0.9262664234831234,0.5005809939250985
5.7277655601501465,2.146259504635586,[2.33424136],5.0,0.6,0.0,-0.08909559306905385,0.9031051886940363,0.500846507407887
5.739758491516113,2.150949073837266,[2.33431941],5.0,0.6,0.0,-0.06436714609677553,0.8805507653363266,0.501197512856542
5.747807502746582,2.1542708520217895,[2.33439646],5.0,0.6,0.0,-0.0445384885624696,0.8642652502434814,0.5015185204336162
5.762501955032349,2.1601328135238895,[2.33447243],5.0,0.6,0.0,-0.02952054629597592,0.8385584739214241,0.5022901369665137
5.772612810134888,2.1638453891418865,[2.33454762],5.0,0.6,0.0,-0.01855081682080986,0.8177123245822483,0.5029441425569843
5.782756090164185,2.168144160910093,[2.33462204],5.0,0.6,0.0,-0.010746250662863145,0.7956864814943992,0.5039147708257694
5.794759035110474,2.172833730111773,[2.33469548],5.0,0.6,0.0,-0.005314779655183202,0.7728441767001887,0.5053010569059923
5.806753396987915,2.17771869803019,[2.33476804],5.0,0.6,0.0,-0.001615647421432843,0.7488956158482476,0.5072055792704592
5.81876277923584,2.18240826723187,[2.33483988],5.0,0.6,0.0,0.0008422243717934456,0.7258125775029198,0.5095895677160991
5.831727027893066,2.18768403258376,[2.33491111],5.0,0.6,0.0,0.0024233079699365104,0.6997743799135299,0.5130997426211795
5.840662717819214,2.1910058107682833,[2.33498162],5.0,0.6,0.0,0.0033925801900096713,0.6812404350759258,0.5158306519161514
5.851741552352905,2.195499981253227,[2.3350511],5.0,0.6,0.0,-0.27209838321646945,0.6595251107744802,0.5202902415478589
5.864810228347778,2.2009711453218537,[2.33511943],5.0,0.6,0.0,-0.30496271917018997,0.6331084840048717,0.5272776570075117
5.876809358596802,2.2058561132402703,[2.33518677],5.0,0.6,0.0,-0.24979750462286304,0.6093142086159924,0.5352037699173624
5.887753248214722,2.20995948629174,[2.33525324],5.0,0.6,0.0,-0.17377059552262336,0.5892643012738807,0.5432731027437736
5.90085244178772,2.215039852926894,[2.33531896],5.0,0.6,0.0,-0.10338608635925299,0.5643185665495586,0.5553789175586182
5.913833379745483,2.220315618278784,[2.33538403],5.0,0.6,0.0,-0.04695085368017059,0.5382953143037779,0.5707805490051301
5.924775838851929,2.2244189913302543,[2.33544853],5.0,0.6,0.0,-0.00516657199400921,0.5180273287278034,0.5849653495729521
5.93759560585022,2.229499357965407,[2.33551251],5.0,0.6,0.0,0.024023088816112335,0.49295942786593133,0.6056353994401249
5.945829153060913,2.232625737433194,[2.33557583],5.0,0.6,0.0,-0.23271539059442028,0.4777180740807652,0.6200219951082087
5.957793474197388,2.2377061040683475,[2.33563818],5.0,0.6,0.0,-0.25391147570207984,0.4527686365194644,0.6468321875227652
5.970747232437134,2.2427864707035012,[2.33569948],5.0,0.6,0.0,0.0838496437134226,0.42750117069206517,0.6778891409937634
5.983813047409058,2.2480622360553912,[2.33575989],5.0,0.6,0.0,-0.08006254478560951,0.40149513158150596,0.71476779984105
5.995814561843872,2.2525564065403345,[2.33581955],5.0,0.6,0.0,-0.09737111240215868,0.3792970157295871,0.7499289929674248
6.008815288543701,2.258027570608961,[2.33587858],5.0,0.6,0.0,-0.06301623289858474,0.3522755476712768,0.7975520851266023
6.022770643234253,2.263694133394325,[2.3359371],5.0,0.6,0.0,-0.01779695573319038,0.3242273005000906,0.8521106033177441
6.034888744354248,2.2685791013127417,[2.3359952],5.0,0.6,0.0,0.02254255828668338,0.3000329244166218,0.9029322212681226
6.045857191085815,2.2726824743642116,[2.33605296],5.0,0.6,0.0,0.053375770210423404,0.2797439619210245,0.9479075951265477
6.054056406021118,2.276004252548735,[2.33611028],5.0,0.6,0.0,-0.2013892263273707,0.2615722266732337,0.985483971148842
6.065740346908569,2.2803030243169418,[2.33616688],5.0,0.6,0.0,-0.22125646625308942,0.2408930245080173,1.0356779491093224
6.078815698623657,2.2851879922353584,[2.33622271],5.0,0.6,0.0,-0.4350951350474892,0.21743770505626359,1.0938397659770935
6.090826511383057,2.290072960153775,[2.33627791],5.0,0.6,0.0,-0.389503755567389,0.19370637068866356,1.1523639758891022
6.102813959121704,2.2943717319219816,[2.33633264],5.0,0.6,0.0,-0.5404025772560799,0.17289250142514775,1.2029618732614635
6.114739418029785,2.298670503690189,[2.33638699],5.0,0.6,0.0,-0.9954539963517471,0.1521136234619647,1.2516482201236125
6.127311944961548,2.3029692754583957,[2.33644108],5.0,0.6,0.0,-1.4500373342280992,0.13175944798019892,1.2976945769148522
6.139917850494385,2.3072680472266023,[2.33649502],5.0,0.6,0.0,-1.800698667744621,0.11121962998978784,1.340545866438607
6.147760391235352,2.309808230544179,[2.33654871],5.0,0.6,0.0,-2.3057014381548235,0.09953136347174978,1.3628030373048374
6.158752202987671,2.313325407445439,[2.33660188],5.0,0.6,0.0,-2.7367832076090814,0.08322593160961825,1.3917609800692623
6.170841693878174,2.3166471856299626,[2.33665449],5.0,0.6,0.0,-3.305353839746543,0.06804837206419725,1.414995348572224
6.182258605957031,2.3195781663810124,[2.3367067],5.0,0.6,0.0,-4.046541579163587,0.055088047474817804,1.4309692036482031
6.189734220504761,2.321336754831642,[2.3367585],5.0,0.6,0.0,-4.6539278576855025,0.046465348910224975,1.4376816440988718
6.200769901275635,2.323876938149219,[2.33680972],5.0,0.6,0.0,-4.770941178909066,0.035554785164804155,1.4504418695202201
6.211750507354736,2.3260263240333225,[2.3368603],5.0,0.6,0.0,-5.0,0.027467082750935082,1.458530462209497
6.222737073898315,2.3277849124839527,[2.33691039],5.0,0.6,0.0,-5.0,0.021252178055502766,1.4652151050912772
6.231587171554565,2.3293481022178457,[2.33696008],5.0,0.6,0.0,-5.0,0.014889080015651016,1.470210510117036
6.24175238609314,2.330520494518266,[2.33700923],5.0,0.6,0.0,-5.0,0.011409945756697666,1.4733466875754693
6.254812479019165,2.331692886818686,[2.33705777],5.0,0.6,0.0,-5.0,0.008684295917893738,1.4759922029708723
6.266744375228882,2.3326698804023693,[2.33710585],5.0,0.6,0.0,-5.0,0.006975759004024516,1.4778042335099464
6.2787322998046875,2.3332560765525794,[2.33715366],5.0,0.6,0.0,-5.0,0.0073630764850503416,1.478698445072962
6.2907209396362305,2.333451475269316,[2.33720136],5.0,0.6,0.0,-5.0,0.009582031389367791,1.4789236802933883
6.298827648162842,2.3336468739860523,[2.33724892],5.0,0.6,0.0,-5.0,0.01144711843112235,1.4791404785143414
6.308756589889526,2.333451475269316,[2.3372961],5.0,0.6,0.0,-5.0,0.015097283348895598,1.4787801949391475
6.320743560791016,2.333451475269316,[2.33734291],5.0,0.6,0.0,-5.0,0.017957133125802945,1.4787079937245957
6.333827495574951,2.3330606778358427,[2.33738952],5.0,0.6,0.0,-4.8530979105781284,0.02264087680582432,1.4790305338894856
6.345747232437134,2.332865279119106,[2.33743608],5.0,0.6,0.0,-3.9805475982988217,0.025973502604969695,1.4841734540258211
6.357752561569214,2.332474481685633,[2.33748272],5.0,0.6,0.0,-2.7163181867341453,0.029879950062698866,1.4895336511904902
6.37006688117981,2.3322790829688964,[2.33752953],5.0,0.6,0.0,-1.2575375154774135,0.03245696093198638,1.493325916077819
6.377704858779907,2.3320836842521597,[2.33757641],5.0,0.6,0.0,0.27784914372582803,0.03471083302286283,1.4939266974740295
6.3907248973846436,2.331692886818686,[2.33762308],5.0,0.6,0.0,1.8188836357531712,0.03753186153502322,1.490534557189175
6.402801752090454,2.331302089385213,[2.3376695],5.0,0.6,0.0,3.0471135728356553,0.040170687306669665,1.485059877431685
6.415806770324707,2.330911291951739,[2.33771577],5.0,0.6,0.0,3.904691392306174,0.04270794353510309,1.4795608136583334
6.429804086685181,2.330520494518266,[2.33776199],5.0,0.6,0.0,4.709161507177258,0.0450181832831881,1.4733285060006927
6.441727876663208,2.330129697084793,[2.33780823],5.0,0.6,0.0,5.0,0.0472077652278385,1.4700093381156463
6.453805446624756,2.329738899651319,[2.33785452],5.0,0.6,0.0,5.0,0.0495019472976779,1.4686457749946111
6.461805820465088,2.3295435009345824,[2.33790073],5.0,0.6,0.0,5.0,0.05083296892942228,1.4678605049635531
6.479006290435791,2.329152703501109,[2.33794673],5.0,0.6,0.0,5.0,0.054559951039469645,1.4663840705148425
6.491762638092041,2.328761906067636,[2.3379927],5.0,0.6,0.0,5.0,0.05610548329175012,1.4648349333396558
6.499802589416504,2.3283711086341623,[2.33803863],5.0,0.6,0.0,5.0,0.05829675265233275,1.463213481642494
6.511808633804321,2.327980311200689,[2.33808421],5.0,0.6,0.0,4.897351706367062,0.05995080146975934,1.4622505166250763
6.52380108833313,2.327589513767216,[2.33812932],5.0,0.6,0.0,4.700796240770806,0.06169358296269333,1.461845752190789
6.535804986953735,2.3271987163337426,[2.33817396],5.0,0.6,0.0,4.1789002896977046,0.06367179006156852,1.4633645816650376
6.5487565994262695,2.3268079189002693,[2.33821814],5.0,0.6,0.0,3.8772964892072648,0.06560982886180147,1.4632308491754298
6.560165882110596,2.3266125201835326,[2.33826184],5.0,0.6,0.0,3.657403925427138,0.06652087725394891,1.4633646430153338
6.572339057922363,2.3262217227500592,[2.338305],5.0,0.6,0.0,3.4617131198808293,0.06844854989624198,1.4623797128818445
6.579782009124756,2.325830925316586,[2.33834749],5.0,0.6,0.0,3.2694559761010415,0.06929355410509187,1.461258719802617
6.590759038925171,2.3254401278831125,[2.3383904],5.0,0.6,0.0,3.0755998570150176,0.08612930906901838,1.4600221960981137
6.601490020751953,2.325244729166376,[2.33843732],5.0,0.6,0.0,2.8811543322225504,0.09706270564432266,1.4596486827198205
6.6143715381622314,2.3246585330161658,[2.33849238],5.0,0.6,0.0,2.6888898165165065,0.10549876979449146,1.4570949040727894
6.626345634460449,2.3242677355826924,[2.33855848],5.0,0.6,0.0,2.501591165922241,0.10975515092991316,1.4553410289503566
6.633876800537109,2.3240723368659557,[2.33863641],5.0,0.6,0.0,2.3214591735158128,0.11115102853381546,1.454469123351938
6.646875381469727,2.323876938149219,[2.33872531],5.0,0.6,0.0,2.4260407731995803,0.11196947742368035,1.4525010715326725
6.658874273300171,2.3236815394324823,[2.33882487],5.0,0.6,0.0,2.2972787966393997,0.11127250333079552,1.4512585967809641
6.671164512634277,2.323290741999009,[2.33893508],5.0,0.6,0.0,2.0902776185154286,0.10988573063666705,1.4489877173794379
6.681820631027222,2.3228999445655356,[2.33905515],5.0,0.6,0.0,1.8723303099092852,0.10931524865244438,1.446538019335211
6.691554546356201,2.322704545848799,[2.33918363],5.0,0.6,0.0,1.9458387318828212,0.10456258009789039,1.4443259136046942
6.707646608352661,2.3221183496985893,[2.33931865],5.0,0.6,0.0,1.7998408744667658,0.10600574506950752,1.4401408629559058
6.715741872787476,2.3219229509818526,[2.33945823],5.0,0.6,0.0,1.589303497502711,0.10763299188586885,1.43847884081796
6.727732419967651,2.3215321535483793,[2.33960026],5.0,0.6,0.0,1.10287649521866,0.10593173057616455,1.43588991398264
6.739725828170776,2.321336754831642,[2.33974258],5.0,0.6,0.0,0.8828380057515952,0.10341488961961216,1.4339096279447223
6.751788377761841,2.3207505586814325,[2.33988314],5.0,0.6,0.0,0.7797898743413234,0.1031137257921176,1.4289521117851327
6.763739824295044,2.320359761247959,[2.34001988],5.0,0.6,0.0,0.44859594502251476,0.102386170005945,1.425458585535043
6.775286674499512,2.319773565097749,[2.34015082],5.0,0.6,0.0,0.3775211236861413,0.10291117058513971,1.4202022575004298
6.784078598022461,2.3195781663810124,[2.34027438],5.0,0.6,0.0,0.12314025801110456,0.10481264487069555,1.417888843120775
6.794789552688599,2.318991970230803,[2.34038949],5.0,0.6,0.0,-0.1434104725588513,0.10645461085125094,1.4124814560724546
6.807826042175293,2.3184057740805923,[2.34049504],5.0,0.6,0.0,-0.08547597546729813,0.10756494671985832,1.4070178695926954
6.819745063781738,2.318014976647119,[2.34058984],5.0,0.6,0.0,0.06696092218947364,0.10804125519412046,1.4030940059350006
6.83172082901001,2.317428780496909,[2.34067287],5.0,0.6,0.0,-0.055977308471491016,0.10997620843873736,1.3975736289649363
6.843740701675415,2.316842584346699,[2.34074332],5.0,0.6,0.0,-0.2435563389235289,0.11231009132705669,1.3919915889836927
6.8562963008880615,2.316060989479752,[2.34080067],5.0,0.6,0.0,-0.13734865537663893,0.11575075960629704,1.3847711531215583
6.869041204452515,2.3154747933295425,[2.34084461],5.0,0.6,0.0,-0.23111128561016878,0.11856793519299667,1.3791754579819424
6.876811504364014,2.315083995896069,[2.34087547],5.0,0.6,0.0,-0.09263776203061914,0.12080287736759723,1.3754236500155483
6.8897294998168945,2.3141070023123858,[2.34089408],5.0,0.6,0.0,-0.1806208729376884,0.12566581056700754,1.3662882391153612
6.902796030044556,2.3135208061621757,[2.34090096],5.0,0.6,0.0,-0.0466004189231672,0.12866709172532276,1.3607626871205651
6.915827512741089,2.312739211295229,[2.34089633],5.0,0.6,0.0,0.1340005017604225,0.13268704456349348,1.3533544317354067
6.92775559425354,2.312153015145019,[2.34088059],5.0,0.6,0.0,0.01763979208176511,0.13598891564559754,1.3478470853876945
6.939793348312378,2.311566818994809,[2.34085453],5.0,0.6,0.0,0.1035926544391114,0.14183701688917985,1.3423468200071949
6.9527997970581055,2.3109806228445993,[2.34081952],5.0,0.6,0.0,0.23711633129087947,0.14750533127022447,1.3368403110115268
6.964796543121338,2.310003629260916,[2.34077726],5.0,0.6,0.0,0.35774291583253337,0.1542083535960185,1.3273574704512825
6.977385520935059,2.309417433110706,[2.34072933],5.0,0.6,0.0,0.44700467059742016,0.1583600550784429,1.3217920163718389
6.984797716140747,2.309026635677232,[2.34067717],5.0,0.6,0.0,0.5038431607216904,0.16008405238043805,1.3182542976007734
6.99775505065918,2.3084404395270224,[2.34062207],5.0,0.6,0.0,0.809434288258087,0.16355902145228932,1.3124253238672736
7.009751319885254,2.307854243376812,[2.34056502],5.0,0.6,0.0,0.8513098796715064,0.1655326744083317,1.3068099713426622
7.023805141448975,2.3072680472266023,[2.34050655],5.0,0.6,0.0,1.0661353472073964,0.16634118262479716,1.300903704534036
7.037809610366821,2.3068772497931285,[2.34044673],5.0,0.6,0.0,1.0070018521777282,0.1665374122745955,1.2974570035590742
7.04976487159729,2.306095654926182,[2.34038546],5.0,0.6,0.0,1.1348432727101394,0.1683441018051497,1.2894880960138637
7.062756776809692,2.3057048574927084,[2.34032245],5.0,0.6,0.0,1.2849826268798532,0.1675972449030493,1.2856555211551575
7.075554132461548,2.3053140600592354,[2.3402571],5.0,0.6,0.0,1.398355646865987,0.1659709018714153,1.2818749386596895
7.086230993270874,2.3051186613424988,[2.34018842],5.0,0.6,0.0,1.185530406006556,0.16259139490096855,1.2808945581194588
7.09701943397522,2.3047278639090254,[2.34011536],5.0,0.6,0.0,1.1699181157247573,0.16340260519118313,1.277428704607622
7.104819297790527,2.3045324651922887,[2.34003743],5.0,0.6,0.0,1.2067357132937941,0.16465738094175061,1.2760682463086606
7.115818738937378,2.304141667758816,[2.33995402],5.0,0.6,0.0,0.9629212029744841,0.1589543082435344,1.2730613954584677
7.127821445465088,2.303946269042079,[2.33986319],5.0,0.6,0.0,0.9395512161187782,0.15193782778373927,1.2719346085470766
7.140770673751831,2.303750870325342,[2.33976206],5.0,0.6,0.0,0.9803300487275111,0.14473723550688108,1.2708294575754358
7.153002023696899,2.3035554716086053,[2.3396475],5.0,0.6,0.0,0.7462145027447256,0.13767453420457568,1.2702310474573864
7.1666200160980225,2.3031646741751324,[2.33951629],5.0,0.6,0.0,0.7351487062379432,0.13162410683430736,1.2673502233475593
7.174817085266113,2.3029692754583957,[2.33936723],5.0,0.6,0.0,0.5131472862451861,0.13167137355417036,1.2670389638967783
7.193162202835083,2.302578478024922,[2.33919915],5.0,0.6,0.0,0.2592470978536281,0.10525745652394485,1.2646935559884445
7.200734376907349,2.302383079308185,[2.33900897],5.0,0.6,0.0,0.040205576657805026,0.12598958010646033,1.2646838869479762
7.213726282119751,2.3019922818747123,[2.33879582],5.0,0.6,0.0,-0.12647603159367315,0.11972266715393777,1.2626808043569064
7.225746393203735,2.301601484441239,[2.33855881],5.0,0.6,0.0,-0.24311052993017424,0.11438927760697318,1.2609203635808512
7.2368245124816895,2.301210687007765,[2.33829523],5.0,0.6,0.0,-0.5945903375096333,0.11029941601914132,1.259268965525
7.2487194538116455,2.301015288291029,[2.33800292],5.0,0.6,0.0,-0.6717357274964333,0.10612290412246025,1.2602875755455054
7.256721496582031,2.3006244908575555,[2.33768273],5.0,0.6,0.0,-0.9138653418696215,0.10664132628794151,1.2592071192868945
7.270940780639648,2.300038294707345,[2.33733708],5.0,0.6,0.0,-1.1521488656618901,0.09367912611876748,1.2561279659640796
7.280722379684448,2.299647497273872,[2.33696587],5.0,0.6,0.0,-1.054055932699951,0.10719590723574585,1.2560675080939179
7.292726516723633,2.299061301123662,[2.33656911],5.0,0.6,0.0,-1.1296771264122016,0.10647410386383677,1.2538021432927757
7.3030104637146,2.298475104973452,[2.33614838],5.0,0.6,0.0,-1.2333101165912685,0.1189282730593212,1.251744718577545
7.315727472305298,2.297888908823242,[2.33570442],5.0,0.6,0.0,-1.311472915699535,0.104029709881208,1.2499819329660133
7.32565712928772,2.297498111389769,[2.33523701],5.0,0.6,0.0,-1.3508457064640398,0.11542748268531434,1.2507744012102804
7.333724498748779,2.297107313956295,[2.3347487],5.0,0.6,0.0,-1.0779987761403456,0.12813192223699982,1.2523730942821587
7.347816705703735,2.296325719089349,[2.33424368],5.0,0.6,0.0,-1.0195603867527427,0.12513397598267473,1.249322561088869
7.358803033828735,2.2957395229391384,[2.33372366],5.0,0.6,0.0,-1.0290301168891864,0.12332149437196609,1.2485549652449923
7.370734453201294,2.2949579280721917,[2.33318928],5.0,0.6,0.0,-0.7701802917050888,0.12395553264516912,1.2460828603437093
7.383732795715332,2.2943717319219816,[2.33264159],5.0,0.6,0.0,-0.740909232670977,0.12489106998498647,1.2456760017948607
7.396801471710205,2.2935901370550353,[2.33208206],5.0,0.6,0.0,-0.5061947670829081,0.1274861269798665,1.2433545599347375
7.404942750930786,2.2930039409048253,[2.3315141],5.0,0.6,0.0,-0.24384893584120437,0.14778077889482213,1.243292171231721
7.413727521896362,2.2928085421880886,[2.33094373],5.0,0.6,0.0,-0.01952532556486225,0.1534782403632316,1.247621220721256
7.425727844238281,2.2920269473211423,[2.33037708],5.0,0.6,0.0,0.1501679475149098,0.16559472245881857,1.2451505503231806
7.438712120056152,2.291440751170932,[2.32981976],5.0,0.6,0.0,0.26822651476205117,0.1736615272331131,1.244783632312967
7.451300621032715,2.290659156303985,[2.32927694],5.0,0.6,0.0,0.34400886077698056,0.18047788351628416,1.2420152973899172
7.463349342346191,2.290072960153775,[2.32875286],5.0,0.6,0.0,0.38765151148297705,0.18482539275251994,1.241279339514482
7.470783233642578,2.289877561437039,[2.32825098],5.0,0.6,0.0,0.6840396182062538,0.18318199086333012,1.2445529296951783
7.4837806224823,2.2892913652868283,[2.32777411],5.0,0.6,0.0,0.7212511863925044,0.18648032419263308,1.2432632028236679
7.494777202606201,2.288900567853355,[2.32732421],5.0,0.6,0.0,0.9353210566564228,0.1880833830757228,1.2436759242953364
7.506791353225708,2.2887051691366187,[2.32690243],5.0,0.6,0.0,1.154442172159319,0.18822555044644354,1.2459221736383361
7.520276784896851,2.288509770419882,[2.32650945],5.0,0.6,0.0,1.5957418302963906,0.1879027670477177,1.2472736935983226
7.527791261672974,2.2883143717031453,[2.32614558],5.0,0.6,0.0,2.0055871421520735,0.18648386482026866,1.2480969933139228
7.544989347457886,2.2879235742696715,[2.32581072],5.0,0.6,0.0,2.0273281398680565,0.18606336479631524,1.247396132853952
7.552832841873169,2.2879235742696715,[2.32550433],5.0,0.6,0.0,1.8956408211866018,0.18414093326439168,1.2512569530166313
7.561736822128296,2.287728175552935,[2.3252257],5.0,0.6,0.0,1.7168224853204115,0.18437954795283124,1.2526783655443487
7.569719076156616,2.287728175552935,[2.32497395],5.0,0.6,0.0,1.536201575911466,0.18277921222622515,1.2559601161359033
7.581766843795776,2.287728175552935,[2.32474748],5.0,0.6,0.0,1.3708837916985175,0.17605500358667917,1.2588697992551712
7.592737436294556,2.287728175552935,[2.32454335],5.0,0.6,0.0,1.2254533872987536,0.17027531356143297,1.2614453669486927
7.602740287780762,2.287728175552935,[2.32435788],5.0,0.6,0.0,1.0993530553872106,0.1643362148780971,1.2637434816646642
7.614177942276001,2.287728175552935,[2.32418737],5.0,0.6,0.0,0.9902438332154202,0.15976104363739843,1.2658212247943978
7.627622365951538,2.287728175552935,[2.32402827],5.0,0.6,0.0,0.8954535745938836,0.1558188509162831,1.2677308010939492
7.635876893997192,2.287728175552935,[2.32387827],5.0,0.6,0.0,0.8125387284784935,0.15469540059077105,1.2695079040863644
7.654715299606323,2.287728175552935,[2.32373498],5.0,0.6,0.0,0.46341276153158306,0.13939864397659546,1.2714331868427138
7.662688970565796,2.287728175552935,[2.32359517],5.0,0.6,0.0,0.08933979425846339,0.13846833435352773,1.2731393652111618
7.680758953094482,2.287728175552935,[2.3234555],5.0,0.6,0.0,-0.22276432086891118,0.12170432215869767,1.2746561166669568
7.693087339401245,2.287728175552935,[2.32331103],5.0,0.6,0.0,-0.4529415118807231,0.1204984591905374,1.276138194581797
7.705861330032349,2.287728175552935,[2.32315684],5.0,0.6,0.0,-0.6075692688925137,0.11702471266634733,1.2777180301500455
7.719131946563721,2.287728175552935,[2.32298927],5.0,0.6,0.0,-0.701200003097348,0.1125229825144268,1.2794722063651114
7.72678542137146,2.287728175552935,[2.32280674],5.0,0.6,0.0,-0.7489854564222542,0.1295335096344455,1.2814257425409052
7.738773584365845,2.287728175552935,[2.3226095],5.0,0.6,0.0,-0.7639416676950218,0.11726666882490475,1.2835695536025826
7.751765966415405,2.287728175552935,[2.32239521],5.0,0.6,0.0,-0.7563178828728376,0.10560485017179692,1.2859185508241833
7.763703107833862,2.2875327768361986,[2.32215922],5.0,0.6,0.0,-0.7337960438298191,0.0957172552387622,1.2863860484830032
7.775763511657715,2.2875327768361986,[2.32189702],5.0,0.6,0.0,-0.7019506282199084,0.08563817522471776,1.2892716260119066
7.783769607543945,2.2875327768361986,[2.32160751],5.0,0.6,0.0,-0.6647302423827026,0.08410418356190846,1.292444912201339
7.802778959274292,2.2875327768361986,[2.32128939],5.0,0.6,0.0,-0.6248742265327825,0.04092719058914112,1.2959118557130498
7.810766696929932,2.287337378119462,[2.32093858],5.0,0.6,0.0,-0.8602820497905433,0.03989307392415128,1.2973205365610114
7.824767351150513,2.2871419794027252,[2.32055422],5.0,0.6,0.0,-1.1292739582245157,0.0331944059611556,1.2989460351642357
7.835719585418701,2.286751181969252,[2.32013548],5.0,0.6,0.0,-1.068381832305397,0.04330979088126113,1.2993441222765592
7.846791744232178,2.2865557832525156,[2.3196799],5.0,0.6,0.0,-1.1760543289402325,0.04036806505982383,1.3019386411224676
7.856344938278198,2.286164985819042,[2.31918539],5.0,0.6,0.0,-1.30343420772954,0.037366548163158736,1.3028065248620813
7.866634845733643,2.2857741883855685,[2.31865097],5.0,0.6,0.0,-1.6733548357885448,0.05023962930891398,1.303513004281456
7.874819755554199,2.2853833909520955,[2.3180798],5.0,0.6,0.0,-1.7549700480730386,0.06638764255737013,1.3052135266490597
7.887793779373169,2.284797194801885,[2.3174754],5.0,0.6,0.0,-1.9832227452458915,0.052759276995366124,1.3047738955870167
7.8987932205200195,2.2844063973684117,[2.31683675],5.0,0.6,0.0,-1.6394493077896404,0.039797638374415606,1.3083074049862495
7.909803152084351,2.2840155999349383,[2.31616036],5.0,0.6,0.0,-1.4331653760847072,0.02804519883866138,1.3117718069301723
7.921069145202637,2.2834294037847283,[2.31544395],5.0,0.6,0.0,-1.2931490277426256,0.02864729195726846,1.313415246038341
7.928813934326172,2.2832340050679916,[2.3146901],5.0,0.6,0.0,-1.1855561590954613,0.053721012889406144,1.3194089749925002
7.940728187561035,2.2826478089177815,[2.31390353],5.0,0.6,0.0,-0.8185812623651968,0.03149153137859092,1.322020136885251
7.952784538269043,2.282061612767572,[2.31308305],5.0,0.6,0.0,-0.7040259675012221,0.012408712397171215,1.32455364824183
7.965768575668335,2.281475416617362,[2.31222318],5.0,0.6,0.0,-0.6840669788523338,-0.004408482519148503,1.3273679773767872
7.97773814201355,2.280693821750415,[2.31131849],5.0,0.6,0.0,-0.4141130452230836,-0.019034617150714656,1.3288400443844866
7.989416122436523,2.2799122268834684,[2.31036385],5.0,0.6,0.0,-0.3860209898357194,-0.03043113932945612,1.3306109338411392
7.996804237365723,2.279521429449995,[2.30936084],5.0,0.6,0.0,-0.43651369788781075,0.016507594623513457,1.3367352545377176
8.006819009780884,2.278935233299785,[2.30831661],5.0,0.6,0.0,-0.49747892086285517,-0.013933370363423514,1.3412452637653474
8.018810987472534,2.2779582397161016,[2.30723035],5.0,0.6,0.0,-0.5442631542274861,-0.037102055973642044,1.342288255198715
8.02810788154602,2.277176644849155,[2.30609938],5.0,0.6,0.0,-0.5710609467475436,-0.010306780837600373,1.345698966255939
8.036789417266846,2.2763950499822085,[2.3049284],5.0,0.6,0.0,-0.8555171530545516,-0.015913498171893813,1.349190723355591
8.049773693084717,2.275613455115262,[2.30371877],5.0,0.6,0.0,-0.8825881238872952,-0.04664845044508903,1.3532858891792612
8.062740325927734,2.2740502653813683,[2.30246382],5.0,0.6,0.0,-1.087084866631127,-0.06668230734537385,1.3500165094922496
8.07468581199646,2.2726824743642116,[2.30115495],5.0,0.6,0.0,-1.5728516680881195,-0.08264628169183925,1.3484870713251824
8.08671259880066,2.2709238859135814,[2.29978446],5.0,0.6,0.0,-2.03801751615686,-0.09336180410361627,1.3434672495776494
8.099278688430786,2.268969898746215,[2.29834556],5.0,0.6,0.0,-2.6597504955863136,-0.10075484758232568,1.3362475345379008
8.11201810836792,2.2666251141453744,[2.29683239],5.0,0.6,0.0,-3.7339285386326484,-0.10442985775667078,1.322916455565725
8.119849681854248,2.265061924411482,[2.29524918],5.0,0.6,0.0,-4.4288545618425665,-0.10311146603314716,1.3189994499688267
8.131777048110962,2.262326342377168,[2.29360896],5.0,0.6,0.0,-5.0,-0.10397932555165158,1.3039741677206016
8.143848896026611,2.259395361626118,[2.29191366],5.0,0.6,0.0,-5.0,-0.10308821399193444,1.2911110906281675
8.157851457595825,2.2554873872913843,[2.29015559],5.0,0.6,0.0,-5.0,-0.09737003805379972,1.268063521465149
8.17086124420166,2.251774811673388,[2.28832799],5.0,0.6,0.0,-5.0,-0.09219146621531069,1.2472313803904318
8.181857585906982,2.2484530334888646,[2.28642496],5.0,0.6,0.0,-5.0,-0.08898317262977434,1.231213735952863
8.193865299224854,2.2447404578708676,[2.28444139],5.0,0.6,0.0,-5.0,-0.08394730609342616,1.2113510492418555
8.206698417663574,2.240441686102661,[2.28237291],5.0,0.6,0.0,-5.0,-0.07595420945164008,1.1852615431522513
8.216431617736816,2.236924509201401,[2.28022412],5.0,0.6,0.0,-4.7967774517127335,-0.020731723662485164,1.170471109846408
8.225700378417969,2.2336027310168776,[2.27801032],5.0,0.6,0.0,-4.288482932441891,-0.015016269524817313,1.1605751653534118
8.236677169799805,2.229499357965407,[2.27573935],5.0,0.6,0.0,-3.451031042307826,-0.02740869914423854,1.1432669993273614
8.249069213867188,2.225005187480464,[2.27340664],5.0,0.6,0.0,-2.9013323250522904,-0.030902601604895018,1.1196883400791038
8.2617666721344,2.2205110169955207,[2.27100528],5.0,0.6,0.0,-2.237878538162832,-0.03005963148047562,1.096820923812627
8.270715713500977,2.216603042660787,[2.2685366],5.0,0.6,0.0,-1.636997295902316,0.011006413835093036,1.081096122666483
8.279733896255493,2.2134766631930005,[2.26601402],5.0,0.6,0.0,-0.8747495218123102,0.026687842025750762,1.0752077757423368
8.29069209098816,2.2093732901415306,[2.26344684],5.0,0.6,0.0,0.08116655239009507,0.008547036187204501,1.0572180525458976
8.298696279525757,2.2064423093904804,[2.26084332],5.0,0.6,0.0,0.9168457665015706,0.010673423216551122,1.0526530718359195
8.312666893005371,2.2011665440385904,[2.25820897],5.0,0.6,0.0,1.8200658714632545,-0.021938640370887948,1.0191853612043358
8.320781707763672,2.19823556328754,[2.25553596],5.0,0.6,0.0,2.8276198925571174,0.010821467755341044,1.0126603262134575
8.332700729370117,2.19354599408586,[2.25282301],5.0,0.6,0.0,3.6434027319270017,0.009067177983435225,0.9854357169764381
8.346698999404907,2.18885642488418,[2.25006899],5.0,0.6,0.0,5.0,0.010992115172005792,0.9543842268283678
8.358720064163208,2.1849484505494465,[2.24726416],5.0,0.6,0.0,5.0,0.011608734256253512,0.9416765395836926
8.370718717575073,2.1810404762147133,[2.24440071],5.0,0.6,0.0,5.0,0.013648526203065194,0.9297580991060164
8.381809711456299,2.177523299313453,[2.24147275],5.0,0.6,0.0,5.0,0.014541053249050709,0.9230867939229762
8.390272617340088,2.1749831159958766,[2.23848817],5.0,0.6,0.0,5.0,0.06391847589000088,0.9281148414996403
8.401682138442993,2.17127054037788,[2.23546751],5.0,0.6,0.0,5.0,0.049584721117139144,0.9202957913603012
8.413725852966309,2.1677533634766197,[2.23241773],5.0,0.6,0.0,5.0,0.03651581192305216,0.915044576709712
8.425759315490723,2.1640407878586227,[2.22933253],5.0,0.6,0.0,5.0,0.031061838444256192,0.9080361214458623
8.437746047973633,2.161109807107573,[2.22620665],5.0,0.6,0.0,5.0,0.025287313694579334,0.9102083871977618
8.449761629104614,2.1575926302063126,[2.22303685],5.0,0.6,0.0,5.0,0.024339528882206803,0.9063399162221197
8.462498426437378,2.1546616494552624,[2.21982182],5.0,0.6,0.0,5.0,0.021677809815312057,0.9095020364426298
8.4766526222229,2.150949073837266,[2.21656202],5.0,0.6,0.0,5.0,0.023505465439447735,0.9044662603514367
8.489304304122925,2.1478226943694794,[2.2132595],5.0,0.6,0.0,5.0,0.023281759661579273,0.9064223430208327
8.496748924255371,2.1458687072021125,[2.20992894],5.0,0.6,0.0,4.611502988263949,0.015858704440454417,0.924522278226676
8.507460355758667,2.1433285238845357,[2.2065952],5.0,0.6,0.0,4.106783237163739,0.013400121525189563,0.9366903303561971
8.52076768875122,2.140202144416749,[2.20326893],5.0,0.6,0.0,3.6112551178513685,0.014731253004733066,0.9417485107317757
8.533681392669678,2.137271163665699,[2.19994898],5.0,0.6,0.0,3.1695019852298314,0.01595533757051862,0.9483773366275845
8.54575252532959,2.134535581631386,[2.19663576],5.0,0.6,0.0,3.067001829376723,0.01686645807243181,0.9554643866669876
8.557754278182983,2.1319953983138094,[2.19333105],5.0,0.6,0.0,2.780373780023922,0.017596904883385174,0.965506796205958
8.570760011672974,2.1292598162794953,[2.19003769],5.0,0.6,0.0,2.4555513929810098,0.019944069553009272,0.9732230795365797
8.578802347183228,2.1275012278288656,[2.18676835],5.0,0.6,0.0,2.150680066024241,0.011912095414273502,0.9919049983069891
8.590776205062866,2.125351841944762,[2.18354338],5.0,0.6,0.0,1.8843503717446919,0.012016492831053358,1.0053753679722668
8.602777004241943,2.1232024560606586,[2.1803711],5.0,0.6,0.0,1.3823831609607122,0.01277473421406729,1.0187228804287805
8.613707542419434,2.121248468893292,[2.17724971],5.0,0.6,0.0,1.1593642016584818,0.012647367907870915,1.0330707328848625
8.625733137130737,2.118903684292452,[2.17417802],5.0,0.6,0.0,0.7785894515021076,0.014400844621377267,1.0423293857888822
8.637843132019043,2.116754298408349,[2.17115514],5.0,0.6,0.0,0.6860598254811656,0.014681449701929875,1.0529302259519726
8.64578366279602,2.1153865073911917,[2.16818825],5.0,0.6,0.0,0.6956930404699879,0.006222565200229494,1.0722187637862985
8.657788515090942,2.1132371215070886,[2.16529101],5.0,0.6,0.0,0.45200570325174105,0.006202090140888142,1.0814775375019872
8.670700073242188,2.1108923369062484,[2.16246615],5.0,0.6,0.0,0.16762567385528226,0.006603863020316179,1.0874246887254242
8.68270206451416,2.1087429510221454,[2.15970701],5.0,0.6,0.0,-0.07783670492350597,0.005255824658621699,1.0948329721159922
8.69352674484253,2.1067889638547785,[2.15700698],5.0,0.6,0.0,-0.2631957077763035,0.0020455692367214607,1.103834394627901
8.706002950668335,2.1048349766874117,[2.15435939],5.0,0.6,0.0,-0.3908248645456302,-0.002106963083449547,1.112185939287675
8.713728189468384,2.103662584386992,[2.1517655],5.0,0.6,0.0,-0.4709255727153444,0.05541735236773037,1.1293672590250061
8.72577953338623,2.101708597219625,[2.14923363],5.0,0.6,0.0,-0.5148518790111702,0.03258136271936286,1.1363314625705172
8.737707376480103,2.0997546100522584,[2.14676178],5.0,0.6,0.0,-0.2565674474806108,0.011454574384857615,1.1427424941981015
8.751787185668945,2.0978006228848916,[2.14433834],5.0,0.6,0.0,-0.22300475066961178,-0.005438815866271512,1.1484250243935312
8.764775514602661,2.0958466357175247,[2.14195141],5.0,0.6,0.0,-0.26550330782439835,-0.01975865286911569,1.1536322809679744
8.77677845954895,2.0938926485501583,[2.13958917],5.0,0.6,0.0,-0.5972711828815529,-0.03242858365626329,1.1583374837346507
8.788787841796875,2.092134060099528,[2.13723978],5.0,0.6,0.0,-0.6759422681691548,-0.04528673608097228,1.1653673176547525
8.800747871398926,2.090375471648898,[2.13489296],5.0,0.6,0.0,-0.6500573737282216,-0.047944623630873914,1.1724491085054822
8.81470799446106,2.088226085764795,[2.1325381],5.0,0.6,0.0,-0.5876228952737885,-0.07022331255855574,1.1749669850679123
8.827022552490234,2.0860766998806914,[2.13016108],5.0,0.6,0.0,-0.7942688866087767,-0.07905113570450908,1.1774773431226433
8.834779024124146,2.0847089088635347,[2.12775981],5.0,0.6,0.0,-1.3148031839016059,-0.02046715961697441,1.1889822863178445
8.846662521362305,2.082168725545958,[2.12534489],5.0,0.6,0.0,-2.0977687206991824,-0.04952239601850046,1.1855129455221696
8.85967493057251,2.0794331435116447,[2.12291288],5.0,0.6,0.0,-3.067338799655959,-0.07178570372854615,1.178208774647531
8.872698068618774,2.076502162760595,[2.120447],5.0,0.6,0.0,-3.8759691605903983,-0.08528703026561213,1.1685552805360617
8.88474178314209,2.0737665807262813,[2.11793038],5.0,0.6,0.0,-4.708663893495661,-0.09415485835035813,1.160762084486805
8.896740198135376,2.071030998691968,[2.11534663],5.0,0.6,0.0,-5.0,-0.09874205732371939,1.1569126575560664
8.909784078598022,2.067709220507444,[2.11267987],5.0,0.6,0.0,-5.0,-0.09705751409658267,1.149061190174809
8.922788858413696,2.0639966448894476,[2.10991474],5.0,0.6,0.0,-5.0,-0.09020187092295644,1.1376666122405723
8.931286573410034,2.0612610628551344,[2.107048],5.0,0.6,0.0,-5.0,-0.0805008974732619,1.1392463480079662
8.941685438156128,2.057939284670611,[2.10409313],5.0,0.6,0.0,-5.0,-0.07645010980705653,1.1348251669402687
8.954701662063599,2.053835911619141,[2.10105513],5.0,0.6,0.0,-5.0,-0.08153645482117476,1.121960027265894
8.965762615203857,2.050123336001144,[2.09791962],5.0,0.6,0.0,-5.0,-0.07324145645409832,1.1149776947804235
8.975648164749146,2.046606159099884,[2.09467488],5.0,0.6,0.0,-4.92772750983139,-0.07543256108320733,1.1121934887394977
8.98961615562439,2.0415257924647303,[2.09130911],5.0,0.6,0.0,-4.9118438824498885,-0.004733693018724377,1.0915182900938496
9.002416372299194,2.036836223263051,[2.08779434],5.0,0.6,0.0,-4.858193231498899,0.029468407424149613,1.0776452781626644
9.00967288017273,2.034296039945474,[2.08412771],5.0,0.6,0.0,-3.916161824825216,0.02461842609575503,1.097285623900936
9.022751331329346,2.029606470743794,[2.08033662],5.0,0.6,0.0,-3.0961021998576035,0.040315822619958495,1.0905891549611464
9.03467059135437,2.025307698975587,[2.07642206],5.0,0.6,0.0,-2.4339755909449172,0.03353332793202757,1.0886243871234769
9.047743558883667,2.0210089272073803,[2.07236193],5.0,0.6,0.0,-1.091184682767922,0.025833721214060874,1.0892362719638546
9.061565399169922,2.0167101554391738,[2.06813633],5.0,0.6,0.0,0.780820792769165,0.01734395704375661,1.088781294999455
9.073702573776245,2.0126067823877034,[2.06372757],5.0,0.6,0.0,2.1821441094522105,0.007189169688568815,1.0894049822371121
9.086721181869507,2.00869880805297,[2.0591202],5.0,0.6,0.0,3.6915473308583993,-0.004758691477890214,1.0913768833203297
9.096044540405273,2.0059632260186566,[2.05431976],5.0,0.6,0.0,4.628628741869285,0.013892258272917724,1.1107631150996493
9.11028504371643,2.0018598529671867,[2.04933188],5.0,0.6,0.0,5.0,-0.05028117271917934,1.1189021847549134
9.12343168258667,1.9981472773491897,[2.04413006],5.0,0.6,0.0,5.0,-0.043945854699371206,1.1368871898394262
9.13076639175415,1.9959978914650867,[2.03871865],5.0,0.6,0.0,5.0,0.003804683330839076,1.1759199675818355
9.14168381690979,1.992676113280563,[2.03313701],5.0,0.6,0.0,5.0,-0.03486519325546185,1.2025152893619335
9.152716398239136,1.9893543350960396,[2.02739253],5.0,0.6,0.0,4.737458954573357,-0.06830023130879488,1.232296075258861
9.16580057144165,1.9856417594780431,[2.02147028],5.0,0.6,0.0,4.231609739847851,-0.09564174929365284,1.2604184984921376
9.179702997207642,1.981538386426573,[2.01535834],5.0,0.6,0.0,3.4167089688491057,-0.11823268353429896,1.2869061964706325
9.18971061706543,1.9782166082420496,[2.00905872],5.0,0.6,0.0,2.340085875915263,-0.10639789497366592,1.3226949415001312
9.197829723358154,1.9754810262077362,[2.0026043],5.0,0.6,0.0,1.3556655524647683,-0.0806891518958363,1.3618117969139951
9.209710836410522,1.9711822544395294,[1.9960319],5.0,0.6,0.0,0.29566803593524826,-0.12325893525207601,1.3837556915735392
9.222734451293945,1.9662972865211126,[1.9893438],5.0,0.6,0.0,-0.8668521847350483,-0.15533004686525312,1.3986602032531212
9.23573613166809,1.961412318602696,[1.98252384],5.0,0.6,0.0,-2.1071420076731124,-0.18161300715864606,1.411423892678983
9.247725009918213,1.9567227494010155,[1.97555928],5.0,0.6,0.0,-3.111532872091124,-0.20501748305328016,1.424341065000224
9.260730743408203,1.9512515853323888,[1.96844054],5.0,0.6,0.0,-4.363868332518511,-0.22197354750289158,1.4286432005212628
9.26960563659668,1.9475390097143923,[1.96118035],5.0,0.6,0.0,-4.853655076032146,-0.18192943395351144,1.4462342178107108
9.27975606918335,1.9434356366629222,[1.9538217],5.0,0.6,0.0,-4.9465977905196095,-0.18355607346541067,1.4607701599644378
9.291797637939453,1.9383552700277689,[1.94639395],5.0,0.6,0.0,-4.558700078743087,-0.22329143027727502,1.4719259951408306
9.300977945327759,1.9344472956930354,[1.93889167],5.0,0.6,0.0,-4.034967914002132,-0.26144924452915014,1.4840834515116827
9.311636924743652,1.929953125208092,[1.9313132],5.0,0.6,0.0,-3.518586551739406,-0.24559252026716524,1.4904985087288227
9.321619272232056,1.9256543534398853,[1.9236832],5.0,0.6,0.0,-2.5083848487263722,-0.2476366110026769,1.494561315691998
9.332664251327515,1.9209647842382052,[1.91602637],5.0,0.6,0.0,-1.5010107013795113,-0.27163707192254605,1.4934599418326844
9.344687223434448,1.9158844176030516,[1.90834402],5.0,0.6,0.0,-0.6679359865365491,-0.31073261504976085,1.488360902538106
9.354010105133057,1.911585645834845,[1.90062214],5.0,0.6,0.0,0.2347837067371631,-0.33898001754173057,1.4762059124629225
9.366381883621216,1.9063098804829548,[1.89284542],5.0,0.6,0.0,0.9855949368627939,-0.36744565004434326,1.4636685550078474
9.373775959014893,1.9029881022984314,[1.88502824],5.0,0.6,0.0,1.2569720092097754,-0.30425150967792514,1.4363507405451683
9.385665893554688,1.8981031343800145,[1.87720993],5.0,0.6,0.0,1.5833643345742345,-0.3554180004279769,1.414534586848864
9.39766001701355,1.8934135651783346,[1.86939399],5.0,0.6,0.0,1.8464566575762404,-0.3980180413746743,1.3884888163183502
9.410703182220459,1.8875516036762345,[1.86155342],5.0,0.6,0.0,2.017021358556251,-0.4273832524714315,1.3705383752877993
9.42474102973938,1.8814942434573978,[1.85366511],5.0,0.6,0.0,2.1011806157562747,-0.45063832072694976,1.35323181697008
9.435772180557251,1.8770000729724543,[1.84570951],5.0,0.6,0.0,2.1163128938020184,-0.47819291486922794,1.3188373657416212
9.443737745285034,1.8736782947879311,[1.83770296],5.0,0.6,0.0,2.0809475970058164,-0.5016570055952034,1.2687295737680289
9.455734729766846,1.8687933268695143,[1.8296921],5.0,0.6,0.0,2.0110701163377165,-0.5249037073620288,1.2335461755234525
9.467733144760132,1.8635175615176243,[1.82168365],5.0,0.6,0.0,1.9192235923937657,-0.5442841995050867,1.201942967675046
9.479731798171997,1.858241796165734,[1.81365044],5.0,0.6,0.0,1.8147231929555767,-0.5623395151618846,1.1694330185453032
9.491732835769653,1.852966030813844,[1.80556947],5.0,0.6,0.0,1.7042266431859958,-0.5795670555636621,1.1359257228755995
9.504896879196167,1.8474948667452171,[1.79742165],5.0,0.6,0.0,1.5923429577478037,-0.595357502761241,1.1037586053894208
9.51267123222351,1.8441730885606937,[1.78922439],5.0,0.6,0.0,1.482162399364558,-0.6196490447895785,1.0450581457824133
9.529613494873047,1.8373341334749105,[1.78099412],5.0,0.6,0.0,1.3756786051933654,-0.7331315907989273,1.0286137424316233
9.54237961769104,1.8320583681230203,[1.77267931],5.0,0.6,0.0,1.2741089467287654,-0.7233564981996684,0.9928153850213498
9.54966688156128,1.8289319886552335,[1.76426791],5.0,0.6,0.0,1.1781305677091813,-0.7494196107858587,0.9322835543277637
9.562679290771484,1.8232654258698702,[1.7558167],5.0,0.6,0.0,1.0880509058721133,-0.7413546087607484,0.9016976205401841
9.57539677619934,1.81798966051798,[1.74734245],5.0,0.6,0.0,1.003929155846369,-0.7417273155959436,0.8677904210481884
9.584995746612549,1.8138862874665098,[1.7388376],5.0,0.6,0.0,0.925661836058639,-0.7165291833910514,0.8235410205410574
9.59883713722229,1.8082197246811464,[1.73029602],5.0,0.6,0.0,0.5770041318557358,-0.7703707733653045,0.7966341209441699
9.611835241317749,1.8027485606125195,[1.72169082],5.0,0.6,0.0,0.4766399977661821,-0.7781344610518067,0.7685546563105082
9.624370098114014,1.7968865991104195,[1.71299995],5.0,0.6,0.0,0.4695758987570078,-0.7865627096032413,0.7446162097086788
9.631824731826782,1.793564820925896,[1.70424985],5.0,0.6,0.0,0.4882616790703052,-0.8135107848922389,0.7026432598512135
9.643845319747925,1.7888752517242161,[1.6954967],5.0,0.6,0.0,0.505829482117088,-0.8300979795444012,0.6746448997186877
9.656800985336304,1.7835994863723261,[1.68675479],5.0,0.6,0.0,0.5136294601197963,-0.8449325464799498,0.6530391848636168
9.668830871582031,1.7785191197371728,[1.67800269],5.0,0.6,0.0,0.5106386491162669,-0.8616997061984157,0.6323671836649004
9.680749416351318,1.7734387531020193,[1.66922221],5.0,0.6,0.0,0.4986137943540875,-0.8792933936845838,0.6137396740571932
9.69275164604187,1.768162987750129,[1.66039809],5.0,0.6,0.0,0.7560196940528912,-0.8966676886315604,0.5975877468796577
9.70573878288269,1.7626918236815023,[1.65151773],5.0,0.6,0.0,0.7661645797379776,-0.9136511355470858,0.5839845015353443
9.713744401931763,1.759370045496979,[1.64260451],5.0,0.6,0.0,0.6855699156736315,-0.9415113554333051,0.5650760953682055
9.72574758529663,1.754485077578562,[1.63371198],5.0,0.6,0.0,0.5828432637740968,-0.9617576208772173,0.5538305616354555
9.737748622894287,1.749209312226672,[1.62485149],5.0,0.6,0.0,0.48551405648728413,-0.9799651609262713,0.5451914118393246
9.750749826431274,1.7435427494413085,[1.61599859],5.0,0.6,0.0,0.40258920707243484,-0.996252375728566,0.538517996389226
9.763727188110352,1.7382669840894187,[1.60713229],5.0,0.6,0.0,0.059188852117506824,-1.0144910528015314,0.5320857634393961
9.77582573890686,1.7333820161710016,[1.5982349],5.0,0.6,0.0,-0.027510454726483877,-1.0348303606153673,0.5259140349598865
9.78981328010559,1.7275200546689018,[1.58929175],5.0,0.6,0.0,-0.01474903032176366,-1.0505012535932654,0.5218966836924208
9.80382776260376,1.7218534918835382,[1.58029107],5.0,0.6,0.0,0.027791067272096254,-1.0672303459788333,0.5181694120186809
9.81581163406372,1.7169685239651216,[1.57122371],5.0,0.6,0.0,0.3475421459613701,-1.0880146737394119,0.5141984546826001
9.827829837799072,1.7116927586132313,[1.56208306],5.0,0.6,0.0,0.41559359018226893,-1.106994546219361,0.5112433198196801
9.840560674667358,1.7062215945446046,[1.55286482],5.0,0.6,0.0,0.38468085462010315,-1.125093376210405,0.5089519056290894
9.851509094238281,1.7015320253429245,[1.54358526],5.0,0.6,0.0,0.3231589026691608,-1.0861452019539377,0.5067317714500394
9.860719203948975,1.697624051008191,[1.53429261],5.0,0.6,0.0,0.25959204707972483,-1.0811957057855237,0.5047676662898701
9.872834205627441,1.6925436843730375,[1.52502442],5.0,0.6,0.0,0.20432933051575328,-1.1283889856097287,0.5036207016422134
9.884816884994507,1.6874633177378842,[1.51577936],5.0,0.6,0.0,0.15978851089890034,-1.1675244555712205,0.5027339613613186
9.895845890045166,1.682969147252941,[1.5065418],5.0,0.6,0.0,0.12524543569542812,-1.203540376704244,0.5019670105636801
9.908237934112549,1.677497983184314,[1.497299],5.0,0.6,0.0,0.09898187325344236,-1.2306339989426938,0.501504688030005
9.92048168182373,1.6724176165491607,[1.48804079],5.0,0.6,0.0,0.0791866083055346,-1.2568672907873826,0.5011102632794218
9.929592847824097,1.6689004396479008,[1.47878686],5.0,0.6,0.0,0.06428499619119932,-1.197616931614387,0.5007224345363674
9.940720319747925,1.6642108704462204,[1.46958657],5.0,0.6,0.0,0.053019026636680386,-1.2332478396064794,0.5005106565833329
9.960703134536743,1.6554179281930703,[1.46042584],5.0,0.6,0.0,0.04442803988208412,-1.3678550484928886,0.5004967933589648
9.968729734420776,1.6520961500085467,[1.45125991],5.0,0.6,0.0,0.037797548593894524,-1.398129675558152,0.5003126472324184
9.98075270652771,1.64721118209013,[1.44211108],5.0,0.6,0.0,0.30864291928617027,-1.4052479142856664,0.5001510093691224
9.991840362548828,1.64252161288845,[1.43299797],5.0,0.6,0.0,0.3376328223945163,-1.4173060739478256,0.5000689218904847
10.00382113456726,1.6374412462532968,[1.42390335],5.0,0.6,0.0,0.2791855894815804,-1.4305390911178477,0.5000514703356514
10.016296148300171,1.6325562783348797,[1.41481216],5.0,0.6,0.0,0.20033834594939715,-1.4470106678953678,0.5000462972952215
10.029096126556396,1.6268897155495166,[1.40571377],5.0,0.6,0.0,0.12749921511761836,-1.453331316196835,0.5000442586383487
10.041839122772217,1.6214185514808896,[1.39659891],5.0,0.6,0.0,0.06890414085197298,-1.4801918321425684,0.5000371864441149
10.049807786941528,1.6180967732963663,[1.38748757],5.0,0.6,0.0,0.02520186722081829,-1.5091195826226798,0.5000235592756652
10.0583815574646,1.6145795963951064,[1.37845353],5.0,0.6,0.0,-0.005703915022757522,-1.4547717718157473,0.5000143352032843
10.07021689414978,1.6094992297599529,[1.36952873],5.0,0.6,0.0,-0.026548681432903877,-1.573090487146137,0.5000094329893986
10.078693628311157,1.6061774515754295,[1.36068138],5.0,0.6,0.0,-0.03987471094959328,-1.5185338597266453,0.5000046395898307
10.087854862213135,1.6020740785239593,[1.3519139],5.0,0.6,0.0,-0.047769265047036685,-1.5315180331955982,0.5000019687706312
10.099819898605347,1.596993711888806,[1.34323556],5.0,0.6,0.0,-0.05184168760048084,-1.5713189911192826,0.5000005513647184
10.111759662628174,1.5913271491034424,[1.33462096],5.0,0.6,0.0,0.22275083641844914,-1.6018489190934473,0.4999649544617263
10.120104551315308,1.588200769635656,[1.3260624],5.0,0.6,0.0,-0.019848835724420463,-1.5627055447998341,0.5000007816006451
10.130821704864502,1.5839019978674491,[1.31758581],5.0,0.6,0.0,-0.10661391161687489,-1.5812855223579934,0.4999922300054694
10.143819093704224,1.5788216312322956,[1.30919845],5.0,0.6,0.0,0.15060284352104963,-1.6291770392769627,0.4999836012712913
10.154825210571289,1.5741320620306156,[1.30087218],5.0,0.6,0.0,0.19186497097351474,-1.6693995990849668,0.49997292446412983
10.167827367782593,1.568465499245252,[1.29257276],5.0,0.6,0.0,0.15344752444364163,-1.697698600775529,0.4999827172146529
10.179763555526733,1.5635805313268354,[1.28427133],5.0,0.6,0.0,0.09483119963885087,-1.7247691606938194,0.4999934731089678
10.192077875137329,1.5586955634084183,[1.27594415],5.0,0.6,0.0,0.03970996334672741,-1.7482921183945337,0.4999989398735645
10.205793857574463,1.5526382031895818,[1.26757231],5.0,0.6,0.0,-0.0042893391088944174,-1.7634774679894887,0.5000000737267232
10.213812112808228,1.549121026288322,[1.25917358],5.0,0.6,0.0,-0.03629603933336786,-1.787793723536415,0.4999990691929372
10.22484040260315,1.5444314570866415,[1.25079632],5.0,0.6,0.0,0.21811406355395524,-1.8077964599190655,0.49996461975875356
10.238805294036865,1.538374096867805,[1.24244966],5.0,0.6,0.0,0.23775672905338488,-1.8192470676566723,0.4999579468567467
10.251715898513794,1.533489128949388,[1.23410986],5.0,0.6,0.0,0.17521909252028062,-1.835097677787624,0.49997716254434726
10.263939619064331,1.5284087623142348,[1.22575836],5.0,0.6,0.0,0.0959989205638134,-1.8489275046747051,0.4999931508713098
10.27579951286316,1.5233283956790813,[1.21738152],5.0,0.6,0.0,0.0253068178259998,-1.8617057059012936,0.49999953066810043
10.287672281265259,1.5184434277606642,[1.20897048],5.0,0.6,0.0,-0.0295114289171348,-1.874384635102086,0.49999935648356025
10.300736904144287,1.5129722636920375,[1.20052103],5.0,0.6,0.0,-0.06844869000180819,-1.8830529134229423,0.4999965156433967
10.31349492073059,1.5075010996234108,[1.19203344],5.0,0.6,0.0,-0.09405280981835404,-1.8905361534914424,0.4999934173964904
10.326449394226074,1.5018345368380475,[1.18351425],5.0,0.6,0.0,-0.10937024166358231,-1.8894675726894403,0.49999109725239393
10.339152574539185,1.496754170202894,[1.1749737],5.0,0.6,0.0,-0.11715260503149656,-1.9048307069862616,0.49998978442076136
10.346808433532715,1.4934323920183705,[1.16644585],5.0,0.6,0.0,-0.1196241960494639,-1.9307544084353971,0.49998934829679753
10.359811544418335,1.4879612279497438,[1.15798739],5.0,0.6,0.0,-0.1184806257246579,-1.9340133450999075,0.49998955081738977
10.371801853179932,1.483076260031327,[1.14962551],5.0,0.6,0.0,-0.11496848430051607,-1.938697098406096,0.49999016101478716
10.383804559707642,1.477800494679437,[1.14136157],5.0,0.6,0.0,-0.10998134804145875,-1.9403771722396057,0.4999909960363115
10.395812511444092,1.473110925477757,[1.13320072],5.0,0.6,0.0,-0.1041470431582221,-1.9440517116322729,0.49999192593759356
10.405747413635254,1.4690075524262869,[1.12515951],5.0,0.6,0.0,-0.09789870338792267,-1.93513094724234,0.499992865653744
10.420192241668701,1.46295019220745,[1.11725541],5.0,0.6,0.0,-0.36756780417833057,-1.9537639250765053,0.499899437110051
10.427676916122437,1.4596284140229265,[1.10950628],5.0,0.6,0.0,-0.39439601835033233,-1.9758399995836502,0.49988422325151055
10.437806129455566,1.45532964225472,[1.10194546],5.0,0.6,0.0,-0.3331993541183097,-1.9766872648845604,0.4999173621497769
10.44981050491333,1.4502492756195666,[1.09459225],5.0,0.6,0.0,-0.251287652994899,-2.015172507365647,0.4999529966874095
10.461115598678589,1.4453643077011498,[1.08744626],5.0,0.6,0.0,-0.45129184104865705,-2.0566844789393093,0.49984841515742245
10.468753099441528,1.4422379282333628,[1.08052216],5.0,0.6,0.0,-0.42261828791587597,-2.0758584786898022,0.49986706311634954
10.480709075927734,1.4373529603149464,[1.07384605],5.0,0.6,0.0,-0.320687057761337,-2.1038983241160576,0.4999234515720875
10.492816925048828,1.4316863975295828,[1.06742378],5.0,0.6,0.0,-0.21068554464202174,-2.1189754816998736,0.49996695834712224
10.504814624786377,1.4269968283279029,[1.06124418],5.0,0.6,0.0,-0.11645746136503071,-2.1321495679392695,0.49998990429097395
10.516767263412476,1.422111860409486,[1.0552963],5.0,0.6,0.0,-0.043814268783509414,-2.139799532544457,0.4999985709857272
10.529811382293701,1.4164452976241229,[1.04956895],5.0,0.6,0.0,0.00860215362905363,-2.14058296680184,0.4999999449185985
10.542426824569702,1.4111695322722326,[1.04405022],5.0,0.6,0.0,-0.23159514973342338,-2.1413316381431375,0.4999600746958184
10.554814577102661,1.4062845643538158,[1.03872728],5.0,0.6,0.0,-0.24155908368117493,-2.1430439761401456,0.49995656552865897
10.567972183227539,1.4004226028517157,[1.03358614],5.0,0.6,0.0,-0.17259601622308796,-2.1393568117760524,0.4999778252598511
10.575819730758667,1.3969054259504556,[1.02862532],5.0,0.6,0.0,-0.0892502849346872,-2.1464514627262417,0.49999407042998645
10.586691617965698,1.3922158567487755,[1.02385402],5.0,0.6,0.0,-0.016038021418492046,-2.147170709471108,0.49999980852836
10.60080361366272,1.386549293963412,[1.01926288],5.0,0.6,0.0,0.04019339166393449,-2.142272651583562,0.4999987974178019
10.613811492919922,1.3810781298947854,[1.01482628],5.0,0.6,0.0,0.07979068172108593,-2.1372999245156317,0.4999952607593291
10.625824689865112,1.3761931619763685,[1.01051825],5.0,0.6,0.0,0.10555081087266355,-2.133808753879305,0.49999170672446686
10.638943910598755,1.3703312004742685,[1.00631253],5.0,0.6,0.0,0.12069433994327475,-2.1235187768491337,0.4999891563460388
10.651825189590454,1.3650554351223783,[1.00218268],5.0,0.6,0.0,0.1280937211851493,-2.1134571214094806,0.4999877860278462
10.664614200592041,1.3595842710537516,[0.99810225],5.0,0.6,0.0,0.13005647973594286,-2.099178967284656,0.49998740886030646
10.677792310714722,1.3543085057018613,[0.99404492],5.0,0.6,0.0,0.1283350438987394,-2.081929498011568,0.4999877399655911
10.690192699432373,1.3490327403499716,[0.98998472],5.0,0.6,0.0,0.12421434975089143,-2.0601132731736307,0.49998851463007377
10.697791337966919,1.3459063608821848,[0.9859167],5.0,0.6,0.0,0.118613454118103,-2.0645562323567455,0.49998952703135535
10.708795309066772,1.3412167916805044,[0.98185459],5.0,0.6,0.0,0.11217674232794303,-2.040568671264993,0.4999906328392469
10.722796201705933,1.3353548301784044,[0.97778757],5.0,0.6,0.0,0.10534775206735111,-2.004521717266108,0.49999173860816903
10.736757040023804,1.3294928686763046,[0.97368316],5.0,0.6,0.0,0.09842578326390439,-1.9913022429176366,0.49999278858157303
10.749793291091919,1.3242171033244143,[0.96951062],5.0,0.6,0.0,0.09160794004327968,-1.9956124589157236,0.49999375303062116
10.76280689239502,1.3189413379725243,[0.96524106],5.0,0.6,0.0,0.0850197201916198,-2.0007249506580824,0.499994619252863
10.774814128875732,1.3140563700541072,[0.96084753],5.0,0.6,0.0,0.3547753238729555,-2.008512187489558,0.4999063144247443
10.787811756134033,1.308389807268744,[0.95630511],5.0,0.6,0.0,0.3819644104673269,-2.0131621903553647,0.4998914061476701
10.799909830093384,1.3033094406335908,[0.95159201],5.0,0.6,0.0,0.32129757918112056,-2.018080713162125,0.4999231598671582
10.812541484832764,1.2980336752817005,[0.94668845],5.0,0.6,0.0,0.24001226933162068,-2.030567537976535,0.4999571200029722
10.824591159820557,1.292953308646547,[0.94158002],5.0,0.6,0.0,0.16465187102422565,-2.022452614272046,0.4999798195500635
10.832807540893555,1.2896315304620236,[0.93628341],5.0,0.6,0.0,-0.1724964122192003,-1.9922534826592455,0.4999778508579377
10.84380578994751,1.2849419612603434,[0.93083252],5.0,0.6,0.0,0.024264455708142743,-2.004508533119346,0.4999995617369345
10.855793952941895,1.2796661959084534,[0.92522688],5.0,0.6,0.0,0.07922997225914738,-2.0327624627970677,0.4999953271427388
10.867814540863037,1.2745858292732999,[0.91944157],5.0,0.6,0.0,0.07714317785515037,-2.057494597858066,0.499995570051112
10.879952907562256,1.2697008613548835,[0.91345498],5.0,0.6,0.0,-0.219882047552516,-2.0800782594072125,0.49996401094230375
10.893319606781006,1.2644250960029932,[0.90724866],5.0,0.6,0.0,-0.0007273509879641565,-2.0989009108511336,0.4999999996144808
10.900792837142944,1.2611033178184698,[0.90084031],5.0,0.6,0.0,0.06696825663762948,-2.1143812708651546,0.49999666156812184
10.913804054260254,1.2556321537498432,[0.89427872],5.0,0.6,0.0,0.07222825309626432,-2.1316794327101016,0.49999611654120024
10.925739526748657,1.250747185831426,[0.88757295],5.0,0.6,0.0,0.05551784439491257,-2.1509143346235056,0.49999770559432805
10.938724279403687,1.245471420479536,[0.88069791],5.0,0.6,0.0,0.03424172875254304,-2.167761318283586,0.49999912719689416
10.950735807418823,1.2403910538443828,[0.8736325],5.0,0.6,0.0,0.015127016702182175,-2.1854660258377536,0.49999982966343276
10.961246252059937,1.2358968833594395,[0.86635941],5.0,0.6,0.0,0.00015854769761378725,-2.2062909033078872,0.4999999999826641
10.97104001045227,1.2317935103079691,[0.85887804],5.0,0.6,0.0,-0.010632724507706158,-2.185955630876156,0.4999999158427645
10.978773355484009,1.2286671308401824,[0.85122473],5.0,0.6,0.0,0.2581373547481016,-2.152108244940383,0.49995039941026387
10.99073600769043,1.223586764205029,[0.84344072],5.0,0.6,0.0,0.010685506501415643,-2.200699932675982,0.4999999150045983
11.003803014755249,1.2181156001364022,[0.8355259],5.0,0.6,0.0,-0.08006381763347692,-2.2394306753087134,0.4999952282555799
11.016185283660889,1.2128398347845122,[0.82745813],5.0,0.6,0.0,-0.10215179160717403,-2.2731408475344073,0.4999922322494431
11.028320074081421,1.2079548668660955,[0.81921917],5.0,0.6,0.0,-0.09670827427471756,-2.304865945883438,0.4999930380497712
11.035808324813843,1.2048284873983088,[0.81083173],5.0,0.6,0.0,-0.08227338574346654,-2.331223857663725,0.4999949612452098
11.04776930809021,1.199943519479892,[0.80235318],5.0,0.6,0.0,-0.06669862387825307,-2.360697278382164,0.4999966883915503
11.060805320739746,1.1944723554112653,[0.79379536],5.0,0.6,0.0,0.22312271561132457,-2.3853246755005375,0.49996294232613403
11.074773073196411,1.1884149951924285,[0.78513113],5.0,0.6,0.0,-0.00856879335186099,-2.405695042344709,0.49999994534298237
11.08383822441101,1.1848978182911682,[0.77633778],5.0,0.6,0.0,-0.08802486761480904,-2.437957091011208,0.49999423213706673
11.096816301345825,1.1796220529392785,[0.76739672],5.0,0.6,0.0,0.17373018029570367,-2.461460625807863,0.4999775328772288
11.110016107559204,1.1735646927204413,[0.75829311],5.0,0.6,0.0,0.21749862860086522,-2.481068509812478,0.4999647868863911
11.122678518295288,1.1682889273685515,[0.7490156],5.0,0.6,0.0,-0.09588895656682392,-2.504763912691109,0.4999931555132298
11.135971784591675,1.1628177632999248,[0.73955591],5.0,0.6,0.0,0.08849024350535468,-2.528106776557811,0.4999941709883383
11.143780708312988,1.1594959851154014,[0.72994781],5.0,0.6,0.0,0.12101805781017286,-2.559473116894177,0.49998909809738573
11.155770540237427,1.1544156184802479,[0.72026036],5.0,0.6,0.0,0.09701722448640002,-2.5856474991689087,0.499992993496805
11.167805910110474,1.149530650561831,[0.71051332],5.0,0.6,0.0,-0.2178282414148821,-2.612788856401534,0.4999646800804017
11.181714296340942,1.143668689059731,[0.70068422],5.0,0.6,0.0,-0.011814382230493872,-2.6354641307140803,0.49999989609686174
11.193647623062134,1.1385883224245774,[0.69075425],5.0,0.6,0.0,0.046876959294529265,-2.6623489111743703,0.4999983642202364
11.206717014312744,1.1333125570726872,[0.68070797],5.0,0.6,0.0,0.04641657173196142,-2.6887396375184363,0.4999983961930151
11.21978235244751,1.1278413930040605,[0.67053302],5.0,0.6,0.0,0.02643980217921036,-2.7145566247691377,0.4999994796172974
11.23178243637085,1.1227610263689072,[0.66022004],5.0,0.6,0.0,0.003657066214555766,-2.742600596220831,0.49999999004428813
11.240626573562622,1.1190484507509104,[0.64978948],5.0,0.6,0.0,-0.0157443558960121,-2.6886294860370517,0.49999981547449956
11.250722885131836,1.1149450776994405,[0.63930041],5.0,0.6,0.0,-0.03018179247380726,-2.702838554856253,0.49999932189579405
11.258720874786377,1.1112325020814438,[0.62883046],5.0,0.6,0.0,-0.039915531250562936,-2.7364298447572044,0.4999988139855293
11.2757248878479,1.1038073508454502,[0.61840507],5.0,0.6,0.0,-0.04580628259285345,-2.9162410131102217,0.4999984380896847
11.287900924682617,1.098726984210297,[0.60795191],5.0,0.6,0.0,-0.04879067383505681,-2.9259935876306002,0.4999982279354489
11.300718545913696,1.0936466175751434,[0.59741134],5.0,0.6,0.0,-0.049686694702959444,-2.9388691026588423,0.4999981622514376
11.313576459884644,1.0883708522232534,[0.58677574],5.0,0.6,0.0,-0.04914377600903025,-2.954048787787963,0.49999820219352487
11.327802181243896,1.0823134920044164,[0.57604176],5.0,0.6,0.0,-0.04765094801595601,-2.967492912727697,0.4999983097574438
11.340791463851929,1.0768423279357897,[0.56521003],5.0,0.6,0.0,-0.04556407517107636,-2.9851368669426295,0.4999984545636481
