t_s,q_rad,q_des_rad,K,B,Kff,jerk,tau_Nm,reward
0.005296230316162109,-0.011528524287463544,[-5.58504222e-06],9.825212432529046,0.9790254919034855,1.9737818648793566,0.0,-9.998999999999999,1.4737938742949472
0.015587091445922852,-0.011528524287463544,[-2.69780189e-05],9.650424865058092,0.9580509838069711,1.9475637297587132,0.0,-8.42381160032764,1.4738898098466828
0.02480149269104004,-0.011528524287463544,[-6.70027755e-05],9.475637297587138,0.9370764757104565,1.92134559463807,0.0,-5.783984924677614,1.474068845011888
0.035979509353637695,-0.011528524287463544,[-0.00012221],9.300849730116184,0.9161019676139419,1.8951274595174268,0.0,-3.9548580939599534,1.4743148312239596
0.04417777061462402,-0.011528524287463544,[-0.00018952],9.12606216264523,0.8951274595174274,1.8689093243967834,0.0,-2.6961982468996495,1.4746132044523022
0.05240488052368164,-0.011528524287463544,[-0.00026618],8.951274595174274,0.8741529514209129,1.84269118927614,0.0,0.05782690550986138,1.4749510070130238
0.06362152099609375,-0.011528524287463544,[-0.00034977],8.77648702770332,0.8531784433243983,1.8164730541554968,0.0,1.3859101731356096,1.4753168089523938
0.07237529754638672,-0.011528524287463544,[-0.00043811],8.601699460232366,0.8322039352278838,1.7902549190348536,0.0,1.8856128264999235,1.475700657811077
0.08228611946105957,-0.010942328137253534,[-0.00052935],8.426911892761412,0.8112294271313693,1.7640367839142101,0.0,1.9432907640384927,1.4785474182053893
0.09024763107299805,-0.009379138403360172,[-0.00062184],8.252124325290458,0.7902549190348547,1.7378186487935667,0.8281150790360429,1.778939479317758,1.4842687452263408
0.09936285018920898,-0.006448157652310118,[-0.0007142],8.077336757819502,0.7692804109383402,1.7116005136729235,2.583719046592454,1.5161279727241521,1.4885012077023745
0.10923051834106445,-0.0027355820343133836,[-0.00080525],7.902549190348549,0.7483059028418256,1.6853823785522803,5.0,1.2277086650289066,1.4809871035557611
0.1174314022064209,0.00039079743347334047,[-0.00089401],7.727761622877595,0.727331394745311,1.659164243431637,5.0,0.9914445720875348,1.4814019687484983
0.12715840339660645,0.0042987717682067455,[-0.00097969],7.55297405540664,0.7063568866487966,1.6329461083109935,5.0,0.7740797103666968,1.476175120731603
0.1372377872467041,0.00820674610294015,[-0.00106166],7.378186487935686,0.685382378552282,1.6067279731903503,5.0,0.5863473669910212,1.4646981549242066
0.14673733711242676,0.012310119154410226,[-0.00113941],7.203398920464732,0.6644078704557674,1.5805098380697071,5.0,0.4267265216212921,1.4462006873804887
0.15413880348205566,0.015045701188723608,[-0.0012126],7.028611352993777,0.643433362359253,1.5542917029490637,5.0,0.30431702126900956,1.430238690361172
0.16219353675842285,0.018562878089983675,[-0.00128099],6.853823785522822,0.6224588542627384,1.5280735678284203,5.0,0.1702088057276997,1.4059976463779096
0.172196626663208,0.022666251141453746,[-0.00134442],6.679036218051868,0.6014843461662238,1.501855432707777,5.0,0.05836319240854061,1.3728286047702656
0.18016934394836426,0.0255972318925038,[-0.00140285],6.504248650580913,0.6,1.475637297587134,5.0,-0.024574238242572252,1.3460618563958886
0.19015264511108398,0.029309807510500538,[-0.00145628],6.329461083109958,0.6,1.4494191624664907,3.8646399593338465,-0.09487174790577224,1.3165343043739868
0.1995830535888672,0.0328269844117606,[-0.0015048],6.154673515639004,0.6,1.4232010273458477,1.4151274381492374,-0.14608457696061403,1.2885020457373058
0.2084336280822754,0.035757965162810657,[-0.00154854],5.97988594816805,0.6,1.3969828922252046,-1.5611930513523753,-0.18337237849726523,1.2552169757785272
0.21723175048828125,0.0381027497636507,[-0.00158766],5.805098380697095,0.6,1.3707647571045614,-4.398948856709224,-0.20927002266591674,1.215541746109459
0.2261660099029541,0.040252135647754074,[-0.00162237],5.63031081322614,0.6,1.3445466219839184,-5.0,-0.2275825374039449,1.1859306400211767
0.2351360321044922,0.04220612281512077,[-0.00165291],5.455523245755186,0.6,1.3183284868632752,-5.0,-0.2402059116824944,1.1623712243686712
0.24439644813537598,0.04396471126575081,[-0.00167952],5.280735678284231,0.6,1.292110351742632,-5.0,-0.2510741282519482,1.1409644181680112
0.25474977493286133,0.04533250228290749,[-0.00170247],5.105948110813277,0.6,1.2658922166219888,-5.0,-0.25575586729171945,1.1241875898748175
0.26248621940612793,0.046309495866590854,[-0.00172202],5.0,0.6,1.2396740815013456,-5.0,-0.2587734894414243,1.1121292393140891
0.27057957649230957,0.046895692016800855,[-0.00173844],5.0,0.6,1.2134559463807026,-5.0,-0.26302078778616894,1.10482742359049
0.27892565727233887,0.04709109073353753,[-0.001752],5.0,0.6,1.1872378112600595,-5.0,-0.26331615534458747,1.102294193917012
0.2899317741394043,0.0472864894502742,[-0.00176298],5.0,0.6,1.1610196761394163,-5.0,-0.26233572292671714,1.0997918902173351
0.29915356636047363,0.04709109073353753,[-0.00177162],5.0,0.6,1.1348015410187733,-5.0,-0.25912768105282386,1.1020563847044609
0.30877017974853516,0.046700293300064186,[-0.00177817],5.0,0.6,1.10858340589813,-5.0,-0.2544922469553074,1.1067141297026488
0.31661510467529297,0.04611409714985418,[-0.00178288],5.0,0.6,1.082365270777487,-5.0,-0.2483939508574458,1.1137584905246478
0.3252828121185303,0.04533250228290749,[-0.00178596],5.0,0.6,1.0561471356568437,-5.0,-0.2419324404427118,1.1231782764983729
0.3333890438079834,0.04435550869922414,[-0.00178763],5.0,0.6,1.0299290005362005,-5.0,-0.23439438161865367,1.134954288045642
0.34130859375,0.0433785151155408,[-0.00178809],5.0,0.6,1.0037108654155575,-5.0,-0.22674191883060696,1.146708039765218
0.35224103927612305,0.04181532538164743,[-0.00178747],5.0,0.6,0.9774927302949143,-5.0,-0.20730188010166042,1.1654289079894562
0.36220502853393555,0.040252135647754074,[-0.00178586],5.0,0.6,0.9512745951742712,-5.0,-0.1911353622009198,1.1840012190613454
0.3701932430267334,0.038884344630597374,[-0.00178336],5.0,0.6,0.9250564600536281,-5.0,-0.17969266166584316,1.200100649146985
0.3792433738708496,0.03732115489670401,[-0.00178013],5.0,0.6,0.898838324932985,-5.0,-0.16882105494312716,1.2182791531083215
0.3882617950439453,0.03536716772933732,[-0.00177629],5.0,0.6,0.8726201898123418,-4.402257214509461,-0.1569882479002972,1.2446478615047494
0.397169828414917,0.033803977995443955,[-0.00177196],5.0,0.6,0.8464020546916986,-3.3173367464083823,-0.15554481209523352,1.2682421887830553
0.40621209144592285,0.03165459211134058,[-0.00176725],5.0,0.6,0.8201839195710555,-2.2418719124890067,-0.147805510075865,1.2960643979306687
0.41632914543151855,0.029309807510500538,[-0.00176223],5.0,0.6,0.7939657844504124,-1.3468876482709526,-0.13549036226754993,1.3230555898916103
0.42414164543151855,0.027551219059870506,[-0.001757],5.0,0.6,0.7677476493297692,-0.38786412624022115,-0.12701173998333656,1.3420404011984612
0.43502330780029297,0.024815637025557124,[-0.00175162],5.0,0.6,0.741529514209126,-0.13785678222212805,-0.11234518230570806,1.3683328902035625
0.44622230529785156,0.022080054991243738,[-0.00174616],5.0,0.6,0.715311379088483,0.6661153175351573,-0.09570894280376717,1.3923403191114414
0.4544084072113037,0.019539871673667025,[-0.00174067],5.0,0.6,0.6890932439678399,1.4877159858761606,-0.0825038058600964,1.411763418768609
0.46321821212768555,0.01739048578956365,[-0.0017352],5.0,0.6,0.6628751088471967,2.141036334485825,-0.07203716034170955,1.4260529015978123
0.4731624126434326,0.014654903755250269,[-0.00172979],5.0,0.6,0.6366569737265535,2.590347117892339,-0.056599055173287505,1.442754336189633
0.48276472091674805,0.011919321720936885,[-0.00172447],5.0,0.6,0.6104388386059104,3.133551966720158,-0.04182542901782871,1.456197692378761
0.4912383556365967,0.009379138403360172,[-0.00171929],5.0,0.6,0.5842207034852673,3.84221751941438,-0.029769486879824416,1.464796520719898
0.501143217086792,0.006838955085783458,[-0.00171426],5.0,0.6,0.5580025683646241,4.1473699938300514,-0.016134295470532165,1.472833399263084
0.5115137100219727,0.0042987717682067455,[-0.00170939],5.0,0.6,0.531784433243981,4.490882206653756,-0.0021873114102733903,1.4780164615573654
0.5192091464996338,0.002540183317576713,[-0.00170471],5.0,0.6,0.5055662981233379,5.0,0.0063184447904857,1.4781347301731318
0.5299620628356934,0.00019539871673667023,[-0.00170022],5.0,0.6,0.4793481630026947,5.0,0.017731128479946862,1.4810136448156226
0.5412371158599854,-0.0021493858841033727,[-0.00169595],5.0,0.6,0.4531300278820516,5.0,0.029757498974508724,1.481690941707402
0.5506155490875244,-0.003907974334733405,[-0.00169189],5.0,0.6,0.42691189276140845,5.0,0.03809135467195796,1.480750335821793
0.5634763240814209,-0.0062527589355734475,[-0.00168804],5.0,0.6,0.4006937576407653,5.0,0.04931021742360373,1.4775734044783297
0.5720999240875244,-0.0076205499527301395,[-0.0016844],5.0,0.6,0.3744756225201221,5.0,0.05543319477696964,1.4747092685633245
0.5811347961425781,-0.008988340969886831,[-0.00168096],5.0,0.6,0.3482574873994789,5.0,0.06138366706893182,1.471109326666748
0.590266227722168,-0.010551530703780192,[-0.00167771],5.0,0.6,0.3220393522788358,5.0,0.06763498720010121,1.466106500513834
0.6000909805297852,-0.011528524287463544,[-0.00167466],5.0,0.6,0.2958212171581926,5.0,0.07087008556679031,1.4624996652782463
0.610137939453125,-0.012896315304620235,[-0.00167179],5.0,0.6,0.2696030820375494,5.0,0.07580792171503643,1.4568488774758914
0.6182148456573486,-0.013677910171566917,[-0.00166911],5.0,0.6,0.24338494691690624,5.0,0.07826821425072523,1.453301758924985
0.6290209293365479,-0.014654903755250269,[-0.00166661],5.0,0.6,0.21716681179626307,5.0,0.08189420588386902,1.4485557180569373
0.6381576061248779,-0.015241099905460279,[-0.00166428],5.0,0.6,0.19094867667561988,5.0,0.08380388654701801,1.4455373114500394
0.6468520164489746,-0.016022694772406962,[-0.00166209],5.0,0.6,0.16473054155497668,5.0,0.08648837730734847,1.4413256908444803
0.6587874889373779,-0.01660889092261697,[-0.00166004],5.0,0.6,0.13851240643433352,5.0,0.0881130643649849,1.4380225032010858
0.6662049293518066,-0.016999688356090312,[-0.00165813],5.0,0.6,0.11229427131369034,5.0,0.08877241386094217,1.4357501132021162
0.6761360168457031,-0.017195087072826982,[-0.00165634],5.0,0.6,0.08607613619304716,4.8951059623444655,0.08857251015444875,1.43533394306878
0.6856341361999512,-0.01739048578956365,[-0.00165466],5.0,0.6,0.05985800107240398,4.742441244957016,0.08825498338915305,1.435218082655879
0.6948695182800293,-0.017781283223036994,[-0.00165308],5.0,0.6,0.0336398659517608,4.822529729738704,0.08874738671967439,1.4322901795887684
0.704115629196167,-0.017781283223036994,[-0.0016516],5.0,0.6,0.0074217308311176206,4.076362497717444,0.08759580358618856,1.4370794777207196
0.7132687568664551,-0.017781283223036994,[-0.00165025],5.0,0.6,0.0,3.709073068354429,0.08639873154666981,1.4391522192863506
0.7235517501831055,-0.017781283223036994,[-0.00164902],5.0,0.6,0.0,3.2130200465273813,0.08525666388173804,1.4416553692298069
0.7311911582946777,-0.017781283223036994,[-0.00164792],5.0,0.6,0.0,2.4551606218370767,0.08435522020320198,1.4448076511958432
0.7391347885131836,-0.017781283223036994,[-0.00164694],5.0,0.6,0.0,1.727530898653881,0.0835417987536291,1.4470520400959495
0.7471580505371094,-0.017781283223036994,[-0.00164607],5.0,0.6,0.0,1.127154415976976,0.08283965439281202,1.448318502047597
0.7562046051025391,-0.017781283223036994,[-0.00164531],5.0,0.6,0.0,0.3922607957812705,0.0822618524759806,1.4491441367089712
0.7646293640136719,-0.01758588450630032,[-0.00164464],5.0,0.6,0.0,0.025013675271022162,0.08068186410077717,1.4504448403712875
0.7732157707214355,-0.01758588450630032,[-0.00164407],5.0,0.6,0.0,-0.43041284322551476,0.08019322597802821,1.450303951913502
0.7820980548858643,-0.01739048578956365,[-0.00164358],5.0,0.6,0.0,-1.0985754949192632,0.07898587147978844,1.4507190677634285
0.7904915809631348,-0.017195087072826982,[-0.00164318],5.0,0.6,0.0,-1.4190670120629858,0.0777190909199434,1.4512821265049316
0.8002119064331055,-0.017195087072826982,[-0.00164284],5.0,0.6,0.0,-1.8257245911582094,0.07756341642031321,1.4503018075646785
0.8081648349761963,-0.016999688356090312,[-0.00164258],5.0,0.6,0.0,-1.8849156474011572,0.07635289506853407,1.4512891576173697
0.8162045478820801,-0.016999688356090312,[-0.00164237],5.0,0.6,0.0,-2.0743955545093833,0.0762203310960996,1.4507327430957864
0.8259484767913818,-0.01680428963935364,[-0.00164222],5.0,0.6,0.0,-1.9688961829128546,0.07502103716637043,1.4521858666879959
0.8358190059661865,-0.01660889092261697,[-0.00164211],5.0,0.6,0.0,-2.0408699696604717,0.07392662200468056,1.4530968756149032
0.8442330360412598,-0.0164134922058803,[-0.00164204],5.0,0.6,0.0,-2.1318246542769326,0.07289093530378932,1.453927692176186
0.8521249294281006,-0.0164134922058803,[-0.00164201],5.0,0.6,0.0,-1.9099895424000262,0.0726810218209331,1.454590896955599
0.8601081371307373,-0.01621809348914363,[-0.00164201],5.0,0.6,0.0,-1.8827032724787476,0.0716118564524099,1.4557660671302635
0.868762731552124,-0.016022694772406962,[-0.00164203],5.0,0.6,0.0,-1.624615322003803,0.07041310256971088,1.457522094932794
0.8773720264434814,-0.01582729605567029,[-0.00164208],5.0,0.6,0.0,-1.5977889167954424,0.06932330958060003,1.4586581623380441
0.8862841129302979,-0.01563189733893362,[-0.00164214],5.0,0.6,0.0,-1.6313522791509758,0.06828969980382225,1.459636360461095
0.8961024284362793,-0.015436498622196948,[-0.00164222],5.0,0.6,0.0,-1.6584078804647162,0.06728417199770835,1.460615463917751
0.9042496681213379,-0.015241099905460279,[-0.00164231],5.0,0.6,0.0,-1.3822881642291303,0.06612186683751649,1.4622698515577217
0.9139456748962402,-0.015045701188723608,[-0.0016424],5.0,0.6,0.0,-1.3204596435353566,0.0650502503058895,1.4634118647891272
0.9226315021514893,-0.014654903755250269,[-0.0016425],5.0,0.6,0.0,-1.323534791015439,0.06305843740564471,1.4654001769639022
0.9311263561248779,-0.0144595050385136,[-0.00164261],5.0,0.6,0.0,-1.0550038644554192,0.0618769045222631,1.4668514300453315
0.9397530555725098,-0.014264106321776927,[-0.00164272],5.0,0.6,0.0,-1.013414971406108,0.06080040319514246,1.4678783577171521
0.9471325874328613,-0.014068707605040257,[-0.00164282],5.0,0.6,0.0,-1.0406423231697386,0.059773420763837265,1.4687859187657475
0.9581809043884277,-0.013677910171566917,[-0.00164293],5.0,0.6,0.0,-0.7963292413713299,0.05763315240032801,1.4709755597632497
0.9667685031890869,-0.013482511454830247,[-0.00164303],5.0,0.6,0.0,-0.7774820342898671,0.056546504042084056,1.4719048854727934
0.9741389751434326,-0.013287112738093578,[-0.00164313],5.0,0.6,0.0,-0.8254860238012613,0.05551916748771989,1.472740877127779
0.9855196475982666,-0.013091714021356905,[-0.00164322],5.0,0.6,0.0,-0.8759895083227734,0.054516824206737646,1.4735561062493086
0.9933068752288818,-0.012700916587883566,[-0.00164331],5.0,0.6,0.0,-0.6311519343999046,0.05238892189335077,1.4755460095408028
1.0011093616485596,-0.012505517871146895,[-0.0016434],5.0,0.6,0.0,-0.6061982151691712,0.05130850771435722,1.476405623648008
1.0110721588134766,-0.012310119154410226,[-0.00164348],5.0,0.6,0.0,-0.6495139252211126,0.050284342831866245,1.4771875532586465
1.0191702842712402,-0.011919321720936885,[-0.00164355],5.0,0.6,0.0,-0.6987882394895563,0.04831641846660772,1.4787397632489747
1.0280940532684326,-0.011528524287463544,[-0.00164362],5.0,0.6,0.0,-0.7322336457308323,0.046350521851803085,1.4802484654010029
1.0392155647277832,-0.011333125570726873,[-0.00164368],5.0,0.6,0.0,-0.7454407126527482,0.04535761598103346,1.4809846302181475
1.0471673011779785,-0.011137726853990204,[-0.00164373],5.0,0.6,0.0,-0.7406764030468348,0.04437732720709267,1.4817261215797222
1.0571677684783936,-0.010746929420516863,[-0.00164378],5.0,0.6,0.0,-0.7221424121875216,0.042451322178103275,1.4831750780068975
1.0654890537261963,-0.010551530703780192,[-0.00164382],5.0,0.6,0.0,-0.6940303332816329,0.041463273236823424,1.4838973594775173
1.074126958847046,-0.010160733270306851,[-0.00164384],5.0,0.6,0.0,-0.6598470410174864,0.03955784974772572,1.48527322857895
1.0831825733184814,-0.009965334553570182,[-0.00164384],5.0,0.6,0.0,-0.6222854790899569,0.03854717581349326,1.4859578275642504
1.0931427478790283,-0.009769935836833513,[-0.00164382],5.0,0.6,0.0,-0.5833053853479723,0.03753564308634078,1.4866268546668466
1.102733850479126,-0.009379138403360172,[-0.00164379],5.0,0.6,0.0,-0.544275077548529,0.03559804979723423,1.4878837147445094
1.1125013828277588,-0.008988340969886831,[-0.00164374],5.0,0.6,0.0,-0.5061130583739009,0.03365133503325409,1.4890787215605747
1.1214046478271484,-0.008597543536413491,[-0.00164369],5.0,0.6,0.0,-0.4694080550791542,0.03169561006491285,1.4902114028401854
1.1293745040893555,-0.00840214481967682,[-0.00164363],5.0,0.6,0.0,-0.43451326486278274,0.030722033469394835,1.4907655645176434
1.137068271636963,-0.00820674610294015,[-0.00164355],5.0,0.6,0.0,-0.40161721422040564,0.02973587916674616,1.4913018470017552
1.1465816497802734,-0.008011347386203481,[-0.00164347],5.0,0.6,0.0,-0.37079560077226076,0.02877934604557082,1.4918204790874223
1.1554756164550781,-0.00781594866946681,[-0.00164337],5.0,0.6,0.0,-0.3420485154465369,0.027775439309873664,1.492321726280914
1.163102149963379,-0.0076205499527301395,[-0.00164326],5.0,0.6,0.0,-0.31532679220276416,0.026821078000871187,1.4928058622042029
1.173398494720459,-0.0072297525192568,[-0.00164314],5.0,0.6,0.0,-0.2905504414592618,0.024876336078729366,1.493714562154394
1.1811933517456055,-0.0072297525192568,[-0.00164301],5.0,0.6,0.0,-0.5436597616832786,0.02502832740249528,1.493557141959164
1.1910655498504639,-0.006838955085783458,[-0.00164288],5.0,0.6,0.0,-0.5555952202973973,0.023162750365939788,1.4943849741938071
1.2026898860931396,-0.006643556369046789,[-0.00164274],5.0,0.6,0.0,-0.756976175371562,0.02238990189022981,1.4945844797904329
1.2101268768310547,-0.006448157652310118,[-0.0016426],5.0,0.6,0.0,-0.6959741250586255,0.02151573595410265,1.49503152591981
1.2191669940948486,-0.006448157652310118,[-0.00164246],5.0,0.6,0.0,-0.5537234470697969,0.02157285797623121,1.495163516360734
1.228142261505127,-0.0062527589355734475,[-0.00164233],5.0,0.6,0.0,-0.4056936584223738,0.020607304572939824,1.4956352995617508
1.2369742393493652,-0.006057360218836778,[-0.0016422],5.0,0.6,0.0,-0.5550986917634988,0.019815199280925462,1.4958795347918943
1.2463085651397705,-0.005861961502100107,[-0.00164208],5.0,0.6,0.0,-0.48919123747028614,0.018946995797995712,1.4962667430523646
1.2561705112457275,-0.005861961502100107,[-0.00164196],5.0,0.6,0.0,-0.3606052836248824,0.019024923830437145,1.496347868719419
1.264796495437622,-0.005666562785363437,[-0.00164185],5.0,0.6,0.0,-0.5079792804294833,0.018213164632399144,1.4965735233282818
1.2741334438323975,-0.005666562785363437,[-0.00164173],5.0,0.6,0.0,-0.4340772109066785,0.018303939965175653,1.4966251456631396
1.2831764221191406,-0.005471164068626767,[-0.00164162],5.0,0.6,0.0,-0.573795074383578,0.01756771395000758,1.4968261869131165
1.2930376529693604,-0.005471164068626767,[-0.00164151],5.0,0.6,0.0,-0.47282826165448866,0.017658065809543124,1.4969046519281366
1.3033044338226318,-0.005471164068626767,[-0.0016414],5.0,0.6,0.0,-0.5839090981444275,0.017914368306892987,1.496817144470882
1.3121066093444824,-0.005275765351890096,[-0.0016413],5.0,0.6,0.0,-0.45911864989338724,0.017000661181931963,1.4972047285167134
1.3224530220031738,-0.005275765351890096,[-0.0016412],5.0,0.6,0.0,-0.27657840932473177,0.017089187192942484,1.4973045361101067
1.330307960510254,-0.005275765351890096,[-0.00164111],5.0,0.6,0.0,-0.10680644042595176,0.017134792068702463,1.4973528525361286
1.3391051292419434,-0.005275765351890096,[-0.00164102],5.0,0.6,0.0,-0.24815921148920878,0.017313526041865607,1.4973153712179859
1.3495571613311768,-0.005080366635153426,[-0.00164093],5.0,0.6,0.0,-0.18382085210167173,0.016415590369256324,1.497611696483222
1.357083797454834,-0.005275765351890096,[-0.00164084],5.0,0.6,0.0,-0.06326838676739037,0.017420482789896153,1.497357976046439
1.3670969009399414,-0.005080366635153426,[-0.00164076],5.0,0.6,0.0,0.05323927290944006,0.01649903816588679,1.4976345135096834
1.3769140243530273,-0.005080366635153426,[-0.00164069],5.0,0.6,0.0,-0.1303691811276244,0.016701033940540264,1.4976238659862788
1.3854165077209473,-0.005275765351890096,[-0.00164061],5.0,0.6,0.0,-0.09812662766130711,0.01770449335809376,1.497353451106295
1.3940932750701904,-0.005275765351890096,[-0.00164054],5.0,0.6,0.0,-0.0013286154055639487,0.01782842218116224,1.4973605092916047
1.403122901916504,-0.005080366635153426,[-0.00164044],5.0,0.6,0.0,0.09788057563664712,0.01710907082637095,1.4976290410216249
1.4141268730163574,-0.005275765351890096,[-0.0016402],5.0,0.6,0.0,-0.09819650663623773,0.018898187951629973,1.49735284599989
1.4232187271118164,-0.005080366635153426,[-0.00163962],5.0,0.6,0.0,-0.07488440552642095,0.018645387709780626,1.4976308798988498
1.432203769683838,-0.005080366635153426,[-0.00163845],5.0,0.6,0.0,0.015540326288078443,0.019194882722712213,1.4976332607400935
1.4405910968780518,-0.005275765351890096,[-0.00163649],5.0,0.6,0.0,0.11020814222927261,0.020035915351085377,1.4973455968166012
1.4481728076934814,-0.005080366635153426,[-0.00163368],5.0,0.6,0.0,0.18693284852368608,0.019114958722101373,1.497600875314951
1.4572370052337646,-0.005080366635153426,[-0.00163],5.0,0.6,0.0,0.2410589851336124,0.01897220731981414,1.4975785717808596
1.465087890625,-0.005080366635153426,[-0.00162547],5.0,0.6,0.0,0.27473170852764445,0.018919281787915146,1.4975594084027941
1.474161148071289,-0.005275765351890096,[-0.00162013],5.0,0.6,0.0,0.2921238349189611,0.019945120795621753,1.497267308135846
1.483017921447754,-0.005080366635153426,[-0.00161394],5.0,0.6,0.0,0.2974636190420257,0.01935255835012564,1.4975338015415764
1.4917397499084473,-0.005080366635153426,[-0.0016069],5.0,0.6,0.0,0.29433842654282616,0.019091077425911467,1.497525434334565
1.4990627765655518,-0.005080366635153426,[-0.00159932],5.0,0.6,0.0,0.28554923702759183,0.016245502352875835,1.4975187054942865
1.5112175941467285,-0.005275765351890096,[-0.00159172],5.0,0.6,0.0,0.27317959563675753,0.01814419629529732,1.4972337005366139
1.5221059322357178,-0.005080366635153426,[-0.00158431],5.0,0.6,0.0,0.25872912545859816,0.017487924084355868,1.4975086768402084
1.530210018157959,-0.005080366635153426,[-0.00157706],5.0,0.6,0.0,0.24324946823926663,0.017537660077624362,1.4975043383203426
1.5400755405426025,-0.005080366635153426,[-0.00157002],5.0,0.6,0.0,0.2274605540454794,0.017604016960874536,1.4975000208788103
1.5500822067260742,-0.005080366635153426,[-0.00156325],5.0,0.6,0.0,0.21184242615419152,0.017622505367667782,1.4974956235795291
1.5597765445709229,-0.005080366635153426,[-0.00155677],5.0,0.6,0.0,0.19670462663780264,0.017643727666661644,1.49749113213523
1.569031000137329,-0.005080366635153426,[-0.00155064],5.0,0.6,0.0,0.18223721924659153,0.01766659217755465,1.4974865818216498
1.5773487091064453,-0.005080366635153426,[-0.00154487],5.0,0.6,0.0,0.16854763889305846,0.017689964563584636,1.4974820293034985
1.5858311653137207,-0.005080366635153426,[-0.00153949],5.0,0.6,0.0,0.15568696744611268,0.017713051213238715,1.4974775381111203
1.5940840244293213,-0.005080366635153426,[-0.00153451],5.0,0.6,0.0,0.14366848863265408,0.017735308365412258,1.4974731698283523
1.603703260421753,-0.005080366635153426,[-0.00152992],5.0,0.6,0.0,0.13248068495814386,0.017756373548506864,1.4974689791616638
1.6110649108886719,-0.005080366635153426,[-0.00152573],5.0,0.6,0.0,0.12209627315703403,0.01777601632263911,1.4974650115506642
1.6210722923278809,-0.005275765351890096,[-0.00152194],5.0,0.6,0.0,0.11247843650348578,0.018761326346967814,1.4971763047251199
1.6312379837036133,-0.005080366635153426,[-0.00151852],5.0,0.6,0.0,0.10358508477358477,0.01782024149159591,1.497457877183427
1.639707326889038,-0.005080366635153426,[-0.00151547],5.0,0.6,0.0,0.09537173300049612,0.01782550087047838,1.4974547523479043
1.6491475105285645,-0.005080366635153426,[-0.00151276],5.0,0.6,0.0,0.08779341725438201,0.01783863403361978,1.497451936170614
1.657862901687622,-0.005080366635153426,[-0.00151038],5.0,0.6,0.0,0.08080594209366276,0.017850308743606238,1.4974494299756362
1.6665012836456299,-0.005080366635153426,[-0.00150832],5.0,0.6,0.0,0.07436666657685345,0.01786050299568433,1.497447229259739
1.677048921585083,-0.005080366635153426,[-0.00150635],5.0,0.6,0.0,0.06843497369465454,0.019985786552907225,1.4974450506628794
1.687082052230835,-0.005275765351890096,[-0.00150382],5.0,0.6,0.0,0.06297252438408228,0.023389140632205575,1.497155582225259
1.6958656311035156,-0.005080366635153426,[-0.00149986],5.0,0.6,0.0,0.05794336657997347,0.023965956466435984,1.4974367794784087
1.705070972442627,-0.005080366635153426,[-0.00149309],5.0,0.6,0.0,0.053313948224766775,0.0315775835904958,1.4974274783798136
1.715083122253418,-0.005080366635153426,[-0.0014803],5.0,0.6,0.0,0.04905306808089878,0.04700526468106711,1.4974094695937423
1.7238285541534424,-0.005080366635153426,[-0.00145752],5.0,0.6,0.0,0.04513178765144589,0.046242394732229096,1.4973769261522287
1.7344534397125244,-0.005080366635153426,[-0.00142187],5.0,0.6,0.0,0.041523320159813415,0.05535307051385526,1.4973253704301903
1.7431483268737793,-0.005080366635153426,[-0.00137011],5.0,0.6,0.0,0.0382029074156515,0.06471042572697237,1.497249492211043
1.7514970302581787,-0.005080366635153426,[-0.00129804],5.0,0.6,0.0,0.03514769183257811,0.0746627054259559,1.497141970205909
1.7604467868804932,-0.005080366635153426,[-0.00120248],5.0,0.6,0.0,0.03233658839416813,0.07156750005584224,1.4969961434787005
1.769115924835205,-0.004884967918416756,[-0.00107982],5.0,0.6,0.0,0.029750159658907722,0.09918477606560538,1.4971076978168159
1.7774171829223633,-0.004884967918416756,[-0.00092514],5.0,0.6,0.0,0.027370495721854043,0.09274895936717933,1.4968683120531667
1.7860691547393799,-0.004689569201680086,[-0.00073684],5.0,0.6,0.0,0.30121945992788185,0.08803933348143138,1.4968125272898432
1.79714035987854,-0.004494170484943416,[-0.00051269],5.0,0.6,0.0,0.3323297459990211,0.12392944005808532,1.4967523740836344
1.8058817386627197,-0.0042987717682067455,[-0.00024721],5.0,0.6,0.0,0.5514176260839025,0.11432141195063608,1.4964960534892118
1.8141369819641113,-0.004103373051470075,[6.29200151e-05],5.0,0.6,0.0,0.7827905827120744,0.13044538953740878,1.4960784877647308
1.822742223739624,-0.0037125756179967346,[0.00041687],5.0,0.6,0.0,0.9647649852352886,0.13011975687032917,1.4959029568218924
1.8358616828918457,-0.0031263794677867237,[0.00081907],5.0,0.6,0.0,1.3607190967131524,0.2141597923614857,1.495515117688031
1.8449814319610596,-0.0027355820343133836,[0.00128295],5.0,0.6,0.0,1.7340147641330632,0.18715177643451847,1.4945422307474807
1.8537402153015137,-0.0019539871673667024,[0.0018155],5.0,0.6,0.0,1.7322416989082505,0.1920991906885347,1.4949335190793689
1.862649917602539,-0.0015631897338933619,[0.00241865],5.0,0.6,0.0,1.8652848434563345,0.20051249574258018,1.494250727940003
1.8727765083312988,-0.0005861961502100108,[0.00309687],5.0,0.6,0.0,1.9940771919656792,0.2070771241831779,1.4943394390944267
1.8810672760009766,0.0,[0.00385101],5.0,0.6,0.0,2.3491396713088655,0.18538239699037917,1.4929472242344668
1.8911514282226562,0.0009769935836833512,[0.00468202],5.0,0.6,0.0,2.4053712259709585,0.23093329613168956,1.4929698576001769
1.8991308212280273,0.0019539871673667024,[0.00559031],5.0,0.6,0.0,2.6018691324669687,0.23022272182163525,1.4923448525261562
1.908970594406128,0.0031263794677867237,[0.0065688],5.0,0.6,0.0,2.774975772429658,0.23144832970111173,1.4919332322882195
1.9191725254058838,0.004494170484943416,[0.00761768],5.0,0.6,0.0,2.8743604537065464,0.26040048779579267,1.4919381075348084
1.9280834197998047,0.005861961502100107,[0.00874638],5.0,0.6,0.0,2.8966312493995217,0.25069449219679196,1.492130391093671
1.936025619506836,0.007034353802520129,[0.00995461],5.0,0.6,0.0,2.855080347760019,0.21525267387541347,1.4922645767157592
1.9450345039367676,0.008597543536413491,[0.01122751],5.0,0.6,0.0,3.0426509263965285,0.15556854427079334,1.4917734337297084
1.9546549320220947,0.010356131987043523,[0.0125316],5.0,0.6,0.0,3.2318484006242096,-0.00455695908339393,1.4913389073803767
1.9623990058898926,0.012114720437673556,[0.01382458],5.0,0.6,0.0,3.07080167464282,-0.009614778532661863,1.4924449239117001
1.9721274375915527,0.013677910171566917,[0.01511089],5.0,0.6,0.0,3.0667639337135344,0.2734072108095795,1.4926370706181056
1.9824750423431396,0.015241099905460279,[0.01643901],5.0,0.6,0.0,2.801210729864362,0.24303934521251905,1.4939058816808215
1.9901187419891357,0.01660889092261697,[0.01782725],5.0,0.6,0.0,1.9162134075705883,0.2051245802451421,1.4969772747626784
2.000056266784668,0.018367479373247002,[0.01927126],5.0,0.6,0.0,1.2529483691612997,0.2508737356023292,1.4986693944534784
2.008053779602051,0.019735270390403698,[0.02077116],5.0,0.6,0.0,0.21998938367329135,0.25166976211434383,1.4997493861970819
2.0170581340789795,0.021493858841033726,[0.0223216],5.0,0.6,0.0,-0.4623503584567479,0.26809591955265966,1.499703876304293
2.0260682106018066,0.023447846008400428,[0.02393484],5.0,0.6,0.0,-1.172636308598013,0.3167601979957064,1.498930008442726
2.0361814498901367,0.025401833175767132,[0.02564397],5.0,0.6,0.0,-1.466856611810183,0.32295615472301614,1.498389133677993
2.044039249420166,0.027355820343133833,[0.0274693],5.0,0.6,0.0,-1.27756128008049,0.3101766872563959,1.4987839165070063
2.0537240505218506,0.02950520622723721,[0.02941828],5.0,0.6,0.0,-0.9532092915671913,0.3225254642246229,1.4993225777108816
2.0613632202148438,0.03165459211134058,[0.03149941],5.0,0.6,0.0,-0.35951906620960117,0.31492232697071615,1.4998989761164687
2.070366859436035,0.033999376712180625,[0.03372176],5.0,0.6,0.0,0.48844951706708567,0.3201082074342004,1.4998070158679693
2.080030918121338,0.036734958746494004,[0.03611684],5.0,0.6,0.0,1.251320306566392,0.2126990716467933,1.4987593627074052
2.088615655899048,0.03927514206407072,[0.03872387],5.0,0.6,0.0,1.8268283127856653,0.2805278729692907,1.4974610941741766
2.096053123474121,0.04142452794817409,[0.04154366],5.0,0.6,0.0,2.2107370418537213,0.31143997387022987,1.4963722137212239
2.1053762435913086,0.04435550869922414,[0.04456587],5.0,0.6,0.0,2.4334793006538815,0.2632003678068229,1.495602317806755
2.1145200729370117,0.04748188816701086,[0.04781857],5.0,0.6,0.0,2.808841534926591,0.2624430967563653,1.4941386709423952
2.1230533123016357,0.050608267634797595,[0.05133794],5.0,0.6,0.0,2.8522841186918413,0.22763163496112213,1.4938739619801833
2.132127523422241,0.05393004581932099,[0.05512896],5.0,0.6,0.0,2.7463670746539948,0.249678495355444,1.4941293024217526
2.1409366130828857,0.05686102657037104,[0.05918197],5.0,0.6,0.0,2.579524063934916,0.2254583751510314,1.4939944764908981
2.1500802040100098,0.06037820347163111,[0.06348646],5.0,0.6,0.0,2.11777041553516,0.253546444260696,1.494742136512043
2.159080743789673,0.06369998165615451,[0.068058],5.0,0.6,0.0,1.6233754900118034,0.3214657559368093,1.4942508240049859
2.169508695602417,0.06760795599088791,[0.07291932],5.0,0.6,0.0,1.4689629629025984,0.27829134471072775,1.4927700497388143
2.178049087524414,0.07073433545867464,[0.07805659],5.0,0.6,0.0,0.8836588733213138,0.2956552694162532,1.488753281211995
2.1871964931488037,0.07444691107667137,[0.08345094],5.0,0.6,0.0,0.5362499308432357,0.30528105186693066,1.4837022209182058
2.1950602531433105,0.07757329054445808,[0.08907432],5.0,0.6,0.0,0.04897756595451669,0.29618682297280813,1.4738903196404989
2.2040743827819824,0.08128586616245481,[0.09479116],5.0,0.6,0.0,-0.1152984427343989,-0.17257066522488487,1.4641688566209738
2.2140860557556152,0.08538923921392488,[0.1004231],5.0,0.6,0.0,-0.41901196144193825,0.22439472618956854,1.4556723660486621
2.223104476928711,0.08851561868171162,[0.10591403],5.0,0.6,0.0,-0.7048906462837616,0.21832828275321062,1.440885502138811
2.2321012020111084,0.09183739686623502,[0.111256],5.0,0.6,0.0,-1.1982892364240767,0.20553550393139594,1.426289483872708
2.2410600185394287,0.09496377633402173,[0.11641827],5.0,0.6,0.0,-1.6503840331068274,0.24262530971668916,1.4100278115621405
2.2510361671447754,0.09906714938549181,[0.12138203],5.0,0.6,0.0,-1.98347638852924,0.2356697816559074,1.4022876892634764
2.259139060974121,0.1023889275700152,[0.12612994],5.0,0.6,0.0,-2.4671990533518775,0.21206978417110844,1.3888836851646917
2.26709246635437,0.10590610447127527,[0.1306446],5.0,0.6,0.0,-2.8779109828448783,0.21547186457814455,1.3786680072869402
2.2753992080688477,0.10903248393906198,[0.13491429],5.0,0.6,0.0,-3.152543257163898,0.20094626529336332,1.3672694282215838
2.2840559482574463,0.11274505955705873,[0.13893196],5.0,0.6,0.0,-3.2933472313103507,0.2033544558620425,1.3638297905713443
2.293149709701538,0.11645763517505547,[0.1426958],5.0,0.6,0.0,-3.324785570937655,0.2023619271184495,1.3632088666559576
2.301119327545166,0.11977941335957885,[0.14620846],5.0,0.6,0.0,-2.9990991051906803,0.20022465414970994,1.3629691001980562
2.3100595474243164,0.12329659026083893,[0.14947468],5.0,0.6,0.0,-2.5843096913428854,0.19500737579207916,1.3669722621075837
2.3194873332977295,0.12700916587883565,[0.15249976],5.0,0.6,0.0,-2.4646657602201976,0.17366714104620581,1.3736341811730117
2.3270304203033447,0.1301355453466224,[0.15528829],5.0,0.6,0.0,-2.1571766726469432,0.15862272484036294,1.377693859657388
2.3370471000671387,0.13423891839809246,[0.15784801],5.0,0.6,0.0,-2.0977766109425033,0.16662521611150752,1.3912460831064897
2.3450467586517334,0.13756069658261585,[0.16019172],5.0,0.6,0.0,-1.8283355482817065,0.1584427771716638,1.40015676481207
2.35361385345459,0.14088247476713922,[0.16233151],5.0,0.6,0.0,-1.5205150586390714,0.13738147563878375,1.4103758986090305
2.3650424480438232,0.14537664525208266,[0.16427767],5.0,0.6,0.0,-1.516614465515459,0.1254320653086766,1.429333775982355
2.373673677444458,0.14889382215334274,[0.16604225],5.0,0.6,0.0,-1.86915617785689,0.11659706633325918,1.4402884268336718
2.3824470043182373,0.1522156003378661,[0.16765201],5.0,0.6,0.0,-1.9710211534002473,0.24315387425103346,1.450577632696681
2.3920209407806396,0.15612357467259955,[0.16915878],5.0,0.6,0.0,-1.6731232608219508,0.311644827901195,1.464508157092584
2.4011406898498535,0.15964075157385957,[0.1706052],5.0,0.6,0.0,-1.5590632048471607,0.22102862724218586,1.4744367880124751
2.411066770553589,0.16374412462532967,[0.17200854],5.0,0.6,0.0,-1.783199944114387,0.2647636644719061,1.4840713270275072
2.419036865234375,0.16706590280985303,[0.17338627],5.0,0.6,0.0,-1.7762133119807266,0.22594108887874867,1.4896993993194751
2.4291319847106934,0.17136467457805982,[0.17475504],5.0,0.6,0.0,-1.6748178546176387,0.2273567520328327,1.495620029947713
2.4370131492614746,0.17449105404584653,[0.1761253],5.0,0.6,0.0,-1.5421900781742257,0.19407392502964352,1.4976986751650787
2.4451496601104736,0.17761743351363324,[0.17751087],5.0,0.6,0.0,-1.4061984915731052,0.24002598859592766,1.4985279199446642
2.4556355476379395,0.18172080656510334,[0.17893217],5.0,0.6,0.0,-1.2780877776565367,0.2277360533050497,1.497231402702813
2.463087558746338,0.18465178731615337,[0.18039662],5.0,0.6,0.0,-1.161518687056637,0.22035561347761723,1.4953819691446586
2.4730796813964844,0.18895055908436015,[0.18190011],5.0,0.6,0.0,-0.7808375424553753,0.2308672003901349,1.489653833679787
2.4821979999542236,0.1924677359856202,[0.18345063],5.0,0.6,0.0,-0.6541100431091036,0.20995672742709642,1.4835514862179267
2.4900355339050293,0.19578951417014356,[0.18505364],5.0,0.6,0.0,-0.6253845218934915,0.16273701035244192,1.4769207915084204
2.498119354248047,0.1989158936379303,[0.18670398],5.0,0.6,0.0,-0.6261688724040653,0.15498450470310543,1.4703224555796603
2.507297992706299,0.20262846925592706,[0.18840013],5.0,0.6,0.0,-0.6287923485447574,0.14422743501476437,1.4600253637881695
2.515104293823242,0.20595024744045046,[0.19013995],5.0,0.6,0.0,-0.3479256948102681,0.10336697094889696,1.451145903181232
2.525099039077759,0.20985822177518385,[0.19192074],5.0,0.6,0.0,-0.301003134806481,0.1313337036179846,1.4376087042399222
2.5332400798797607,0.2133753986764439,[0.19373948],5.0,0.6,0.0,-0.3347138217671145,0.12316709042842118,1.4257010450782825
2.544590950012207,0.21806496787812396,[0.19558959],5.0,0.6,0.0,-0.6600051775452691,0.13463260628388882,1.403583088285659
2.5541129112243652,0.2219729422128574,[0.19747362],5.0,0.6,0.0,-0.733421729275523,0.11954057694269216,1.3864816964466913
2.564329147338867,0.22588091654759082,[0.19940389],5.0,0.6,0.0,-0.7029843885222353,0.1403600809553659,1.3688109427162354
2.572089433670044,0.22900729601537753,[0.20138948],5.0,0.6,0.0,-0.6364533764702213,0.1034947921646142,1.3582156033905581
2.5810468196868896,0.2323290741999009,[0.20343147],5.0,0.6,0.0,-0.8393420137108307,0.11242592855067972,1.3456634002648684
2.591035842895508,0.23584625110116098,[0.20553448],5.0,0.6,0.0,-1.080362832783489,0.1216455067128851,1.3312667974865064
2.5990211963653564,0.23877723185221103,[0.20769759],5.0,0.6,0.0,-0.9988655451101804,0.11804224324230421,1.3235841131013486
2.608997106552124,0.24268520618694442,[0.20990918],5.0,0.6,0.0,-0.8170155251813069,0.12375902048410403,1.3061628494906294
2.6200239658355713,0.24678857923841455,[0.2121893],5.0,0.6,0.0,-0.9036376026290549,0.11473614513440368,1.2864751720761567
2.6287169456481934,0.24991495870620126,[0.2145701],5.0,0.6,0.0,-1.325444209164214,0.11117734133017332,1.2776101559706863
2.639540433883667,0.254213730474408,[0.21705882],5.0,0.6,0.0,-1.2070549289564392,0.05028941952484768,1.2576555822429563
2.6489996910095215,0.25773090737566806,[0.21967168],5.0,0.6,0.0,-1.1987702369882025,0.06431112044704321,1.2474187184569787
2.6600053310394287,0.26183428042713813,[0.2224388],5.0,0.6,0.0,-1.2131280710630774,0.01772809364755409,1.2320587796292095
2.6680748462677,0.26476526117818816,[0.22537673],5.0,0.6,0.0,-1.2174912731969671,0.08834202797018398,1.2321311003200923
2.6759979724884033,0.2673054444957649,[0.22848021],5.0,0.6,0.0,-1.2031973001619571,0.09249739417601367,1.2386463444043987
2.684126853942871,0.27023642524681496,[0.23173371],5.0,0.6,0.0,-1.1711732039973175,0.11647457114166491,1.242401665864364
2.693014621734619,0.273167405997865,[0.23511316],5.0,0.6,0.0,-1.1254705080082532,0.11229942497646848,1.247602105483336
2.702998161315918,0.27668458289912506,[0.23860305],5.0,0.6,0.0,-1.34657952869625,0.11188154580051515,1.2468852384090001
2.7113897800445557,0.2798109623669118,[0.24220333],5.0,0.6,0.0,-1.3193938942005041,0.12027711492793519,1.252325973792373
2.7201335430145264,0.2827419431179618,[0.24590292],5.0,0.6,0.0,-1.4776282842380082,0.12570770330628012,1.2606715225987843
2.72802472114563,0.2852821264355385,[0.24966953],5.0,0.6,0.0,-1.3717334889786437,0.04761381467597143,1.2745635178331174
2.7360098361968994,0.28782230975311524,[0.25344792],5.0,0.6,0.0,-1.1844483052851684,0.05331260153725792,1.288484928338225
2.7472598552703857,0.29153488537111205,[0.25719974],5.0,0.6,0.0,-0.9923262217541834,0.11388612424083812,1.2892216569807124
2.7570252418518066,0.2946612648388987,[0.26092403],5.0,0.6,0.0,-0.8232419376854858,0.10458747281787632,1.2959065446711546
2.7650856971740723,0.2972014481564754,[0.26461938],5.0,0.6,0.0,-0.6838229357643784,0.10170354679571215,1.3083593005443794
2.775012731552124,0.3005232263409988,[0.26827745],5.0,0.6,0.0,-0.5722398898307116,0.10512658084493604,1.311997400298825
2.7840752601623535,0.30345420709204884,[0.27190526],5.0,0.6,0.0,-0.4839539217743509,0.15086772594979184,1.3193204708912052
2.7930400371551514,0.30618978912636224,[0.27551864],5.0,0.6,0.0,-0.4141364996638982,0.1401863939549526,1.328367851671108
2.8010120391845703,0.3091207698774123,[0.27911309],5.0,0.6,0.0,-0.08252326187443743,0.11029932211068913,1.3351881100810266
2.810122013092041,0.3122471493451991,[0.28267825],5.0,0.6,0.0,-0.004666367152436818,0.14758165286906674,1.339571238298669
2.8187806606292725,0.31498273137951244,[0.28621541],5.0,0.6,0.0,-0.02325582848956574,0.12373084839612365,1.3474595109428928
2.8290414810180664,0.31791371213056246,[0.28972213],5.0,0.6,0.0,-0.06908994888177872,0.13780753486588895,1.3530328697511171
2.8380844593048096,0.3208446928816125,[0.29319905],5.0,0.6,0.0,0.1618790724500163,0.1512979903433826,1.3582334826881168
2.8472321033477783,0.3239710723493993,[0.29665563],5.0,0.6,0.0,0.4361520424945045,0.16260635625189596,1.361232217774841
2.855045795440674,0.326511255666976,[0.30009638],5.0,0.6,0.0,0.6670231952060991,0.14716739736916856,1.369419180890453
2.863065719604492,0.3292468377012893,[0.30352137],5.0,0.6,0.0,1.1080875250575386,0.1701617496062695,1.3751124364352518
2.8722243309020996,0.3321778184523394,[0.30694117],5.0,0.6,0.0,1.2436964252968572,0.18370637279328236,1.3792509756808042
2.8799855709075928,0.33452260305317943,[0.3103671],5.0,0.6,0.0,1.2402586290520385,0.1769990838998356,1.3887104582667715
2.887972354888916,0.3372581850874929,[0.31379501],5.0,0.6,0.0,1.1778178742772112,0.16839236611501512,1.3947092665333463
2.8967208862304688,0.34018916583854286,[0.31722396],5.0,0.6,0.0,1.3701464554502345,0.19485963306071574,1.3984968616083955
2.9050040245056152,0.34312014658959294,[0.32067354],5.0,0.6,0.0,1.5915265749102654,0.19876450697626863,1.4022589617791525
2.913367509841919,0.3458557286239063,[0.32417272],5.0,0.6,0.0,1.7611007481023837,0.18718286891068336,1.407951479244165
2.9213366508483887,0.3485913106582197,[0.32773874],5.0,0.6,0.0,1.58460274503379,0.2068858331281467,1.414842614370775
2.9291224479675293,0.35152229140926977,[0.33137814],5.0,0.6,0.0,1.587227248530621,0.18913366491638625,1.420176750149449
2.937440872192383,0.3544532721603198,[0.33510931],5.0,0.6,0.0,1.6279838164946396,0.15219192281027288,1.4259249907473015
2.9459640979766846,0.3573842529113699,[0.3389608],5.0,0.6,0.0,1.6537393555060271,0.12045612497240168,1.4323364971670351
2.9553234577178955,0.36109682852936664,[0.34295882],5.0,0.6,0.0,1.6499261385164847,0.13573317329623735,1.4342981065409361
2.9641366004943848,0.36441860671389,[0.34711397],5.0,0.6,0.0,1.8935555393391343,0.15764853396496764,1.4392060562951623
2.972011089324951,0.36734958746494006,[0.35142225],5.0,0.6,0.0,1.5957724911115274,0.13720963824308094,1.4486375334179211
2.9830050468444824,0.3712575617996735,[0.35590316],5.0,0.6,0.0,1.4371225032383212,0.19363677594278156,1.4524077603244567
2.9930758476257324,0.37516553613440684,[0.36058262],5.0,0.6,0.0,1.3361713884563846,0.15359443336994957,1.4570322434707499
3.001055955886841,0.3780965168854569,[0.36544212],5.0,0.6,0.0,1.256945965956802,0.1852449101202791,1.4673059621207674
3.0103235244750977,0.3814182950699803,[0.37046058],5.0,0.6,0.0,0.9086473353769062,0.19051643499398188,1.475657523334981
3.0190205574035645,0.3841538771042937,[0.37563887],5.0,0.6,0.0,0.8050184632595135,0.17844301633215562,1.4851213806271968
3.02799129486084,0.3876710540055538,[0.38095998],5.0,0.6,0.0,0.5141641578316039,0.1868782643171744,1.490836002667674
3.038069009780884,0.3915790283402871,[0.38640126],5.0,0.6,0.0,0.2121156110150382,0.20173817644825037,1.4946190031631879
3.046879291534424,0.3950962052415472,[0.39193944],5.0,0.6,0.0,0.2373447147128918,0.2811071952634363,1.4979670214757201
3.0560104846954346,0.39841798342607065,[0.39754075],5.0,0.6,0.0,0.36031555559733597,0.29182046703032927,1.4997494693764866
3.067183256149292,0.40291215391101404,[0.40318645],5.0,0.6,0.0,0.4870709894205189,0.26710592084023393,1.4998083831556488
3.077475070953369,0.4068201282457474,[0.40886918],5.0,0.6,0.0,0.5851166778706816,0.30486099381064796,1.4989058416271737
3.087423086166382,0.41092350129721755,[0.41456739],5.0,0.6,0.0,0.924306107049293,0.32613647539460355,1.496712366345149
3.0970568656921387,0.41483147563195094,[0.42024401],5.0,0.6,0.0,0.9895677962353695,0.3220596615517704,1.4934296168984706
3.1080682277679443,0.419521044833631,[0.42586081],5.0,0.6,0.0,1.2183885783222772,0.3255131267507954,1.4908898879328367
3.117770195007324,0.4236244178851011,[0.4313872],5.0,0.6,0.0,1.1657404171082146,0.3011224114450338,1.487009595930127
3.1266181468963623,0.42733699350309784,[0.43678904],5.0,0.6,0.0,0.7424351620979313,0.25257690146180867,1.4818802846079508
3.1360950469970703,0.4312449678378312,[0.44202602],5.0,0.6,0.0,0.5473354590707243,0.21005025801804447,1.476798952072538
3.1453323364257812,0.434957543455828,[0.44705975],5.0,0.6,0.0,0.45621886184843263,0.14591953087230553,1.4709772983070735
3.1531145572662354,0.43808392292361464,[0.45185548],5.0,0.6,0.0,0.1343839921466506,0.15338897322744494,1.4627658020032603
3.163118362426758,0.44218729597508477,[0.45638301],5.0,0.6,0.0,-0.20220614395592248,0.08051002524722392,1.4604672848831877
3.1729938983917236,0.44589987159308153,[0.46060993],5.0,0.6,0.0,-0.4771688762526752,-0.02474286219301814,1.457476488778402
3.1830527782440186,0.45000324464455155,[0.46450065],5.0,0.6,0.0,-0.3982802791937907,-0.08708990176579634,1.4587181852885833
3.191002368927002,0.4529342253956016,[0.46803014],5.0,0.6,0.0,-0.49169938385199263,-0.09231668083761524,1.4552657680343999
3.2000632286071777,0.456256003580125,[0.47118529],5.0,0.6,0.0,-0.8929899056503263,-0.13964661707746556,1.4558089418826792
3.2083780765533447,0.4591869843311751,[0.47395462],5.0,0.6,0.0,-1.5824923054371864,-0.1709535886540837,1.4554601725618703
3.2170820236206055,0.4617271676487517,[0.47632949],5.0,0.6,0.0,-2.2148035663114483,-0.1883981913823039,1.4546127392234895
3.2258450984954834,0.46446274968306517,[0.47830904],5.0,0.6,0.0,-2.9580208577727793,-0.19763218901010118,1.4559106851471268
3.2354228496551514,0.4670029330006419,[0.47990326],5.0,0.6,0.0,-4.112319074769504,-0.17252312239586376,1.4548326077731308
3.2451398372650146,0.4693477176014819,[0.48113151],5.0,0.6,0.0,-5.0,-0.1772066705053511,1.4543426103306607
3.2540273666381836,0.4709109073353753,[0.48201337],5.0,0.6,0.0,-5.0,-0.1837369399050264,1.457380513947348
3.2630341053009033,0.4726694957860053,[0.48257272],5.0,0.6,0.0,-5.0,-0.18746684797231852,1.4623084222600222
3.2709968090057373,0.474037286803162,[0.48284365],5.0,0.6,0.0,-5.0,-0.1576851099963556,1.466341321262572
3.281114101409912,0.47560047653705534,[0.48286266],5.0,0.6,0.0,-5.0,-0.11669111997161843,1.4712396427103656
3.2890539169311523,0.476382071404002,[0.48266678],5.0,0.6,0.0,-5.0,-0.07476249318539346,1.4738636764806663
3.29906964302063,0.47735906498768543,[0.48229604],5.0,0.6,0.0,-5.0,-0.02497476677672311,1.4768691831711094
3.307152032852173,0.4779452611378954,[0.48179281],5.0,0.6,0.0,-5.0,0.02547182092573653,1.4787757098514696
3.315028667449951,0.47853145728810537,[0.48119775],5.0,0.6,0.0,-5.0,0.041535756672911914,1.4803112467685717
3.3239519596099854,0.4791176534383154,[0.48054787],5.0,0.6,0.0,-5.0,0.08715043461266679,1.4813230391283874
3.332113742828369,0.4795084508717888,[0.47987769],5.0,0.6,0.0,-5.0,0.0912379940396364,1.4817047950357953
3.3399741649627686,0.47989924830526204,[0.47921898],5.0,0.6,0.0,-4.629632756723099,0.1348951706879838,1.484204221994554
3.349151849746704,0.48029004573873546,[0.47860522],5.0,0.6,0.0,-3.9307625476042376,0.17329872213728248,1.488062056575298
3.3595545291900635,0.4808762418889455,[0.47807651],5.0,0.6,0.0,-3.2117305726455596,0.2448737331381855,1.4908135435198147
3.3684818744659424,0.4818532354726288,[0.47766968],5.0,0.6,0.0,-1.7561667384208581,0.2176477737000788,1.4942151255417175
3.3779542446136475,0.4826348303395755,[0.47740752],5.0,0.6,0.0,-0.31892277315415507,0.24072896577382863,1.494474241309994
3.387047529220581,0.4834164252065221,[0.47731048],5.0,0.6,0.0,1.1192112738639717,0.2579793052212922,1.4916396151487836
3.3959157466888428,0.4843934187902056,[0.47739523],5.0,0.6,0.0,3.0990710020222676,0.23281004327246252,1.4831543567888616
3.405963897705078,0.48576120980736226,[0.47766959],5.0,0.6,0.0,4.5639658394546805,0.2535235479109891,1.4717227668527384
3.415239095687866,0.48712900082451893,[0.47814592],5.0,0.6,0.0,5.0,0.26594957171179817,1.4657224411151137
3.4249818325042725,0.4886921905584123,[0.47884013],5.0,0.6,0.0,5.0,0.27107835859936985,1.4625066634957802
3.43442440032959,0.49025538029230564,[0.47976424],5.0,0.6,0.0,5.0,0.2725928254509239,1.4599597671597877
3.443046808242798,0.4916231713094623,[0.48092591],5.0,0.6,0.0,5.0,0.27327628852164554,1.4591056686277137
3.453280210494995,0.49377255719356566,[0.48232156],5.0,0.6,0.0,5.0,0.25152287688930003,1.4558478809491489
3.4623219966888428,0.49572654436093233,[0.48394432],5.0,0.6,0.0,5.0,0.26813525628587903,1.4543497876041684
3.4701948165893555,0.4974851328115624,[0.48579758],5.0,0.6,0.0,5.0,0.26743109180220814,1.4547821053104313
3.479180097579956,0.4998299174124025,[0.48787341],5.0,0.6,0.0,5.0,0.24869344662008386,1.4535453074652875
3.4880261421203613,0.5021747020132425,[0.49014757],5.0,0.6,0.0,5.0,0.24945471107328376,1.4532161410424997
3.4986379146575928,0.5049102840475559,[0.49260122],5.0,0.6,0.0,5.0,0.2461096771448899,1.4518839886958745
3.508124828338623,0.5074504673651327,[0.49521999],5.0,0.6,0.0,5.0,0.24247380422975975,1.452258218666941
3.518930435180664,0.510772245549656,[0.49798733],5.0,0.6,0.0,5.0,0.23448565663927734,1.4495698061406195
3.5289783477783203,0.5138986250174427,[0.50088572],5.0,0.6,0.0,5.0,0.2281231562431455,1.4484319825536809
3.539552927017212,0.5170250044852295,[0.50389783],5.0,0.6,0.0,5.0,0.2236204246062696,1.447854653755022
3.547093629837036,0.5193697890860695,[0.50700755],5.0,0.6,0.0,5.0,0.22526909833269895,1.4516294747066092
3.555567502975464,0.5221053711203829,[0.51019539],5.0,0.6,0.0,4.443793957026846,0.19643735009783989,1.45754320533891
3.566014051437378,0.5256225480216429,[0.51344498],5.0,0.6,0.0,4.028917240045168,0.23392198812180598,1.4588384882022511
3.5751333236694336,0.5289443262061664,[0.51674797],5.0,0.6,0.0,3.413989775700053,0.20494430132830818,1.4620865869008761
3.583987236022949,0.5320707056739531,[0.52009212],5.0,0.6,0.0,2.5344759519423548,0.21652642177850911,1.466951655446906
3.592975616455078,0.5353924838584764,[0.52346801],5.0,0.6,0.0,1.9824975952232173,0.22540296333356497,1.4690448051890967
3.6034247875213623,0.5391050594764732,[0.52687446],5.0,0.6,0.0,1.6170715755243577,0.23122214252000658,1.4685828287224303
3.611353635787964,0.5420360402275233,[0.5303122],5.0,0.6,0.0,1.361741493182563,0.24031037936639077,1.4715062437235673
3.6190457344055176,0.5447716222618366,[0.53378418],5.0,0.6,0.0,0.6219574010391509,0.25010897043525715,1.4758565181671564
3.6270129680633545,0.54809340044636,[0.53728832],5.0,0.6,0.0,0.13531296611304833,0.23291699884319697,1.476906912533526
3.635035991668701,0.5510243811974102,[0.54081044],5.0,0.6,0.0,-0.1789818121464425,0.21871086827976816,1.4793273873877648
3.645472288131714,0.5555185516823535,[0.54434979],5.0,0.6,0.0,-0.09987785166554347,0.25411178895665254,1.47535294254284
3.6547188758850098,0.5590357285836136,[0.54792492],5.0,0.6,0.0,0.09206928441836601,0.2512585790725338,1.4756059800356678
3.6664676666259766,0.5639206965020302,[0.55155954],5.0,0.6,0.0,0.00673877609874933,0.1859483740635848,1.4699025528754586
3.6765637397766113,0.5678286708367637,[0.55528269],5.0,0.6,0.0,-0.15174320245120324,0.22573466628171834,1.4689928783175525
3.683994770050049,0.5707596515878138,[0.55911635],5.0,0.6,0.0,-0.5778858197401143,0.15103893666536186,1.473002430980602
3.692014455795288,0.5740814297723372,[0.56307626],5.0,0.6,0.0,-0.7262750759025185,0.19271031628048674,1.4756757595916616
3.7020323276519775,0.5779894041070706,[0.56720149],5.0,0.6,0.0,-1.0243568498791835,0.2493013591100499,1.476212498636651
3.7121307849884033,0.581897378441804,[0.57157155],5.0,0.6,0.0,-1.3017117953379405,0.28810770501925687,1.4776414712592838
3.7209880352020264,0.5852191566263274,[0.5762439],5.0,0.6,0.0,-1.5040747208326741,0.2596302562900045,1.4823368453579742
3.7301442623138428,0.5895179283945341,[0.58123762],5.0,0.6,0.0,-1.9018307230837155,0.31587229959941016,1.4836956463179958
3.7391068935394287,0.5928397065790576,[0.58659673],5.0,0.6,0.0,-1.9880693272668872,0.3741556666110574,1.489301806863695
3.7472469806671143,0.5965522821970541,[0.59238663],5.0,0.6,0.0,-2.2097955222289096,0.4280578336218648,1.4929136184820095
3.756011724472046,0.6000694590983143,[0.59866873],5.0,0.6,0.0,-2.4065031981120484,0.48112409149675456,1.4953151876281021
3.7654058933258057,0.6037820347163111,[0.60547094],5.0,0.6,0.0,-2.5289024140567777,0.438806852253107,1.494691573724106
3.7731051445007324,0.6069084141840977,[0.61279005],5.0,0.6,0.0,-2.5737716259032264,0.5141402805282016,1.488198258686882
3.782050371170044,0.6104255910853578,[0.62065022],5.0,0.6,0.0,-2.5542657666682453,0.5796580016370624,1.4744753125121557
3.7926487922668457,0.6149197615703013,[0.62909779],5.0,0.6,0.0,-2.4870860585996963,0.6336224772061491,1.4560107051619318
3.8000059127807617,0.6178507423213512,[0.63813869],5.0,0.6,0.0,-2.387474483036578,0.5916485547886565,1.4167518817817701
3.809915542602539,0.622149514089558,[0.64774332],5.0,0.6,0.0,-2.2676963517007014,0.6669871794392644,1.3733968067981814
3.818087577819824,0.6252758935573448,[0.65791151],5.0,0.6,0.0,-2.1369700781394676,0.7389324434265809,1.304754803371352
3.826849937438965,0.6285976717418682,[0.66863694],5.0,0.6,0.0,-2.0019128538206568,0.7016922230036576,1.2227183599579157
3.8359498977661133,0.6321148486431284,[0.67990786],5.0,0.6,0.0,-1.8670989817325654,0.8885503110458512,1.1306968543785338
3.8441162109375,0.6354366268276517,[0.69173766],5.0,0.6,0.0,-1.7355729169787768,0.8348592866717609,1.0282489676610898
3.8533546924591064,0.6393446011623851,[0.70406879],5.0,0.6,0.0,-1.6092686034860506,0.8069745825206126,0.9307181147235665
3.864945650100708,0.6440341703640652,[0.7168426],5.0,0.6,0.0,-1.4893322902212116,0.9899691861565795,0.8447334058181475
3.8739864826202393,0.6475513472653252,[0.73005994],5.0,0.6,0.0,-1.3763623850674376,0.9431403975252449,0.7548592517994048
3.8819198608398438,0.6508731254498485,[0.74368104],5.0,0.6,0.0,-1.2705835966837822,1.0135277247459726,0.6773898592849914
3.893803834915161,0.6559534920850019,[0.75768185],5.0,0.6,0.0,-1.1719713145328399,1.1431704089320558,0.6251982254909813
3.9039807319641113,0.6600568651364721,[0.77207625],5.0,0.6,0.0,-0.8043009655443927,1.1545126349694415,0.580813857674194
3.913038492202759,0.6633786433209955,[0.78680691],5.0,0.6,0.0,-0.6862380334342215,1.1008779496718144,0.5471551706899822
3.925034523010254,0.6682636112394121,[0.80177644],5.0,0.6,0.0,-0.6627457902585735,1.1893813821552592,0.5279662984078952
3.93357253074646,0.6717807881406723,[0.81691951],5.0,0.6,0.0,-0.6662158856401619,1.1907179775690746,0.5144708687803687
3.943955898284912,0.6760795599088789,[0.83215687],5.0,0.6,0.0,-0.6697139452869698,1.185771173697622,0.5073240756871271
3.9529967308044434,0.6797921355268758,[0.84736824],5.0,0.6,0.0,-0.6645198107508018,1.1522528723938184,0.5033092857339282
3.961007833480835,0.6829185149946625,[0.86242248],5.0,0.6,0.0,-0.6495394375206178,1.1665673099140903,0.5012755366642558
3.9691011905670166,0.6864356918959225,[0.87719698],5.0,0.6,0.0,-0.9024980527731342,1.1687570609001423,0.500084634405393
3.982109546661377,0.691516058531076,[0.89157924],5.0,0.6,0.0,-0.9068025491071154,1.2938581367226158,0.49972203182013303
3.9930009841918945,0.6956194315825459,[0.90546135],5.0,0.6,0.0,-0.8193409342566327,1.3158325152526902,0.49965024161635574
4.0019590854644775,0.6997228046340161,[0.91873637],5.0,0.6,0.0,-0.7091162472152814,1.2552080715267788,0.49969399935176706
4.013009786605835,0.7042169751189595,[0.93130243],5.0,0.6,0.0,-0.6039951464996539,1.1151789175499758,0.49976168895058426
4.0215699672698975,0.7079295507369562,[0.94306372],5.0,0.6,0.0,-0.5132424679589858,0.9804363320012413,0.4998197166862636
4.0313897132873535,0.7120329237884264,[0.95391882],5.0,0.6,0.0,-0.43820052066574067,0.8457847765446036,0.4998653601209211
4.039047718048096,0.7149639045394763,[0.96377843],5.0,0.6,0.0,-0.3772169925720134,0.8793186478597215,0.499898283000878
4.04736852645874,0.7182856827239998,[0.97258861],5.0,0.6,0.0,-0.327820541887395,0.9270341112578117,0.49992242297638273
4.055481672286987,0.7212166634750498,[0.98032028],5.0,0.6,0.0,-0.28760660925597176,0.9405806898102191,0.4999399036697917
4.063946485519409,0.7247338403763098,[0.98695764],5.0,0.6,0.0,-0.2545388153265927,1.0627764939273885,0.49995283789849065
4.072927474975586,0.7284464159943067,[0.99249696],5.0,0.6,0.0,-0.227000493121928,1.025380257283149,0.49996252203919533
4.081102609634399,0.7313773967453567,[0.99694598],5.0,0.6,0.0,-0.479789295792741,1.06925906418261,0.49982941841440326
4.089968204498291,0.7350899723633534,[1.00032264],5.0,0.6,0.0,-0.4930177289378073,1.0886817790402883,0.4998198694818879
4.098971843719482,0.7388025479813501,[1.0026547],5.0,0.6,0.0,-0.42067810805077366,1.0441548486547612,0.4998691782933895
4.107074737548828,0.7423197248826102,[1.00394817],5.0,0.6,0.0,-0.3294819644372709,0.958413300799569,0.4999203294785933
4.117159605026245,0.7464230979340803,[1.00420836],5.0,0.6,0.0,0.030450855459473042,0.9905459925980639,0.5000009999773384
4.127479791641235,0.7507218697022872,[1.00347644],5.0,0.6,0.0,0.13212587939492249,0.9189885716573551,0.4999898300608935
4.136005401611328,0.7540436478868106,[1.0018091],5.0,0.6,0.0,0.1297381279302408,0.9531537427363117,0.49999212553755096
4.146279573440552,0.7583424196550171,[0.99927827],5.0,0.6,0.0,0.09273897802988004,0.8991647353091112,0.5000026725448795
4.154783487319946,0.7618595965562772,[0.99596837],5.0,0.6,0.0,0.05051192857796727,0.923360597853027,0.5000154599794293
4.165419340133667,0.7663537670412206,[0.9919802],5.0,0.6,0.0,0.014018491723409236,0.8648448386643757,0.5000377196852301
4.174030303955078,0.7696755452257441,[0.98742154],5.0,0.6,0.0,-0.28990155045190175,0.7549670266640967,0.5000136031567484
4.182754755020142,0.7735835195604776,[0.98239902],5.0,0.6,0.0,-0.34267097324296364,0.6772005343569837,0.5000757570077311
4.190975666046143,0.7765145003115275,[0.9770272],5.0,0.6,0.0,-0.3004316545831499,0.6623276279793403,0.5002547801520654
4.202415466308594,0.7812040695132076,[0.97141606],5.0,0.6,0.0,-0.23201981186654108,0.6499291773144306,0.5006800280320519
4.210904598236084,0.7843304489809945,[0.96566647],5.0,0.6,0.0,-0.44143278845592127,0.6775412844063077,0.5012476095664826
4.2199387550354,0.788043024598991,[0.95987776],5.0,0.6,0.0,-0.41918133816982006,0.7323680582877822,0.5025938128164972
4.228612422943115,0.7917556002169878,[0.95415078],5.0,0.6,0.0,-0.32153154192612876,0.8092661876308944,0.5050438787811382
4.2389607429504395,0.7958589732684579,[0.94858652],5.0,0.6,0.0,-0.214298561067301,0.8899613155567063,0.5093837390008269
4.247784852981567,0.7995715488864547,[0.9432849],5.0,0.6,0.0,-0.12178247839275583,0.9543091415090184,0.516060496313268
4.25935173034668,0.804065719371398,[0.93835507],5.0,0.6,0.0,-0.05012190290102674,0.9691850724434535,0.5271386864338354
4.270572900772095,0.8085598898563414,[0.93391316],5.0,0.6,0.0,0.0018091527692959929,0.8614573137397006,0.5431665960769007
4.282074689865112,0.8134448577747583,[0.93007124],5.0,0.6,0.0,0.03749869264650304,0.8654646559476442,0.5658511425744877
4.289932489395142,0.8169620346760184,[0.92690152],5.0,0.6,0.0,0.06072746754982629,0.8324047842958547,0.5891559035336096
4.2999536991119385,0.8210654077274883,[0.92441795],5.0,0.6,0.0,0.07480167928941607,0.818016558785289,0.6180809408298715
4.309908866882324,0.8249733820622217,[0.92264495],5.0,0.6,0.0,0.08235640130822208,0.80742123314285,0.6483796580067835
4.319921493530273,0.828881356396955,[0.92162989],5.0,0.6,0.0,0.08538817363776041,0.7981871009626965,0.6789787176467412
4.329513072967529,0.8327893307316886,[0.92140656],5.0,0.6,0.0,0.08536286134099597,0.7895822575363992,0.7079143946918824
4.338994026184082,0.8365019063496852,[0.92199489],5.0,0.6,0.0,0.08333362279491849,0.7822612033286185,0.7318111174853654
4.350004434585571,0.8409960768346287,[0.92340112],5.0,0.6,0.0,0.08004467184675138,0.7713546753649031,0.7571394707193639
4.360757112503052,0.8452948486028355,[0.9256351],5.0,0.6,0.0,0.07601445812304877,0.8169881790247637,0.7750157891453209
4.371457815170288,0.8497890190877789,[0.92870838],5.0,0.6,0.0,0.07159912489575401,0.7912055879586464,0.7877490526146007
4.379207134246826,0.8527199998388288,[0.93259992],5.0,0.6,0.0,0.06703950700267619,0.780312340913006,0.7791035513186687
4.39000391960144,0.857409569040509,[0.93726182],5.0,0.6,0.0,0.06249528276287552,0.7672348563762171,0.7793508234993617
4.399218797683716,0.8611221446585058,[0.94264105],5.0,0.6,0.0,0.05806947449179781,0.7640126536111651,0.7647217748822919
4.408018589019775,0.8648347202765025,[0.94866569],5.0,0.6,0.0,0.05382586604030864,0.7155455460255801,0.7452357959745969
4.418944358825684,0.8693288907614459,[0.95526367],5.0,0.6,0.0,0.32583966082262605,0.7802335577078101,0.7282523201140335
4.426984548568726,0.8726506689459693,[0.96237957],5.0,0.6,0.0,0.3551772828291076,0.7391866446490265,0.6997427234915734
4.439585447311401,0.8777310355811228,[0.96995721],5.0,0.6,0.0,0.2965369016265992,0.8011924848184782,0.6824111523452436
4.447909355163574,0.8812482124823828,[0.97794041],5.0,0.6,0.0,0.21715083299974333,0.764117103947451,0.6541076604900431
4.459248304367065,0.8855469842505895,[0.98627315],5.0,0.6,0.0,0.14356219606531673,0.8283730736547734,0.6314316026814937
4.467908620834351,0.8890641611518495,[0.99490014],5.0,0.6,0.0,0.08409942680063957,0.7962071036216632,0.6064265445066725
4.481905221939087,0.8945353252204764,[1.0037676],5.0,0.6,0.0,-0.23656443971426375,0.8536710691167801,0.5919242048234975
4.490618705749512,0.8976617046882631,[1.01283589],5.0,0.6,0.0,-0.30153179195075397,0.8680826148313355,0.5703705963141056
4.49821400642395,0.9009834828727865,[1.022066],5.0,0.6,0.0,0.007835671517290255,0.8838856353089107,0.5532798929746356
4.505915880203247,0.9045006597740466,[1.0313958],5.0,0.6,0.0,0.10282673984656873,0.8634806379686685,0.5399281920888571
4.5164501667022705,0.90899483025899,[1.04075697],5.0,0.6,0.0,0.1095063850803463,0.8873440889256426,0.531038095338457
4.526968002319336,0.9132936020271968,[1.05009869],5.0,0.6,0.0,0.08516654286201739,0.9076601743391195,0.5236745488706409
4.538468599319458,0.9179831712288767,[1.05939261],5.0,0.6,0.0,0.05444099719128836,0.9498741364144835,0.5183257813162967
4.54747748374939,0.9216957468468735,[1.06861608],5.0,0.6,0.0,0.026843816719996284,0.9530044736984539,0.5133377441803783
4.558239459991455,0.9257991198983436,[1.07773259],5.0,0.6,0.0,0.005175308331761852,1.0021570403600806,0.5098847946392385
4.566935777664185,0.9295116955163404,[1.08668928],5.0,0.6,0.0,-0.010529254751838066,1.090550929322781,0.5071476612462736
4.57839298248291,0.9342012647180205,[1.09543503],5.0,0.6,0.0,-0.02120320940452956,1.1116868466280638,0.5055202832646806
4.5863683223724365,0.9375230429025437,[1.10392847],5.0,0.6,0.0,-0.02797481824555282,1.1231833178130697,0.5039332023606558
4.595162868499756,0.9408448210870671,[1.11212768],5.0,0.6,0.0,-0.03186756823643453,1.1244419370954124,0.5028290040114984
4.605019807815552,0.9447527954218007,[1.11999167],5.0,0.6,0.0,-0.03371129236054923,1.0951648562629328,0.5021503474623525
4.6129536628723145,0.9478791748895873,[1.127487],5.0,0.6,0.0,-0.034140387063639914,1.0902571876750113,0.5015768213567566
4.623996734619141,0.9523733453745308,[1.13458946],5.0,0.6,0.0,-0.03362275845472335,1.077138490028536,0.5013054767915102
4.6342949867248535,0.9564767184260008,[1.14128401],5.0,0.6,0.0,-0.0324951612737045,1.068634004665586,0.5010792652812356
4.644941329956055,0.9607754901942076,[1.14756224],5.0,0.6,0.0,-0.03099545574152121,1.0642822371554013,0.5009315829492068
4.653953552246094,0.9644880658122044,[1.15342283],5.0,0.6,0.0,-0.029288929902442896,1.0679838952318876,0.5007926932028833
4.66290545463562,0.9682006414302011,[1.1588712],5.0,0.6,0.0,-0.027488580675216555,1.0754489152405655,0.5006948171460543
4.673999071121216,0.9730856093486179,[1.1639212],5.0,0.6,0.0,-0.02567022370197706,1.103321190266742,0.5006861877623362
4.681962966918945,0.9760165900996679,[1.16859091],5.0,0.6,0.0,-0.023883513375109668,1.083705383017067,0.5006005406024012
4.692603349685669,0.9805107605846113,[1.1728962],5.0,0.6,0.0,-0.022159866069914307,1.0875492413160879,0.500609402594796
4.702307939529419,0.9840279374858714,[1.1768553],5.0,0.6,0.0,-0.020518099652905436,1.091507500910476,0.5005890435469328
4.711090564727783,0.9877405131038681,[1.18048769],5.0,0.6,0.0,-0.018968417305202833,1.0663017242879593,0.500592744802986
4.71996545791626,0.9912576900051281,[1.18381067],5.0,0.6,0.0,-0.017515204666304532,1.0673861027984652,0.5006017254301719
4.7294299602508545,0.9949702656231248,[1.18684347],5.0,0.6,0.0,-0.016158983219006242,1.0582989357011727,0.5006340567225727
4.738321781158447,0.9986828412411217,[1.18960568],5.0,0.6,0.0,-0.014897767211745107,1.0393528500622269,0.5006819539908761
4.747447967529297,1.0023954168591185,[1.19211344],5.0,0.6,0.0,-0.013728000791014619,1.0100856073058608,0.5007475021992441
4.756961822509766,1.0063033911938517,[1.19437884],5.0,0.6,0.0,0.26339315893108944,0.9696926156441241,0.5007947960138021
4.765584707260132,1.0100159668118485,[1.19640966],5.0,0.6,0.0,0.2975185693631866,0.9216932270494792,0.5008941653963848
4.775910377502441,1.0141193398633186,[1.19820958],5.0,0.6,0.0,0.24334529770940144,0.8658709163356294,0.5010946490388335
4.785879135131836,1.0182227129147887,[1.19977898],5.0,0.6,0.0,0.16811262846575187,0.8086231584801618,0.5013495222187092
4.793984651565552,1.0217398898160488,[1.20112149],5.0,0.6,0.0,0.09837568881281034,0.7972754352481793,0.5015963194769129
4.802734851837158,1.0252570667173089,[1.20224526],5.0,0.6,0.0,0.042477884356352025,0.7457034191177484,0.5019004385701678
4.811967611312866,1.0289696423353054,[1.20315633],5.0,0.6,0.0,0.0011471296676422126,0.7289267903637526,0.5023153358488303
4.820967435836792,1.0324868192365655,[1.20385906],5.0,0.6,0.0,-0.0276539571610228,0.6818051265607984,0.5028119093997904
4.82903790473938,1.0356131987043522,[1.20435597],5.0,0.6,0.0,-0.04661643695533812,0.6445126284312918,0.5033617103160649
4.837018251419067,1.038739578172139,[1.20465145],5.0,0.6,0.0,-0.05824861688018226,0.6430541275224664,0.5040624402686029
4.848078012466431,1.0430383499403457,[1.20475192],5.0,0.6,0.0,-0.064611342658834,0.5760947393195884,0.5053490497682576
4.8603808879852295,1.0479233178587624,[1.20465743],5.0,0.6,0.0,-0.067293050192552,0.5272013633496417,0.5073461772390134
4.870675802230835,1.0520266909102327,[1.20436942],5.0,0.6,0.0,-0.0674724288177176,0.5164402020933108,0.509638274103939
4.879356861114502,1.055934665244966,[1.2038992],5.0,0.6,0.0,-0.06600230644970854,0.5067158635172923,0.5125384013717891
4.8879475593566895,1.059451842146226,[1.20326511],5.0,0.6,0.0,-0.06348834033438593,0.5170046634560794,0.5159764611478013
4.898213863372803,1.0633598164809595,[1.20248612],5.0,0.6,0.0,0.21568430966836274,0.47946879537869946,0.5207981953211914
4.906996965408325,1.0668769933822195,[1.20157885],5.0,0.6,0.0,-0.02376667869106612,0.4855314166187576,0.5265444660779376
4.916722774505615,1.0707849677169528,[1.20056118],5.0,0.6,0.0,-0.108395230991912,0.46172438809384614,0.5344368938408267
4.925198793411255,1.074302144618213,[1.19944936],5.0,0.6,0.0,0.1502475685059791,0.43639633736412214,0.5435977219209746
4.934995412826538,1.078405517669683,[1.1982556],5.0,0.6,0.0,0.19244028087757947,0.40554386580926893,0.556512352220648
4.944897174835205,1.0827042894378898,[1.19699023],5.0,0.6,0.0,0.15461016647340917,0.3725876005840662,0.5733510946401744
4.954731702804565,1.0866122637726232,[1.19565997],5.0,0.6,0.0,-0.17969325809212094,0.3218825173852688,0.5926858254561354
4.962932348251343,1.0899340419571466,[1.19427145],5.0,0.6,0.0,-0.267748759086343,0.32646007135306154,0.613298443099338
4.971502304077148,1.09325582014167,[1.19283858],5.0,0.6,0.0,-0.25656889839266556,0.3254049314463736,0.6375591605134202
4.979931116104126,1.0965775983261934,[1.19137901],5.0,0.6,0.0,0.06355776169215185,0.31977241627654296,0.6657159961584729
4.990967273712158,1.1010717688111367,[1.18990659],5.0,0.6,0.0,-0.1304981867329842,0.282173408814306,0.7063077104020892
5.000239133834839,1.1047843444291336,[1.18843185],5.0,0.6,0.0,-0.1756459669779673,0.27690629400433703,0.7467267179748789
5.009099006652832,1.1088877174806036,[1.1869678],5.0,0.6,0.0,-0.16215948721877865,0.2746987718842037,0.7954173585199342
5.018858194351196,1.112795691815337,[1.18553039],5.0,0.6,0.0,-0.13040929304571064,0.2719829040741541,0.84711336137754
5.02895712852478,1.1165082674333338,[1.18413586],5.0,0.6,0.0,-0.09724580820780113,0.27505314727571123,0.9006304389579747
5.038276672363281,1.1204162417680672,[1.18280124],5.0,0.6,0.0,-0.06876135619657514,0.28261009657822767,0.9591468088489202
5.0458903312683105,1.1233472225191172,[1.18154292],5.0,0.6,0.0,-0.0463704623631854,0.2771527995151585,1.0079608527646189
5.055967330932617,1.1276459942873238,[1.18037954],5.0,0.6,0.0,-0.02963951854312801,0.3263414671982241,1.073402996584072
5.066898584365845,1.1319447660555308,[1.17933624],5.0,0.6,0.0,-0.017554283730643692,0.3434615610660818,1.1381443784263852
5.078883409500122,1.1370251326906842,[1.17844247],5.0,0.6,0.0,-0.009050510428155564,0.39150500211310385,1.2095819767251696
5.090397357940674,1.1415193031756277,[1.17773186],5.0,0.6,0.0,-0.0032070785343010265,0.41862112331124696,1.269303382045246
5.100538730621338,1.145427277510361,[1.17723334],5.0,0.6,0.0,0.0007079563085893841,0.3998091293659665,1.3168293347304085
5.108940362930298,1.1487490556948845,[1.17695655],5.0,0.6,0.0,0.0032496952052437373,0.3502398913439319,1.3528833208737847
5.119841814041138,1.1532432261798278,[1.17690278],5.0,0.6,0.0,0.004827306074309557,0.3724126777436817,1.3940845992628277
5.132427215576172,1.1583235928149813,[1.17708445],5.0,0.6,0.0,0.005736793980540937,0.3738420180210479,1.4320265670369516
5.141929388046265,1.1624269658664512,[1.17750943],5.0,0.6,0.0,0.00618950206281248,0.32098657375670686,1.455523268476278
5.150891304016113,1.1661395414844482,[1.17816771],5.0,0.6,0.0,0.006334838481360303,0.30948021248233365,1.4714792326786357
5.159951210021973,1.1698521171024447,[1.17904862],5.0,0.6,0.0,0.00627756924284871,0.30064021258944906,1.4832271010398486
5.169011831283569,1.1735646927204413,[1.18014111],5.0,0.6,0.0,-0.26994774837154606,0.25866101798093755,1.4913332163905377
5.177861452102661,1.1770818696217016,[1.18142938],5.0,0.6,0.0,-0.30333863455705523,0.26550931249146875,1.4961584754780537
5.186974287033081,1.1805990465229617,[1.18290404],5.0,0.6,0.0,-0.24855250183245864,0.2688072774552481,1.498891976201751
5.19601583480835,1.1843116221409582,[1.18456608],5.0,0.6,0.0,-0.17280010421457498,0.2920104070944179,1.4999648232521254
5.204450845718384,1.1876334003254816,[1.18641365],5.0,0.6,0.0,-0.10261592359781599,0.2538403533812015,1.4996946485442266
5.216169595718384,1.1927137669606351,[1.18843049],5.0,0.6,0.0,-0.04632831208953618,0.23881655626027185,1.4963358303771823
5.228406190872192,1.1974033361623153,[1.1906014],5.0,0.6,0.0,-0.004654102275608772,0.24171286128045225,1.4907894080115
5.236873388290405,1.2007251143468387,[1.19291267],5.0,0.6,0.0,0.02445234155539488,0.1936764147972176,1.4878669028026672
5.247235536575317,1.2046330886815722,[1.19534083],5.0,0.6,0.0,-0.2323500473652449,0.18772410849383708,1.4828388517295474
5.254897594451904,1.2077594681493586,[1.19785949],5.0,0.6,0.0,-0.25359606629002607,0.1355674127135768,1.4805410818000224
5.264621257781982,1.2114720437673556,[1.20043926],5.0,0.6,0.0,-0.19191303768498538,0.10516604619212508,1.4759220638133406
5.274219512939453,1.215966214252299,[1.20305067],5.0,0.6,0.0,-0.11294367475806663,0.07065418621753719,1.4671786457765457
5.284967660903931,1.2204603847372424,[1.20566816],5.0,0.6,0.0,-0.04205696703847093,0.03904327671013011,1.4571804672874824
5.294952630996704,1.2243683590719758,[1.2082687],5.0,0.6,0.0,0.013263334842062022,0.018053034027692413,1.4494808416697809
5.3069422245025635,1.2290579282736558,[1.2108354],5.0,0.6,0.0,-0.22313712301167246,0.022444869745489923,1.435708081524071
5.3159449100494385,1.2325751051749159,[1.21335616],5.0,0.6,0.0,-0.22983957335280514,-0.005564055152964817,1.4287497725439806
5.325937509536743,1.2360922820761762,[1.21581986],5.0,0.6,0.0,-0.43458608450850084,0.00016174622630904886,1.4209524567799368
5.3359901905059814,1.239609458977436,[1.2182206],5.0,0.6,0.0,-0.9350242727914344,0.010308572641015706,1.4119139624314574
5.3458757400512695,1.2429312371619592,[1.22055913],5.0,0.6,0.0,-1.4243716340621249,0.024041974350258954,1.4032369020834836
5.354383230209351,1.245471420479536,[1.22283994],5.0,0.6,0.0,-2.0761176504634413,0.043207238773658084,1.399436925853565
5.363255262374878,1.2482070025138494,[1.22507065],5.0,0.6,0.0,-2.6314108788949255,0.06173614964375104,1.3933454212144671
5.371960401535034,1.250747185831426,[1.22725697],5.0,0.6,0.0,-3.2946020253301658,0.04189918439596076,1.3874983752711678
5.383742094039917,1.253873565299213,[1.22940717],5.0,0.6,0.0,-4.103033118914528,0.10531736434524255,1.3747918421432557
5.392460823059082,1.2564137486167894,[1.23153507],5.0,0.6,0.0,-4.4793548105943035,0.07973344787590532,1.3688503995675214
5.401676416397095,1.2587585332176296,[1.23364986],5.0,0.6,0.0,-4.591283895714421,0.10365605670423357,1.3660881135617
5.409940242767334,1.2612987165352065,[1.23575641],5.0,0.6,0.0,-4.541716628601058,0.08134670041092776,1.3625509077618356
5.422854900360107,1.2648158934364664,[1.23786568],5.0,0.6,0.0,-4.119026357598103,0.13967255550859992,1.3523234149427594
5.431013107299805,1.2671606780373064,[1.23999363],5.0,0.6,0.0,-3.3310349548633704,0.11338126205684632,1.3545758967833248
5.44109582901001,1.26989626007162,[1.24214909],5.0,0.6,0.0,-2.2591241750936266,0.12962040658056787,1.3535034955245344
5.4522178173065186,1.2728272408226697,[1.24434653],5.0,0.6,0.0,-1.2723449139737426,0.163829217575749,1.3490418559531054
5.461966514587402,1.2755628228569833,[1.24661032],5.0,0.6,0.0,-0.20915956282544979,0.16226646520155483,1.3456175904890149
5.4716410636901855,1.2784938036080336,[1.2489551],5.0,0.6,0.0,0.6791332473476912,0.1598760884576178,1.3395277352052037
5.4832494258880615,1.28220637922603,[1.25139283],5.0,0.6,0.0,1.33418542642573,0.16238094972736256,1.3257227286959605
5.492476940155029,1.2849419612603434,[1.25393866],5.0,0.6,0.0,1.7736639831492527,0.1607999142586503,1.3227717293334926
5.499907970428467,1.28689594842771,[1.25659167],5.0,0.6,0.0,2.3149812995779944,0.1462288995137083,1.3282370128586762
5.511203050613403,1.2902177266122334,[1.25933725],5.0,0.6,0.0,2.4824222712367807,0.14621349922558832,1.3217969602946895
5.519935369491577,1.2927579099298105,[1.26216749],5.0,0.6,0.0,2.7439105676883164,0.14889871820708447,1.3237420225916388
5.529183626174927,1.2956888906808604,[1.26508003],5.0,0.6,0.0,2.953072399585065,0.14889459707241,1.3226784884484981
5.537941932678223,1.2984244727151737,[1.26806533],5.0,0.6,0.0,3.070207493039719,0.12311442431614843,1.3246889039803067
5.547210454940796,1.3011600547494875,[1.27111348],5.0,0.6,0.0,3.0986118190432244,0.15462588759624185,1.327706661119961
5.556061267852783,1.3038956367838006,[1.27422016],5.0,0.6,0.0,3.05586467415821,0.12893927149276685,1.331608330308677
5.5678935050964355,1.3076082124017971,[1.27737462],5.0,0.6,0.0,2.9616583370853933,0.12951011249903638,1.3264360010637066
5.577853202819824,1.3105391931528474,[1.28056594],5.0,0.6,0.0,2.8332414441269402,0.13152630732055468,1.3295982787886844
5.5868916511535645,1.313665572620634,[1.28378373],5.0,0.6,0.0,2.6842090645058345,0.10051415719344545,1.3311182956674465
5.5951855182647705,1.3162057559382108,[1.28701271],5.0,0.6,0.0,2.524644141533294,0.11130079907091171,1.338565763308483
5.603914976119995,1.3189413379725243,[1.29023909],5.0,0.6,0.0,2.085670985589306,0.08355535984745553,1.3448663062791348
5.623913288116455,1.3249986981913608,[1.29345503],5.0,0.6,0.0,1.89114358610947,0.11103965132289138,1.3168941915280419
5.638223648071289,1.3292974699595674,[1.29666216],5.0,0.6,0.0,1.5135558434003098,0.10119465034773008,1.3064435128013139
5.64774751663208,1.3324238494273544,[1.2998606],5.0,0.6,0.0,1.1306016711651905,0.09586311109690923,1.3079549451439099
5.6578590869903564,1.335550228895141,[1.3030444],5.0,0.6,0.0,0.805113581293446,0.08976449856822456,1.3090280574094872
5.667440891265869,1.3384812096461913,[1.30620739],5.0,0.6,0.0,0.5503109440428149,0.08390564912800393,1.3117219170975278
5.677531003952026,1.3414121903972414,[1.30934324],5.0,0.6,0.0,0.08403943260660218,0.07752228829564434,1.3140853754953987
5.685842514038086,1.3437569749980813,[1.31244203],5.0,0.6,0.0,-0.08670358265709527,0.044773881860447465,1.3219037633604047
5.694429874420166,1.3464925570323945,[1.31549117],5.0,0.6,0.0,-0.4048431659399332,0.04757711225459384,1.3250056791389375
5.701841592788696,1.348641942916498,[1.31847992],5.0,0.6,0.0,-0.42910144563121955,0.020776499138404556,1.3335064078063499
5.711345672607422,1.3513775249508115,[1.32140244],5.0,0.6,0.0,-0.6250100147557986,0.055643795039489075,1.335229128732968
5.719845533370972,1.3537223095516515,[1.32425702],5.0,0.6,0.0,-0.8314672287671935,0.02424538282352336,1.3400845840962834
5.729061841964722,1.3564578915859649,[1.32703908],5.0,0.6,0.0,-0.9921166290247283,0.025611393372834305,1.3403269570245173
5.737119436264038,1.3586072774700682,[1.32974448],5.0,0.6,0.0,-1.095587127656327,0.0269821082598136,1.345635096735088
5.744861364364624,1.3605612646374348,[1.33237011],5.0,0.6,0.0,-1.1478395796924925,0.0013872579307526772,1.3520607405242717
5.753864049911499,1.3629060492382747,[1.33491076],5.0,0.6,0.0,-1.4359361395603658,0.006446025293390073,1.353387601351395
5.762528657913208,1.3650554351223783,[1.33736501],5.0,0.6,0.0,-1.4519665624218399,0.008637685533459307,1.356260870463542
5.771816253662109,1.3672048210064816,[1.33973221],5.0,0.6,0.0,-1.6359606697530893,-0.015400137322838226,1.357903345669972
5.782897472381592,1.3695496056073215,[1.342012],5.0,0.6,0.0,-2.0954870347323933,0.01152881897494895,1.356018922892971
5.791899919509888,1.3713081940579517,[1.34420687],5.0,0.6,0.0,-2.5312789329115,-0.0133760039324738,1.3586365185103437
5.801061153411865,1.3730667825085818,[1.34631919],5.0,0.6,0.0,-3.1222908846106145,0.010190277600714068,1.3594743803136748
5.810213088989258,1.3744345735257386,[1.34835117],5.0,0.6,0.0,-3.6135239321050654,-0.013362369303744414,1.363156411538685
5.818968057632446,1.3756069658261585,[1.35030308],5.0,0.6,0.0,-3.935931606236392,-0.009657201173977146,1.368402949488368
5.826950550079346,1.376583959409842,[1.35217359],5.0,0.6,0.0,-4.647565592142377,-0.025069576998202565,1.3718308938190091
5.836857795715332,1.3775609529935253,[1.35396226],5.0,0.6,0.0,-5.0,-0.016673844063621976,1.3763311276885994
5.845848560333252,1.3785379465772085,[1.35567106],5.0,0.6,0.0,-4.862138817614277,-0.01114864798026056,1.3834118536911177
5.854833364486694,1.3791241427274186,[1.35730392],5.0,0.6,0.0,-4.7990117886522,-0.005820278763995785,1.3923155329503922
5.865529775619507,1.3801011363111018,[1.35886606],5.0,0.6,0.0,-4.990393510810172,0.012080859498574546,1.395562425491221
5.872880220413208,1.380687332461312,[1.36036222],5.0,0.6,0.0,-4.615403082131701,-0.005361765159532414,1.4050906702054347
5.881829738616943,1.3810781298947854,[1.36179363],5.0,0.6,0.0,-4.073904165347249,-0.001171594965251146,1.416117194629911
5.890164375305176,1.3814689273282585,[1.3631617],5.0,0.6,0.0,-3.532787459597512,0.0022103242156852566,1.4259614845640722
5.899098873138428,1.3816643260449955,[1.36446939],5.0,0.6,0.0,-3.052212550378293,0.005839459794402481,1.43569429961111
5.909734725952148,1.3820551234784686,[1.36571957],5.0,0.6,0.0,-2.9218531414676487,0.008165748273978465,1.441714225338011
5.918704986572266,1.3820551234784686,[1.36691492],5.0,0.6,0.0,-2.89396917365178,0.012128526029450672,1.4489941926899355
5.9301252365112305,1.3822505221952053,[1.36805802],5.0,0.6,0.0,-2.3175759023122753,0.014648412175411263,1.4565329171580443
5.9390788078308105,1.3822505221952053,[1.36915132],5.0,0.6,0.0,-1.922304805643588,0.017880205640697425,1.4635211809667261
5.948858261108398,1.3822505221952053,[1.37019716],5.0,0.6,0.0,-1.3613505402395671,0.020824676136614824,1.4699837093682466
5.957876205444336,1.3824459209119417,[1.37119776],5.0,0.6,0.0,-0.8372913984466477,0.022563805083580565,1.4744916433303934
5.967339277267456,1.3824459209119417,[1.37215618],5.0,0.6,0.0,0.13744049274158687,0.03496273830797358,1.479032814541355
5.974793195724487,1.3826413196286786,[1.37307524],5.0,0.6,0.0,1.0704406639964223,0.022995472548150483,1.4810122611905263
5.9848761558532715,1.3828367183454155,[1.37395565],5.0,0.6,0.0,1.799887900926313,0.024632209033716046,1.4819433412630414
5.993907928466797,1.383032117062152,[1.37479819],5.0,0.6,0.0,2.303597463175828,0.02604725007619595,1.4825973602098683
6.003803253173828,1.383032117062152,[1.37560468],5.0,0.6,0.0,2.8873098674713855,0.027989224195805126,1.4828599075674775
6.014023303985596,1.383032117062152,[1.37637687],5.0,0.6,0.0,3.6272684713586343,0.02947778377869212,1.4814818372330827
6.023196220397949,1.383032117062152,[1.37711642],5.0,0.6,0.0,3.9573806354408543,0.030857934694832223,1.4815022445218373
6.032247304916382,1.3832275157788887,[1.3778249],5.0,0.6,0.0,4.045312367104964,0.031182004617540258,1.4821447709997067
6.040969371795654,1.3834229144956252,[1.37850312],5.0,0.6,0.0,3.9900112221089854,0.0237705287777173,1.4834591722711377
6.049860715866089,1.3836183132123618,[1.37915126],5.0,0.6,0.0,3.851216173712385,0.026396476599253326,1.485097195975202
6.061518907546997,1.3838137119290987,[1.37977103],5.0,0.6,0.0,3.941730913210273,0.035174522155671864,1.4853034921138146
6.070367813110352,1.3842045093625719,[1.3803654],5.0,0.6,0.0,3.7655464732683774,0.033055689031936626,1.4866121054528894
6.079041242599487,1.3842045093625719,[1.3809363],5.0,0.6,0.0,3.49177338345662,0.0331541268379078,1.4888718297645047
6.087237119674683,1.3845953067960453,[1.38148481],5.0,0.6,0.0,3.4727307145281965,0.031351808087073815,1.4891695859884735
6.0981504917144775,1.384790705512782,[1.38201196],5.0,0.6,0.0,3.2216182199675885,0.030736473519146504,1.4907902933091468
6.107342004776001,1.384790705512782,[1.38251871],5.0,0.6,0.0,2.904831196880326,0.031246551500850275,1.4927261471782036
6.116229295730591,1.3851815029462553,[1.38300597],5.0,0.6,0.0,2.8682668953101818,0.029679419428139793,1.4929670631469156
6.124830722808838,1.385376901662992,[1.3834741],5.0,0.6,0.0,2.6184239649444665,0.023786803591769518,1.4941983739099882
6.134964942932129,1.3857676990964651,[1.38392302],5.0,0.6,0.0,2.591992744975408,0.024043603441453787,1.4943433917910531
6.144801378250122,1.386158496529939,[1.3843533],5.0,0.6,0.0,2.335379754929809,0.02388219677398612,1.4953049419655284
6.154841423034668,1.3863538952466754,[1.38476646],5.0,0.6,0.0,2.0253801459690703,0.029157828112249883,1.4964517872035372
6.162923097610474,1.386549293963412,[1.38516387],5.0,0.6,0.0,1.7327854096685726,0.023100241517393823,1.497386084193368
6.1725335121154785,1.3869400913968852,[1.38554586],5.0,0.6,0.0,1.7566329770244162,0.02236008313192819,1.4973195288174033
6.182022333145142,1.3871354901136221,[1.3859128],5.0,0.6,0.0,1.5807259729570247,0.022425139931913845,1.4978444770964339
6.192819118499756,1.3875262875470953,[1.38626549],5.0,0.6,0.0,1.3549516159886714,0.02137313881309191,1.4983173539025711
6.2018866539001465,1.3879170849805686,[1.38660467],5.0,0.6,0.0,1.1397576798183304,0.020202307528788856,1.4986894971286946
6.209829330444336,1.3881124836973056,[1.38693068],5.0,0.6,0.0,0.9551803948594937,0.01595819596509651,1.4990420007653338
6.222967624664307,1.3886986798475154,[1.38724385],5.0,0.6,0.0,1.0801075506733095,0.01853148166839985,1.4987090973650772
6.2318127155303955,1.3890894772809885,[1.38754491],5.0,0.6,0.0,0.9919593265245341,0.013089909761704295,1.498791034726284
6.242426872253418,1.3892848759977254,[1.38783452],5.0,0.6,0.0,0.840045480697776,0.0169495583742575,1.4990543497714495
6.2546916007995605,1.3896756734311988,[1.38811388],5.0,0.6,0.0,0.6863821896294199,0.018238973237973525,1.499161697515973
6.263175010681152,1.3900664708646722,[1.38838433],5.0,0.6,0.0,0.5531150162207,0.015274832417948081,1.4992065524975953
6.271595001220703,1.3902618695814086,[1.3886461],5.0,0.6,0.0,0.4450987754513932,0.010626463286316888,1.499330541314183
6.280267238616943,1.3904572682981455,[1.38889883],5.0,0.6,0.0,0.36039523543272756,0.010309788933305575,1.4994176973802569
6.288145542144775,1.3906526670148822,[1.38914229],5.0,0.6,0.0,0.294967314834125,0.007076832604873866,1.499479092669758
6.297096252441406,1.3910434644483554,[1.38937634],5.0,0.6,0.0,0.2446378408245073,0.006573975302041935,1.4993997444770297
6.3048694133758545,1.3912388631650918,[1.38960095],5.0,0.6,0.0,0.2057970125884736,0.004011535167132369,1.4994320664007406
6.3141679763793945,1.3916296605985656,[1.38981617],5.0,0.6,0.0,0.17556572150531835,0.003801928546890208,1.4993195220411366
6.321996450424194,1.3918250593153023,[1.39002234],5.0,0.6,0.0,0.15174385803312995,0.004133255623180756,1.4993331124852358
6.329971075057983,1.3920204580320388,[1.39021984],5.0,0.6,0.0,-0.14334730166369578,0.0018859779801341057,1.4993364656029076
6.338757276535034,1.3922158567487755,[1.39040879],5.0,0.6,0.0,-0.19196132710381286,0.0025412601307316907,1.499319685546164
6.347992897033691,1.3922158567487755,[1.39058961],5.0,0.6,0.0,-0.4257078742330723,0.003944670830210862,1.4993363142025493
6.35782265663147,1.392411255465512,[1.39076289],5.0,0.6,0.0,-0.39350839522220493,0.0038860976376708235,1.4993414668588845
6.365858554840088,1.392411255465512,[1.39092917],5.0,0.6,0.0,-0.553108455742304,0.004803164057860717,1.4993330972609709
6.374296426773071,1.3926066541822488,[1.39108893],5.0,0.6,0.0,-0.46146829534495487,0.004402589636103988,1.49938091235729
6.3828208446502686,1.3926066541822488,[1.39124243],5.0,0.6,0.0,-0.5768411544222313,0.0031053061301993777,1.4993802145921484
6.390892505645752,1.3928020528989855,[1.39138974],5.0,0.6,0.0,-0.7300292686925887,0.003359815558913279,1.4992045876971765
6.402223825454712,1.3928020528989855,[1.39153128],5.0,0.6,0.0,-0.8575278021994306,0.0061951856900398635,1.4991299818616717
6.412799835205078,1.3928020528989855,[1.39166763],5.0,0.6,0.0,-0.9422392357077365,0.004783973943544459,1.4990821982527078
6.421141147613525,1.3928020528989855,[1.39179897],5.0,0.6,0.0,-0.709732820142763,0.0054835998983914745,1.499423954027354
6.42879843711853,1.3928020528989855,[1.39192529],5.0,0.6,0.0,-0.6867800419704988,0.004570038883730535,1.499495282463285
6.438196897506714,1.392997451615722,[1.39204664],5.0,0.6,0.0,-0.45138484270909196,0.004607637329097924,1.499667561670878
6.447686672210693,1.392997451615722,[1.39216325],5.0,0.6,0.0,-0.1868916536041425,0.005355796975616659,1.4998348312608527
6.456207752227783,1.392997451615722,[1.39227546],5.0,0.6,0.0,-0.2370782775349422,0.006039148896645841,1.499853914107851
6.464872598648071,1.392997451615722,[1.39238359],5.0,0.6,0.0,-0.10017304370730004,0.0065061244453337615,1.499917168581204
6.47280478477478,1.3931928503324589,[1.39248778],5.0,0.6,0.0,0.0721658504157928,0.004542445871502424,1.4998967044618592
6.481835126876831,1.3931928503324589,[1.39258805],5.0,0.6,0.0,0.22230400306564682,0.005195910356753071,1.4998900604606455
6.490284204483032,1.3931928503324589,[1.39268456],5.0,0.6,0.0,0.3340996199208563,0.005756338124459673,1.4998652436313153
6.499797582626343,1.3931928503324589,[1.39277757],5.0,0.6,0.0,0.4082985776086504,0.006137240191367665,1.4998414264365265
6.50784707069397,1.3931928503324589,[1.39286722],5.0,0.6,0.0,0.4513940261525521,0.005236946784028426,1.4998271390956144
6.516268730163574,1.3931928503324589,[1.39295352],5.0,0.6,0.0,0.4708692812149482,0.005849358372261979,1.499823524172013
6.5248987674713135,1.3931928503324589,[1.3930365],5.0,0.6,0.0,0.4733881041398662,0.005195511233304003,1.4998283213783201
6.534247159957886,1.3931928503324589,[1.39311622],5.0,0.6,0.0,0.4642877223111018,0.005921384881247102,1.4998383861610916
6.54310154914856,1.3931928503324589,[1.39319286],5.0,0.6,0.0,0.17156521675270384,0.006638662865610709,1.499978089330591
6.551881790161133,1.3933882490491956,[1.39326665],5.0,0.6,0.0,0.11711324048710792,0.0061137573675537835,1.4999868332001522
6.559858083724976,1.3931928503324589,[1.39333775],5.0,0.6,0.0,0.14832489125841186,0.0064356772297970355,1.4999794242650542
6.569668531417847,1.3933882490491956,[1.39340616],5.0,0.6,0.0,0.1994101175939483,0.006007990608027538,1.49997033604399
6.582763195037842,1.3933882490491956,[1.39347211],5.0,0.6,0.0,0.24479552084628908,0.007267085546195175,1.4999539873201941
6.593322277069092,1.3933882490491956,[1.3935358],5.0,0.6,0.0,0.27678480819773954,0.005878285744885582,1.499938620428411
6.60180926322937,1.3933882490491956,[1.39359697],5.0,0.6,0.0,0.29506116393395637,0.003579363281281931,1.4999264832130703
6.612017631530762,1.3933882490491956,[1.39365447],5.0,0.6,0.0,0.3019087141329787,-0.0031500113001369017,1.4999179785983408
6.621108293533325,1.3933882490491956,[1.39370567],5.0,0.6,0.0,0.30015224984161387,-0.015108557620245735,1.499912788873143
6.631237983703613,1.3933882490491956,[1.39374581],5.0,0.6,0.0,0.2923571941016052,-0.03259679961341354,1.4999108083898474
6.639826536178589,1.3931928503324589,[1.39376935],5.0,0.6,0.0,0.28059048617651483,-0.03655260656662458,1.4998749271554874
6.651526212692261,1.3931928503324589,[1.39376819],5.0,0.6,0.0,0.26641349491947797,-0.08513619523435074,1.4998809668201183
6.66185188293457,1.3931928503324589,[1.39372886],5.0,0.6,0.0,0.25095705882935687,-0.11101311062561331,1.4998956599213233
6.673315763473511,1.392997451615722,[1.39363412],5.0,0.6,0.0,0.23501387965415355,-0.1648199315057539,1.4998778220918032
6.683766603469849,1.3928020528989855,[1.39346568],5.0,0.6,0.0,-0.05691535298568817,-0.17965151644483338,1.4999095131162736
6.692384481430054,1.392411255465512,[1.3932095],5.0,0.6,0.0,-0.3815625564037451,-0.19162257471484404,1.4997642026596756
6.699790954589844,1.3920204580320388,[1.3928597],5.0,0.6,0.0,-0.650483227086112,-0.17011085947245724,1.4995442670537098
6.708120822906494,1.3916296605985656,[1.39241524],5.0,0.6,0.0,-1.1185975877515846,-0.18662010362566903,1.4989460071975917
6.716797113418579,1.3908480657316187,[1.39187635],5.0,0.6,0.0,-1.5484874170121579,-0.1649392318511745,1.4980067969725648
6.725830316543579,1.3902618695814086,[1.39124454],5.0,0.6,0.0,-1.8658080305966995,-0.18123360427244795,1.4972221571793434
6.736424922943115,1.3892848759977254,[1.3905192],5.0,0.6,0.0,-2.6162774631426973,-0.19024228990034378,1.4946258566889195
6.744766473770142,1.3881124836973056,[1.3897011],5.0,0.6,0.0,-3.056197933974152,-0.16511847007325023,1.4925905507386403
6.753767967224121,1.3871354901136221,[1.38879512],5.0,0.6,0.0,-3.551900734146537,-0.1805707304913473,1.4901455715082
6.763796091079712,1.3859630978132023,[1.38780231],5.0,0.6,0.0,-3.9287591035241913,-0.19410122926779294,1.4879647669031808
6.7735748291015625,1.3845953067960453,[1.3867198],5.0,0.6,0.0,-4.148601366761899,-0.2066170037707737,1.4864486663219028
6.783787727355957,1.383032117062152,[1.38554419],5.0,0.6,0.0,-4.226331197406232,-0.21863418673122129,1.4856175385971455
6.794285297393799,1.3814689273282585,[1.38427151],5.0,0.6,0.0,-4.1928161825642025,-0.2307793395457049,1.4855137654531825
6.803954839706421,1.3797103388776286,[1.38289719],5.0,0.6,0.0,-4.079534386104783,-0.24199129082153803,1.4857343147254878
6.814889430999756,1.3779517504269985,[1.38141623],5.0,0.6,0.0,-3.9131368146585883,-0.25301272587842455,1.4863325608588895
6.822941064834595,1.3763885606931052,[1.37982328],5.0,0.6,0.0,-3.4382555007868536,-0.26461759641055227,1.4889202980302734
6.831130266189575,1.3748253709592118,[1.37811862],5.0,0.6,0.0,-2.9130108054802797,-0.23985637239491092,1.491556278708838
6.841245889663696,1.3724805863583718,[1.37630759],5.0,0.6,0.0,-2.7124278234728587,-0.2585374659270843,1.491628223368585
6.852639198303223,1.3697450043240584,[1.37438839],5.0,0.6,0.0,-2.8979859055261716,-0.27046477511875344,1.4894842779484532
6.862483978271484,1.3674002197232182,[1.37235264],5.0,0.6,0.0,-2.8618111840719127,-0.28093126689637843,1.4890471207442055
6.8707897663116455,1.3650554351223783,[1.37019885],5.0,0.6,0.0,-2.726769962755669,-0.2591149513317897,1.4892187312761433
6.878936529159546,1.362710650521538,[1.36793155],5.0,0.6,0.0,-2.5528303209808914,-0.27867788948096806,1.4897355071680982
6.888554334640503,1.3597796697704883,[1.36554642],5.0,0.6,0.0,-2.368779955903893,-0.2870900803870363,1.489211475213352
6.897771596908569,1.357044087736175,[1.36303945],5.0,0.6,0.0,-2.4640565074960454,-0.2708888029484253,1.4883375902614504
6.907328128814697,1.353917708268388,[1.36040578],5.0,0.6,0.0,-2.325566743684525,-0.2812324527956319,1.487606579169428
6.917287588119507,1.3507913288006015,[1.3576236],5.0,0.6,0.0,-2.110210480512997,-0.27184107537477403,1.4874036268796484
6.926785945892334,1.347469550616078,[1.35468248],5.0,0.6,0.0,-2.1617367284626487,-0.2809372087479669,1.486182078176266
6.93575382232666,1.3443431711482912,[1.35159027],5.0,0.6,0.0,-2.2634683171413705,-0.2737703952454968,1.485751619235522
6.944779634475708,1.3410213929637678,[1.3483441],5.0,0.6,0.0,-2.0588370442014945,-0.25853165232642183,1.4861874537714403
6.953776121139526,1.337504216062508,[1.34493318],5.0,0.6,0.0,-1.493692467469923,-0.24398506525487965,1.4873646918713752
6.9645631313323975,1.3334008430110378,[1.34134327],5.0,0.6,0.0,-1.7300308459227711,-0.17294637574286453,1.4852397937485309
6.974786758422852,1.3291020712428308,[1.33755392],5.0,0.6,0.0,-1.6067053545305694,-0.1779609588819485,1.4838968400751675
6.982776641845703,1.325975691775044,[1.33356661],5.0,0.6,0.0,-1.0956811164797244,-0.25360374741305214,1.4876488645184465
6.993340492248535,1.3216769200068375,[1.32941594],5.0,0.6,0.0,-0.8198026735154269,-0.268268221031309,1.4875929165346824
7.002431869506836,1.3179643443888407,[1.32514115],5.0,0.6,0.0,-0.11014372929260696,-0.273067454558141,1.489742537749043
7.014071464538574,1.3134701739038972,[1.3207777],5.0,0.6,0.0,0.05360234232723232,-0.2599442060456752,1.4893747163596258
7.02479887008667,1.3089760034189541,[1.31636381],5.0,0.6,0.0,0.561886206610641,-0.2351864352787388,1.488908463771208
7.034470081329346,1.3050680290842205,[1.31193856],5.0,0.6,0.0,1.3538330311171747,-0.20582339268382938,1.489241061331516
7.041794776916504,1.3021370483331705,[1.30754215],5.0,0.6,0.0,2.070403435785881,-0.16114702368484238,1.4909932490294215
7.049808025360107,1.2986198714319104,[1.30321408],5.0,0.6,0.0,2.87774777482903,-0.13563676147090853,1.4896606861822053
7.059569597244263,1.2947118970971772,[1.29898738],5.0,0.6,0.0,3.2503545633459243,-0.11316109206626548,1.4885478119817268
7.0698535442352295,1.2908039227624437,[1.29489016],5.0,0.6,0.0,3.6492146756937123,-0.07170674801587525,1.4868507184985684
7.0791051387786865,1.28689594842771,[1.29095076],5.0,0.6,0.0,3.9369543608606,-0.0288982598885097,1.4853112843734217
7.0877697467803955,1.2835741702431867,[1.28719605],5.0,0.6,0.0,4.086999275963238,0.0031344034042875236,1.4850990317507744
7.096768140792847,1.2796661959084534,[1.28364941],5.0,0.6,0.0,4.1151539499240855,0.04445890107931045,1.4843833639890667
7.107769250869751,1.2751720254235102,[1.2803322],5.0,0.6,0.0,4.325367090464353,0.09087437377553122,1.4809539989037546
7.118210792541504,1.2716548485222499,[1.27726693],5.0,0.6,0.0,4.502358155454921,0.16111372125270423,1.4788562184749863
7.1267523765563965,1.2687238677711998,[1.27447399],5.0,0.6,0.0,4.8570334715835735,0.166240578822696,1.4761528532630814
7.138387203216553,1.2652066908699398,[1.27196994],5.0,0.6,0.0,5.0,0.2446457551101191,1.4726254716737572
7.145744800567627,1.2630573049858367,[1.26976912],5.0,0.6,0.0,5.0,0.23484405949267798,1.4727628309642191
7.153797388076782,1.2609079191017332,[1.26787891],5.0,0.6,0.0,5.0,0.2692328473577168,1.4720601873463344
7.162816286087036,1.2587585332176296,[1.26630487],5.0,0.6,0.0,5.0,0.2993708114773114,1.4704072414682927
7.17105507850647,1.2569999447669995,[1.26505409],5.0,0.6,0.0,5.0,0.3238029600365076,1.4688420098688457
7.178821325302124,1.2554367550331063,[1.26412585],5.0,0.6,0.0,5.0,0.3062647859745121,1.4667454230400456
7.186746597290039,1.2540689640159497,[1.263507],5.0,0.6,0.0,5.0,0.29445739751471733,1.46407451919351
7.194772481918335,1.2528965717155296,[1.26318351],5.0,0.6,0.0,5.0,0.33077489502626417,1.4607902218973021
7.20276951789856,1.2519195781318462,[1.26315103],5.0,0.6,0.0,5.0,0.3570987180085697,1.4568185549458113
7.211793422698975,1.2511379832648997,[1.26340289],5.0,0.6,0.0,5.0,0.3397142723366461,1.452094561822498
7.220643043518066,1.250356388397953,[1.26392515],5.0,0.6,0.0,5.0,0.36835047229093526,1.4455794933964154
7.229129314422607,1.2499655909644793,[1.26470876],5.0,0.6,0.0,5.0,0.38784187412654464,1.4391912461916254
7.238062143325806,1.2495747935310062,[1.26574871],5.0,0.6,0.0,5.0,0.4028003041234015,1.430758028884538
7.246156692504883,1.2495747935310062,[1.26703777],5.0,0.6,0.0,5.0,0.4134537344254488,1.4225636885125632
7.255072832107544,1.2497701922477427,[1.2685666],5.0,0.6,0.0,5.0,0.42163990285818254,1.4135098018659558
7.262828350067139,1.2501609896812165,[1.27031836],5.0,0.6,0.0,5.0,0.40111302569559515,1.403682420368983
7.272913932800293,1.250747185831426,[1.27226993],5.0,0.6,0.0,5.0,0.4162363244890326,1.3932484176566182
7.281925201416016,1.2515287806983728,[1.2744044],5.0,0.6,0.0,5.0,0.4268534064727843,1.3823638338216162
7.291801929473877,1.252701172998793,[1.27670468],5.0,0.6,0.0,5.0,0.40330997911496114,1.3728899834150985
7.300822496414185,1.253873565299213,[1.27914805],5.0,0.6,0.0,5.0,0.4189944553391121,1.3617967092879406
7.3091607093811035,1.2550459575996329,[1.2817181],5.0,0.6,0.0,4.746517498585554,0.4299251573102437,1.3508850592017372
7.317742824554443,1.2564137486167894,[1.28439852],5.0,0.6,0.0,4.263018505934106,0.40497298540952886,1.341673974935076
7.328643560409546,1.2583677357841563,[1.28717077],5.0,0.6,0.0,4.2982395089942695,0.4352488494585095,1.33354622024356
7.337937831878662,1.2605171216682596,[1.290021],5.0,0.6,0.0,3.8901407666268746,0.4113287791817137,1.3290772404602604
7.347333192825317,1.262666507552363,[1.29292621],5.0,0.6,0.0,3.094111778403393,0.3625712137938774,1.3255839702738652
7.356203079223633,1.265011292153203,[1.29584718],5.0,0.6,0.0,2.563323777114544,0.27596449405932294,1.3219509292867921
7.36374568939209,1.26696527932057,[1.29873695],5.0,0.6,0.0,2.1880332085381418,0.20189584087049248,1.3136354940210206
7.375338077545166,1.2700916587883566,[1.30153382],5.0,0.6,0.0,1.6318232631435443,-0.028989237853006763,1.318619721233714
7.3828349113464355,1.2720456459557232,[1.30416305],5.0,0.6,0.0,0.8274169292020598,-0.07786232654918715,1.3130750489707508
7.394352197647095,1.2747812279900368,[1.30653451],5.0,0.6,0.0,0.36203791812560576,-0.15431928530234715,1.317279985988769
7.403961181640625,1.2771260125908765,[1.3085246],5.0,0.6,0.0,-0.7382118169373322,-0.11198540508535783,1.320642017218317
7.411787748336792,1.2784938036080336,[1.31002515],5.0,0.6,0.0,-2.377060653016068,-0.10749406182803287,1.3154883134343422
7.420644283294678,1.27986159462519,[1.31095827],5.0,0.6,0.0,-4.401509112288097,-0.2011081563908184,1.3099361856994791
7.430156230926514,1.2812293856423467,[1.31121679],5.0,0.6,0.0,-5.0,-0.2972398879114998,1.3171284638542808
7.438251972198486,1.28220637922603,[1.31066741],5.0,0.6,0.0,-5.0,-0.39246559211896087,1.3321681159863088
7.44873571395874,1.2829879740929768,[1.30917876],5.0,0.6,0.0,-5.0,-0.48714886279437486,1.3535353642929022
7.456740379333496,1.2831833728097135,[1.30666524],5.0,0.6,0.0,-5.0,-0.4467058325787008,1.3773157544828631
7.467761993408203,1.2827925753762401,[1.30308626],5.0,0.6,0.0,-5.0,-0.5645056480393963,1.4026662166463566
7.476773262023926,1.28220637922603,[1.29836478],5.0,0.6,0.0,-5.0,-0.6738352032842165,1.4308532719490636
7.4868388175964355,1.2808385882088735,[1.29239347],5.0,0.6,0.0,-5.0,-0.7727642671690482,1.4553823776657087
7.494864463806152,1.2794707971917167,[1.28512829],5.0,0.6,0.0,-5.0,-0.7099590866736246,1.4753510519098794
7.50382924079895,1.2775168100243501,[1.27658352],5.0,0.6,0.0,-5.0,-0.8380493317613475,1.48155787081055
7.5133726596832275,1.2747812279900368,[1.26673143],5.0,0.6,0.0,-5.0,-0.9493962660942632,1.4688558320807452
7.522615671157837,1.2718502472389868,[1.25550996],5.0,0.6,0.0,-5.0,-1.049147940096887,1.429731850411591
7.530786991119385,1.2685284690544634,[1.24292785],5.0,0.6,0.0,-5.0,-0.9726803867076175,1.3588811251002713
7.538844108581543,1.2654020895866764,[1.22905633],5.0,0.6,0.0,-5.0,-1.1064993364702465,1.2495498522056563
7.54884147644043,1.2611033178184698,[1.21391967],5.0,0.6,0.0,-5.0,-1.2186804802186557,1.1223901822196949
7.5587544441223145,1.2569999447669995,[1.19750358],5.0,0.6,0.0,-5.0,-1.3195247811510844,0.9743785098455157
7.5675129890441895,1.2534827678657396,[1.1798135],5.0,0.6,0.0,-5.0,-1.4152729631648682,0.8194878662658944
7.5787434577941895,1.2487931986640595,[1.16087332],5.0,0.6,0.0,-5.0,-1.49986520833258,0.6948347999542421
7.589158296585083,1.2446898256125896,[1.14072384],5.0,0.6,0.0,-5.0,-1.5843099637805982,0.5968514694442894
7.598224878311157,1.240781851277856,[1.11942108],5.0,0.6,0.0,-4.747391567602975,-1.6682296202832172,0.5360671776177512
7.606717348098755,1.237264674376596,[1.09708131],5.0,0.6,0.0,-2.601734447209713,-1.598832605486634,0.5146247127835132
7.6169822216033936,1.233161301325126,[1.0738245],5.0,0.6,0.0,0.053068670888806624,-1.8798747367018445,0.506232486846555
7.625746726989746,1.2294487257071294,[1.04972393],5.0,0.6,0.0,2.6428057434377012,-1.8053227971339325,0.4963922131563288
7.63566780090332,1.2253453526556592,[1.0249055],5.0,0.6,0.0,4.687827836614105,-1.9244832294148755,0.4842298198011185
7.64574122428894,1.2208511821707155,[0.99949521],5.0,0.6,0.0,5.0,-2.0323002989400636,0.48178753075467445
7.653748989105225,1.2175294039861924,[0.97357273],5.0,0.6,0.0,5.0,-2.1376354150014443,0.481738832378233
7.6627514362335205,1.213621429651459,[0.94722365],5.0,0.6,0.0,5.0,-2.2347948175374,0.4817327473237648
7.672613143920898,1.2095180565999888,[0.92053772],5.0,0.6,0.0,5.0,-2.327174927646961,0.4817321178996353
7.6815268993377686,1.2060008796987287,[0.89360722],5.0,0.6,0.0,5.0,-2.4193562587417676,0.48173206546171415
7.692749738693237,1.2011159117803119,[0.86652565],5.0,0.6,0.0,5.0,-2.5028986593468288,0.48173206231277416
7.703754186630249,1.1970125387288422,[0.83938623],5.0,0.6,0.0,5.0,-2.5889174960140795,0.48173206213171665
7.714843988418579,1.1923229695271618,[0.81228044],5.0,0.6,0.0,5.0,-2.6708263842669218,0.48173206212422043
7.724848031997681,1.1880241977589552,[0.78529696],5.0,0.6,0.0,5.0,-2.7534084451765892,0.48173206212394365
7.732719898223877,1.1847024195744316,[0.75854965],5.0,0.6,0.0,5.0,-2.744074967316857,0.48173206212393566
7.743118047714233,1.1807944452396981,[0.73214275],5.0,0.6,0.0,5.0,-2.9497076493557257,0.4817320621239355
7.753857374191284,1.1763002747547546,[0.70611273],5.0,0.6,0.0,5.0,-3.020122108475155,0.4817320621239355
7.763934135437012,1.1723923004200216,[0.68049589],5.0,0.6,0.0,5.0,-3.093314741518942,0.4817320621239355
7.771709203720093,1.169070522235498,[0.65538053],5.0,0.6,0.0,4.69241322716861,-3.090305922298386,0.48387498215712615
7.784062623977661,1.163794756883608,[0.63084428],5.0,0.6,0.0,4.422327869776792,-3.2586579992530735,0.48565167076874677
7.7924864292144775,1.1598867825488746,[0.60692805],5.0,0.6,0.0,4.162566251623611,-3.2521359422029694,0.4872667455094224
7.803124904632568,1.155588010780668,[0.58368784],5.0,0.6,0.0,3.9055327899347922,-3.3391877211727983,0.48877347375690283
7.812347888946533,1.1516800364459343,[0.56117076],5.0,0.6,0.0,3.651347758869315,-3.4209568322148782,0.4901732478923844
7.824717283248901,1.146599669810781,[0.53939246],5.0,0.6,0.0,3.4025589052604737,-3.4901996025464324,0.4914556209299257
7.834140300750732,1.1428870941927842,[0.51834614],5.0,0.6,0.0,3.161946796115237,-3.6205927362200545,0.49261266852094027
7.845383167266846,1.1381975249911043,[0.49800645],5.0,0.6,0.0,2.9317405378715122,-3.6621674521133865,0.4936425639499446
7.854061126708984,1.1348757468065809,[0.47836909],5.0,0.6,0.0,2.7134432662298362,-3.7125285551695457,0.49454907713277957
7.8624584674835205,1.1313585699053208,[0.45944628],5.0,0.6,0.0,2.5078958506912468,-3.762759540770068,0.4953399141669067
7.873876333236694,1.1266690007036406,[0.44123024],5.0,0.6,0.0,2.315413147561897,-3.855642701094436,0.49602505044980383
7.8843042850494385,1.1219794315019607,[0.42369672],5.0,0.6,0.0,2.1359240376521904,-3.8829847316694783,0.49661542441938256
7.894099712371826,1.1182668558839637,[0.40683751],5.0,0.6,0.0,1.6930523475114718,-3.918427056127039,0.4978707772723459
7.90196967124939,1.1149450776994405,[0.39067006],5.0,0.6,0.0,1.505238819171686,-3.914716000747809,0.4983162205258018
7.91120171546936,1.1112325020814438,[0.37521696],5.0,0.6,0.0,1.4171757234862647,-3.967288813852722,0.49850718855528964
7.919092178344727,1.1079107238969204,[0.36052935],5.0,0.6,0.0,1.3609581466139518,-4.019822354881604,0.4986231153639185
7.926806211471558,1.10439354699566,[0.34669883],5.0,0.6,0.0,1.309344668645874,-4.053782807166019,0.4987254393087862
7.936934947967529,1.0998993765107168,[0.33375626],5.0,0.6,0.0,0.9772697756364181,-4.1325395080826794,0.49928956084748866
7.946906328201294,1.0957960034592467,[0.32165947],5.0,0.6,0.0,0.8822916590265318,-4.176243657318276,0.4994208655683952
7.956866979598999,1.0918880291245132,[0.31037447],5.0,0.6,0.0,0.8711170466647806,-4.211573679934363,0.499435434419799
7.96593165397644,1.0881754535065165,[0.29987673],5.0,0.6,0.0,1.154635294138493,-4.241608843135874,0.4990085623655222
7.976055383682251,1.084267479171783,[0.29013636],5.0,0.6,0.0,0.9132438325720849,-4.264391098978381,0.4993795445960139
7.986841201782227,1.079577909970103,[0.28112119],5.0,0.6,0.0,0.8137752560802237,-4.278384649717681,0.49950727844463305
7.995283126831055,1.0758653343521063,[0.27279673],5.0,0.6,0.0,1.0451779347216041,-4.293227575610237,0.4991874800589338
8.003809690475464,1.0723481574508462,[0.26513108],5.0,0.6,0.0,1.0505741536786002,-4.277738495650468,0.4991790752824133
8.01272702217102,1.0686355818328495,[0.25809072],5.0,0.6,0.0,0.969564121171238,-4.318264483878514,0.49930071232560974
8.022332906723022,1.064727607498116,[0.25163248],5.0,0.6,0.0,0.5884500527360513,-4.318572368511039,0.49974230028042715
8.02970004081726,1.0617966267470662,[0.24571789],5.0,0.6,0.0,0.45209111678062697,-4.293223045029918,0.4998478778172515
8.038687944412231,1.0580840511290694,[0.24032063],5.0,0.6,0.0,0.4150264379138595,-4.267325234582974,0.49987179572212137
8.048010349273682,1.053980678077599,[0.23540975],5.0,0.6,0.0,0.4119964815593853,-4.300704881530238,0.4998736605984332
8.058887720108032,1.0490957101591825,[0.23089511],5.0,0.6,0.0,0.4155574397825209,-4.31882060621718,0.4998714674948156
8.069746255874634,1.0447969383909759,[0.2266449],5.0,0.6,0.0,0.4155774011598305,-4.351911507697629,0.4998714551479419
8.084530591964722,1.0391303756056123,[0.22257891],5.0,0.6,0.0,0.40946644007718397,-4.316860211783538,0.49987520732378415
8.095373153686523,1.034636205120669,[0.21865691],5.0,0.6,0.0,0.39762880728718497,-4.358744663465922,0.49988231767430436
8.107300996780396,1.0295558384855157,[0.21484271],5.0,0.6,0.0,0.3814247907500887,-4.349070022242671,0.4998917127123322
8.116810321807861,1.0258432628675187,[0.21111004],5.0,0.6,0.0,0.36231646429948783,-4.375350856117667,0.49990228969340167
8.125956535339355,1.0223260859662586,[0.20744591],5.0,0.6,0.0,0.6175940941894449,-4.380130232813772,0.4997161495152726
8.135029792785645,1.0182227129147887,[0.20385268],5.0,0.6,0.0,0.6292717635329368,-4.353066885864437,0.49970531695146986
8.145272731781006,1.0141193398633186,[0.20033888],5.0,0.6,0.0,0.27670186756416526,-4.33712400654328,0.4999430090227553
8.153887748718262,1.0102113655285851,[0.19690899],5.0,0.6,0.0,0.42258883274560416,-4.319465502196143,0.4998670816394892
8.16370701789856,1.006107992477115,[0.19356425],5.0,0.6,0.0,0.42015095816121373,-4.298322861663742,0.4998686106016328
8.172803163528442,1.0022000181423816,[0.1903106],5.0,0.6,0.0,0.3653738698453094,-4.252261640258484,0.4999006338443908
8.181727409362793,0.9984874425243848,[0.18715734],5.0,0.6,0.0,0.2997667150497557,-4.238640307369007,0.49993311258031964
8.190715551376343,0.9947748669063883,[0.1841101],5.0,0.6,0.0,-0.03649792200040011,-4.2218710707689215,0.49999900838629124
8.199695825576782,0.9912576900051281,[0.18117141],5.0,0.6,0.0,0.1564907071244261,-4.204768927477789,0.4999817704535242
8.210851192474365,0.9863727220867115,[0.17834238],5.0,0.6,0.0,0.20531480025971327,-4.196247831396266,0.4999686214001266
8.220767259597778,0.982464747751978,[0.17562462],5.0,0.6,0.0,0.19597755750751455,-4.151382674831832,0.4999714104749777
8.229920387268066,0.9787521721339812,[0.17302368],5.0,0.6,0.0,0.1673347100323429,-4.131639404337255,0.4999791565457233
8.237700700759888,0.9756257926661944,[0.17054569],5.0,0.6,0.0,0.13590958233631512,-4.1004364003218186,0.49998625005821473
8.247417449951172,0.9715224196147245,[0.16819386],5.0,0.6,0.0,0.10792841968337447,-4.0969593097730534,0.4999913288929953
8.255815505981445,0.9678098439967278,[0.16596892],5.0,0.6,0.0,0.08507749364217947,-4.064634258742978,0.4999946119240387
8.264557600021362,0.9642926670954678,[0.16387195],5.0,0.6,0.0,0.06719924981405082,-4.049533577792686,0.49999663849265114
8.273939609527588,0.9601892940439976,[0.16190331],5.0,0.6,0.0,0.05351268498812202,-4.0308808641583385,0.4999978683336288
8.281800985336304,0.9570629145762107,[0.16006218],5.0,0.6,0.0,0.043134135897937256,-4.007982027672729,0.4999986150047676
8.291224718093872,0.9533503389582141,[0.15834703],5.0,0.6,0.0,0.31131344224978164,-4.001672244270137,0.49992786083835256
8.303725481033325,0.948074573606324,[0.15675408],5.0,0.6,0.0,0.3384601888613419,-3.975835620522956,0.499914732245466
8.313226699829102,0.9441665992715907,[0.15527971],5.0,0.6,0.0,0.27877504711405143,-3.950812427108025,0.4999421518670319
8.32164978981018,0.9408448210870671,[0.15392111],5.0,0.6,0.0,0.19912491368188087,-3.937384974577919,0.49997048484570783
8.330683708190918,0.9371322454690706,[0.15267419],5.0,0.6,0.0,0.12579007931499547,-3.9214796966626917,0.4999882213818723
8.34072732925415,0.9330288724176004,[0.15153382],5.0,0.6,0.0,0.0669129088251035,-3.9034608841686316,0.4999966670787862
8.348698854446411,0.9295116955163404,[0.15049456],5.0,0.6,0.0,0.023074813590788373,-3.887971416051407,0.49999960364631
8.358704805374146,0.9254083224648704,[0.14955079],5.0,0.6,0.0,-0.00786835907982395,-3.869435744832452,0.4999999539133652
8.36928939819336,0.9209141519799268,[0.14869674],5.0,0.6,0.0,-0.02868574356847648,-3.848875917127673,0.4999993874541062
8.377693176269531,0.9175923737954035,[0.1479269],5.0,0.6,0.0,-0.04194309228695218,-3.829906826642924,0.4999986904351833
8.388713598251343,0.9129028045937233,[0.14723568],5.0,0.6,0.0,-0.04974389612341053,-3.813451763335332,0.49999815801762226
8.398739576339722,0.9087994315422533,[0.14661702],5.0,0.6,0.0,-0.05370861302551459,-3.790508129171265,0.49999785269558356
8.40989899635315,0.9037190649070999,[0.14606732],5.0,0.6,0.0,-0.055040310367033926,-3.745419539937237,0.4999977448914875
8.418456554412842,0.8998110905723665,[0.14558488],5.0,0.6,0.0,-0.05461066919077856,-3.732427503973353,0.49999777996046835
8.4298837184906,0.8951215213706863,[0.14516581],5.0,0.6,0.0,-0.05304018080490567,-3.710153369947914,0.499997905811562
8.43784475326538,0.8917997431861631,[0.14480491],5.0,0.6,0.0,-0.05076425024131946,-3.694638135472662,0.49999808167673077
8.44672679901123,0.8884779650016396,[0.14449746],5.0,0.6,0.0,-0.04808442310058854,-3.6783234572856562,0.4999982788657473
8.45557427406311,0.8851561868171162,[0.14423886],5.0,0.6,0.0,-0.04520669534162543,-3.6626916902106834,0.4999984787116612
8.467393398284912,0.8800758201819627,[0.14402454],5.0,0.6,0.0,-0.042269531513625086,-3.638548900737895,0.49999866997144055
8.479777574539185,0.8748000548300726,[0.14384993],5.0,0.6,0.0,-0.03936405602058462,-3.6130919555376044,0.49999884653118687
8.489752054214478,0.8706966817786026,[0.14371075],5.0,0.6,0.0,-0.036548455842878566,-3.5922988770047546,0.4999990056384805
8.498112201690674,0.8673749035940792,[0.14360308],5.0,0.6,0.0,-0.033858178080256554,-3.5755072198413878,0.499999146637657
8.509171962738037,0.8626853343923993,[0.1435232],5.0,0.6,0.0,-0.031313108773293304,-3.552878360741826,0.49999927010778483
8.516759634017944,0.8595589549246124,[0.14346755],5.0,0.6,0.0,-0.028922602452128993,-3.5369358006488167,0.4999993772967374
8.52574348449707,0.8556509805898791,[0.14343283],5.0,0.6,0.0,-0.026688990383897666,-3.5175845995599655,0.49999946976213816
8.534765720367432,0.8517430062551457,[0.14341599],5.0,0.6,0.0,-0.024610016673511252,-3.4979672545665244,0.49999954915184636
8.544148683547974,0.8476396332036755,[0.14341422],5.0,0.6,0.0,-0.0226805213192355,-3.477477505572652,0.49999961707601087
8.552953004837036,0.8439270575856788,[0.14342494],5.0,0.6,0.0,-0.02089359585713228,-3.4587877858716554,0.4999996750377492
8.560701131820679,0.8409960768346287,[0.14344583],5.0,0.6,0.0,-0.019241370587819308,-3.4435280976469764,0.499999724400412
8.57219910621643,0.8363065076329487,[0.14347483],5.0,0.6,0.0,-0.017715545134653805,-3.420425229136305,0.4999997663769898
8.580242395401001,0.8331801281651618,[0.14351006],5.0,0.6,0.0,-0.016307740716863306,-3.404091553081376,0.4999998020323695
8.590569734573364,0.8286859576802185,[0.14354988],5.0,0.6,0.0,-0.015009729023131479,-3.3815718096859433,0.49999983229256906
8.603803873062134,0.8230193948948551,[0.14359284],5.0,0.6,0.0,-0.01381357606014131,-3.35309903860941,0.49999985795731916
8.616159439086914,0.8179390282597016,[0.14363766],5.0,0.6,0.0,-0.012711727758762996,-3.327396953745659,0.49999987971380433
8.626784801483154,0.8132494590580216,[0.14368325],5.0,0.6,0.0,0.26434130367613934,-3.3035631044271883,0.4999479867321289
8.634699583053589,0.8099276808734982,[0.14372878],5.0,0.6,0.0,0.2984000847846947,-3.286400668191037,0.49993372102651107
8.643660306930542,0.8062151052555014,[0.14377353],5.0,0.6,0.0,-0.031875611818618504,-3.2676377255541307,0.4999992436489649
8.658235549926758,0.8003531437534013,[0.14381684],5.0,0.6,0.0,-0.1402937608699707,-3.238503753766875,0.49998534867077327
8.667622804641724,0.7964451694186679,[0.14385812],5.0,0.6,0.0,0.12104755351917162,-3.2186598423034263,0.49998909278255854
8.679684162139893,0.7913648027835144,[0.14389693],5.0,0.6,0.0,0.17430563508139627,-3.1931962549868973,0.49997738379624673
8.6890287399292,0.7872614297320444,[0.14393294],5.0,0.6,0.0,0.14835021255559053,-3.1726091116898143,0.4999836176610845
8.69867467880249,0.783353455397311,[0.1439659],5.0,0.6,0.0,0.10003936944259512,-3.1527981025709044,0.49999255018769084
8.706660509109497,0.7804224746462608,[0.14399568],5.0,0.6,0.0,0.05250866865868925,-3.1375984084032407,0.4999979475726276
8.71631669998169,0.7761237028780542,[0.14402226],5.0,0.6,0.0,0.013629902829814713,-3.116014665450645,0.49999986170956756
8.726673603057861,0.7722157285433208,[0.14404567],5.0,0.6,0.0,-0.015239533269974627,-3.096248943088276,0.49999982711793833
8.7360680103302,0.7681123554918509,[0.14406594],5.0,0.6,0.0,-0.03521789793887889,-3.0756079965922374,0.49999907672062194
8.74370789527893,0.7647905773073274,[0.14408317],5.0,0.6,0.0,-0.048114833544656455,-3.0586389094816195,0.49999827668803926
8.753689765930176,0.7604918055391207,[0.14409752],5.0,0.6,0.0,-0.05570375322444363,-3.03710423322735,0.49999769019887474
8.76367998123169,0.7563884324876504,[0.14410913],5.0,0.6,0.0,-0.05947315199822227,-3.016520281500636,0.49999736702070385
8.77267599105835,0.7526758568696538,[0.14411746],5.0,0.6,0.0,-0.33662116112789947,-3.0053097912718787,0.4999156562570091
8.782725811004639,0.748377085101447,[0.14412145],5.0,0.6,0.0,-0.369061147445376,-2.981209729876312,0.4998986183634598
8.791527509689331,0.744859908200187,[0.14412082],5.0,0.6,0.0,-0.3121128192476089,-2.9634368448171635,0.49992748991806274
8.80275821685791,0.7401703389985068,[0.14411581],5.0,0.6,0.0,-0.23345628230264776,-2.94005429243819,0.4999594304504046
8.81224799156189,0.7360669659470368,[0.14410644],5.0,0.6,0.0,-0.15995296877288107,-2.9203579299553786,0.49998095491065886
8.822264671325684,0.7319635928955668,[0.14409271],5.0,0.6,0.0,-0.10015518712822469,-2.8994466410568296,0.49999253292822526
8.83088731765747,0.7284464159943067,[0.14407481],5.0,0.6,0.0,-0.05493030301760307,-2.8814926506161527,0.4999977538968888
8.839736223220825,0.7249292390930466,[0.14405313],5.0,0.6,0.0,-0.022331456257684307,-2.862992408035869,0.4999996287721042
8.850853443145752,0.7200442711746298,[0.14402807],5.0,0.6,0.0,0.0002760030660357675,-2.839314345047528,0.4999999999432933
8.863609552383423,0.7149639045394763,[0.14399985],5.0,0.6,0.0,-0.2606708533517557,-2.8142602917812236,0.4999494210678968
8.872424364089966,0.7114467276382163,[0.14396865],5.0,0.6,0.0,-0.2841758867999261,-2.7961254075125246,0.4999398888528613
8.883246183395386,0.7067571584365363,[0.14393479],5.0,0.6,0.0,-0.2233485862552137,-2.7730508289514573,0.49996286726279865
8.896953105926514,0.7006997982176995,[0.14389864],5.0,0.6,0.0,-0.1442432782331325,-2.7415177450961736,0.4999845121505952
8.90509033203125,0.6973780200331761,[0.14386099],5.0,0.6,0.0,-0.07255154098884628,-2.7220265526843868,0.4999960816948395
8.914916515350342,0.693274646981706,[0.14382274],5.0,0.6,0.0,-0.01599778511946498,-2.7025321253795425,0.4999998094862565
8.925585269927979,0.6889758752134992,[0.14378439],5.0,0.6,0.0,0.025128300553384657,-2.681034777072553,0.49999952996228425
8.935685873031616,0.6848725021620292,[0.14374622],5.0,0.6,0.0,0.05317118053846577,-2.6607309894986915,0.49999789545426954
8.945112943649292,0.6809645278272958,[0.14370849],5.0,0.6,0.0,0.07103506692853177,-2.6416216310558114,0.49999624378336227
8.954130411148071,0.6770565534925623,[0.14367132],5.0,0.6,0.0,0.08137475816364462,-2.6227234338790013,0.4999950707146868
8.965749979019165,0.6721715855741456,[0.14363473],5.0,0.6,0.0,0.08635062012633735,-2.5990681194972787,0.4999944494606439
8.974726915359497,0.6686544086728856,[0.14359863],5.0,0.6,0.0,0.08761770784877322,-2.5823305419498994,0.4999942853719511
8.983757257461548,0.6649418330548889,[0.1435629],5.0,0.6,0.0,0.08639841110451815,-2.5637487880612,0.4999944433150566
8.994303941726685,0.660643061286682,[0.14352745],5.0,0.6,0.0,0.08357338401008291,-2.5434414219834225,0.49999480075368313
9.001935005187988,0.6575166818188953,[0.14349213],5.0,0.6,0.0,0.07976518628271143,-2.5277647283731497,0.49999526378525005
9.01160216331482,0.6532179100506885,[0.14345676],5.0,0.6,0.0,0.07540678294432243,-2.5076535900380983,0.4999957672203253
9.020102977752686,0.6497007331494286,[0.14342099],5.0,0.6,0.0,-0.20524393104057181,-2.4911233400147905,0.49996864305782834
9.029729127883911,0.6457927588146952,[0.14338438],5.0,0.6,0.0,-0.24303584654525096,-2.472593501754457,0.4999560328566852
9.037686109542847,0.6424709806301717,[0.14334661],5.0,0.6,0.0,-0.19253033483490206,-2.455490283183632,0.4999724073746615
9.046743869781494,0.6387584050121751,[0.14330749],5.0,0.6,0.0,-0.12087873476826516,-2.438465359529065,0.49998912318447486
9.055678129196167,0.6346550319607048,[0.14326663],5.0,0.6,0.0,-0.05458135344635518,-2.4193381651303936,0.49999778234331765
9.063720941543579,0.6315286524929183,[0.14322352],5.0,0.6,0.0,-0.0019495567700372092,-2.4049206129596263,0.4999999971707036
9.076448202133179,0.6266436845745015,[0.14317747],5.0,0.6,0.0,0.03630527496307014,-2.383846906143058,0.4999990188267265
9.085749387741089,0.6229311089565047,[0.14312768],5.0,0.6,0.0,0.06222664265570972,-2.3658004608559136,0.49999711757402115
9.094301223754883,0.6194139320552446,[0.14307382],5.0,0.6,0.0,0.35454321503251185,-2.3467352934248598,0.499906436944651
9.10169768333435,0.6158967551539846,[0.14301623],5.0,0.6,0.0,0.39680601630694856,-2.3281705912065354,0.4998828041402597
9.111714124679565,0.6117933821025145,[0.1429552],5.0,0.6,0.0,0.3457598988486372,-2.309471656316342,0.4999110149043248
9.123218536376953,0.6069084141840977,[0.14289039],5.0,0.6,0.0,0.27021795308919994,-2.288799594672305,0.4999456485081163
9.131969690322876,0.6033912372828377,[0.14282111],5.0,0.6,0.0,0.19789870487406608,-2.2717436999318252,0.4999708472238299
9.140953063964844,0.599678661664841,[0.14274701],5.0,0.6,0.0,0.13798303797051129,-2.2537513814013175,0.4999858273218323
9.15201997756958,0.5949890924631609,[0.14266783],5.0,0.6,0.0,-0.18424885517328565,-2.2330695012685386,0.4999747299968175
9.160742282867432,0.5914719155619009,[0.1425834],5.0,0.6,0.0,0.0245651921502833,-2.212989779339041,0.4999995507926937
9.170702457427979,0.5871731437936941,[0.14249408],5.0,0.6,0.0,0.088368221328446,-2.1923205184673904,0.499994187052802
9.180717468261719,0.5828743720254873,[0.14240022],5.0,0.6,0.0,0.09229470846395568,-2.1715938427011983,0.49999365900331544
9.188749313354492,0.5795525938409639,[0.14230219],5.0,0.6,0.0,0.07508738000440343,-2.1530796852771474,0.49999580300207547
9.199970722198486,0.5750584233560204,[0.14220059],5.0,0.6,0.0,0.05344330677043008,-2.131734037925536,0.49999787385736705
9.208752870559692,0.5717366451714971,[0.14209583],5.0,0.6,0.0,0.03384165595244612,-2.1159686300021012,0.49999914747030144
9.218717098236084,0.5676332721200271,[0.14198812],5.0,0.6,0.0,0.01821587893631839,-2.095927316919657,0.4999997529943825
9.226709127426147,0.5643114939355037,[0.14187156],5.0,0.6,0.0,0.006620640370176878,-2.147531412661935,0.499999967370783
