t_s,q_rad,q_des_rad,K,B,Kff,jerk,tau_Nm,reward
0.005997657775878906,0.0,[0.00308687],9.825212432529046,0.9781515540661307,1.9737818648793566,0.0,9.9,1.498096062062325
0.014634370803833008,-0.00019539871673667023,[0.01501962],9.650424865058092,0.9563031081322615,1.9475637297587132,0.0,9.999,1.4547560818305048
0.022173643112182617,0.0,[0.03767039],9.475637297587138,0.9344546621983922,1.92134559463807,0.0,9.99999,1.2529084292933557
0.033037424087524414,0.0,[0.06954916],9.300849730116184,0.9126062162645229,1.8951274595174268,0.0,9.9999999,0.8800634402981848
0.04254555702209473,-0.00019539871673667023,[0.10927557],9.12606216264523,0.8907577703306536,1.8689093243967834,0.0,9.999999999,0.5910106521325864
0.051753997802734375,0.0,[0.15547347],8.951274595174274,0.8689093243967844,1.84269118927614,0.0,9.99999999999,0.5079514583747293
0.06118011474609375,0.0,[0.20687941],8.77648702770332,0.847060878462915,1.8164730541554968,0.0,-9.8000000000001,0.5001916541723544
0.07050657272338867,0.0,[0.26238204],8.601699460232366,0.8252124325290457,1.7902549190348536,0.0,-9.998000000000001,0.5000010477487131
0.07802534103393555,0.0,[0.32092084],8.426911892761412,0.8033639865951765,1.7640367839142101,0.0,-9.99998,0.5000000011334078
0.08803033828735352,0.0,[0.38152672],8.252124325290458,0.7815155406613071,1.7378186487935667,0.0,-9.999999800000001,0.5000000000002273
0.0977168083190918,0.0,[0.44339435],8.077336757819502,0.7596670947274378,1.7116005136729235,0.0,-5.0499999980000005,0.5
0.10502052307128906,0.0,[0.50574675],7.902549190348549,0.7378186487935685,1.6853823785522803,0.0,-5.000499999980001,0.5
0.11518216133117676,0.0,[0.56781503],7.727761622877595,0.7159702028596993,1.659164243431637,0.0,-5.0000049999998,0.5
0.12299203872680664,0.0,[0.62900087],7.55297405540664,0.6941217569258299,1.6329461083109935,0.0,-5.000000049999998,0.5
0.13202667236328125,0.0,[0.68886235],7.378186487935686,0.6722733109919605,1.6067279731903503,0.0,-5.0000000005,0.5
0.1418302059173584,0.0,[0.74704933],7.203398920464732,0.6504248650580913,1.5805098380697071,0.0,-5.0000000000050004,0.5
0.1520674228668213,0.0,[0.80330629],7.028611352993777,0.6285764191242219,1.5542917029490637,0.0,-5.00000000000005,0.5
0.16030335426330566,0.0,[0.85743131],6.853823785522822,0.6067279731903527,1.5280735678284203,0.0,-5.000000000000001,0.5
0.17001676559448242,0.0,[0.90931256],6.679036218051868,0.5848795272564833,1.501855432707777,0.0,-5.0,0.5
0.18104004859924316,0.0,[0.95904402],6.504248650580913,0.563031081322614,1.475637297587134,0.0,-5.0,0.5
0.19047164916992188,0.0,[1.00676967],6.329461083109958,0.5411826353887447,1.4494191624664907,0.0,-5.0,0.5
0.19902658462524414,0.0,[1.05248293],6.154673515639004,0.5193341894548753,1.4232010273458477,0.0,-5.0,0.5
0.20906782150268555,0.0,[1.09623865],5.97988594816805,0.5,1.3969828922252046,0.0,4.9,0.5
0.2174062728881836,0.0,[1.13822471],5.805098380697095,0.5,1.3707647571045614,0.0,4.9990000000000006,0.5
0.22608590126037598,0.0017585884506300322,[1.17854747],5.63031081322614,0.5,1.3445466219839184,0.552076719357362,4.99999,0.49977316659524446
0.234450101852417,0.004884967918416756,[1.21729699],5.455523245755186,0.5,1.3183284868632752,1.99851772407365,4.999999900000001,0.49703563222477215
0.24277472496032715,0.008011347386203481,[1.25456927],5.280735678284231,0.5,1.292110351742632,5.0,4.999999999,0.4817320621239355
0.2510061264038086,0.011528524287463544,[1.29041416],5.105948110813277,0.5,1.2658922166219888,5.0,4.99999999999,0.4817320621239355
0.2590622901916504,0.0144595050385136,[1.3248416],5.0,0.5,1.2396740815013456,5.0,4.9999999999999005,0.4817320621239355
0.2681612968444824,0.017976681939773663,[1.35787838],5.0,0.5,1.2134559463807026,5.0,4.999999999999999,0.4817320621239355
0.27648162841796875,0.02129846012429706,[1.3897176],5.0,0.5,1.1872378112600595,5.0,5.0,0.4817320621239355
0.28609275817871094,0.02501103574229379,[1.42053808],5.0,0.5,1.1610196761394163,5.0,5.0,0.4817320621239355
0.2950174808502197,0.028528212643553853,[1.45039995],5.0,0.5,1.1348015410187733,5.0,5.0,0.4817320621239355
0.3050410747528076,0.03224078826155059,[1.47944279],5.0,0.5,1.10858340589813,5.0,5.0,0.4817320621239355
0.3130056858062744,0.03517176901260064,[1.50781148],5.0,0.5,1.082365270777487,5.0,5.398359402636264,0.4817320621239355
0.3220202922821045,0.038884344630597374,[1.53550304],5.0,0.5,1.0561471356568437,4.485983862306928,-9.846016405973637,0.48524183208833116
0.3327958583831787,0.04318311639880412,[1.56245089],5.0,0.5,1.0299290005362005,2.3734319066118603,-9.998460164059736,0.4958241935972135
0.3428840637207031,0.04748188816701086,[1.58854578],5.0,0.5,1.0037108654155575,-0.1569832534558424,-9.999984601640598,0.4999816555219512
0.35236310958862305,0.05138986250174427,[1.61359219],5.0,0.5,0.9774927302949143,-2.3392876858771827,-9.999999846016406,0.49594299052588614
0.36007165908813477,0.054320843252794335,[1.6373245],5.0,0.5,0.9512745951742712,-4.242829529284516,-9.999999998460165,0.48677757483248596
0.3685433864593506,0.05744722272058106,[1.65939189],5.0,0.5,0.9250564600536281,-5.0,-9.999999999984603,0.4817320621239355
0.37662196159362793,0.060769000905104446,[1.67950074],5.0,0.5,0.898838324932985,-5.0,-9.999999999999847,0.4817320621239355
0.3881721496582031,0.06526317139004786,[1.69738181],5.0,0.5,0.8726201898123418,-5.0,-9.999999999999998,0.4817320621239355
0.3969004154205322,0.06917114572478127,[1.71265166],5.0,0.5,0.8464020546916986,-5.0,-10.0,0.4817320621239355
0.40633535385131836,0.07268832262604133,[1.72499863],5.0,0.5,0.8201839195710555,-5.0,-10.0,0.4817320621239355
0.4188706874847412,0.07776868926119475,[1.73422322],5.0,0.5,0.7939657844504124,-5.0,-5.05,0.4817320621239355
0.4270310401916504,0.0806996700122448,[1.74022544],5.0,0.5,0.7677476493297692,-5.0,-5.000500000000001,0.4817320621239355
0.43530964851379395,0.08167666359592816,[1.74311931],5.0,0.5,0.741529514209126,-5.0,-5.000005,0.4817320621239355
0.4437406063079834,0.07952727771182479,[1.74309211],5.0,0.5,0.715311379088483,-5.0,-5.000000050000001,0.4817320621239355
0.45401430130004883,0.0762054995273014,[1.7401376],5.0,0.5,0.6890932439678399,-5.0,-5.0000000005,0.4817320621239355
0.46497535705566406,0.07190672775909465,[1.7342055],5.0,0.5,0.6628751088471967,-5.0,-5.0000000000050004,0.4817320621239355
0.47399234771728516,0.06819415214109792,[1.72547993],5.0,0.5,0.6366569737265535,-5.0,-5.00000000000005,0.4817320621239355
0.4819941520690918,0.06487237395657452,[1.71431776],5.0,0.5,0.6104388386059104,-5.0,-5.000000000000001,0.4817320621239355
0.49130702018737793,0.06115979833857779,[1.70114005],5.0,0.5,0.5842207034852673,-5.0,4.9,0.4817320621239355
0.5012428760528564,0.05705642528710771,[1.68643275],5.0,0.5,0.5580025683646241,-5.0,4.9990000000000006,0.4817320621239355
0.5090844631195068,0.05627483042016103,[1.6707092],5.0,0.5,0.531784433243981,-5.0,4.99999,0.4817320621239355
0.5170047283172607,0.0578380201540544,[1.65450436],5.0,0.5,0.5055662981233379,-5.0,4.999999900000001,0.4817320621239355
0.52724289894104,0.061355197055314455,[1.63843119],5.0,0.5,0.4793481630026947,-3.3099907082226077,4.999999999,0.49191047406079913
0.5360753536224365,0.06487237395657452,[1.62314919],5.0,0.5,0.4531300278820516,5.0,4.99999999999,0.4817320621239355
0.5452849864959717,0.06878034829130793,[1.60921657],5.0,0.5,0.42691189276140845,5.0,4.9999999999999005,0.4817320621239355
0.559546947479248,0.07444691107667137,[1.59705979],5.0,0.5,0.4006937576407653,5.0,4.999999999999999,0.4817320621239355
0.5703189373016357,0.07874568284487811,[1.58705877],5.0,0.5,0.3744756225201221,5.0,5.0,0.4817320621239355
0.5801992416381836,0.08245825846287484,[1.57947421],5.0,0.5,0.3482574873994789,5.0,5.0,0.4817320621239355
0.5893292427062988,0.08578003664739824,[1.57443731],5.0,0.5,0.3220393522788358,5.0,5.0,0.4817320621239355
0.6018426418304443,0.09086040328255167,[1.57202662],5.0,0.5,0.2958212171581926,5.0,5.0,0.4817320621239355
0.6111240386962891,0.09476837761728506,[1.57227451],5.0,0.5,0.2696030820375494,5.0,5.0,0.4817320621239355
0.619042158126831,0.09809015580180845,[1.57517369],5.0,0.5,0.24338494691690624,5.0,5.0,0.4817320621239355
0.6290466785430908,0.10219352885327855,[1.5807341],5.0,0.5,0.21716681179626307,5.0,5.0,0.4817320621239355
0.6386723518371582,0.10571070575453859,[1.58892927],5.0,0.5,0.19094867667561988,3.690075139301605,5.0,0.4899658077854692
0.6477494239807129,0.10922788265579866,[1.59960102],5.0,0.5,0.16473054155497668,1.1216857216614518,5.0,0.49906428763902805
0.6571500301361084,0.11313585699053208,[1.61258323],5.0,0.5,0.13851240643433352,-1.1013571629435592,5.0,0.4990978662095393
0.6670944690704346,0.11723923004200215,[1.62780669],5.0,0.5,0.11229427131369034,-3.0536423895596565,5.0,0.49310662458945204
0.6762924194335938,0.12075640694326222,[1.64518402],5.0,0.5,0.08607613619304716,-4.511165748571568,5.0,0.4850781825210878
0.684086799621582,0.12388278641104894,[1.66451237],5.0,0.5,0.05985800107240398,-5.0,5.0,0.4817320621239355
0.69289231300354,0.12720456459557233,[1.68559462],5.0,0.5,0.0336398659517608,-5.0,5.0,0.4817320621239355
0.7021300792694092,0.13111253893030572,[1.70823928],5.0,0.5,0.0074217308311176206,-5.0,5.0,0.4817320621239355
0.7110738754272461,0.1346297158315658,[1.73220477],5.0,0.5,0.0,-5.0,5.0,0.4817320621239355
0.7205078601837158,0.13814689273282588,[1.75725733],5.0,0.5,0.0,-5.0,5.0,0.4817320621239355
0.7307319641113281,0.14205486706755927,[1.78320497],5.0,0.5,0.0,-5.0,5.0,0.4817320621239355
0.739300012588501,0.14557204396881931,[1.80988973],5.0,0.5,0.0,-5.0,5.0,0.4817320621239355
0.7490537166595459,0.14948001830355273,[1.83713245],5.0,0.5,0.0,-5.0,5.0,0.4817320621239355
0.7595236301422119,0.15397418878849614,[1.86476244],5.0,0.5,0.0,-4.961653692074117,5.0,0.4820061063891486
0.7675833702087402,0.15729596697301954,[1.89257396],5.0,0.5,0.0,-4.7339673121658645,5.0,0.4835928829253138
0.7771005630493164,0.16120394130775295,[1.92038773],5.0,0.5,0.0,-4.431766233515981,5.0,0.4855912515110111
0.7853620052337646,0.164134922058803,[1.94819981],5.0,0.5,0.0,-4.109808432012443,5.0,0.4875834553670514
0.7937271595001221,0.16765209896006306,[1.97597261],5.0,0.5,0.0,-3.7933432468516672,5.0,0.48940240514687383
0.8040547370910645,0.17156007329479647,[2.00351736],5.0,0.5,0.0,-3.493254950371525,5.0,0.49099822459510223
0.8141512870788574,0.1754680476295299,[2.03064248],5.0,0.5,0.0,-3.213537728973297,5.0,0.4923714989597679
0.8221936225891113,0.17859442709731663,[2.05714561],5.0,0.5,0.0,-3.2310021727481644,5.0,0.4922890016348291
0.8319993019104004,0.18289319886552335,[2.08278997],5.0,0.5,0.0,-3.026030482639907,5.0,0.4932298806811833
0.8429856300354004,0.1871919706337301,[2.10734498],5.0,0.5,0.0,-2.7520666127501148,5.0,0.49439367448732746
0.8510074615478516,0.19012295138478016,[2.13061293],5.0,0.5,0.0,-2.474915596896726,5.0,0.4954611194558055
0.8589813709259033,0.19324933085256688,[2.15243732],5.0,0.5,0.0,-2.2196980258925203,5.0,0.4963457136444393
0.8699812889099121,0.19735270390403695,[2.17266382],5.0,0.5,0.0,-1.9933979863097617,5.0,0.49705075598842285
0.8806133270263672,0.20184687438898036,[2.19114958],5.0,0.5,0.0,-1.7954856235297485,5.0,0.49760597463625833
0.8886492252349854,0.20536405129024043,[2.20780085],5.0,0.5,0.0,-1.6227716141260349,5.0,0.49804354252448124
0.8989889621734619,0.20966282305844713,[2.22253056],5.0,0.5,0.0,-1.4715138769266962,5.0,0.4983907054055391
0.9109985828399658,0.2145477909768639,[2.23520673],5.0,0.5,0.0,-1.3382458629218783,5.0,0.49866862731068806
0.9189374446868896,0.217478771727914,[2.24573967],5.0,0.5,0.0,-1.2200325120915876,5.0,0.4988932020057256
0.9269795417785645,0.22099594862917407,[2.2540991],5.0,0.5,0.0,-1.1144869093161813,5.0,0.4990762485580251
0.937035322189331,0.22490392296390746,[2.2601511],5.0,0.5,0.0,-0.743661783351214,5.0,0.4995884914854622
0.9463372230529785,0.22822570114843083,[2.26372692],5.0,0.5,0.0,-0.9010262028098007,5.0,0.49939602483381956
0.9564526081085205,0.2325244729166376,[2.26478529],5.0,0.5,0.0,-0.9117177420852054,5.0,0.4993816152251947
0.9649488925933838,0.23584625110116098,[2.2633116],5.0,0.5,0.0,-0.5861702488955804,5.0,0.499744292690056
0.9754214286804199,0.24014502286936773,[2.25929073],5.0,0.5,0.0,-0.4832121276502275,5.0,0.4998262171789902
0.9833683967590332,0.24307600362041779,[2.25281636],5.0,0.5,0.0,-0.4656912816756738,5.0,0.49983858912901186
0.9929599761962891,0.24698397795515117,[2.24400288],5.0,0.5,0.0,-0.7494602633721013,5.0,0.49958205193174027
1.0020663738250732,0.2506965535731479,[2.23292194],5.0,0.5,0.0,-0.7912965802170756,5.0,0.4995341105873634
1.012495756149292,0.25499532534135466,[2.21971173],5.0,0.5,0.0,-0.46174776013810864,5.0,0.499841310810044
1.0219595432281494,0.25870790095935137,[2.20451638],5.0,0.5,0.0,-0.3457245883415655,5.0,0.49991103307687096
1.0320346355438232,0.2626158752940848,[2.18740114],5.0,0.5,0.0,-0.31635238287327383,5.0,0.4999255068152922
1.0415234565734863,0.2665238496288182,[2.16847709],5.0,0.5,0.0,-0.31666627900717215,5.0,0.4999253589233942
1.048973798751831,0.26965022909660497,[2.14802669],5.0,0.5,0.0,-0.322679464243515,5.0,0.49992249750769413
1.0600364208221436,0.27414439958154835,[2.12638164],5.0,0.5,0.0,-0.32551316180493484,5.0,0.4999211304201037
1.0683948993682861,0.2772707790493351,[2.10383197],5.0,0.5,0.0,-0.3228785038566838,5.0,0.4999224018733077
1.0777547359466553,0.2807879559505952,[2.08072092],5.0,0.5,0.0,-0.3151090783982726,5.0,0.49992609115657205
1.0880744457244873,0.2850867277188019,[2.05745996],5.0,0.5,0.0,-0.5794194993765451,5.0,0.4997501471221237
1.0999865531921387,0.28997169563721864,[2.0345021],5.0,0.5,0.0,-0.3220908975716603,5.0,0.4999227799568019
1.1104531288146973,0.29387966997195203,[2.01230382],5.0,0.5,0.0,-0.21786023368135982,5.0,0.4999646697051875
1.1180088520050049,0.2970060494397388,[1.99125036],5.0,0.5,0.0,-0.1801166091345531,5.0,0.49997585074641304
1.1279850006103516,0.3009140237744722,[1.97168264],5.0,0.5,0.0,-0.16879170061068322,5.0,0.4999787920035373
1.137310266494751,0.3044312006757322,[1.95391447],5.0,0.5,0.0,-0.16609985085836276,5.0,0.49997946303603386
1.1473071575164795,0.30853457372720233,[1.93814142],5.0,0.5,0.0,-0.16470609927309174,5.0,0.49997980623634486
1.154984474182129,0.31146555447825236,[1.92447538],5.0,0.5,0.0,-0.1620186749075884,5.0,0.4999804598298616
1.1636691093444824,0.3147873326627758,[1.91296065],5.0,0.5,0.0,-0.15748107443733142,5.0,0.4999815389926144
1.1734371185302734,0.3184999082807725,[1.90354768],5.0,0.5,0.0,-0.15132008845752137,5.0,0.49998295517895996
1.1811304092407227,0.3218216864652959,[1.89615005],5.0,0.5,0.0,-0.1439911186182755,5.0,0.49998456625275284
1.1902968883514404,0.3255342620832926,[1.8906439],5.0,0.5,0.0,-0.13595066882229886,5.0,0.4999862417436515
1.1989638805389404,0.3290514389845527,[1.88685331],5.0,0.5,0.0,-0.1275773999155962,5.0,0.49998788428895335
1.2083473205566406,0.3325686158858127,[1.88457371],5.0,0.5,0.0,-0.11915695554858266,5.0,0.49998943083002945
1.2189621925354004,0.33706278637075615,[1.88358367],5.0,0.5,0.0,-0.11089132164651522,5.0,0.49999084627588375
1.2297520637512207,0.3411661594222262,[1.88364529],5.0,0.5,0.0,-0.1029153112958085,5.0,0.4999921156982878
1.2379908561706543,0.3444879376067496,[1.88452011],5.0,0.5,0.0,-0.09531301795964113,5.0,0.4999932374859464
1.2481262683868408,0.3485913106582197,[1.88596919],5.0,0.5,0.0,-0.08813174102060478,5.0,0.499994218122801
1.2559494972229004,0.35132689269253303,[1.88778583],5.0,0.5,0.0,-0.08139289308752445,5.0,0.4999950685174026
1.2654552459716797,0.3552348670272665,[1.88982742],5.0,0.5,0.0,-0.07510017368470677,5.0,0.4999958015717579
1.2751824855804443,0.3593382400787366,[1.89196008],5.0,0.5,0.0,-0.06924552227084599,5.0,0.4999964306550964
1.2829530239105225,0.36226922082978663,[1.89406886],5.0,0.5,0.0,-0.0638133662509093,5.0,0.4999969687017506
1.2918057441711426,0.3655909990143101,[1.89610236],5.0,0.5,0.0,-0.05878360299649331,5.0,0.4999974277216564
1.3019957542419434,0.36949897334904347,[1.89805108],5.0,0.5,0.0,-0.054133661994999416,5.0,0.4999978185737151
1.3099594116210938,0.3724299541000935,[1.89995093],5.0,0.5,0.0,-0.049839908605293574,5.0,0.4999981509002205
1.3196661472320557,0.37672872586830025,[1.90187294],5.0,0.5,0.0,-0.045878581867407404,5.0,0.49999843315525566
1.3282108306884766,0.3800505040528236,[1.90394392],5.0,0.5,0.0,-0.042226405609140025,5.0,0.49999867268400183
1.3369638919830322,0.38356768095408367,[1.90634327],5.0,0.5,0.0,-0.0388609724270577,5.0,0.4999988758260565
1.3471860885620117,0.3878664527222904,[1.90923163],5.0,0.5,0.0,-0.03576097115100456,5.0,0.49999904802647505
1.3569512367248535,0.3917744270570238,[1.9128481],5.0,0.5,0.0,-0.03290630753737747,5.0,0.4999991939450863
1.3649442195892334,0.3947054078080739,[1.91746956],5.0,0.5,0.0,-0.030278153047128914,5.0,0.49999931755895594
1.3760030269622803,0.3991995782930173,[1.92325356],5.0,0.5,0.0,0.2481794136675532,5.0,0.4999541522242186
1.385207176208496,0.40291215391101404,[1.93036261],5.0,0.5,0.0,0.2835306007999129,5.0,0.49994016151866777
1.3954484462738037,0.4074063243959575,[1.93892189],5.0,0.5,0.0,0.2304824409420408,5.0,0.4999604574027759
1.4042911529541016,0.41092350129721755,[1.94891344],5.0,0.5,0.0,0.1562830524350252,5.0,0.4999818187997878
1.4130620956420898,0.41424527948174095,[1.9602639],5.0,0.5,0.0,0.08749545549005827,5.0,0.4999943013078938
1.4213542938232422,0.41717626023279103,[1.9728086],5.0,0.5,0.0,0.03247015338180723,5.0,0.49999921517104945
1.4302659034729004,0.420693437134051,[1.98633649],5.0,0.5,0.0,-0.008058524229145318,5.0,0.49999995165877115
1.4390830993652344,0.424210614035311,[2.00070314],5.0,0.5,0.0,-0.036122137715057026,5.0,0.49999902870055274
1.4479458332061768,0.4275323922198345,[2.01583182],5.0,0.5,0.0,-0.054406448337838226,5.0,0.4999977965334074
1.4559805393218994,0.43085417040435786,[2.03175576],5.0,0.5,0.0,-0.06541492704028237,5.0,0.49999681463638757
1.4649207592010498,0.43437134730561794,[2.04850793],5.0,0.5,0.0,-0.07120399778638017,5.0,0.49999622589661874
1.473419189453125,0.43769312549014133,[2.06592803],5.0,0.5,0.0,-0.07335804775541926,5.0,0.49999599409665957
1.4833295345306396,0.4417964985416114,[2.08376209],5.0,0.5,0.0,-0.07305205496700636,5.0,0.49999602744586163
1.4939305782318115,0.44609527030981816,[2.10174587],5.0,0.5,0.0,-0.07113544238095823,5.0,0.4999962331605271
1.5031580924987793,0.45000324464455155,[2.11958705],5.0,0.5,0.0,-0.06821074130280264,5.0,0.4999965365357438
1.5149738788604736,0.4541066176960216,[2.13692678],5.0,0.5,0.0,-0.06469860003946097,5.0,0.49999688401693304
1.5229442119598389,0.45742839588054507,[2.15333176],5.0,0.5,0.0,-0.060888226675974155,5.0,0.4999972402348364
1.53108549118042,0.4607501740650684,[2.16852818],5.0,0.5,0.0,-0.05697513479523134,5.0,0.4999975835581502
1.5411522388458252,0.4648535471165385,[2.18232104],5.0,0.5,0.0,-0.05308875339168721,5.0,0.49999790197422544
1.5499463081359863,0.46837072401779856,[2.19435376],5.0,0.5,0.0,-0.049312320187810815,5.0,0.4999981898408367
1.5579566955566406,0.47149710348558527,[2.20438212],5.0,0.5,0.0,-0.0456970647707368,5.0,0.4999984455290488
1.5669915676116943,0.47520967910358203,[2.21241859],5.0,0.5,0.0,-0.042272242352995114,5.0,0.4999986698008399
1.5788264274597168,0.47970384958852547,[2.21832609],5.0,0.5,0.0,-0.03905218871215342,5.0,0.499998864735805
1.5894057750701904,0.48380722263999554,[2.22170893],5.0,0.5,0.0,-0.03604125454468761,5.0,0.4999990330454643
1.5982208251953125,0.4873243995412556,[2.22230628],5.0,0.5,0.0,-0.033237239284874466,5.0,0.49999917765092994
1.6069705486297607,0.49084157644251564,[2.2201509],5.0,0.5,0.0,-0.03063376794140137,5.0,0.49999930143437954
1.6153090000152588,0.49435875334377566,[2.21534482],5.0,0.5,0.0,-0.028221926078826277,5.0,0.49999940710236523
1.6244533061981201,0.4982667276785091,[2.20790328],5.0,0.5,0.0,-0.025991375750087004,5.0,0.4999994971192719
1.6324396133422852,0.5013931071462958,[2.19792265],5.0,0.5,0.0,-0.023931109348752214,5.0,0.49999957368348935
1.640381097793579,0.504324087897346,[2.18561872],5.0,0.5,0.0,-0.022029951676093625,5.0,0.4999996387285789
1.6479241847991943,0.5074504673651327,[2.17125526],5.0,0.5,0.0,-0.29631524723039393,5.0,0.4999346438759649
1.655907392501831,0.5103814481161826,[2.15518371],5.0,0.5,0.0,-0.3278242319231,5.0,0.49992000662194935
1.6670708656311035,0.5150710173178628,[2.13757058],5.0,0.5,0.0,-0.27123864664356145,5.0,0.4999452371516686
1.6749184131622314,0.5178065993521761,[2.11837292],5.0,0.5,0.0,-0.19378300727640305,5.0,0.49997204716132965
1.687964916229248,0.5228869659873295,[2.09762544],5.0,0.5,0.0,-0.12199838588548431,6.783016453177299,0.4999889207583957
1.6969306468963623,0.5264041428885896,[2.07537795],5.0,0.5,0.0,-0.06421492971662016,6.710049208822705,0.4999969304312463
1.7072317600250244,0.5310937120902697,[2.0516557],5.0,0.5,0.0,-0.021148126264672346,6.4904514728953195,0.4999996670720013
1.7149078845977783,0.5340246928413197,[2.02661436],5.0,0.5,0.0,0.009250999871727736,6.349792835609074,0.49999993629346307
1.7229223251342773,0.5371510723091065,[2.00056412],5.0,0.5,0.0,0.0296842879481281,6.314863144815467,0.49999934406672636
1.731100082397461,0.5404728504936299,[1.97380652],5.0,0.5,0.0,0.042670039979358115,6.3663798804780924,0.4999986446477338
1.7389631271362305,0.54340383124468,[1.94659553],5.0,0.5,0.0,0.05027835203834074,6.300719553880487,0.49999811822399226
1.7499480247497559,0.5478980017296233,[1.9191669],5.0,0.5,0.0,0.05410620891058952,6.233609298428932,0.4999978207857053
1.7599873542785645,0.5520013747810935,[1.89177137],5.0,0.5,0.0,0.05534019190004574,6.2653240770194945,0.499997720251142
1.7685906887054443,0.5557139503990901,[1.8647318],5.0,0.5,0.0,0.05484040842839883,6.2694426822399985,0.4999977612424462
1.7772526741027832,0.5592311273003503,[1.83841088],5.0,0.5,0.0,-0.2228191335639342,6.161983244750849,0.4999630430955629
1.7863819599151611,0.5627483042016103,[1.81320523],5.0,0.5,0.0,-0.2582566155398547,6.496592078458615,0.4999503535700722
1.7939183712005615,0.5654838862359236,[1.78949744],5.0,0.5,0.0,-0.20586639322862388,6.340379833002898,0.49996845257724437
1.8039376735687256,0.5695872592873937,[1.76770137],5.0,0.5,0.0,-0.13267939565727732,6.6295048184567005,0.4999868958772197
1.8139984607696533,0.5731044361886538,[1.74827591],5.0,0.5,0.0,-0.06510921324289527,6.523259048080571,0.49999684434003644
1.8227877616882324,0.5768170118066506,[1.73155796],5.0,0.5,0.0,-0.2874430290875103,6.583199781776912,0.49993849880902164
1.8309540748596191,0.580138789991174,[1.71777673],5.0,0.5,0.0,-0.2813948313333155,6.526768446745236,0.4999410595688125
1.8399641513824463,0.583655966892434,[1.70703535],5.0,0.5,0.0,-0.1995800447976379,6.342735795752005,0.49997034977252175
1.8493225574493408,0.5873685425104307,[1.6993054],5.0,0.5,0.0,-0.10651826557855983,6.345812335123111,0.49999155399800227
1.8593029975891113,0.5912765168451641,[1.69457759],5.0,0.5,0.0,-0.026238473580075333,6.345107999774132,0.4999994875121359
1.8692653179168701,0.5951844911798975,[1.69290606],5.0,0.5,0.0,0.03498721973662986,6.486019793695558,0.4999990887760104
1.8769285678863525,0.5981154719309476,[1.69424584],5.0,0.5,0.0,0.07802476491084197,6.479553158750267,0.49999546821137664
1.8858802318572998,0.6020234462656809,[1.6984185],5.0,0.5,0.0,0.1060922956210576,6.598583059789516,0.49999162141403203
1.895634651184082,0.6061268193171511,[1.70533774],5.0,0.5,0.0,0.12273354329152593,6.557294771232681,0.4999887868314501
1.9029264450073242,0.6090578000682011,[1.7148952],5.0,0.5,0.0,0.13106088824629514,6.410762940591626,0.4999872136279759
1.9109272956848145,0.6121841795359879,[1.72676256],5.0,0.5,0.0,0.13355623032621083,6.452565513663594,0.4999867221054995
1.920107126235962,0.6158967551539846,[1.74058167],5.0,0.5,0.0,0.13209687772137851,6.517443350318463,0.49998701068827534
1.9311861991882324,0.620390925638928,[1.75622302],5.0,0.5,0.0,0.40409458756889205,6.711105838203711,0.49987845979826234
1.9400036334991455,0.6235173051067148,[1.77364638],5.0,0.5,0.0,0.43157841192559354,6.6011352587689895,0.49986136723469565
1.9523115158081055,0.6284022730251315,[1.79275641],5.0,0.5,0.0,0.09388953790476999,6.868062463008961,0.499993437969741
1.9626495838165283,0.6325056460766015,[1.81348972],5.0,0.5,0.0,-0.02231237370588423,6.827184891764488,0.4999996294062721
1.9709179401397705,0.6356320255443884,[1.83566025],5.0,0.5,0.0,-0.04484937173002225,6.729299367247509,0.4999985026657721
1.9799466133117676,0.6393446011623851,[1.85897027],5.0,0.5,0.0,-0.03240604549388907,6.827570214525292,0.49999921826706306
1.9906620979309082,0.6438387716473285,[1.8831785],5.0,0.5,0.0,-0.010674414284950334,6.827848901424011,0.4999999151806877
1.9985525608062744,0.6473559485485886,[1.90802172],5.0,0.5,0.0,0.010047134166989349,6.797128129838659,0.4999999248565646
2.007883071899414,0.650677726733112,[1.93320019],5.0,0.5,0.0,0.02638577615534629,6.854749554958562,0.49999948174178155
2.01747727394104,0.6545857010678453,[1.95846037],5.0,0.5,0.0,0.3139305106492875,6.914827357402461,0.4999266429483761
2.0249102115631104,0.6577120805356321,[1.98357801],5.0,0.5,0.0,0.3543645815699099,6.944491356204026,0.49990653119392425
2.0353245735168457,0.6616200548703655,[2.00835271],5.0,0.5,0.0,0.30329417036605993,7.06350189954896,0.4999315292535004
2.0453264713287354,0.6657234279218355,[2.03263726],5.0,0.5,0.0,0.22882316400247532,7.129300584675594,0.49996102467719106
2.054095506668091,0.6694360035398322,[2.05629279],5.0,0.5,0.0,0.15822077923857408,7.1678473743127675,0.4999813651620525
2.0619215965270996,0.6723669842908824,[2.07917612],5.0,0.5,0.0,0.1003798943839361,7.249469279935405,0.4999924993847829
2.071899890899658,0.6760795599088789,[2.10117907],5.0,0.5,0.0,0.05643342188992144,7.322609942999259,0.49999762929008773
2.082456111907959,0.6801829329603492,[2.12222433],5.0,0.5,0.0,0.02463357888723111,7.388825318824136,0.49999954828812804
2.0927908420562744,0.6840909072950825,[2.14225098],5.0,0.5,0.0,0.002491317804561721,7.493216499737445,0.4999999953797557
2.10188627243042,0.6878034829130792,[2.16121355],5.0,0.5,0.0,-0.01236406810776186,7.604755526242638,0.4999998862033694
2.109910249710083,0.6913206598143393,[2.17906964],5.0,0.5,0.0,-0.021902188074586118,7.676848456654196,0.4999996429068428
2.11993670463562,0.6954240328658093,[2.19581611],5.0,0.5,0.0,-0.027653079356437908,7.7241788047886955,0.4999994307625978
2.1319169998168945,0.7003090007842262,[2.21171825],5.0,0.5,0.0,-0.030759976705852836,5.0272417880478875,0.49999929566645324
2.140132427215576,0.7036307789687495,[2.22717794],5.0,0.5,0.0,-0.03205607779213742,5.000272417880479,0.4999992350604609
2.150822877883911,0.7077341520202196,[2.24226304],5.0,0.5,0.0,-0.03213817034184757,5.000002724178805,0.4999992311375732
2.1616721153259277,0.712228322505163,[2.25673435],5.0,0.5,0.0,-0.03142809651418036,5.000000027241788,0.4999992647373378
2.1699817180633545,0.7153547019729498,[2.2702023],5.0,0.5,0.0,-0.030220721982127552,5.000000000272418,0.4999993201453831
2.1789321899414062,0.7190672775909466,[2.28215836],5.0,0.5,0.0,-0.02871996912054711,5.000000000002724,0.49999938599155286
2.18721866607666,0.72238905577547,[2.29214525],5.0,0.5,0.0,-0.0270652518511691,5.0000000000000275,0.4999994547061697
2.195906400680542,0.7259062326767299,[2.29989523],5.0,0.5,0.0,-0.025350571301408085,5.000000000000001,0.4999995216101356
2.2061243057250977,0.7298142070114633,[2.30527831],5.0,0.5,0.0,-0.023638165024134836,5.0,0.4999995840568129
2.214287519454956,0.7329405864792501,[2.30826806],5.0,0.5,0.0,-0.021968190275078223,5.0,0.4999996407514017
2.2229084968566895,0.7362623646637734,[2.30891584],5.0,0.5,0.0,-0.020365555397093858,5.0,0.49999969125562205
2.2325379848480225,0.7401703389985068,[2.30723766],5.0,0.5,0.0,-0.01884471791969331,5.0,0.49999973564602657
2.2417938709259033,0.743687515899767,[2.3032294],5.0,0.5,0.0,-0.017413041710900565,6.9486821422203615,0.4999997742873717
2.2527270317077637,0.7481816863847104,[2.29692096],5.0,0.5,0.0,-0.016073137409779316,6.894291764871594,0.4999998076873258
2.2629096508026123,0.7522850594361805,[2.28836465],5.0,0.5,0.0,-0.014824487831137375,6.809619247944166,0.4999998364065165
2.2729384899139404,0.7561930337709138,[2.27762543],5.0,0.5,0.0,-0.013664571839172045,6.715668403607525,0.4999998610051621
2.280888557434082,0.7595148119554372,[2.26482968],5.0,0.5,0.0,-0.01258963723852325,6.75755639836643,0.4999998820132993
2.290882110595703,0.7636181850069071,[2.25010623],5.0,0.5,0.0,0.26444313110556367,6.469259929377958,0.4999479466542323
2.2994272708892822,0.766744564474694,[2.23358715],5.0,0.5,0.0,0.29848641867769476,6.3691105662029095,0.49993368267149496
2.3081722259521484,0.7702617413759542,[2.21545814],5.0,0.5,0.0,0.24423703177847195,6.124676819509564,0.4999555971938447
2.3178470134735107,0.7739743169939507,[2.19579563],5.0,0.5,0.0,0.16893394282891738,6.051225463102274,0.4999787562449138
2.326890468597412,0.7774914938952109,[2.17468412],5.0,0.5,0.0,0.09913194140563097,6.099638737380123,0.49999268472391606
2.3359429836273193,0.7810086707964708,[2.15231542],5.0,0.5,0.0,0.04317408713942625,5.951536371406869,0.4999986124379919
2.3448610305786133,0.784525847697731,[2.12886783],5.0,0.5,0.0,0.0017879515226078245,5.942327146104143,0.4999999976203222
2.3547203540802,0.7888246194659378,[2.10445488],5.0,0.5,0.0,-0.02706418034014077,5.607363262753799,0.49999945474934504
2.364609718322754,0.7925371950839345,[2.0790903],5.0,0.5,0.0,-0.046073687776071605,5.48580749636992,0.49999841980043125
2.3728718757629395,0.7958589732684579,[2.05287166],5.0,0.5,0.0,-0.05774917948040405,5.518397054621044,0.4999975174544072
2.3836700916290283,0.8003531437534013,[2.02606131],5.0,0.5,0.0,-0.06415178454154719,5.469520840556395,0.4999969364651255
2.3918569087982178,0.8036749219379247,[1.99898438],5.0,0.5,0.0,-0.06687020372750757,5.534066189639197,0.4999966713316825
2.400887966156006,0.8071920988391849,[1.97205808],5.0,0.5,0.0,-0.0670833729716232,5.5531932259717465,0.49999665007562905
2.4094507694244385,0.8111000731739182,[1.94581788],5.0,0.5,0.0,-0.06564434910244998,5.896959178885345,0.49999679225397775
2.41951584815979,0.8146172500751782,[1.92088932],5.0,0.5,0.0,0.2128793582820617,6.03101870154981,0.499966266676631
2.426888942718506,0.817743629542965,[1.89794604],5.0,0.5,0.0,0.24911191737733734,6.213660054583574,0.4999538070581011
2.43485426902771,0.820674610294015,[1.87745845],5.0,0.5,0.0,-0.07858516219182113,6.099596586946793,0.4999954028805704
2.4438672065734863,0.8241917871952751,[1.85957846],5.0,0.5,0.0,-0.1842237586678157,6.015335499612118,0.49997473688022054
2.455416440963745,0.8286859576802185,[1.84448154],5.0,0.5,0.0,0.07996085452535762,6.082192299188122,0.4999952405204876
2.464935541152954,0.8323985332982152,[1.83243538],5.0,0.5,0.0,0.13603557479230613,5.9819558618187285,0.49998622455349284
2.4752023220062256,0.8363065076329487,[1.82358045],5.0,0.5,0.0,0.11281228578869237,5.90177766961198,0.49999052639312613
2.4848759174346924,0.8400190832509454,[1.81794407],5.0,0.5,0.0,-0.2089246443974,5.843743074633706,0.49996750833945564
2.4938833713531494,0.8439270575856788,[1.81550786],5.0,0.5,0.0,-0.011069135218781265,5.804181063765187,0.49999990879177136
2.502362012863159,0.8474442344869388,[1.8161643],5.0,0.5,0.0,0.04059706263523594,5.644862936273232,0.49999877313898633
2.51139497756958,0.8511568101049355,[1.81972984],5.0,0.5,0.0,0.034886559898912,5.6754015025693185,0.4999990940117296
2.521341562271118,0.8546739870061957,[1.82605293],5.0,0.5,0.0,0.01136711637357599,5.697435731079135,0.4999999038150229
2.529521942138672,0.857995765190719,[1.83499953],5.0,0.5,0.0,-0.013554517212447539,5.709204553383854,0.4999998632350778
2.5368611812591553,0.8611221446585058,[1.84635467],5.0,0.5,0.0,-0.034029891410238516,5.611311319140789,0.49999913795998163
2.546452283859253,0.8650301189932391,[1.85987054],5.0,0.5,0.0,-0.04877489029037558,5.741448081214336,0.4999982290817699
2.5538570880889893,0.8679610997442891,[1.8752892],5.0,0.5,0.0,-0.058287859847630824,5.804563273170808,0.4999974709244894
2.562873363494873,0.8714782766455493,[1.89228192],5.0,0.5,0.0,-0.06360919742876478,5.803346003913082,0.4999969880677455
2.574923276901245,0.8761678458472293,[1.91057796],5.0,0.5,0.0,-0.06580646500409701,5.862651074203096,0.4999967763907055
2.5862696170806885,0.8806620163321728,[1.93000515],5.0,0.5,0.0,-0.06579062361821542,5.891305922147761,0.4999967779425326
2.594858407974243,0.8837883957999594,[1.95034667],5.0,0.5,0.0,-0.06427568352660532,5.829578716158928,0.4999969246202724
2.6038637161254883,0.8875009714179563,[1.97132365],5.0,0.5,0.0,-0.06179456406694056,5.851603063973878,0.49999715746391565
2.614868640899658,0.8919951419028997,[1.9926762],5.0,0.5,0.0,-0.058732212779285226,5.882422774198387,0.4999974322171897
2.6252822875976562,0.8964893123878431,[2.01419564],5.0,0.5,0.0,-0.05535976503427006,5.951430832507621,0.49999771863822307
2.633484363555908,0.8998110905723665,[2.03568995],5.0,0.5,0.0,-0.05186391412123324,5.960343544584071,0.4999979976666323
2.6418819427490234,0.9029374700401532,[2.05696231],5.0,0.5,0.0,-0.04837017209203903,6.017651260902706,0.4999982583487973
2.6528995037078857,0.9072362418083599,[2.07783059],5.0,0.5,0.0,-0.04496047804388459,6.048007439209744,0.49999849523783735
2.6628851890563965,0.9111442161430933,[2.09814108],5.0,0.5,0.0,-0.3177245232569208,6.113571898814371,0.49992485925208174
2.6718780994415283,0.9148567917610901,[2.11777349],5.0,0.5,0.0,-0.347740289963824,6.213139722678696,0.49990999272642755
2.6799209117889404,0.9179831712288767,[2.13663706],5.0,0.5,0.0,-0.2897152318379615,6.32674112960315,0.49993752270786773
2.6878902912139893,0.9211095506966636,[2.15465282],5.0,0.5,0.0,-0.21088920637767353,6.4230062171710705,0.4999668944351435
2.699309825897217,0.9257991198983436,[2.17175945],5.0,0.5,0.0,-0.13781154379670976,6.485278666540972,0.4999858625288696
2.7068545818328857,0.928534701932657,[2.18791873],5.0,0.5,0.0,-0.07881587142763444,6.5395815278126515,0.4999953758487539
2.714855194091797,0.9318564801171804,[2.20310212],5.0,0.5,0.0,-0.03461798719986979,6.589424866286834,0.4999991079074471
2.722870111465454,0.9347874608682304,[2.21729598],5.0,0.5,0.0,-0.003167172910417442,6.64226815950408,0.49999999253293004
2.7318806648254395,0.9383046377694905,[2.23062623],5.0,0.5,0.0,0.018241436218817443,6.872884796204809,0.4999997523007875
2.7398974895477295,0.941626415954014,[2.24340632],5.0,0.5,0.0,0.032129922317221934,7.032957668049815,0.499999231532168
2.7478439807891846,0.9447527954218007,[2.25585636],5.0,0.5,0.0,0.04057255737330204,7.080710572084581,0.499998774619657
2.7558600902557373,0.9478791748895873,[2.26794395],5.0,0.5,0.0,0.3212090167231887,6.943342709216986,0.4999232022005091
2.7667503356933594,0.9525687440912673,[2.27956245],5.0,0.5,0.0,0.35627809233989793,6.90032860608863,0.49990551913165004
2.775071859359741,0.9558905222757909,[2.29062934],5.0,0.5,0.0,0.02529764924059069,6.923361706246906,0.49999952360543104
2.783043384552002,0.9592123004603142,[2.30101222],5.0,0.5,0.0,-0.08492966680864276,6.553603193669588,0.499994630631829
2.7951207160949707,0.9639018696619943,[2.31047495],5.0,0.5,0.0,-0.10211212989667437,6.447787443865364,0.4999922382799522
2.8038222789764404,0.9674190465632543,[2.31868],5.0,0.5,0.0,-0.08484413678565965,6.199830746565504,0.4999946414409725
2.812021017074585,0.9705454260310411,[2.32520834],5.0,0.5,0.0,-0.05874588582827679,5.9316947050247775,0.4999974310214773
2.8218934535980225,0.9742580016490379,[2.32966887],5.0,0.5,0.0,-0.3100963685750565,5.866996170276995,0.499928423748698
2.83085298538208,0.9777751785502978,[2.33179674],5.0,0.5,0.0,-0.32326923575099153,5.750433535185106,0.4999222139633132
2.838864803314209,0.9810969567348212,[2.33153709],5.0,0.5,0.0,-0.25336683512077485,5.731550787860981,0.49995221567504217
2.847853183746338,0.984809532352818,[2.32907688],5.0,0.5,0.0,-0.166955252355206,5.868100514864996,0.49997925096817913
2.857907295227051,0.9887175066875513,[2.32459377],5.0,0.5,0.0,-0.08964245063928925,5.809463464457853,0.4999940182050887
2.8678932189941406,0.9922346835888115,[2.31811987],5.0,0.5,0.0,-0.028873179339613204,5.7530708863244095,0.4999993794230757
2.877209424972534,0.9959472592068082,[2.30971136],5.0,0.5,0.0,0.015369391771020206,5.819439997720971,0.4999998241590744
2.890925407409668,1.0016138219921717,[2.29944084],5.0,0.5,0.0,0.04569984420858277,5.560766817345074,0.4999984453399478
2.901848554611206,1.006107992477115,[2.28729119],5.0,0.5,0.0,0.06523941033984317,5.474372756905697,0.4999968317068857
2.90993070602417,1.009625169378375,[2.27326388],5.0,0.5,0.0,0.07680892059136671,5.382074952560922,0.49999560834624873
2.9195871353149414,1.0133377449963719,[2.25737553],5.0,0.5,0.0,0.08269215885471912,5.138581251222689,0.4999949098201758
2.9294073581695557,1.0172457193311053,[2.2396106],5.0,0.5,0.0,0.08463429636167677,5.067532781719406,0.49999466791412295
2.9385650157928467,1.0211536936658387,[2.22003084],5.0,0.5,0.0,0.08392278174236327,4.977959687517191,0.49999475718974906
2.948439121246338,1.0248662692838355,[2.19876315],5.0,0.5,0.0,0.08148490553513171,4.872229577143797,0.4999950573613421
2.95683217048645,1.028188047468359,[2.17593652],5.0,0.5,0.0,0.07797651850954287,4.754744536541655,0.4999954738140569
2.9672610759735107,1.032291420519829,[2.15163264],5.0,0.5,0.0,0.07385430231315379,4.491817167981145,0.49999593971506645
2.975806713104248,1.035808597421089,[2.12594688],5.0,0.5,0.0,0.06943140257340974,4.540193473328379,0.4999964114665914
2.988363742828369,1.0408889640562422,[2.09905141],5.0,0.5,0.0,0.06491885685233582,4.29134199327631,0.4999968627650799
2.995905637741089,1.0436245460905555,[2.07113621],5.0,0.5,0.0,0.06045580253009632,4.327966740685899,0.4999972792948727
3.0044331550598145,1.0469463242750792,[2.04245272],5.0,0.5,0.0,0.056131195129035985,4.2356661894936565,0.4999976546145039
3.01308274269104,1.0504635011763392,[2.01328823],5.0,0.5,0.0,0.05199926870135492,4.178132716587002,0.49999798720162547
3.0221683979034424,1.053980678077599,[1.98393562],5.0,0.5,0.0,0.048090460343881807,4.158254415052716,0.4999982784335266
3.0319933891296387,1.0580840511290694,[1.95473532],5.0,0.5,0.0,0.3204574437475187,4.143294908201773,0.499923561139482
3.0417089462280273,1.0619920254638027,[1.92605927],5.0,0.5,0.0,0.35015165624788547,4.044089951276748,0.4999087402218674
3.0501928329467773,1.065313803648326,[1.89831195],5.0,0.5,0.0,0.29186151626738144,4.283905876413779,0.4999365936424153
3.0582339763641357,1.0684401831161128,[1.87193608],5.0,0.5,0.0,0.21281320318911762,4.27956783365368,0.49996628763882467
3.065852642059326,1.071957360017373,[1.84734338],5.0,0.5,0.0,0.13954617941993924,4.205719384844955,0.4999855043971693
3.075693130493164,1.0756699356353696,[1.82489437],5.0,0.5,0.0,0.08038691117137098,4.318185833682305,0.4999951896655909
3.084273338317871,1.07918711253663,[1.80499486],5.0,0.5,0.0,0.03604595823365067,4.423069353530455,0.4999990327930566
3.0918681621551514,1.0819226945709433,[1.7879764],5.0,0.5,0.0,-0.27156962729333,4.242600829357324,0.49994510342805276
3.100849151611328,1.08563527018894,[1.77396902],5.0,0.5,0.0,-0.32621548805762646,4.208773896482718,0.49992078974238363
3.1098525524139404,1.0893478458069366,[1.7630437],5.0,0.5,0.0,-0.009069438367817567,4.183936067530466,0.49999993876955207
3.118924379348755,1.0928650227081966,[1.75526865],5.0,0.5,0.0,0.09160633062886686,4.161366078919294,0.499993753238323
3.1268692016601562,1.0959914021759836,[1.75066376],5.0,0.5,0.0,0.10235099716546214,4.1456528878207815,0.4999922019243318
3.1348464488983154,1.09911778164377,[1.74910308],5.0,0.5,0.0,0.08086815010196338,4.1222908045294115,0.4999951318990211
3.1438281536102295,1.1028303572617668,[1.75033941],5.0,0.5,0.0,0.05211936680014219,4.126147173174293,0.49999797789334366
3.1528258323669434,1.106347534163027,[1.75417828],5.0,0.5,0.0,0.02586778845526213,3.999954111589118,0.49999950189022974
3.1618576049804688,1.1096693123475503,[1.76047232],5.0,0.5,0.0,0.005097696530571259,4.0634826675048465,0.49999998065562856
3.1718504428863525,1.1137726853990204,[1.76911587],5.0,0.5,0.0,-0.010022211659504307,4.121495574428624,0.49999992522889763
3.1813607215881348,1.1174852610170172,[1.78003746],5.0,0.5,0.0,-0.02032971159094203,4.175832780241506,0.4999996923414586
3.1929471492767334,1.1221748302186971,[1.79318029],5.0,0.5,0.0,-0.02688523453707387,4.334987187407448,0.4999994619357959
3.2038559913635254,1.1266690007036406,[1.80848483],5.0,0.5,0.0,-0.030664448719733922,4.3174876846836,0.4999993000344045
3.2128939628601074,1.1301861776049007,[1.82578919],5.0,0.5,0.0,-0.03246366740122386,4.309420065618307,0.49999921548456033
3.222830295562744,1.1340941519396341,[1.8448471],5.0,0.5,0.0,-0.032893911973009275,4.306400644573375,0.4999991945522414
3.2348365783691406,1.1387837211413143,[1.86541619],5.0,0.5,0.0,-0.0324068734691378,4.37367764945672,0.499999218227116
3.243201494216919,1.1423008980425742,[1.88725918],5.0,0.5,0.0,-0.031328124649017436,4.360159689141355,0.49999926940759304
3.2532355785369873,1.1460134736605712,[1.91009859],5.0,0.5,0.0,-0.029887869887182842,4.366123594729923,0.4999993350387861
3.260830879211426,1.1491398531283576,[1.93363627],5.0,0.5,0.0,-0.02824620417809874,4.393249937508849,0.4999994060818388
3.2699105739593506,1.1528524287463542,[1.95757865],5.0,0.5,0.0,-0.02651264617866238,4.391848519736456,0.49999947674594797
3.2789041996002197,1.1563696056476145,[1.98164365],5.0,0.5,0.0,-0.024760723127454896,4.455679587708514,0.49999954361314736
3.2871010303497314,1.1596913838321379,[2.00557004],5.0,0.5,0.0,-0.023038623231827027,4.558310713031671,0.49999960488861067
3.2948737144470215,1.1628177632999248,[2.02910884],5.0,0.5,0.0,-0.021376861893613208,4.593131871814133,0.4999996598312371
3.3038976192474365,1.1661395414844482,[2.05206238],5.0,0.5,0.0,-0.019793741882443983,4.6718209663217865,0.49999970834974944
3.3131601810455322,1.1694613196689714,[2.07430145],5.0,0.5,0.0,-0.018299212278122617,4.746103799142041,0.49999975072922875
3.3245959281921387,1.1739554901539149,[2.09573722],5.0,0.5,0.0,-0.016897578862323136,4.8330038219181315,0.4999997874527222
3.3359601497650146,1.1788404580723315,[2.1163102],5.0,0.5,0.0,-0.015589397421875071,4.901694341097532,0.4999998190888834
3.344799757003784,1.1823576349735918,[2.13596332],5.0,0.5,0.0,-0.014372789222059503,4.962092549440375,0.49999984622394267
3.3588714599609375,1.1880241977589552,[2.15464139],5.0,0.5,0.0,-0.013244349693027836,5.008036106888938,0.49999986942263613
3.368091106414795,1.191736773376952,[2.17231453],5.0,0.5,0.0,-0.012199771790251557,5.137467927987343,0.499999889207582
3.3766937255859375,1.1950585515614751,[2.18895531],5.0,0.5,0.0,0.26480408980758574,5.22339543410115,0.49994780446146686
3.384826421737671,1.1983803297459985,[2.20453413],5.0,0.5,0.0,0.29882009829520617,5.274733885835343,0.49993353432546206
3.394306182861328,1.202288304080732,[2.21904131],5.0,0.5,0.0,0.24454513528919963,5.312242271110723,0.49995548510044097
3.4019713401794434,1.2054146835485189,[2.23248075],5.0,0.5,0.0,-0.1068201788688469,5.327409919864319,0.4999915060521907
3.410839557647705,1.2089318604497787,[2.24486382],5.0,0.5,0.0,-0.20976897458270555,5.359249525899856,0.49996724519937935
3.4214279651641846,1.2132306322179853,[2.25621786],5.0,0.5,0.0,0.0653882072018796,5.399354009411197,0.4999968172380796
3.428816556930542,1.215966214252299,[2.26658059],5.0,0.5,0.0,0.13319263103673684,5.400144619843225,0.49998679430276916
3.4374570846557617,1.2190925937200856,[2.27598692],5.0,0.5,0.0,0.11974831471066466,5.401154086128627,0.4999893256642344
3.446632146835327,1.2226097706213457,[2.28447479],5.0,0.5,0.0,-0.1947790153004408,5.421287430026784,0.4999717590864041
3.458933115005493,1.2276901372564992,[2.29220468],5.0,0.5,0.0,-0.26811917515378186,5.666463724075112,0.49994648947840425
3.468153238296509,1.231207314157759,[2.29947446],5.0,0.5,0.0,0.029393353936437078,5.697995986537788,0.49999935686123936
3.4788732528686523,1.235506085925966,[2.30647435],5.0,0.5,0.0,0.11340198841335378,5.634027151565442,0.49999042709261826
3.488659143447876,1.2394140602606996,[2.31325111],5.0,0.5,0.0,0.11133990441322937,5.644817582884047,0.49999077206862996
3.496849298477173,1.2429312371619592,[2.31983817],5.0,0.5,0.0,0.08061876617054929,5.6152536417276595,0.4999951618774086
3.504856824874878,1.2460576166297461,[2.32623913],5.0,0.5,0.0,0.045539003533888914,5.631165082329732,0.49999845626393064
3.514936685562134,1.2501609896812165,[2.33244251],5.0,0.5,0.0,0.015174450700892378,5.647106720377569,0.4999998285914193
3.525721549987793,1.2540689640159497,[2.33849221],5.0,0.5,0.0,-0.008084632945489091,5.688016646169101,0.49999995134502334
3.5380971431732178,1.2589539319343666,[2.34446875],5.0,0.5,0.0,-0.02453951402564216,5.698992602922488,0.49999955173132
3.5473668575286865,1.2628619062690998,[2.3504252],5.0,0.5,0.0,-0.035382540305872984,5.674377108854186,0.49999906806785777
3.5552730560302734,1.2657928870201498,[2.35637041],5.0,0.5,0.0,-0.04193378386363115,5.657754531120749,0.49999869101638106
3.562920093536377,1.2691146652046732,[2.36229076],5.0,0.5,0.0,-0.04535513170246211,5.642306479299089,0.4999984687049625
3.5739758014678955,1.27341343697288,[2.36816072],5.0,0.5,0.0,-0.04657433544993113,5.721163699482081,0.4999983852722543
3.5853726863861084,1.2779076074578233,[2.37395126],5.0,0.5,0.0,-0.04629390806261992,5.731520677010852,0.49999840465846546
3.5948290824890137,1.281815581792557,[2.37963892],5.0,0.5,0.0,-0.04502835375674052,5.7375421573756205,0.4999984906910108
3.603843927383423,1.2851373599770801,[2.38519654],5.0,0.5,0.0,-0.04314570365609169,5.73346869623826,0.4999986142618101
3.615696907043457,1.2900223278954968,[2.3906004],5.0,0.5,0.0,-0.040904303784754,5.729169403905287,0.49999875449881614
3.626279354095459,1.2943210996637038,[2.39583478],5.0,0.5,0.0,-0.03848240081742823,5.7067803947644,0.49999889762205957
3.634809732437134,1.2982290739984372,[2.40087935],5.0,0.5,0.0,-0.036000748607190394,5.670027555564226,0.49999903521771677
3.64524507522583,1.3021370483331705,[2.40571323],5.0,0.5,0.0,-0.0335393620773205,5.666966804609847,0.49999916263287264
3.6528661251068115,1.3050680290842205,[2.41032001],5.0,0.5,0.0,-0.03114969219237977,5.675231429442878,0.4999992777062105
3.6608123779296875,1.3079990098352705,[2.41468399],5.0,0.5,0.0,-0.3049017157175562,5.657566591815533,0.499930801551457
3.6718742847442627,1.312493180320214,[2.4187952],5.0,0.5,0.0,-0.3358612997837231,5.63357239650583,0.4999160365767669
3.6801507472991943,1.3158149585047374,[2.42265045],5.0,0.5,0.0,-0.27872906177415246,5.61693391414735,0.49994217094903265
3.688857078552246,1.3191367366892608,[2.42624789],5.0,0.5,0.0,-0.20074163353667301,5.593044683614644,0.4999700036401069
3.699827194213867,1.3234355084574676,[2.42958718],5.0,0.5,0.0,-0.12844754580846127,5.577881733704278,0.49998771845615203
3.7078890800476074,1.326757286641991,[2.43267161],5.0,0.5,0.0,-0.0701812198429723,5.56725725387207,0.4999963335403646
3.7173855304718018,1.3306652609767244,[2.43550746],5.0,0.5,0.0,-0.026660260460300834,5.553623517194643,0.49999947090309443
3.7256386280059814,1.3339870391612478,[2.4381025],5.0,0.5,0.0,0.004163631725416216,5.542814607202996,0.4999999870951997
3.7366576194763184,1.3384812096461913,[2.44046584],5.0,0.5,0.0,0.024992565177739342,5.5258697785221855,0.4999995350265663
3.7453651428222656,1.3418029878307145,[2.44260762],5.0,0.5,0.0,0.03834571377987871,5.514566039847054,0.49999890543929565
3.7544562816619873,1.3455155634487113,[2.44453836],5.0,0.5,0.0,0.04629441286049385,5.496418542979287,0.4999984046236735
3.76324200630188,1.3488373416332344,[2.44626887],5.0,0.5,0.0,0.0504370934154988,5.486312283809999,0.49999810632277847
3.7741646766662598,1.3533315121181781,[2.4478112],5.0,0.5,0.0,0.051961881578833635,5.46964228090459,0.499997990094956
3.783168315887451,1.357044087736175,[2.44917828],5.0,0.5,0.0,0.05173045606213098,5.456006771286064,0.4999980079583034
3.790879726409912,1.3603658659206983,[2.45038268],5.0,0.5,0.0,-0.22568162456294538,5.439941908709165,0.49996208748383736
3.799816131591797,1.3638830428219582,[2.45143659],5.0,0.5,0.0,-0.26089104164063187,5.427651913556834,0.499949335588239
3.8098385334014893,1.3677910171566916,[2.4523526],5.0,0.5,0.0,-0.20829071931154752,5.4124873888490646,0.4999677052081989
3.8187875747680664,1.3709173966244785,[2.45314226],5.0,0.5,0.0,-0.13491023350431378,5.388797865012375,0.4999864515198558
3.8301517963409424,1.375411567109422,[2.45381156],5.0,0.5,0.0,-0.06716190455852514,5.33571077895089,0.499996642227843
3.8378536701202393,1.3785379465772085,[2.45436368],5.0,0.5,0.0,-0.013293369767036184,5.329983728939342,0.4999998684542599
3.8477797508239746,1.3824459209119417,[2.45480675],5.0,0.5,0.0,0.026030370133563303,5.316864393478434,0.4999994956092153
3.856790065765381,1.386158496529939,[2.45515216],5.0,0.5,0.0,0.052886811056609515,5.302477312424461,0.4999979179050396
3.8658015727996826,1.3896756734311988,[2.45541058],5.0,0.5,0.0,0.069991416200869,5.2878487031308845,0.49999635334520204
3.876465320587158,1.393779046482669,[2.45559208],5.0,0.5,0.0,0.07986615825249273,5.269441644885191,0.49999525178689924
3.8870468139648438,1.3980778182508755,[2.45570619],5.0,0.5,0.0,-0.19146007017921726,5.249492659497551,0.49997271328517073
3.895267963409424,1.401399596435399,[2.45576183],5.0,0.5,0.0,-0.22344514718374187,5.233761784844273,0.49996283514964823
3.9040966033935547,1.4053075707701321,[2.45576732],5.0,0.5,0.0,0.10643449264701141,5.214575769647438,0.49999156727764305
3.914815664291382,1.4094109438216025,[2.45573031],5.0,0.5,0.0,-0.06319649353816598,5.194254745768621,0.4999970270243758
3.923985242843628,1.4131235194395992,[2.45565784],5.0,0.5,0.0,-0.0846432963242015,5.175553817784316,0.4999946667800468
3.9344286918640137,1.4172268924910691,[2.45555634],5.0,0.5,0.0,-0.05328417997043956,5.154710523389731,0.49999788649961907
3.941804885864258,1.4203532719588559,[2.45543159],5.0,0.5,0.0,-0.010240379601318857,5.138515057812021,0.4999999219381655
3.949815034866333,1.4236750501433795,[2.4552888],5.0,0.5,0.0,0.028510451505876864,5.121275506002938,0.4999993949174859
3.962848424911499,1.4283646193450594,[2.4551326],5.0,0.5,0.0,0.05817416318234154,5.0971658711545285,0.4999974807813029
3.973802328109741,1.4324679923965296,[2.45496709],5.0,0.5,0.0,0.07857762722535457,5.0758277596347785,0.4999954037620936
3.9828102588653564,1.4361805680145263,[2.45479585],5.0,0.5,0.0,0.3672180615141658,5.056270642363855,0.49989962833042145
3.9938013553619385,1.4406747384994696,[2.45462198],5.0,0.5,0.0,0.40694414129043355,5.032913408854054,0.49987673983651126
4.002179145812988,1.4441919154007297,[2.45444814],5.0,0.5,0.0,0.35408851406064623,5.014373891334496,0.49990667675724154
4.0109498500823975,1.4479044910187262,[2.45427658],5.0,0.5,0.0,0.277215084179931,4.994955472164052,0.4999427974291962
4.018799304962158,1.4508354717697765,[2.45410916],5.0,0.5,0.0,0.20388729251270374,4.979423192554099,0.4999690562065269
4.028870344161987,1.4551342435379833,[2.45394742],5.0,0.5,0.0,0.14318682925689694,4.957189387994478,0.4999847381847691
4.037995100021362,1.4586514204392433,[2.45379258],5.0,0.5,0.0,0.09636721181709806,4.93879216681512,0.4999930870683866
4.046850204467773,1.4619731986237665,[2.45364557],5.0,0.5,0.0,0.06175654750176371,4.921439285858603,0.4999971609603368
4.0597851276397705,1.46705356525892,[2.4535071],5.0,0.5,0.0,0.03691211374240597,4.8954338164739575,0.4999989857522201
4.068480968475342,1.4709615395936537,[2.45337763],5.0,0.5,0.0,0.01948990327148844,4.875189469669289,0.49999971723482584
4.076806306838989,1.474283317778177,[2.45325746],5.0,0.5,0.0,0.007533989849598491,4.857950161011986,0.4999999577470809
4.085819244384766,1.4774096972459638,[2.45314671],5.0,0.5,0.0,-0.0004805602504473895,4.841754535186277,0.4999999998280895
4.0963053703308105,1.481317671580697,[2.45304535],5.0,0.5,0.0,-0.005697460118898704,4.82174681525958,0.49999997583597633
4.104304313659668,1.4844440510484838,[2.45295326],5.0,0.5,0.0,-0.008953936116367342,4.805615591699224,0.4999999403192005
4.114749431610107,1.4889382215334273,[2.45287019],5.0,0.5,0.0,-0.010852977954424144,4.782797151967862,0.499999912319205
4.124788284301758,1.4928461958681607,[2.45279582],5.0,0.5,0.0,-0.011823872308536394,4.762856551208296,0.4999998959298712
4.132789373397827,1.4963633727694208,[2.45272979],5.0,0.5,0.0,-0.012169546777794762,4.744920349465537,0.4999998897558797
4.140790939331055,1.4996851509539442,[2.45267165],5.0,0.5,0.0,-0.01210218773356761,4.72801047389483,0.4999998909729154
4.149827241897583,1.503202327855204,[2.45262094],5.0,0.5,0.0,-0.011769403863638443,4.710180400063561,0.499999896886492
4.159227609634399,1.5071103021899377,[2.45257718],5.0,0.5,0.0,-0.011273149288819381,4.6904410193814625,0.4999999053986899
4.168292760848999,1.5106274790911975,[2.4525401],5.0,0.5,0.0,0.26535509195395085,4.674788177945615,0.4999475870307889
4.176804304122925,1.513949257275721,[2.45250989],5.0,0.5,0.0,0.29911584628555443,4.65955778462474,0.49993340270441333
4.1858131885528564,1.517661832893718,[2.45248684],5.0,0.5,0.0,0.24466933635337434,4.641552162591815,0.4999554398739804
4.194860219955444,1.5211790097949778,[2.45247085],5.0,0.5,0.0,0.16922889217902315,4.6230330856025725,0.4999786820008885
4.204440593719482,1.5254777815631846,[2.4524614],5.0,0.5,0.0,0.09933133886573453,4.60100179611775,0.4999926552661305
4.213825941085815,1.528799559747708,[2.45245789],5.0,0.5,0.0,0.04330715547284397,4.584065035816981,0.4999986038715178
4.2256622314453125,1.533489128949388,[2.45245975],5.0,0.5,0.0,0.0018751061732867613,4.560683042283306,0.4999999973826705
4.239815950393677,1.5391556917347513,[2.45246649],5.0,0.5,0.0,-0.027008687855387317,4.532314256736072,0.499999456983019
4.247866868972778,1.5422820712025382,[2.45247757],5.0,0.5,0.0,-0.046039918567097715,4.516208143174717,0.4999984221159589
4.256129741668701,1.5456038493870616,[2.45249241],5.0,0.5,0.0,-0.057730211032772184,4.499368335331951,0.49999751908498224
4.263916730880737,1.5485348301381114,[2.4525104],5.0,0.5,0.0,-0.06414280328228511,4.4843657938734935,0.4999969373228535
4.273860216140747,1.5526382031895818,[2.45253093],5.0,0.5,0.0,-0.06686786989543575,4.463644522317619,0.49999667156402494
4.282788038253784,1.5561553800908419,[2.45255344],5.0,0.5,0.0,-0.06708537615840729,4.4460841899251395,0.4999966498755615
4.29320764541626,1.5606495505757851,[2.45257747],5.0,0.5,0.0,-0.06564909728476229,4.4239132408094015,0.49999679178991757
4.303594350814819,1.5645575249105188,[2.45260266],5.0,0.5,0.0,-0.06316540341574553,4.404316172336556,0.49999702994881545
4.314812183380127,1.5688562966787254,[2.45262865],5.0,0.5,0.0,-0.060058358912329926,4.3828681190333745,0.49999731494966726
4.324801445007324,1.5725688722967222,[2.4526551],5.0,0.5,0.0,-0.05662023365329563,4.364236849895679,0.49999761356860734
4.33410382270813,1.5764768466314556,[2.45268167],5.0,0.5,0.0,-0.05304930138640233,4.3448245603500935,0.4999979050912847
4.342998266220093,1.5801894222494521,[2.45270813],5.0,0.5,0.0,-0.04947749077696474,4.326289997133922,0.4999981776943698
4.351807355880737,1.5835112004339755,[2.45273421],5.0,0.5,0.0,-0.045990311467767414,4.309555094369611,0.4999984255143992
4.361847162246704,1.587419174768709,[2.45275968],5.0,0.5,0.0,-0.04264106376834842,4.290181335373791,0.4999986464878814
4.370807647705078,1.5911317503867057,[2.45278439],5.0,0.5,0.0,-0.03946089434495413,4.271698506881785,0.4999988408489852
4.381265878677368,1.5954305221549125,[2.45280819],5.0,0.5,0.0,-0.03646586958470864,4.250314535284466,0.49999901012719183
4.388820648193359,1.5983615029059628,[2.45283098],5.0,0.5,0.0,0.24237643400322256,4.235458296054296,0.49995627110868274
4.3986194133758545,1.6026602746741694,[2.45285267],5.0,0.5,0.0,0.27811464680528664,4.214029220112722,0.4999424256037105
4.4081268310546875,1.6061774515754295,[2.45287318],5.0,0.5,0.0,-0.05059265349851072,4.196622165057292,0.4999980946236784
4.416849851608276,1.609890027193426,[2.45289249],5.0,0.5,0.0,-0.15755155044403854,4.178190682572326,0.4999815224658646
4.4248785972595215,1.6134072040946863,[2.45291059],5.0,0.5,0.0,0.10514370719553816,4.160564046727388,0.4999917705715763
4.433276653289795,1.616533583562473,[2.45292746],5.0,0.5,0.0,0.15965541949498271,4.144827324688996,0.49998102569989616
4.4432806968688965,1.6204415578972062,[2.45294311],5.0,0.5,0.0,0.13485893982402383,4.125417029109022,0.49998646182018475
4.452102422714233,1.623567937364993,[2.45295757],5.0,0.5,0.0,0.08761824619821562,4.109792052132923,0.49999428530172657
4.462744474411011,1.6278667091331998,[2.45297087],5.0,0.5,0.0,0.041074828513437474,4.088392658228256,0.4999987440925178
4.471844911575317,1.6313838860344596,[2.45298306],5.0,0.5,0.0,0.0031062850996043494,4.070795202377832,0.499999992817274
4.48180627822876,1.6350964616524568,[2.45299418],5.0,0.5,0.0,-0.024924400971481457,4.052274093617763,0.4999995375594242
4.490850210189819,1.6386136385537167,[2.45300427],5.0,0.5,0.0,-0.044130173813071855,4.034706063915625,0.49999855030272783
4.500533103942871,1.6429124103219235,[2.4530134],5.0,0.5,0.0,-0.05631566566910573,4.013287961916368,0.4999976391733772
4.509395122528076,1.6464295872231836,[2.45302161],5.0,0.5,0.0,-0.06324959560716455,3.9956630106359494,0.49999702202609175
4.518493175506592,1.65014216284118,[2.45302896],5.0,0.5,0.0,-0.06641608077205505,3.9771452925555484,0.4999967163887291
4.529446125030518,1.6542455358926502,[2.45303548],5.0,0.5,0.0,-0.0669708235694082,3.956397038850535,0.4999966613068605
4.537782192230225,1.657371915360437,[2.45304116],5.0,0.5,0.0,-0.06577553431008762,3.9407418404437617,0.4999967794203385
4.548812627792358,1.662061484562117,[2.45304603],5.0,0.5,0.0,-0.06345453327605793,3.9174241820410627,0.4999970026967689
4.558218717575073,1.6659694588968506,[2.45305015],5.0,0.5,0.0,-0.06045058884777152,3.8978866342362606,0.49999727976411606
4.566772937774658,1.6694866357981104,[2.45305358],5.0,0.5,0.0,-0.05707207902170228,3.880312015839159,0.49999757532793476
4.576600551605225,1.6735900088495805,[2.45305639],5.0,0.5,0.0,-0.05353001105621307,3.8598481150998176,0.4999978669530479
4.5873332023620605,1.677302584467577,[2.45305863],5.0,0.5,0.0,-0.049965910150648996,3.841284068110899,0.4999981415389068
4.5948426723480225,1.680428963935364,[2.45306036],5.0,0.5,0.0,-0.04647230288857021,3.825636147936576,0.4999983923394115
4.603781223297119,1.6839461408366243,[2.45306164],5.0,0.5,0.0,-0.043107512324819144,3.8080792845108125,0.4999986167139518
4.614751815795898,1.6882449126048311,[2.45306252],5.0,0.5,0.0,-0.03990622079720444,3.7866314690560006,0.4999988145387491
4.625117301940918,1.6925436843730375,[2.45306305],5.0,0.5,0.0,-0.03688694669988601,3.765142322492767,0.4999989871347955
4.633081674575806,1.6960608612742978,[2.45306328],5.0,0.5,0.0,-0.034057300933218196,3.7475196766524164,0.49999913657075584
4.643596172332764,1.7001642343257677,[2.45306325],5.0,0.5,0.0,-0.031417660573468155,3.7270324062366513,0.4999992652255556
4.652776002883911,1.7036814112270278,[2.453063],5.0,0.5,0.0,-0.02896372169627314,3.709416843214643,0.4999993755248862
4.66399884223938,1.7081755817119713,[2.45306257],5.0,0.5,0.0,-0.3027266221014091,3.687135147907438,0.4999317852521265
4.671749591827393,1.7111065624630215,[2.453062],5.0,0.5,0.0,-0.3337453145346131,3.672472566822346,0.49991709112529137
4.680741310119629,1.7146237393642816,[2.45306131],5.0,0.5,0.0,-0.2767018766641075,3.654948260110303,0.49994300901900696
4.689756155014038,1.7183363149822781,[2.45306052],5.0,0.5,0.0,0.07721809616745884,3.6362674845677674,0.4999955614314943
4.699624061584473,1.7222442893170116,[2.45305967],5.0,0.5,0.0,0.18252254158584982,3.616669823317572,0.4999752012996808
4.708539247512817,1.7257614662182716,[2.45305878],5.0,0.5,0.0,-0.09046368763014585,3.5991706572883304,0.499993908102267
4.721089839935303,1.730646434136688,[2.45305786],5.0,0.5,0.0,-0.15626820659705662,3.574866161570266,0.4999818222537442
4.729267358779907,1.7337728136044748,[2.45305693],5.0,0.5,0.0,0.13505622189783534,3.5590284284120783,0.49998642218236083
4.737755298614502,1.737289990505735,[2.453056],5.0,0.5,0.0,0.20836549571993454,3.5413981884728076,0.4999676820171133
4.749327898025513,1.7417841609906786,[2.45305509],5.0,0.5,0.0,0.19504474176249975,3.5189426047791468,0.4999716819809287
4.757757186889648,1.7453013378919386,[2.4530542],5.0,0.5,0.0,0.15401952521086762,3.5012893181141096,0.49998234163185384
4.768769979476929,1.7496001096601452,[2.45305334],5.0,0.5,0.0,0.11002002854613699,3.4798224735792043,0.49999098955440535
4.778076887130737,1.753508083994879,[2.45305252],5.0,0.5,0.0,0.07210247770876385,3.460255706781659,0.4999961300498343
4.786450386047363,1.7570252608961388,[2.45305175],5.0,0.5,0.0,0.042482418354412146,3.4426443884792506,0.4999986565405741
4.795771360397339,1.7607378365141355,[2.45305102],5.0,0.5,0.0,-0.2553861861640725,3.4242288563512955,0.4999514509881237
4.804303169250488,1.7640596146986587,[2.45305034],5.0,0.5,0.0,-0.30393279345423385,3.4076692505978015,0.49993124062265815
4.8161399364471436,1.7689445826170758,[2.45304971],5.0,0.5,0.0,-0.2593266687302337,3.3833553022346594,0.4999499413311633
4.8263020515441895,1.7724617595183356,[2.45304913],5.0,0.5,0.0,-0.19008860797050076,3.365716945421133,0.49997310279367224
4.833796262741089,1.7753927402693859,[2.4530486],5.0,0.5,0.0,-0.3998315917346482,3.3511807558409044,0.4998810103449733
4.842705488204956,1.778909917170646,[2.45304812],5.0,0.5,0.0,-0.37871896614086153,3.333698574628736,0.4998932434777709
4.854258298873901,1.7837948850890626,[2.45304768],5.0,0.5,0.0,-0.2827376056028858,3.309378811880201,0.4999404957503215
4.862474679946899,1.7873120619903229,[2.4530473],5.0,0.5,0.0,-0.17749211964784206,3.291742570489545,0.4999765493630933
4.870760202407837,1.790047644024636,[2.45304695],5.0,0.5,0.0,-0.0871303222041801,3.278032828402413,0.49999434877158666
4.882527828216553,1.7949326119430529,[2.45304666],5.0,0.5,0.0,-0.017684250109128427,3.2537608824412003,0.4999997672016642
4.893994569778442,1.7992313837112597,[2.45304641],5.0,0.5,0.0,0.03204441572703693,3.232234734568069,0.49999923561693227
4.90372896194458,1.8033347567627296,[2.45304623],5.0,0.5,0.0,0.06559109725020847,3.211718228473983,0.49999679745621034
4.9127516746521,1.807242731097463,[2.45304609],5.0,0.5,0.0,0.08676621716814414,3.1921331702380717,0.4999943959039712
4.9241297245025635,1.8119323002991432,[2.45304601],5.0,0.5,0.0,0.09889322685884513,3.1687415591575077,0.4999927199123235
4.933733224868774,1.815449477200403,[2.45304596],5.0,0.5,0.0,0.10461589449273725,3.1510745541084737,0.4999918529856252
4.943359136581421,1.8193574515351367,[2.45304595],5.0,0.5,0.0,0.10593366640012439,3.131579843955548,0.49999164645041827
4.9527428150177,1.8232654258698702,[2.45304598],5.0,0.5,0.0,0.10431148122427863,3.1120307590761285,0.4999919003289274
4.961262941360474,1.8265872040543936,[2.45304604],5.0,0.5,0.0,0.10079910727630462,3.0953575651720495,0.4999924366053466
4.9707252979278564,1.83029977967239,[2.45304612],5.0,0.5,0.0,0.09613585430662129,3.076853081557274,0.4999931202213183
4.980663299560547,1.8342077540071235,[2.45304623],5.0,0.5,0.0,0.09083440610446133,3.0573302116578485,0.49999385807130786
4.99305272102356,1.8392881206422769,[2.45304637],5.0,0.5,0.0,0.08524472132258742,3.031985033134201,0.4999945907218133
5.002432346343994,1.8428052975435372,[2.45304652],5.0,0.5,0.0,0.07960132781473395,3.0142920447258814,0.49999528322400894
5.009738445281982,1.8457362782945872,[2.45304669],5.0,0.5,0.0,0.07405766892976375,2.9996288947656544,0.49999591732341486
5.01897120475769,1.8492534551958473,[2.45304688],5.0,0.5,0.0,0.06871072775443247,2.98206680613549,0.499996485575273
5.028167963027954,1.852966030813844,[2.45304707],5.0,0.5,0.0,0.06361851977184797,2.96351754509672,0.4999969871848468
5.035741090774536,1.8560924102816307,[2.45304728],5.0,0.5,0.0,0.05881243315674686,2.9478451681596782,0.4999974251979189
5.044739484786987,1.8596095871828908,[2.45304749],5.0,0.5,0.0,0.054305884880966965,2.9303133285587437,0.49999780467152155
5.055771589279175,1.8639083589510974,[2.45304771],5.0,0.5,0.0,0.05010036150427837,2.9088130609424305,0.49999813152374534
5.063753366470337,1.8672301371356208,[2.45304792],5.0,0.5,0.0,0.046189613248653366,2.8921563247956494,0.4999984118385964
5.073824405670166,1.8715289089038274,[2.45304813],5.0,0.5,0.0,0.04256254939158906,2.870756809426408,0.49999865146769057
5.081739187240601,1.8746552883716143,[2.45304835],5.0,0.5,0.0,0.0392052234509378,2.855028926046123,0.49999885582080816
5.09075140953064,1.8781724652728744,[2.45304856],5.0,0.5,0.0,0.0361021823667607,2.837463428134302,0.4999990297734265
5.101792573928833,1.882471237041081,[2.45304876],5.0,0.5,0.0,0.03323737262390746,2.81605289468359,0.4999991776443318
5.111469507217407,1.8863792113758147,[2.45304897],5.0,0.5,0.0,0.030594738752602435,2.796468810032848,0.49999930321327024
5.122070074081421,1.8906779831440212,[2.45304917],5.0,0.5,0.0,0.30419696876119573,2.774819993186018,0.4999311210490388
5.133968830108643,1.8951721536289647,[2.45304937],5.0,0.5,0.0,0.33507689793370266,2.7523492311140294,0.49991642827808835
5.143744230270386,1.899080127963698,[2.45304957],5.0,0.5,0.0,0.27791213691889927,2.732710988169905,0.49994250941425117
5.153736591339111,1.903183501015168,[2.45304976],5.0,0.5,0.0,0.19992334461360425,2.7121761215200917,0.4999702476844702
5.161710500717163,1.9063098804829548,[2.45304995],5.0,0.5,0.0,0.12764800463541054,2.6964872125142967,0.499987870875093
5.173207998275757,1.910804050967898,[2.45305012],5.0,0.5,0.0,0.06941293484678521,2.674080706704635,0.49999641337532436
5.182396650314331,1.9143212278691581,[2.45305028],5.0,0.5,0.0,0.025930540100908336,2.656452362368031,0.49999949947061006
5.190726280212402,1.9176430060536815,[2.45305044],5.0,0.5,0.0,-0.0048510047607644175,2.6398379443680855,0.499999982482583
5.202494382858276,1.9225279739720984,[2.45305059],5.0,0.5,0.0,-0.02563617037884646,2.615487813069683,0.4999995107703595
5.212704420089722,1.9266313470235685,[2.45305073],5.0,0.5,0.0,-0.03894568636845731,2.594916364300867,0.49999887091949385
5.222285509109497,1.9303439226415653,[2.45305086],5.0,0.5,0.0,-0.046851886903342785,2.576350559011975,0.49999836596957664
5.230746269226074,1.9336657008260885,[2.45305098],5.0,0.5,0.0,-0.05095381911722515,2.5597272066073913,0.4999980673228232
5.242326736450195,1.9383552700277689,[2.45305109],5.0,0.5,0.0,-0.052439963981826675,2.5363442652469734,0.49999795294007726
5.254698991775513,1.9434356366629222,[2.4530512],5.0,0.5,0.0,0.22386618145086615,2.5108251862920974,0.49996269496460716
5.2647459506988525,1.9473436109976556,[2.45305131],5.0,0.5,0.0,0.2583985228709793,2.4911366824723595,0.4999502989981675
5.273750066757202,1.9508607878989157,[2.4530514],5.0,0.5,0.0,0.20541777225471852,2.4735031809703463,0.4999685899184627
5.282763957977295,1.9543779648001756,[2.45305149],5.0,0.5,0.0,-0.14417922432593808,2.4560406830468615,0.4999845259026627
5.29072117805481,1.957699742984699,[2.45305158],5.0,0.5,0.0,-0.2450947123861411,2.439485152473465,0.4999552848039683
5.299723386764526,1.9612169198859593,[2.45305165],5.0,0.5,0.0,-0.24381967542267252,2.4219405351367858,0.4999557488100032
5.30823826789856,1.9645386980704826,[2.45305172],5.0,0.5,0.0,-0.20695571031959525,2.4053378147545628,0.4999681178458956
5.317361831665039,1.967860476255006,[2.45305179],5.0,0.5,0.0,-0.16315279520128353,2.3887368124002135,0.49998018531798444
5.324960947036743,1.970986855722793,[2.45305184],5.0,0.5,0.0,-0.12348025850817679,2.3730992081408337,0.4999886499753148
5.333077430725098,1.9741132351905792,[2.45305189],5.0,0.5,0.0,-0.09119372253760485,2.3574693180644837,0.4999938093838719
5.341858863830566,1.9778258108085762,[2.45305194],5.0,0.5,0.0,0.20971276371516978,2.3387945395574254,0.4999672627507719
5.353349208831787,1.9823199812935197,[2.45305198],5.0,0.5,0.0,0.26138772872743143,2.3162910975736084,0.49994914250355543
5.363280534744263,1.9868141517784632,[2.45305201],5.0,0.5,0.0,0.21985524780314236,2.2937847025229257,0.49996401970484416
5.372717618942261,1.9903313286797228,[2.45305204],5.0,0.5,0.0,0.15356287768928134,2.276132055794634,0.49998244618424575
5.383190870285034,1.9944347017311932,[2.45305206],5.0,0.5,0.0,0.09005061904580677,2.2556350980034865,0.4999939636076626
5.390717029571533,1.9973656824822434,[2.45305209],5.0,0.5,0.0,0.038420278009427204,2.240917442876327,0.49999890117835855
5.402491331100464,2.0018598529671867,[2.4530521],5.0,0.5,0.0,-3.5364096598770184e-05,2.218521986546666,0.499999999999069
5.413694381713867,2.0067448208856034,[2.45305212],5.0,0.5,0.0,-0.3029801164564798,2.1942587281375046,0.4999316709700642
5.422709703445435,2.0102619977868637,[2.45305213],5.0,0.5,0.0,-0.35385673829354397,2.1766767305952937,0.499906798879088
5.43080997467041,2.013583775971387,[2.45305213],5.0,0.5,0.0,-0.03361622341495335,2.159951118312843,0.4999991587905306
5.441077470779419,2.01749175030612,[2.45305214],5.0,0.5,0.0,0.06964334666134567,2.1403859009279382,0.4999963895247465
5.450223684310913,2.0208135284906437,[2.45305214],5.0,0.5,0.0,0.08258001403688382,2.12372070523236,0.499994923617066
5.458631277084351,2.024135306675167,[2.45305214],5.0,0.5,0.0,-0.21305457990565105,2.1072402118081697,0.4999662111236594
5.468419075012207,2.0280432810099005,[2.45305214],5.0,0.5,0.0,0.0027548271726869494,2.0876530778532585,0.4999999943506904
5.476097583770752,2.0311696604776874,[2.45305214],5.0,0.5,0.0,0.06617399763014636,2.0719426934884773,0.4999967402822095
5.483716726303101,2.034296039945474,[2.45305214],5.0,0.5,0.0,0.06767978153714055,2.056290535220509,0.49999659024566034
5.49273157119751,2.037617818129997,[2.45305214],5.0,0.5,0.0,-0.22788716102459608,2.03982379547216,0.49996134287048355
5.501714706420898,2.041330393747994,[2.45305213],5.0,0.5,0.0,-0.2841807968115025,2.021348159000592,0.4999398867757606
5.509871006011963,2.0446521719325172,[2.45305213],5.0,0.5,0.0,-0.24932246745570327,2.004753728109779,0.49995372894391704
5.517732858657837,2.047778551400304,[2.45305212],5.0,0.5,0.0,0.08729394138669673,1.988986423739159,0.49999432752727013
5.52670431137085,2.051295728301564,[2.45305212],5.0,0.5,0.0,0.1800334471682995,1.9713558204680794,0.49997587304072794
5.534712076187134,2.054422107769351,[2.45305211],5.0,0.5,0.0,0.17446368269990797,1.955672470010462,0.4999773427651549
5.543691158294678,2.057939284670611,[2.45305211],5.0,0.5,0.0,0.13620302426754052,1.9380898641027209,0.49998619062005706
5.555791616439819,2.0626288538722912,[2.4530521],5.0,0.5,0.0,0.09305098678967554,1.91469278364279,0.49999355465990186
5.5638086795806885,2.0659506320568144,[2.4530521],5.0,0.5,0.0,0.05540620053850856,1.898012054285909,0.49999771480953265
5.5725016593933105,2.0694678089580743,[2.45305209],5.0,0.5,0.0,0.026022384163601253,1.880433230430349,0.4999994959188221
5.582291841506958,2.073375783292808,[2.45305209],5.0,0.5,0.0,0.004569256590175399,1.8609119617234515,0.4999999844586284
5.590711832046509,2.076892960194068,[2.45305208],5.0,0.5,0.0,-0.010308926029377906,1.8433062081966283,0.49999992089012957
5.602690696716309,2.0813871306790115,[2.45305208],5.0,0.5,0.0,-0.020119414563713245,1.8208837384363266,0.4999996986745761
5.613710165023804,2.085685902447218,[2.45305207],5.0,0.5,0.0,-0.026192679806250185,1.799380449308834,0.49999948930135035
5.625312566757202,2.0905708703656347,[2.45305207],5.0,0.5,0.0,-0.30563268627383744,1.775127076135769,0.4999304693883533
5.634745359420776,2.0944788447003684,[2.45305207],5.0,0.5,0.0,-0.34029723027307346,1.7556111863729422,0.49991380421430287
5.6461405754089355,2.0991684139020483,[2.45305206],5.0,0.5,0.0,-0.28547424523436193,1.732238210598923,0.4999393383664906
5.654774188995361,2.1024901920865715,[2.45305206],5.0,0.5,0.0,0.06721140761879879,1.715437114820526,0.4999966372973696
5.662848949432373,2.1056165715543584,[2.45305206],5.0,0.5,0.0,0.17195366889590308,1.699731237135793,0.49997799003441723
5.671686410903931,2.108938349738882,[2.45305205],5.0,0.5,0.0,-0.10114467526253332,1.6832425587658748,0.4999923847097565
5.680805444717407,2.1126509253568786,[2.45305205],5.0,0.5,0.0,-0.16676691319934064,1.6647560088532984,0.4999792978401897
5.69080376625061,2.116558899691612,[2.45305205],5.0,0.5,0.0,-0.15111241676632134,1.6452544590707194,0.49998300207696256
5.700425386428833,2.120076076592872,[2.45305205],5.0,0.5,0.0,-0.11044781718725566,1.6276633084076328,0.49999091958280917
5.709540843963623,2.1237886522108687,[2.45305205],5.0,0.5,0.0,-0.06813086450899512,1.609117089535878,0.4999965450256463
5.719722747802734,2.127892025262339,[2.45305204],5.0,0.5,0.0,-0.03250450476757209,1.5886233989070162,0.49999921416495163
5.728723526000977,2.1317999995970722,[2.45305204],5.0,0.5,0.0,-0.005411470245463467,1.5690757207751527,0.49999997928717343
5.737933874130249,2.135512575215069,[2.45305204],5.0,0.5,0.0,0.013851094639747428,1.550503858615855,0.49999985893011084
5.747363328933716,2.139029752116329,[2.45305204],5.0,0.5,0.0,0.02676614783808353,1.5329085447411903,0.4999994694136153
5.755695104598999,2.1425469290175894,[2.45305204],5.0,0.5,0.0,0.03486224839148176,1.5153227799270346,0.49999909949715476
5.764742374420166,2.1460641059188497,[2.45305204],5.0,0.5,0.0,0.039450040107286616,1.497737002694888,0.49999884800705263
5.773655414581299,2.149776681536846,[2.45305204],5.0,0.5,0.0,0.041563075470152644,1.4791839480041438,0.49999872431593917
5.782784700393677,2.1534892571548427,[2.45305204],5.0,0.5,0.0,0.04197900566286261,1.4606211939303264,0.4999987042413778
5.7917420864105225,2.1572018327728397,[2.45305204],5.0,0.5,0.0,0.04126569318610315,1.4420583297623388,0.4999987573666658
5.800612688064575,2.1609144083908363,[2.45305204],5.0,0.5,0.0,0.03982910562213896,1.423495458118386,0.4999988577597258
5.809772729873657,2.164431585292096,[2.45305204],5.0,0.5,0.0,0.037954625849855594,1.4058998070085604,0.4999989857956734
5.819225311279297,2.168144160910093,[2.45305204],5.0,0.5,0.0,0.03583984043294913,1.387346603060888,0.49999913283431097
5.828727960586548,2.171661337811353,[2.45305204],5.0,0.5,0.0,0.033619407742564146,1.3697510466369014,0.4999992912024291
5.83669638633728,2.17478771727914,[2.45305204],5.0,0.5,0.0,-0.24465495373036159,1.3542418460469068,0.4999556332285078
5.844728469848633,2.177914096746927,[2.45305204],5.0,0.5,0.0,-0.2799723324679421,1.3386823428312398,0.4999419198272734
5.8531553745269775,2.1814312736481867,[2.45305204],5.0,0.5,0.0,-0.22698759281499598,1.3211523062491566,0.4999620380542621
5.862179756164551,2.1849484505494465,[2.45305204],5.0,0.5,0.0,-0.15291282046059335,1.3035847728444687,0.4999831654662291
5.870690107345581,2.188465627450707,[2.45305204],5.0,0.5,0.0,-0.08428631047811098,1.2860079687478951,0.49999554220746706
5.881794452667236,2.1925690005021767,[2.45305204],5.0,0.5,0.0,-0.029441742150268152,1.2655249531490231,0.5000006326542541
5.890986919403076,2.19647697483691,[2.45305114],5.0,0.5,0.0,-0.2651404857904159,1.2378509702624352,0.49994958625809316
5.900644779205322,2.200189550454907,[2.45303912],5.0,0.5,0.0,-0.2703913690844669,1.144800601480439,0.49994837679715803
5.908787250518799,2.20351132863943,[2.45298984],5.0,0.5,0.0,-0.19719567709226843,1.0674068130938568,0.49997497991536566
5.916768312454224,2.2068331068239537,[2.45284718],5.0,0.5,0.0,-0.11028102121124433,0.9259033094306105,0.4999964808343546
5.926008462905884,2.2105456824419503,[2.45250064],5.0,0.5,0.0,-0.03413927132083504,0.9740465961869224,0.500007356520493
5.933670520782471,2.213672061909737,[2.45182862],5.0,0.5,0.0,0.024476341617228566,0.9511241493075511,0.5000113977958278
5.942772388458252,2.217189238810997,[2.45074171],5.0,0.5,0.0,0.06601785589895133,0.8646674469127935,0.500015042082669
5.950784206390381,2.220315618278784,[2.44917572],5.0,0.5,0.0,0.09337640842906761,0.870097575841388,0.5000217320518996
5.960752725601196,2.224223592613517,[2.44709976],5.0,0.5,0.0,0.10984940539327581,0.8207583067330321,0.5000394781991477
5.969714641571045,2.2277407695147775,[2.44449898],5.0,0.5,0.0,0.11836919117738924,0.7959787664743956,0.5000725573046748
5.979640007019043,2.2312579464160374,[2.44137216],5.0,0.5,0.0,0.12128885336831881,0.7802505226168532,0.5001353865678616
5.988572835922241,2.2347751233172977,[2.43774413],5.0,0.5,0.0,0.12039507370561664,0.763099851330212,0.5002532834706791
5.997710466384888,2.238487698935294,[2.43366699],5.0,0.5,0.0,0.1169984430174611,0.7793231096481168,0.5004808470920548
6.007420301437378,2.242395673270028,[2.42933976],5.0,0.5,0.0,0.11203727281367282,1.1242856700660127,0.5009120544720075
6.018726587295532,2.2472806411884445,[2.42505096],5.0,0.5,0.0,0.1061704959508166,1.057164327222072,0.5017907294233646
6.02968430519104,2.2515794129566515,[2.42091408],5.0,0.5,0.0,-0.1761856042824832,0.9164594002029496,0.503208274300341
6.041482925415039,2.256073583441595,[2.41692785],5.0,0.5,0.0,0.06026733901208067,0.8394104548677473,0.5056545366868929
6.053024530410767,2.260567753926538,[2.41311422],5.0,0.5,0.0,0.14208916734981802,0.7716364618530065,0.5095075947910593
6.063171148300171,2.264671126978008,[2.40949421],5.0,0.5,0.0,-0.11916980039968039,0.7165650164921982,0.5150640109789639
6.070694446563721,2.2674067090123216,[2.40608349],5.0,0.5,0.0,-0.16379318333330817,0.6757141083603936,0.5213397123700751
6.080212831497192,2.2715100820637915,[2.402893],5.0,0.5,0.0,-0.1282159469987767,0.6309806742477319,0.5316606526073304
6.089445352554321,2.2750272589650518,[2.39992902],5.0,0.5,0.0,-0.07203519479953022,0.5928405455904483,0.5441493262265695
6.097674369812012,2.2781536384328382,[2.39719399],5.0,0.5,0.0,-0.019030031072174478,0.56086141539113,0.5587698851318988
6.106706619262695,2.281280017900625,[2.39468718],5.0,0.5,0.0,0.023109972431964075,0.5297288801380987,0.5763641445269604
6.115685224533081,2.2846017960851484,[2.39240493],5.0,0.5,0.0,0.05346747400926352,0.49975508542424374,0.5978494854052517
6.127290725708008,2.289486764003565,[2.39034106],5.0,0.5,0.0,0.07362147497830279,0.4628566807117983,0.630765642102351
6.135729074478149,2.2928085421880886,[2.38848756],5.0,0.5,0.0,0.08577723086761849,0.4374655130529205,0.6602645883448652
6.144670486450195,2.2965211178060856,[2.38683523],5.0,0.5,0.0,0.09201863145192837,0.41019467061545617,0.6956632916840413
6.152662754058838,2.299647497273872,[2.3853737],5.0,0.5,0.0,0.09406551993956444,0.38688228719142376,0.7299656866230723
6.1606974601745605,2.3029692754583957,[2.38409168],5.0,0.5,0.0,0.09324408048012921,0.3638348065881066,0.7681542064142869
6.1736979484558105,2.3080496420935486,[2.38297725],5.0,0.5,0.0,0.09053618395324825,0.3322572167105198,0.8253519072079062
6.183103084564209,2.311566818994809,[2.38201805],5.0,0.5,0.0,0.08664891438337807,0.309475198130524,0.8705784199525712
6.191741466522217,2.315083995896069,[2.38120169],5.0,0.5,0.0,0.08208068093928018,0.28842238621268523,0.9171447894410734
6.199677228927612,2.3182103753638557,[2.38051611],5.0,0.5,0.0,0.0771761733108582,0.2704459737731327,0.9600543815577645
6.212332248687744,2.3230953432822723,[2.37994954],5.0,0.5,0.0,0.07216912776466713,0.24296385678991417,1.02388280073294
6.219923734664917,2.3260263240333225,[2.37949037],5.0,0.5,0.0,0.06721437412961465,0.2263013107453206,1.0645722877114085
6.229688882827759,2.3295435009345824,[2.3791275],5.0,0.5,0.0,-0.21362707048769297,0.20793355869750785,1.1115429630384115
6.2387144565582275,2.3326698804023693,[2.3788504],5.0,0.5,0.0,-0.5273806302780127,0.1912460574480047,1.1525644960352934
6.249683141708374,2.336187057303629,[2.37864907],5.0,0.5,0.0,-1.0618285069093019,0.17321854475769466,1.1964161633046353
6.260272741317749,2.3397042342048895,[2.37851398],5.0,0.5,0.0,-1.5530529149206067,0.15556233601065375,1.2381084038995542
6.267711162567139,2.3422444175224664,[2.37843634],5.0,0.5,0.0,-1.9183900935349811,0.14354053763291952,1.26680128700898
6.277353286743164,2.3447846008400433,[2.37840798],5.0,0.5,0.0,-2.4267951989030996,0.13138251022665995,1.2932684817028197
6.286219596862793,2.3473247841576197,[2.37842135],5.0,0.5,0.0,-2.855549664279094,0.11959373770814928,1.3181195650544126
6.293717384338379,2.349278771324986,[2.37846955],5.0,0.5,0.0,-3.1429266791848924,0.11129960057783125,1.3360109351672216
6.302300214767456,2.351428157209089,[2.37854633],5.0,0.5,0.0,-3.568501761735705,0.10193983777283637,1.3538356682318269
6.312204122543335,2.354163739243403,[2.37864604],5.0,0.5,0.0,-4.190933694921313,0.0900595917120461,1.3741247717880234
6.320775985717773,2.3559223276940333,[2.37876356],5.0,0.5,0.0,-4.4321619026883035,0.08300835556287195,1.3865036916592473
6.329026699066162,2.357680916144663,[2.37889436],5.0,0.5,0.0,-4.451623208562644,0.0760918445932828,1.3993930709213946
6.338342666625977,2.35963490331203,[2.37902408],5.0,0.5,0.0,-4.8946351647659725,-0.024139636345177386,1.410049389785715
6.346006393432617,2.3606118968957133,[2.37912444],5.0,0.5,0.0,-4.779045817362,-0.05131951337229849,1.4170376691770692
6.355096340179443,2.3619796879128696,[2.37917638],5.0,0.5,0.0,-5.0,-0.02330335939419496,1.4243019302694127
6.3656675815582275,2.362956681496553,[2.37917909],5.0,0.5,0.0,-5.0,-0.014923124857473168,1.4304598947086011
6.375271558761597,2.3635428776467635,[2.37913393],5.0,0.5,0.0,-5.0,-0.021296139151802677,1.4342787170575897
6.384697437286377,2.3637382763635,[2.37903832],5.0,0.5,0.0,-5.0,-0.023372485899193683,1.4359928666081072
6.392690896987915,2.3637382763635,[2.37889093],5.0,0.5,0.0,-5.0,-0.010778136308072797,1.4368498752912373
6.401755094528198,2.3635428776467635,[2.37869295],5.0,0.5,0.0,-5.0,-0.01325829410498213,1.4368648303014544
6.4097630977630615,2.3635428776467635,[2.37844611],5.0,0.5,0.0,-5.0,-0.002758007384870737,1.438282978024688
6.418900489807129,2.3633474789300264,[2.378154],5.0,0.5,0.0,-5.0,0.005879362014430861,1.4388328273738176
6.426645994186401,2.362956681496553,[2.37782171],5.0,0.5,0.0,-5.0,0.013406775010658767,1.4385005497186605
6.436136722564697,2.36256588406308,[2.37745274],5.0,0.5,0.0,-4.912286573090617,0.00661712744272235,1.4390002501901238
6.445338010787964,2.3621750866296063,[2.37704781],5.0,0.5,0.0,-4.321499743692202,0.002314737000582655,1.4430142807188817
6.453125476837158,2.361784289196133,[2.37660669],5.0,0.5,0.0,-2.8009997003177074,-0.00034155751497362926,1.4512043913430757
6.464818000793457,2.36139349176266,[2.37612856],5.0,0.5,0.0,-1.5124533735589305,-0.01341890870409955,1.4558049804922732
6.475051641464233,2.3610026943291866,[2.37561204],5.0,0.5,0.0,-0.24923214547321593,-0.01067525291822662,1.4581654075978026
6.483657598495483,2.36080729561245,[2.3750593],5.0,0.5,0.0,1.320889872606576,0.0017339470097356984,1.4588930562397278
6.492781400680542,2.360416498178977,[2.37447543],5.0,0.5,0.0,2.675660083157987,-0.00010401013329436491,1.4559394557722318
6.501666784286499,2.36022109946224,[2.37386406],5.0,0.5,0.0,3.947611110361273,-0.00244368903665533,1.451991360441698
6.511898756027222,2.360025700745503,[2.37322757],5.0,0.5,0.0,4.9038523320335266,-0.004352359213345484,1.4481581434216588
6.5230937004089355,2.35963490331203,[2.37256742],5.0,0.5,0.0,5.0,-0.014875390227128126,1.4488353280812127
6.53169322013855,2.359244105878557,[2.37188542],5.0,0.5,0.0,5.0,-0.0022889115543753133,1.4502768187577382
6.539745092391968,2.359244105878557,[2.37118596],5.0,0.5,0.0,5.0,-0.005103160644326684,1.4536133895654246
6.551711797714233,2.358853308445083,[2.37047223],5.0,0.5,0.0,5.0,-0.01487129323737573,1.4550934355253708
6.560736656188965,2.358267112294873,[2.36974532],5.0,0.5,0.0,5.0,-0.011214836049348543,1.4557263210652396
6.56975531578064,2.3580717135781364,[2.36900759],5.0,0.5,0.0,5.0,-0.011423450578641053,1.458097165151186
6.579371213912964,2.3578763148613997,[2.36826249],5.0,0.5,0.0,4.98298460957157,-0.009199310074186548,1.460510430490727
6.588072776794434,2.3578763148613997,[2.36751366],5.0,0.5,0.0,5.0,-0.009921329823668537,1.4633278519642907
6.597325325012207,2.3574855174279263,[2.36676456],5.0,0.5,0.0,4.753587235641216,-0.008843499665293776,1.4663861790202781
6.604725122451782,2.3572901187111897,[2.36601911],5.0,0.5,0.0,4.386332107200553,-0.0018544184505980233,1.4707574357267137
6.6159844398498535,2.3570947199944534,[2.36528092],5.0,0.5,0.0,3.9973082266428515,-0.010829346752076275,1.474932629520565
6.625714063644409,2.3567039225609796,[2.36455168],5.0,0.5,0.0,3.6272216464897102,-0.00950619089516627,1.4780594961476676
6.635044813156128,2.356508523844243,[2.36383304],5.0,0.5,0.0,3.2900226675380595,-0.009168112237591857,1.4813346495137694
6.644521951675415,2.3563131251275062,[2.3631273],5.0,0.5,0.0,2.9880010301636437,-0.008974685790973368,1.4841542372506806
6.6537017822265625,2.3561177264107696,[2.36243657],5.0,0.5,0.0,2.9948729551949542,-0.008982482824097493,1.4854139041913477
6.66363000869751,2.3559223276940333,[2.3617627],5.0,0.5,0.0,2.787926106423939,-0.009014490133050203,1.4874486983658204
6.673719882965088,2.3557269289772966,[2.36110732],5.0,0.5,0.0,2.5179944004779817,-0.009162655655152117,1.489529496345099
6.68269681930542,2.3553361315438233,[2.36047304],5.0,0.5,0.0,2.248852661845686,0.003148028485360244,1.4909857858177413
6.6926493644714355,2.3553361315438233,[2.359866],5.0,0.5,0.0,2.004115991086381,0.023516710427399747,1.4929235270049919
6.700654029846191,2.3549453341103495,[2.35929393],5.0,0.5,0.0,1.789688327733408,0.026308059703315262,1.4938464558622102
6.7136406898498535,2.354749935393613,[2.35876027],5.0,0.5,0.0,1.6042851608695385,0.014356803255102104,1.4948763964260794
6.724650144577026,2.35435913796014,[2.35826421],5.0,0.5,0.0,1.4442030616488613,0.015622838008952594,1.4954045242297518
6.733672618865967,2.3539683405266665,[2.35780524],5.0,0.5,0.0,1.0293211486427523,0.017051459590813486,1.4962719032848038
6.744138717651367,2.3537729418099302,[2.35738345],5.0,0.5,0.0,0.8749077649638637,0.01685390726016463,1.496826760850367
6.753373384475708,2.353577543093193,[2.35699843],5.0,0.5,0.0,0.823204897447764,0.016811504898612616,1.497158036372689
6.762148141860962,2.3531867456597197,[2.35664941],5.0,0.5,0.0,0.804519902194766,0.0175686661051834,1.497123284144526
6.7697248458862305,2.352991346942983,[2.35633525],5.0,0.5,0.0,0.5143242124035394,0.017618975507767393,1.4975692798185825
6.780268430709839,2.3526005495095093,[2.35605456],5.0,0.5,0.0,0.4617057291611768,0.01824992570525333,1.4974581488917322
6.792734146118164,2.3520143533592996,[2.35580566],5.0,0.5,0.0,0.4900441494936596,0.020211311801221484,1.4969505942389216
6.803684711456299,2.351818954642563,[2.35558676],5.0,0.5,0.0,0.5331858631201474,0.020313939967991572,1.4969531709145747
6.812221050262451,2.3516235559258263,[2.35539598],5.0,0.5,0.0,0.5664990812408321,0.020431071982282077,1.4969189746040372
6.819977283477783,2.351232758492353,[2.35523135],5.0,0.5,0.0,0.5835200233908234,0.021700136212466654,1.4965539630068319
6.8296449184417725,2.3510373597756162,[2.35509089],5.0,0.5,0.0,0.5850586333890668,0.022123117238156235,1.4964644290174605
6.838970899581909,2.3508419610588795,[2.35497263],5.0,0.5,0.0,0.5742988929341148,0.022499323342192387,1.496347867161949
6.846679925918579,2.350646562342143,[2.3548746],5.0,0.5,0.0,0.5547318476044629,0.023112460204629728,1.4962020963567082
6.856194972991943,2.35025576490867,[2.35479489],5.0,0.5,0.0,0.5293898065465384,0.024712121477730192,1.495679165614705
6.867053508758545,2.3500603661919333,[2.35473165],5.0,0.5,0.0,0.5006505269865547,0.02536312338551337,1.4954587883471993
6.876369476318359,2.3496695687584594,[2.35468307],5.0,0.5,0.0,0.47026999342146925,0.027064358707906664,1.4948209753286497
6.886947154998779,2.349278771324986,[2.35464746],5.0,0.5,0.0,0.4394900375230518,0.02888252272028118,1.4941082613007233
6.895632028579712,2.34908337260825,[2.35462322],5.0,0.5,0.0,0.4091557788037168,0.02984883261869249,1.4937562158375965
6.904625654220581,2.348887973891513,[2.35460887],5.0,0.5,0.0,0.3798186743870798,0.030782840438114772,1.4933682616503823
6.914815664291382,2.3483017777413027,[2.35460303],5.0,0.5,0.0,0.07578051972374719,0.03375615729924475,1.4920860085371337
6.9247400760650635,2.3481063790245664,[2.3546044],5.0,0.5,0.0,0.016184869709006997,0.034859004132472546,1.49159050018465
6.93481183052063,2.3479109803078297,[2.3546118],5.0,0.5,0.0,0.04642866125740922,0.03594317508886415,1.4910584020125106
6.945650339126587,2.3475201828743564,[2.35462415],5.0,0.5,0.0,0.09929728865985266,0.037983937426962155,1.4899501449455834
6.955241680145264,2.3471293854408826,[2.3546405],5.0,0.5,0.0,0.14821450653691592,0.04005433534898967,1.48876369420404
6.9647297859191895,2.3469339867241463,[2.35465998],5.0,0.5,0.0,0.18478652507172222,0.04117528034127528,1.4881073798272932
6.972750663757324,2.346543189290673,[2.35468181],5.0,0.5,0.0,0.2082172675958529,0.04327501378128315,1.486807655111549
6.9806458950042725,2.3463477905739363,[2.35470533],5.0,0.5,0.0,0.22046607095380455,0.04434767496008412,1.486091245988789
6.9896605014801025,2.3461523918571996,[2.35472993],5.0,0.5,0.0,0.2241414244107921,0.04547436125603524,1.4853554950556636
6.998129844665527,2.3457615944237262,[2.3547551],5.0,0.5,0.0,0.2216681127499146,0.04761299463237462,1.4839169226553888
7.0056421756744385,2.3455661957069895,[2.35478041],5.0,0.5,0.0,0.21502484278364775,0.048703830142804314,1.4831285913708456
7.013644695281982,2.345370796990253,[2.35480548],5.0,0.5,0.0,0.20572076942323778,0.04981820950349998,1.4823233972626895
7.022722959518433,2.3449799995567795,[2.35482999],5.0,0.5,0.0,0.19485904207530902,0.05192905961112988,1.4807543279018633
7.031681776046753,2.3447846008400433,[2.35485371],5.0,0.5,0.0,0.18322116983460346,0.05306552625765776,1.4799018303782236
7.042241811752319,2.3443938034065694,[2.35487619],5.0,0.5,0.0,0.17134592062614046,0.05289944400499654,1.4782417703898476
7.050611257553101,2.3441984046898328,[2.35489662],5.0,0.5,0.0,0.15959438233615497,0.052686111864410315,1.4773506552341698
7.058626651763916,2.344003005973096,[2.35491432],5.0,0.5,0.0,0.14820033864898402,0.05427309276889249,1.4764535550670945
7.06863808631897,2.3438076072563594,[2.35492908],5.0,0.5,0.0,0.4133462321393748,0.05572382595697948,1.4754388434878214
7.07802414894104,2.343612208539623,[2.35494094],5.0,0.5,0.0,0.4361617511734108,0.05658738689184819,1.4745170011246485
7.086657285690308,2.34322141110615,[2.35494986],5.0,0.5,0.0,0.3713780000019541,0.05853585600842461,1.472761041923322
7.095631837844849,2.343026012389413,[2.35495582],5.0,0.5,0.0,0.2862396605468829,0.05954621264272032,1.4718762532883005
7.103628158569336,2.342830613672676,[2.35495889],5.0,0.5,0.0,0.20728855223439122,0.060948933995717255,1.4709775054914096
7.115917682647705,2.3426352149559393,[2.35495921],5.0,0.5,0.0,0.1428429803023628,0.061583374220951455,1.4700653395793222
7.123932838439941,2.342439816239203,[2.35495686],5.0,0.5,0.0,0.09359873398830473,0.06259967967255388,1.4691440840754137
7.132610559463501,2.3420490188057297,[2.35495196],5.0,0.5,0.0,0.05748253651504574,0.06499762365471537,1.4672485978205305
7.144460916519165,2.341853620088993,[2.35494475],5.0,0.5,0.0,0.03176585785026191,0.06566451006498741,1.4663044623989403
7.154417276382446,2.341462822655519,[2.35493539],5.0,0.5,0.0,0.0139028028939149,0.06776805814395861,1.4643488703007517
7.16275429725647,2.341267423938783,[2.35492406],5.0,0.5,0.0,0.0017957615786599714,0.06881105491559938,1.4633863429757548
7.170626401901245,2.3410720252220463,[2.35491103],5.0,0.5,0.0,-0.006179054633206277,0.07004959084219346,1.4624206931405213
7.178619384765625,2.3408766265053096,[2.35489659],5.0,0.5,0.0,-0.011233930625927476,0.07095769934571705,1.4614507288829195
7.187648057937622,2.3406812277885725,[2.35488107],5.0,0.5,0.0,-0.014253352261961836,0.07189383453460219,1.4604750566007583
7.197678804397583,2.340290430355099,[2.35486469],5.0,0.5,0.0,-0.015872627257145895,0.07380344986719818,1.4584077135442228
7.210093975067139,2.339899632921626,[2.35484757],5.0,0.5,0.0,-0.016542921257810435,0.07551388470562402,1.4562954439064066
7.21760892868042,2.339899632921626,[2.35482983],5.0,0.5,0.0,-0.01658177246301408,0.07577136454499497,1.4563968044329194
7.225603818893433,2.3397042342048895,[2.35481166],5.0,0.5,0.0,-0.01621093608953863,0.0767888626442063,1.4553791049133304
7.233581304550171,2.339313436771416,[2.35479323],5.0,0.5,0.0,0.2604542516850652,0.0786387987660504,1.4531549652365996
7.242611885070801,2.339118038054679,[2.35477471],5.0,0.5,0.0,0.29435602423475704,0.07947388640599866,1.45209163579347
7.253465414047241,2.3389226393379428,[2.35475618],5.0,0.5,0.0,0.24011436800676894,0.08017496244358,1.4510531322139073
7.263900995254517,2.338727240621206,[2.35473771],5.0,0.5,0.0,0.16491506997960392,0.08098645708186593,1.4500047279523518
7.2728590965271,2.3383364431877327,[2.35471934],5.0,0.5,0.0,0.09527629707851287,0.0830962629717806,1.4477286886632015
7.281658172607422,2.3383364431877327,[2.3547012],5.0,0.5,0.0,0.0395160645542781,0.08307550486471453,1.4478468952003838
7.290618896484375,2.338141044470996,[2.35468339],5.0,0.5,0.0,0.27438333311503066,0.08397394141226099,1.4466848275144195
7.29958701133728,2.33794564575426,[2.35466601],5.0,0.5,0.0,0.2788769163225433,0.08480756139331182,1.445562483557539
7.308610916137695,2.337750247037523,[2.3546491],5.0,0.5,0.0,0.20498986904101313,0.08564600435201347,1.4444548814147509
7.319921493530273,2.3375548483207864,[2.3546327],5.0,0.5,0.0,0.117442919297014,0.08651027200734403,1.4433277398538653
7.330622911453247,2.3373594496040493,[2.35461684],5.0,0.5,0.0,0.3167604460585669,0.08736107539571869,1.4421010111821824
7.341658115386963,2.3371640508873126,[2.35460154],5.0,0.5,0.0,0.2907385191388382,0.08815963480908759,1.4409360685127468
7.350677251815796,2.336968652170576,[2.35458683],5.0,0.5,0.0,0.1936125920188172,0.08912651100151871,1.4397797819612683
7.36063027381897,2.3367732534538397,[2.35457272],5.0,0.5,0.0,0.08972175188287736,0.09007213603341019,1.4385955774647305
7.3696277141571045,2.336577854737103,[2.35455924],5.0,0.5,0.0,0.002315208359048533,0.09096329276194189,1.4373804584545338
7.379119157791138,2.3363824560203663,[2.35454639],5.0,0.5,0.0,-0.06320393088646649,0.0919424331904188,1.4361413078744774
7.389677047729492,2.336187057303629,[2.35453417],5.0,0.5,0.0,-0.10846824232707036,0.09291363021317259,1.434884161199039
7.398627519607544,2.3357962598701563,[2.35452263],5.0,0.5,0.0,-0.1373086611328586,0.09525014013449638,1.432253539544007
7.4085938930511475,2.3356008611534196,[2.35451189],5.0,0.5,0.0,-0.42977156268222727,0.09644645593875069,1.4308351594881494
7.420581579208374,2.3352100637199458,[2.35450199],5.0,0.5,0.0,-0.4703573339497723,0.09824181848476815,1.428102538388871
7.430029630661011,2.335014665003209,[2.3544929],5.0,0.5,0.0,-0.6925214443970273,0.09943703224665981,1.4265702384125645
7.4392781257629395,2.3348192662864724,[2.35448462],5.0,0.5,0.0,-0.6465939820637232,0.10048982508456321,1.4252591637601535
7.453707933425903,2.3344284688529995,[2.35447712],5.0,0.5,0.0,-0.5153081233536421,0.10246016326729111,1.4225590472073473
7.463330507278442,2.334233070136263,[2.35447039],5.0,0.5,0.0,-0.37529747668490865,0.10342737466230309,1.4212501783321143
7.473150253295898,2.333842272702789,[2.35446439],5.0,0.5,0.0,-0.25457590144032977,0.10532562072098671,1.4184141034411493
7.482153415679932,2.3336468739860523,[2.35445908],5.0,0.5,0.0,-0.15994759567351974,0.10631446255343606,1.4169976768361985
7.490107536315918,2.3332560765525794,[2.35445441],5.0,0.5,0.0,-0.0897813296261569,0.10824067281002361,1.414040471944725
7.498085260391235,2.3330606778358427,[2.35445035],5.0,0.5,0.0,-0.03974605496194134,0.10923831436649949,1.4125568558001738
7.506845951080322,2.332865279119106,[2.35444685],5.0,0.5,0.0,-0.2812610687284412,0.1103055034127489,1.4109953326662332
7.518987417221069,2.3326698804023693,[2.35444388],5.0,0.5,0.0,-0.2913539302505733,0.11135765543230039,1.4094721784767723
7.528450012207031,2.3322790829688964,[2.35444138],5.0,0.5,0.0,-0.22151496789780406,0.11331698775031458,1.4064007346224274
7.537835597991943,2.3320836842521597,[2.35443931],5.0,0.5,0.0,-0.13654918148957068,0.11431929043185998,1.4048644519836158
7.54596471786499,2.331692886818686,[2.35443763],5.0,0.5,0.0,-0.06121746697516676,0.11626988149105112,1.401705103657708
7.55366849899292,2.3314974881019492,[2.3544363],5.0,0.5,0.0,-0.0025663397646119683,0.11724418319372337,1.4001104407788831
7.56585693359375,2.331302089385213,[2.35443528],5.0,0.5,0.0,0.3156390799199518,0.11811128540744871,1.3984255310838738
7.574606418609619,2.3311066906684763,[2.35443455],5.0,0.5,0.0,0.3771359234033615,0.11900985924222296,1.3967700281189082
7.5836217403411865,2.330911291951739,[2.35443407],5.0,0.5,0.0,0.3397625740073076,0.11995319364717315,1.3951534134697943
7.5929274559021,2.330520494518266,[2.3544338],5.0,0.5,0.0,0.2735768080012335,0.12183894065410908,1.391872840170347
7.602563142776489,2.330520494518266,[2.35443372],5.0,0.5,0.0,0.2074058176918739,0.12184234187342415,1.3918972623438899
7.613959312438965,2.330325095801529,[2.35443378],5.0,0.5,0.0,0.15132320350333076,0.12284362455783711,1.3902394035266334
7.625681638717651,2.330129697084793,[2.35443397],5.0,0.5,0.0,0.3833672243581516,0.12366146091289414,1.3884626764846972
7.634782314300537,2.329934298368056,[2.35443426],5.0,0.5,0.0,0.38346089136354333,0.1245549845774987,1.3867669550586514
7.643879175186157,2.329738899651319,[2.35443464],5.0,0.5,0.0,0.3042472170020316,0.12553869774681017,1.38510077912952
7.651681423187256,2.329738899651319,[2.35443509],5.0,0.5,0.0,0.48693456992372,0.12537005804006912,1.3849892938991581
7.662795782089233,2.3293481022178457,[2.35443559],5.0,0.5,0.0,0.437361882057714,0.12720380647966234,1.3815814551952281
7.672632455825806,2.3293481022178457,[2.35443612],5.0,0.5,0.0,0.31717192916791787,0.12721935526558106,1.3816442193375562
7.682886362075806,2.329152703501109,[2.35443668],5.0,0.5,0.0,0.1932732448395078,0.12814414622943057,1.3799523656483985
7.69694709777832,2.328957304784373,[2.35443725],5.0,0.5,0.0,0.3654401797508679,0.12896752692215377,1.378131687772845
7.70584774017334,2.328761906067636,[2.35443782],5.0,0.5,0.0,0.3198048845885846,0.12987420638308814,1.3763959139821231
7.716575622558594,2.328957304784373,[2.35443837],5.0,0.5,0.0,0.20887031880836276,0.12888393198930465,1.378188564799593
7.724758625030518,2.328957304784373,[2.35443891],5.0,0.5,0.0,0.3715188712403831,0.1287175809529886,1.378113463713966
7.7326154708862305,2.328957304784373,[2.35443943],5.0,0.5,0.0,0.5868997363197768,0.12849704914967303,1.3779551980252718
7.74117374420166,2.328957304784373,[2.35443993],5.0,0.5,0.0,0.4952568851920238,0.12835855516332773,1.3780245728526825
7.748645782470703,2.328957304784373,[2.35444038],5.0,0.5,0.0,0.5922598162162197,0.1281564498141076,1.377941993368835
7.758599281311035,2.328761906067636,[2.35444079],5.0,0.5,0.0,0.7244690144041497,0.12886471930537385,1.3760546908852158
7.769579887390137,2.328761906067636,[2.35444115],5.0,0.5,0.0,0.5581628951115641,0.12876889821751278,1.3762101593491443
7.77859091758728,2.328761906067636,[2.35444145],5.0,0.5,0.0,0.5966734111931857,0.12855673225412415,1.3761743377723512
7.78759765625,2.328761906067636,[2.35444171],5.0,0.5,0.0,0.41061944519679794,0.12848997924500927,1.3763115292373715
7.798609495162964,2.328761906067636,[2.35444191],5.0,0.5,0.0,0.1826785361682415,0.12841490528493515,1.376410354820815
7.807585954666138,2.328761906067636,[2.35444206],5.0,0.5,0.0,-0.01763333823526793,0.12837225685275755,1.3764335872965112
7.8205931186676025,2.328957304784373,[2.35444216],5.0,0.5,0.0,-0.1707778072940203,0.12742280015863675,1.3781653995458782
7.829601049423218,2.328957304784373,[2.35444221],5.0,0.5,0.0,-0.2775875890230713,0.12737182788890442,1.378129299528024
7.840612173080444,2.328761906067636,[2.35444222],5.0,0.5,0.0,-0.345852691835161,0.12836725415599096,1.3763434092101243
7.849555253982544,2.328761906067636,[2.35444217],5.0,0.5,0.0,-0.38458580619967087,0.12836939720014742,1.3763227418448225
7.862642288208008,2.328957304784373,[2.35444209],5.0,0.5,0.0,-0.4018352988804059,0.12738261026218772,1.3780676063562622
7.871564865112305,2.328761906067636,[2.35444196],5.0,0.5,0.0,-0.4040676381830618,0.12837565932383982,1.3763131970965168
7.880836009979248,2.328761906067636,[2.35444181],5.0,0.5,0.0,-0.39619149797227454,0.12837490551913333,1.376319299427288
7.888656377792358,2.328957304784373,[2.35444162],5.0,0.5,0.0,-0.38180259602254096,0.12738569713835401,1.3780834725423556
7.898035287857056,2.328957304784373,[2.3544414],5.0,0.5,0.0,-0.3634688450110453,0.1273670875404799,1.3780955904548895
7.905987501144409,2.328957304784373,[2.35444115],5.0,0.5,0.0,-0.3429866391537143,0.1274028250737186,1.3781085742535346
7.914813756942749,2.328957304784373,[2.35444089],5.0,0.5,0.0,-0.32158841027907203,0.12747039026045318,1.378121485968166
7.926509380340576,2.328957304784373,[2.35444064],5.0,0.5,0.0,-0.30010182455568907,0.1273831939936853,1.378133745179061
7.934579133987427,2.328761906067636,[2.35444037],5.0,0.5,0.0,-0.27906801731978653,0.12837969660097667,1.3763910382626976
7.942639589309692,2.328957304784373,[2.35444012],5.0,0.5,0.0,-0.25882761192383585,0.12744316243451576,1.3781555730214086
7.951592206954956,2.328761906067636,[2.35443986],5.0,0.5,0.0,-0.23958242760249504,0.12833019138958918,1.3764109168603338
7.963698148727417,2.328761906067636,[2.3544396],5.0,0.5,0.0,-0.22143930035700332,0.12833863858086808,1.3764194972657067
7.973677158355713,2.328957304784373,[2.35443933],5.0,0.5,0.0,-0.20444095806229362,0.1274132574652775,1.3781813740659417
7.982600688934326,2.328761906067636,[2.35443906],5.0,0.5,0.0,-0.18858763006098392,0.1283929902909444,1.3764343644096997
7.991758584976196,2.328957304784373,[2.3544388],5.0,0.5,0.0,-0.17385207742166575,0.12735837731349933,1.3781947203863116
8.000657558441162,2.328761906067636,[2.35443854],5.0,0.5,0.0,-0.1601899785213194,0.12839538693393274,1.3764464221042076
8.010402917861938,2.328761906067636,[2.35443829],5.0,0.5,0.0,-0.1475470507737318,0.12835528308116867,1.3764515890580014
8.020289897918701,2.328957304784373,[2.35443805],5.0,0.5,0.0,-0.13586388780008962,0.12742989577689595,1.378210218854703
8.028892040252686,2.328761906067636,[2.35443782],5.0,0.5,0.0,-0.12507920339504877,0.12836048821187165,1.376460383905087
8.036996841430664,2.328957304784373,[2.3544376],5.0,0.5,0.0,-0.11513196868531446,0.1274114591649925,1.3782180648680042
8.046656608581543,2.328761906067636,[2.3544374],5.0,0.5,0.0,-0.10596278374809476,0.12831140335837057,1.376467474226138
8.055556297302246,2.328957304784373,[2.35443719],5.0,0.5,0.0,-0.09751472257071941,0.12740447871261376,1.378224555289222
8.063563108444214,2.328761906067636,[2.35443699],5.0,0.5,0.0,-0.08973381819686654,0.12837702774298052,1.3764734869792625
8.073368549346924,2.328957304784373,[2.3544368],5.0,0.5,0.0,-0.0825693043264176,0.12738688451989538,1.3782300153459548
8.082053184509277,2.328761906067636,[2.35443663],5.0,0.5,0.0,-0.07597369418153302,0.1283706966637321,1.3764784556555825
8.08959436416626,2.328761906067636,[2.35443646],5.0,0.5,0.0,-0.0699027526336298,0.12837763540697347,1.3764805891375818
8.100794792175293,2.328761906067636,[2.35443631],5.0,0.5,0.0,-0.06431540023645274,0.12834716770086715,1.3764825128478673
8.108639001846313,2.328761906067636,[2.35443617],5.0,0.5,0.0,-0.05917357569843555,0.12836778535349955,1.376484283010666
8.120970487594604,2.328761906067636,[2.35443603],5.0,0.5,0.0,-0.05444207488490997,0.1283683018882958,1.3764859063945916
8.129912376403809,2.328761906067636,[2.35443591],5.0,0.5,0.0,-0.05008837856662168,0.12836837340321686,1.3764873758164307
8.138601541519165,2.328761906067636,[2.35443579],5.0,0.5,0.0,-0.046082477053475096,0.12838245483797062,1.3764886864230486
8.149583578109741,2.328761906067636,[2.35443569],5.0,0.5,0.0,-0.042396697030440245,0.12836402373385367,1.3764898355102755
8.158264636993408,2.328761906067636,[2.3544356],5.0,0.5,0.0,-0.039005533967232706,0.12836490507173196,1.3764908501258155
8.167621612548828,2.328761906067636,[2.35443552],5.0,0.5,0.0,-0.03588549213949216,0.12836556967284427,1.3764917544101687
8.178420305252075,2.328761906067636,[2.35443545],5.0,0.5,0.0,-0.033014933391168864,0.1283659567165025,1.3764925559044552
8.188658237457275,2.328761906067636,[2.35443538],5.0,0.5,0.0,-0.03037393515590528,0.12836615896614129,1.3764932619765058
8.198332071304321,2.328761906067636,[2.35443533],5.0,0.5,0.0,-0.027944157848676147,0.12836624192911048,1.3764938798041888
8.211390256881714,2.328761906067636,[2.35443528],5.0,0.5,0.0,-0.02570872147446361,0.12836625067710355,1.3764944163558899
8.223851442337036,2.328761906067636,[2.35443523],5.0,0.5,0.0,-0.023652091134089122,0.12836621596612752,1.3764948783699982
8.234891176223755,2.328761906067636,[2.3544352],5.0,0.5,0.0,-0.02175997100767261,0.12836615854366834,1.3764952723348791
8.243405818939209,2.328761906067636,[2.35443517],5.0,0.5,0.0,-0.020019206342077617,0.12836609217204054,1.3764956044702947
8.251545906066895,2.328761906067636,[2.35443514],5.0,0.5,0.0,-0.018417692945225304,0.12836602575136277,1.3764958807111007
8.26053786277771,2.328761906067636,[2.35443512],5.0,0.5,0.0,-0.01694429368696734,0.12836596481092483,1.3764961066936303
8.271577596664429,2.328761906067636,[2.3544351],5.0,0.5,0.0,-0.015588761516162192,0.12836591255717236,1.3764962877450986
8.279585838317871,2.328761906067636,[2.35443509],5.0,0.5,0.0,-0.014341668521775836,0.12836587061021604,1.3764964288761656
8.288653373718262,2.328761906067636,[2.35443508],5.0,0.5,0.0,-0.013194340588868456,0.12836583952137137,1.3764965347765918
8.298583269119263,2.328761906067636,[2.35443507],5.0,0.5,0.0,-0.012138797225943299,0.12836581913655032,1.3764966098139437
8.307867527008057,2.328761906067636,[2.35443507],5.0,0.5,0.0,-0.011167696166796866,0.12836580885103316,1.3764966580351463
8.315560579299927,2.328761906067636,[2.35443507],5.0,0.5,0.0,-0.01027428237670344,0.12836580778758547,1.3764966831706604
8.326555252075195,2.328761906067636,[2.35443507],5.0,0.5,0.0,-0.009452341118842387,0.12836581492039298,1.3764966886410237
8.335859060287476,2.328761906067636,[2.35443507],5.0,0.5,0.0,-0.008696154761927675,0.1283658291606356,1.376496677565482
8.344072103500366,2.328957304784373,[2.35443508],5.0,0.5,0.0,-0.008000463033788313,0.12739862576703137,1.3782504919738745
8.352189302444458,2.328761906067636,[2.35443508],5.0,0.5,0.0,-0.0073604264480556635,0.1283562023876358,1.3764966168110926
8.35956335067749,2.328761906067636,[2.35443509],5.0,0.5,0.0,-0.006771592652090498,0.12836580706675468,1.376496571965139
8.368579387664795,2.328957304784373,[2.35443509],5.0,0.5,0.0,-0.00622986546383875,0.12739871137093256,1.3782503603186436
8.378551006317139,2.328957304784373,[2.3544351],5.0,0.5,0.0,-0.005731476383472491,0.12738907448085543,1.3782503039057719
8.38755464553833,2.328957304784373,[2.35443511],5.0,0.5,0.0,-0.005272958382513289,0.1273890135966693,1.3782502440233368
8.398557662963867,2.328761906067636,[2.35443511],5.0,0.5,0.0,-0.004851121788715247,0.12835627288150364,1.3764963409054474
8.40856385231018,2.328761906067636,[2.35443512],5.0,0.5,0.0,-0.004463032099380133,0.12836598190954016,1.3764962776010263
8.41683030128479,2.328761906067636,[2.35443513],5.0,0.5,0.0,-0.004105989569063206,0.128366115133832,1.3764962143535797
8.425987720489502,2.328761906067636,[2.35443514],5.0,0.5,0.0,-0.003777510429881586,0.128366151884785,1.376496152002837
8.434112071990967,2.328761906067636,[2.35443514],5.0,0.5,0.0,-0.0034753096139314597,0.1283661866125228,1.3764960912428101
8.442332983016968,2.328761906067636,[2.35443515],5.0,0.5,0.0,-0.003197284857725226,0.1283662199834776,1.3764960326359876
8.45294976234436,2.328761906067636,[2.35443516],5.0,0.5,0.0,-0.002941502078143002,0.1283662517853786,1.3764959766269333
8.46053433418274,2.328761906067636,[2.35443516],5.0,0.5,0.0,-0.0027061819182166223,0.1283662818503491,1.3764959235552068
8.470583200454712,2.328957304784373,[2.35443517],5.0,0.5,0.0,-0.0024896873691868373,0.12739908641044614,1.3782497174938468
8.481569528579712,2.328957304784373,[2.35443517],5.0,0.5,0.0,-0.002290512382751168,0.12738944044700024,1.3782496712216765
8.489781618118286,2.328761906067636,[2.35443518],5.0,0.5,0.0,-0.0021072713943005726,0.12835659166953778,1.3764957840363001
8.498904466629028,2.328761906067636,[2.35443518],5.0,0.5,0.0,-0.001938689684275175,0.12836628525055505,1.3764957444217576
8.508005619049072,2.328761906067636,[2.35443519],5.0,0.5,0.0,-0.0017835945105962093,0.1283664023074301,1.3764957082687546
8.5159273147583,2.328761906067636,[2.35443519],5.0,0.5,0.0,-0.0016409069504926528,0.12836642169153153,1.3764956755168378
8.523615598678589,2.328761906067636,[2.35443519],5.0,0.5,0.0,-0.0015096343949741362,0.12836643825001065,1.37649564606998
8.53320026397705,2.328761906067636,[2.3544352],5.0,0.5,0.0,-0.0013888636437408295,0.1283664530048336,1.376495619803444
8.54158616065979,2.328761906067636,[2.3544352],5.0,0.5,0.0,-0.0012777545524968017,0.12836646605133872,1.3764955965699395
8.549545526504517,2.328761906067636,[2.3544352],5.0,0.5,0.0,-0.0011755341884757257,0.12836647748386507,1.3764955762051052
8.558565378189087,2.328761906067636,[2.3544352],5.0,0.5,0.0,-0.001081491453522735,0.12836648740447215,1.3764955585323575
8.566568374633789,2.328957304784373,[2.35443521],5.0,0.5,0.0,-0.0009949721373284626,0.12739927226964542,1.3782493890731864
8.576703548431396,2.328957304784373,[2.35443521],5.0,0.5,0.0,-0.0009153743664034679,0.12738960724560544,1.3782493762994998
8.585513353347778,2.328761906067636,[2.35443521],5.0,0.5,0.0,-0.0008421444171340911,0.12835674019028065,1.3764955198025695
8.59354043006897,2.328761906067636,[2.35443521],5.0,0.5,0.0,-0.0007747728637933918,0.12836641639170224,1.376495511024732
8.603886842727661,2.328957304784373,[2.35443521],5.0,0.5,0.0,-0.0007127910347109411,0.12739929340559447,1.3782493499318167
8.612534523010254,2.328957304784373,[2.35443521],5.0,0.5,0.0,-0.0006557677519487791,0.12738962520276534,1.3782493445166584
8.622913360595703,2.328761906067636,[2.35443521],5.0,0.5,0.0,-0.0006033063318031761,0.12835675441841937,1.376495494514352
8.63103175163269,2.328761906067636,[2.35443521],5.0,0.5,0.0,-0.0005550418252661318,0.12836642727403205,1.3764954917130505
8.639801025390625,2.328957304784373,[2.35443521],5.0,0.5,0.0,-0.0005106384792498885,0.1273993013175157,1.3782493360069423
8.648553848266602,2.328761906067636,[2.35443521],5.0,0.5,0.0,-0.00046978740091343054,0.12835685414813622,1.3764954892231094
8.661636114120483,2.328761906067636,[2.35443521],5.0,0.5,0.0,-0.0004322044088428289,0.12836642967294776,1.3764954892547159
8.671951055526733,2.328761906067636,[2.35443521],5.0,0.5,0.0,-0.0003976280561371335,0.1283665250477285,1.3764954899679234
8.682548999786377,2.328957304784373,[2.35443521],5.0,0.5,0.0,-0.00036581781164737415,0.12739930165931093,1.3782493372513724
8.693148851394653,2.328761906067636,[2.35443521],5.0,0.5,0.0,-0.00033655238671643237,0.12835685212253925,1.3764954929926592
8.702542304992676,2.328761906067636,[2.35443521],5.0,0.5,0.0,-0.00030962819577971167,0.12836642647191865,1.3764954951063106
8.712514162063599,2.328761906067636,[2.35443521],5.0,0.5,0.0,-0.0002848579401177504,0.1283665209021757,1.3764954975052475
8.721571445465088,2.328761906067636,[2.35443521],5.0,0.5,0.0,-0.0002620693049086212,0.1283665204166551,1.376495500114499
8.729854345321655,2.328761906067636,[2.35443521],5.0,0.5,0.0,-0.00024110376051613574,0.12836651890190767,1.3764955028679213
8.739004135131836,2.328761906067636,[2.35443521],5.0,0.5,0.0,-0.00022181545967498714,0.1283665173287174,1.376495505707693
8.749871969223022,2.328761906067636,[2.35443521],5.0,0.5,0.0,-0.0002040702229010884,0.12836651573441105,1.3764955085837784
8.758625984191895,2.328761906067636,[2.35443521],5.0,0.5,0.0,-0.00018774460506907118,0.1283665141429797,1.3764955114533874
8.768558263778687,2.328957304784373,[2.35443521],5.0,0.5,0.0,-0.00017272503666359434,0.12739928892674604,1.3782493601541124
8.779531955718994,2.328761906067636,[2.35443521],5.0,0.5,0.0,-0.000158907033730541,0.1283568388095346,1.3764955170348545
8.789555311203003,2.328761906067636,[2.35443521],5.0,0.5,0.0,-0.00014619447103212177,0.1283664128485323,1.3764955196922775
8.798625707626343,2.328761906067636,[2.35443521],5.0,0.5,0.0,-0.00013449891334956865,0.1283665071928763,1.3764955222332727
8.808593273162842,2.328761906067636,[2.35443521],5.0,0.5,0.0,-0.00012373900028161492,0.12836650681229686,1.3764955246429267
8.819761037826538,2.328761906067636,[2.35443521],5.0,0.5,0.0,-0.00011383988025909388,0.12836650556252777,1.3764955269103203
8.828162670135498,2.328761906067636,[2.35443521],5.0,0.5,0.0,-0.00010473268983837199,0.12836650438622166,1.3764955290280556
8.83598279953003,2.328761906067636,[2.35443521],5.0,0.5,0.0,-9.63540746513064e-05,0.12836650329519453,1.3764955309918292
8.843505382537842,2.328761906067636,[2.35443521],5.0,0.5,0.0,-8.864574867920464e-05,0.1283665022904988,1.3764955327999768
8.853644132614136,2.328761906067636,[2.35443521],5.0,0.5,0.0,-8.155408878487036e-05,0.12836650137182629,1.3764955344531078
8.862972497940063,2.328761906067636,[2.35443521],5.0,0.5,0.0,-7.502976168208205e-05,0.12836650053780216,1.3764955359537414
8.87152910232544,2.328957304784373,[2.35443521],5.0,0.5,0.0,-6.902738074751658e-05,0.12739927613831514,1.3782493830502718
8.883057832717896,2.328761906067636,[2.35443521],5.0,0.5,0.0,-6.350519028771593e-05,0.12835682687744498,1.3764955385152582
8.891634225845337,2.328957304784373,[2.35443521],5.0,0.5,0.0,-5.8424775064699156e-05,0.12739917814733337,1.3782493853193913
8.900522232055664,2.328761906067636,[2.35443521],5.0,0.5,0.0,-5.375079305952355e-05,0.12835682478933563,1.3764955405312447
8.912168264389038,2.328957304784373,[2.35443521],5.0,0.5,0.0,-4.945072961476182e-05,0.1273991771562188,1.378249387074447
8.919856309890747,2.328761906067636,[2.35443521],5.0,0.5,0.0,-4.549467124558107e-05,0.12835682393843,1.3764955420611076
8.929538249969482,2.328761906067636,[2.35443521],5.0,0.5,0.0,-4.185509754593465e-05,0.1283664000747529,1.3764955426641379
8.938941717147827,2.328761906067636,[2.35443521],5.0,0.5,0.0,-3.850668974225997e-05,0.12836649555779236,1.3764955431704384
8.947558164596558,2.328761906067636,[2.35443521],5.0,0.5,0.0,-3.5426154562879215e-05,0.12836649628286692,1.3764955435883928
8.956511974334717,2.328957304784373,[2.35443521],5.0,0.5,0.0,-3.259206219784891e-05,0.12739927245656804,1.378249389633271
8.968329906463623,2.328761906067636,[2.35443521],5.0,0.5,0.0,-2.9984697222021067e-05,0.12835682372010487,1.3764955441919071
8.97651720046997,2.328761906067636,[2.35443521],5.0,0.5,0.0,-2.7585921444259366e-05,0.12836639912212253,1.3764955443931557
8.985607624053955,2.328761906067636,[2.35443521],5.0,0.5,0.0,-2.537904772871862e-05,0.1283664947969159,1.3764955445373077
8.993616819381714,2.328761906067636,[2.35443521],5.0,0.5,0.0,-2.3348723910421168e-05,0.12836649570200953,1.3764955446313087
9.002588033676147,2.328761906067636,[2.35443521],5.0,0.5,0.0,-2.1480825997587495e-05,0.1283664956833934,1.3764955446816804
9.012514352798462,2.328761906067636,[2.35443521],5.0,0.5,0.0,-1.97623599177805e-05,0.12836649567618166,1.3764955446945086
9.02151370048523,2.328761906067636,[2.35443521],5.0,0.5,0.0,-1.8181371124358076e-05,0.12836649568663033,1.3764955446754223
9.029744148254395,2.328761906067636,[2.35443521],5.0,0.5,0.0,-1.6726861434409433e-05,0.12836649571195743,1.3764955446295957
9.037500858306885,2.328761906067636,[2.35443521],5.0,0.5,0.0,-1.5388712519656668e-05,0.12836649574954123,1.3764955445617462
9.046533823013306,2.328761906067636,[2.35443521],5.0,0.5,0.0,-1.4157615518084152e-05,0.12836649579699902,1.3764955444761604
9.056875467300415,2.328761906067636,[2.35443521],5.0,0.5,0.0,-1.3025006276637447e-05,0.12836649585219662,1.3764955443766755
9.065757513046265,2.328761906067636,[2.35443521],5.0,0.5,0.0,-1.1983005774506416e-05,0.12836649591322222,1.3764955442667306
9.074230670928955,2.328957304784373,[2.35443521],5.0,0.5,0.0,-1.1024365312545901e-05,0.12739927233053946,1.378249389855167
9.08354377746582,2.328761906067636,[2.35443521],5.0,0.5,0.0,-1.0142416087542217e-05,0.12835682380972427,1.3764955440272455
9.093955993652344,2.328761906067636,[2.35443521],5.0,0.5,0.0,-9.33102280053885e-06,0.12836639939301994,1.3764955439026907
9.103545904159546,2.328761906067636,[2.35443521],5.0,0.5,0.0,-8.584540976495755e-06,0.1283664952176029,1.3764955437776867
9.114502191543579,2.328957304784373,[2.35443521],5.0,0.5,0.0,-7.897777698376098e-06,0.12739927259606848,1.378249389362515
9.124536514282227,2.328761906067636,[2.35443521],5.0,0.5,0.0,-7.265955482506001e-06,0.12835682408430865,1.3764955435328106
9.133998155593872,2.328761906067636,[2.35443521],5.0,0.5,0.0,-6.6846790439055155e-06,0.12836639966370283,1.3764955434155093
9.144345760345459,2.328761906067636,[2.35443521],5.0,0.5,0.0,-6.149904720393076e-06,0.12836649548139928,1.3764955433029518
9.153918027877808,2.328761906067636,[2.35443521],5.0,0.5,0.0,-5.65791234276164e-06,0.12836649649847154,1.3764955431958616
9.16508674621582,2.328761906067636,[2.35443521],5.0,0.5,0.0,-5.205279355340702e-06,0.12836649656423138,1.3764955430947827
9.174026727676392,2.328761906067636,[2.35443521],5.0,0.5,0.0,-4.788857006913449e-06,0.12836649661696092,1.376495543000099
9.183316469192505,2.328761906067636,[2.35443521],5.0,0.5,0.0,-4.405748446360372e-06,0.1283664966659111,1.3764955429120502
9.191511392593384,2.328957304784373,[2.35443521],5.0,0.5,0.0,-4.053288570651542e-06,0.12739927306326404,1.3782493885439737
9.203732967376709,2.328761906067636,[2.35443521],5.0,0.5,0.0,-3.7290254849994183e-06,0.12835682451607697,1.3764955427562133
9.2122220993042,2.328957304784373,[2.35443521],5.0,0.5,0.0,-3.4307034461994594e-06,0.12739917642007806,1.3782493884023759
9.219726324081421,2.328957304784373,[2.35443521],5.0,0.5,0.0,-3.156247170503502e-06,0.1273895999728435,1.3782493883413967
9.22859501838684,2.328761906067636,[2.35443521],5.0,0.5,0.0,-2.9037473968632293e-06,0.12835672788646993,1.37649554257202
9.239540338516235,2.328957304784373,[2.35443521],5.0,0.5,0.0,-2.671447605114169e-06,0.12739917554468366,1.378249388238015
9.247531652450562,2.328761906067636,[2.35443521],5.0,0.5,0.0,-2.4577317967050363e-06,0.128356823692871,1.376495542479861
9.25561261177063,2.328761906067636,[2.35443521],5.0,0.5,0.0,-2.261113252968636e-06,0.12836640019512624,1.3764955424420877
9.264508485794067,2.328957304784373,[2.35443521],5.0,0.5,0.0,-2.080224192731143e-06,0.12739927233027945,1.3782493881249906
9.272531032562256,2.328761906067636,[2.35443521],5.0,0.5,0.0,-1.9138062573126525e-06,0.12835682471486087,1.3764955423814265
9.282527923583984,2.328761906067636,[2.35443521],5.0,0.5,0.0,-1.7607017567276398e-06,0.1283664002516983,1.3764955423578031
9.2905912399292,2.328957304784373,[2.35443521],5.0,0.5,0.0,-1.6198456161894313e-06,0.12739927237002222,1.3782493880541535
9.30118203163147,2.328761906067636,[2.35443521],5.0,0.5,0.0,-1.490257966894275e-06,0.1283568247478582,1.3764955423221483
9.310054302215576,2.328957304784373,[2.35443521],5.0,0.5,0.0,-1.3710373295427328e-06,0.12739917663079356,1.3782493880255675
9.320070266723633,2.328761906067636,[2.35443521],5.0,0.5,0.0,-1.2613543431793122e-06,0.12835682380286179,1.3764955422996084
9.33223295211792,2.328761906067636,[2.35443521],5.0,0.5,0.0,-1.160445995724967e-06,0.12836640027854151,1.3764955422924094
9.33953046798706,2.328761906067636,[2.35443521],5.0,0.5,0.0,-1.067610316066971e-06,0.12836649604599337,1.376495542287509
9.349162340164185,2.328957304784373,[2.35443521],5.0,0.5,0.0,-9.822014907816136e-07,0.1273992733574106,1.3782493880009128
9.356535911560059,2.328761906067636,[2.35443521],5.0,0.5,0.0,-9.036253715190844e-07,0.12835682477900667,1.376495542283464
9.36453127861023,2.328761906067636,[2.35443521],5.0,0.5,0.0,-8.313353417975573e-07,0.12836640029304458,1.376495542283788
9.373523950576782,2.328761906067636,[2.35443521],5.0,0.5,0.0,-7.648285144537524e-07,0.12836649604732103,1.3764955422853589
9.38169550895691,2.328761906067636,[2.35443521],5.0,0.5,0.0,-7.036422332974529e-07,0.12836649700342836,1.376495542287969
9.390830993652344,2.328761906067636,[2.35443521],5.0,0.5,0.0,-6.473508546336557e-07,0.12836649701109235,1.3764955422914187
9.400745868682861,2.328761906067636,[2.35443521],5.0,0.5,0.0,-5.955627862629639e-07,0.1283664970089048,1.376495542295536
9.411107301712036,2.328761906067636,[2.35443521],5.0,0.5,0.0,-5.47917763361926e-07,0.12836649700633737,1.376495542300165
9.42148733139038,2.328761906067636,[2.35443521],5.0,0.5,0.0,-5.040843422929724e-07,0.12836649700355948,1.3764955423051695
9.43205976486206,2.328957304784373,[2.35443521],5.0,0.5,0.0,-4.637575949095351e-07,0.12739927335279663,1.3782493880265705
9.442523717880249,2.328761906067636,[2.35443521],5.0,0.5,0.0,-4.26656987316772e-07,0.12835682476116794,1.3764955423158183
9.450515508651733,2.328761906067636,[2.35443521],5.0,0.5,0.0,-3.925244283314306e-07,0.12836640027225765,1.3764955423212624
9.458523035049438,2.328761906067636,[2.35443521],5.0,0.5,0.0,-3.61122474064916e-07,0.12836649602439215,1.3764955423266747
9.468511819839478,2.328761906067636,[2.35443521],5.0,0.5,0.0,-3.3223267613972277e-07,0.12836649697898764,1.3764955423319951
9.476818084716797,2.328957304784373,[2.35443521],5.0,0.5,0.0,-3.056540620485447e-07,0.1273992733378403,1.3782493880531697
