t_s,q_rad,q_des_rad,K,B,jerk,tau_Nm,ilc_ff_Nm
0.00606846809387207,0.0,[0.00039863],0.005,0.1,0.0,2.01573190162336,0
0.014562368392944336,0.0,[0.00192609],0.005,0.1,0.0,0.752091141933188,0
0.024689435958862305,0.0011723923004200215,[0.00478496],0.005,0.1,0.276038359678681,0.2828067117634285,0
0.03366851806640625,0.0029309807510500534,[0.00872943],0.005,0.1,1.1372780418761654,0.11660404462238749,0
0.04128885269165039,0.004689569201680086,[0.01353789],0.005,0.1,2.8377847528407116,0.05335094173517002,0
0.05003237724304199,0.006448157652310118,[0.01901253],0.005,0.1,5.0,0.06346452667261714,0
0.06192660331726074,0.008988340969886831,[0.02497694],0.005,0.1,5.0,0.030328747727355842,0
0.07030272483825684,0.010746929420516863,[0.03127425],0.005,0.1,5.0,0.015992809938490532,0
0.07927489280700684,0.012310119154410226,[0.03776748],0.005,0.1,5.0,0.007925167754392145,0
0.08984136581420898,0.0144595050385136,[0.04433829],0.005,0.1,5.0,0.003762807061279209,0
0.09822607040405273,0.016022694772406962,[0.0508861],0.005,0.1,5.0,0.001793415744928367,0
0.1072695255279541,0.01739048578956365,[0.05732711],0.005,0.1,4.82227992057375,0.000727770617229076,0
0.11779022216796875,0.019539871673667025,[0.06359155],0.005,0.1,3.060188408426652,0.0002692348281431375,0
0.12589097023010254,0.020712263974087045,[0.06962283],0.005,0.1,0.8099660616715612,0.0001545642161006049,0
0.13429474830627441,0.02188465627450707,[0.07537635],0.005,0.1,-1.1796117606838807,0.00015773500200523047,0
0.14387297630310059,0.023252447291663758,[0.08081783],0.005,0.1,-3.245163638164259,0.0002162252068311134,0
0.15451765060424805,0.02442483959208378,[0.08592289],0.005,0.1,-4.903782341015638,0.00029948525049765305,0
0.16327643394470215,0.025206434459030463,[0.09067556],0.005,0.1,-5.0,0.0003826842326248183,0
0.1733260154724121,0.02618342804271381,[0.0950668],0.005,0.1,-5.0,0.00046071513635792186,0
0.18383312225341797,0.027160421626397167,[0.0990939],0.005,0.1,-5.0,0.0004966632806861545,0
0.19131112098693848,0.027551219059870506,[0.10275999],0.005,0.1,-5.0,0.000542267836647656,0
0.20129752159118652,0.027942016493343845,[0.10607291],0.005,0.1,-5.0,0.0005770636409915149,0
0.21065998077392578,0.028332813926817187,[0.10904396],0.005,0.1,-5.0,0.0005969340101216376,0
0.21827292442321777,0.028332813926817187,[0.11168751],0.005,0.1,-5.0,0.0006113523567449681,0
0.22924375534057617,0.028528212643553853,[0.11402351],0.005,0.1,-5.0,0.0007660639406156011,0
0.23975324630737305,0.02872361136029053,[0.11608481],0.005,0.1,-5.0,0.0040511662636544465,0
0.24727153778076172,0.02872361136029053,[0.11790855],0.005,0.1,-5.0,0.004285754908204182,0
0.2572941780090332,0.028528212643553853,[0.11953044],0.005,0.1,-5.0,0.014665298833509064,0
0.2663147449493408,0.02872361136029053,[0.12100453],0.005,0.1,-4.781647118545088,0.033231718377742914,0
0.27722740173339844,0.02872361136029053,[0.1223882],0.005,0.1,-4.321610284723763,0.027518492653934305,0
0.2873218059539795,0.028528212643553853,[0.12372015],0.005,0.1,-3.543260533571143,0.03767326820438163,0
0.2962803840637207,0.028528212643553853,[0.12503753],0.005,0.1,-2.7677813493539993,0.047584951475621,0
0.3047945499420166,0.028528212643553853,[0.12637315],0.005,0.1,-1.5552774371417173,0.038318082051104756,0
0.3132755756378174,0.02872361136029053,[0.12774833],0.005,0.1,-0.6898023362683168,0.04846893211694518,0
0.3232862949371338,0.02872361136029053,[0.12918704],0.005,0.1,0.18380520590191418,0.055562090532542775,0
0.3342876434326172,0.02872361136029053,[0.13071958],0.005,0.1,0.8918402986865657,0.07697710300062512,0
0.3426034450531006,0.02872361136029053,[0.13236706],0.005,0.1,1.4013323115557346,0.05305996596199966,0
0.35127997398376465,0.0289190100770272,[0.13412969],0.005,0.1,1.733273982508309,0.050127991029043424,0
0.3630330562591553,0.0289190100770272,[0.13600086],0.005,0.1,2.2002145977713212,0.04476638369885851,0
0.37348103523254395,0.02911440879376387,[0.13797691],0.005,0.1,2.3194652213503972,0.0457251979842806,0
0.38304853439331055,0.02911440879376387,[0.14004794],0.005,0.1,2.2762684664710124,0.029109864081198922,0
0.3912844657897949,0.029309807510500538,[0.14219326],0.005,0.1,2.43769417723612,0.02329084585774551,0
0.40087246894836426,0.029309807510500538,[0.1443902],0.005,0.1,2.3290467470878626,0.018369699099917227,0
0.40884828567504883,0.02950520622723721,[0.146617],0.005,0.1,2.4021685760072993,0.012132797066606091,0
0.4192938804626465,0.02950520622723721,[0.1488508],0.005,0.1,2.215062576261068,0.010161993116600892,0
0.430283784866333,0.029700604943973877,[0.15107345],0.005,0.1,1.9531326047211475,0.009995502046797663,0
0.4399280548095703,0.02989600366071055,[0.15327024],0.005,0.1,1.9694767772782784,0.0070918185995707365,0
0.449690580368042,0.02989600366071055,[0.15542592],0.005,0.1,1.772647750442774,0.006646636481222831,0
0.4592771530151367,0.030091402377447216,[0.1575286],0.005,0.1,1.523302695496278,0.006706966834944084,0
0.4692995548248291,0.030091402377447216,[0.15957364],0.005,0.1,1.2861434075919203,0.009505755664177268,0
0.4797852039337158,0.03028680109418389,[0.16156255],0.005,0.1,0.8064961208071755,0.010811811536503508,0
0.4882700443267822,0.03028680109418389,[0.16349614],0.005,0.1,0.6062610891010417,0.00937515252349444,0
0.4983024597167969,0.03028680109418389,[0.16537785],0.005,0.1,0.5267663264851752,0.01817788750336916,0
0.5095422267913818,0.03028680109418389,[0.16722133],0.005,0.1,0.21889437981688326,0.02283752643333315,0
0.520374059677124,0.03028680109418389,[0.16904278],0.005,0.1,0.16939227687156666,0.028882960284710168,0
0.5286777019500732,0.03028680109418389,[0.17085233],0.005,0.1,-0.06558040383648323,0.024671848471665883,0
0.5382661819458008,0.03028680109418389,[0.17266272],0.005,0.1,-0.038804476724882964,0.04954543348259947,0
0.548708438873291,0.030482199810920558,[0.17449852],0.005,0.1,-0.20840563000454157,0.05827809412148452,0
0.556342601776123,0.030482199810920558,[0.17637113],0.005,0.1,-0.1304767568083181,0.059219312521210814,0
0.5662541389465332,0.030482199810920558,[0.17828054],0.005,0.1,0.013916020087559072,0.09268074161798331,0
0.5756974220275879,0.030482199810920558,[0.18023908],0.005,0.1,0.15210855412345614,0.06869642359501281,0
0.587019681930542,0.030677598527657227,[0.18226173],0.005,0.1,0.5362610855208213,0.09759649626578339,0
0.5952739715576172,0.030872997244393897,[0.18435854],0.005,0.1,0.6441502623981469,0.06853335546164267,0
0.604250431060791,0.03126379467786724,[0.18653175],0.005,0.1,0.9108922520432323,0.07930837728056551,0
0.6133630275726318,0.03126379467786724,[0.18877593],0.005,0.1,1.1671731623424506,0.051519174783739886,0
0.6230084896087646,0.03165459211134058,[0.19107524],0.005,0.1,1.3573861541873378,0.03929826670924211,0
0.6332869529724121,0.032045389544813924,[0.19340574],0.005,0.1,1.4738961739891545,0.025258500598698826,0
0.6413230895996094,0.03224078826155059,[0.1957406],0.005,0.1,1.5268501789428874,0.02549384577963613,0
0.65032958984375,0.03263158569502393,[0.1980483],0.005,0.1,1.5309556840270138,0.011665966210117907,0
0.661247968673706,0.03302238312849727,[0.20029645],0.005,0.1,1.500180457978821,0.0066253960348825495,0
0.6704626083374023,0.03321778184523394,[0.20245806],0.005,0.1,1.4460187639594273,0.005439716923761419,0
0.679732084274292,0.03360857927870728,[0.20451398],0.005,0.1,1.37726512394948,0.005079936763959167,0
0.6882445812225342,0.033803977995443955,[0.2064505],0.005,0.1,1.0243105277663904,0.0051607596357098546,0
0.698784351348877,0.033999376712180625,[0.2082565],0.005,0.1,0.6346128706371403,0.005616553822152125,0
0.7062444686889648,0.034194775428917294,[0.20992366],0.005,0.1,0.2995111482901397,0.005759297275656917,0
0.7152745723724365,0.03458557286239063,[0.21144676],0.005,0.1,0.04206451040946968,0.006758384085594015,0
0.726264476776123,0.03458557286239063,[0.21282058],0.005,0.1,-0.4180054628793071,0.007434975314784404,0
0.7361512184143066,0.0347809715791273,[0.21404087],0.005,0.1,-0.5748524300113989,0.008152926605640156,0
0.7447645664215088,0.03497637029586397,[0.21510729],0.005,0.1,-0.8734007959244815,0.007871701219955635,0
0.7552571296691895,0.03536716772933732,[0.21602067],0.005,0.1,-1.1503720131704644,0.010041260110473264,0
0.7662670612335205,0.03536716772933732,[0.21677864],0.005,0.1,-1.0779280334321766,0.012646477686964766,0
0.774238109588623,0.03556256644607399,[0.21738203],0.005,0.1,-0.893801580014044,0.01271970207742249,0
0.7849993705749512,0.035757965162810657,[0.21783903],0.005,0.1,-0.9740101369389582,0.013027008680596959,0
0.7936379909515381,0.035953363879547326,[0.21815456],0.005,0.1,-0.8363684600566476,0.015985724882836512,0
0.801253080368042,0.035953363879547326,[0.21833273],0.005,0.1,-0.644694504975373,0.016035455294496816,0
0.8101966381072998,0.036148762596283995,[0.21838545],0.005,0.1,-0.7403422333984526,0.013190141382359556,0
0.821770191192627,0.036344161313020665,[0.21832051],0.005,0.1,-0.6254120090300839,0.019662024033225926,0
0.8292479515075684,0.036539560029757334,[0.21814044],0.005,0.1,-0.4570074823845003,0.019653338338762132,0
0.839343786239624,0.036539560029757334,[0.21785245],0.005,0.1,-0.29789700067969754,0.021754760250551553,0
0.8482840061187744,0.036734958746494004,[0.21746039],0.005,0.1,-0.16843542896158625,0.023038456169203293,0
0.8578813076019287,0.03693035746323068,[0.21696547],0.005,0.1,-0.0710972797380876,0.020062755391668196,0
0.865243673324585,0.03712575617996735,[0.21637758],0.005,0.1,-0.0017439535534653494,0.019895265581760118,0
0.8739020824432373,0.03712575617996735,[0.21571016],0.005,0.1,0.04544205508020376,0.020763735071095503,0
0.8820645809173584,0.03732115489670401,[0.21497244],0.005,0.1,0.07597954116110572,0.015387746470019198,0
0.8912880420684814,0.03751655361344069,[0.21417348],0.005,0.1,0.09444232613071402,0.01420161141524225,0
0.8999438285827637,0.03771195233017736,[0.21332534],0.005,0.1,0.1043758202846902,0.014042008379441018,0
0.912339448928833,0.03790735104691403,[0.21243784],0.005,0.1,0.10842300906336114,0.017118850681104802,0
0.9202933311462402,0.03790735104691403,[0.21151592],0.005,0.1,0.10850476553447316,0.0127648241590296,0
0.9286277294158936,0.0381027497636507,[0.21056724],0.005,0.1,0.10599206188662894,0.010152187954546397,0
0.9405739307403564,0.03829814848038737,[0.2095994],0.005,0.1,0.10184945103093229,0.012608071959057617,0
0.9482433795928955,0.038493547197124035,[0.2086156],0.005,0.1,0.09674691270451752,0.009878858583852342,0
0.958667516708374,0.03868894591386071,[0.20762148],0.005,0.1,0.09114379706209633,0.009299704281894678,0
0.9682364463806152,0.03868894591386071,[0.20662231],0.005,0.1,0.08535036193123544,0.010001504797479872,0
0.9773085117340088,0.038884344630597374,[0.20562166],0.005,0.1,0.07957219225678691,0.008181727050954862,0
0.98525071144104,0.03907974334733405,[0.20462492],0.005,0.1,0.07394192399036482,0.007935522175218621,0
0.9947094917297363,0.03927514206407072,[0.20363674],0.005,0.1,0.06854172786006468,0.007717845056092486,0
1.003556251525879,0.03927514206407072,[0.202661],0.005,0.1,0.06341915148803316,0.00670705993540687,0
1.0122649669647217,0.039470540780807396,[0.20170199],0.005,0.1,0.058598228370992,0.006756650101471746,0
1.0222549438476562,0.03966593949754405,[0.20076108],0.005,0.1,0.05408723425384261,0.007595214610273556,0
1.0315515995025635,0.040056736931017405,[0.19983819],0.005,0.1,0.049884079345871885,0.006476010894872892,0
1.0392181873321533,0.040056736931017405,[0.19893518],0.005,0.1,0.045980039143621504,0.006483050647751057,0
1.04996919631958,0.040252135647754074,[0.19805344],0.005,0.1,0.042362321045317244,0.00644763908820251,0
1.0577640533447266,0.04044753436449074,[0.19719388],0.005,0.1,0.03901581725061561,0.005697512527417097,0
1.0652153491973877,0.04044753436449074,[0.19635804],0.005,0.1,0.03592429037566307,0.005834998603209136,0
1.0749893188476562,0.040642933081227406,[0.19554592],0.005,0.1,0.0330711646905991,0.005901229952445335,0
1.0834357738494873,0.04083833179796408,[0.19475723],0.005,0.1,0.030440044092556212,0.005280444479712121,0
1.0922174453735352,0.04083833179796408,[0.19399248],0.005,0.1,-0.24802331816162798,0.005446795410295296,0
1.1027300357818604,0.04103373051470075,[0.19324976],0.005,0.1,-0.28338198390417635,0.006233251756855604,0
1.1102609634399414,0.04122912923143742,[0.19252723],0.005,0.1,-0.2303422070720425,0.006159019259034574,0
1.1192374229431152,0.04122912923143742,[0.19182511],0.005,0.1,-0.1561515828441044,0.006767252941383554,0
1.1311087608337402,0.04142452794817409,[0.1911414],0.005,0.1,-0.08737278536389453,0.0063576863909487365,0
1.1417722702026367,0.04161992666491077,[0.19047327],0.005,0.1,-0.03235609419332558,0.006030303243730621,0
1.150083303451538,0.04161992666491077,[0.18982019],0.005,0.1,0.00816430055344958,0.00515876051185629,0
1.1592395305633545,0.04161992666491077,[0.18918169],0.005,0.1,0.03622004124323461,0.005751890542318667,0
1.1675012111663818,0.04181532538164743,[0.18855635],0.005,0.1,-0.22154142757798956,0.004915059899111228,0
1.1762261390686035,0.0420107240983841,[0.18794387],0.005,0.1,-0.24366450197610903,0.00485895715785639,0
1.1873993873596191,0.0420107240983841,[0.1873449],0.005,0.1,-0.1827846552106322,0.004335728744807458,0
1.1982624530792236,0.04220612281512077,[0.18675832],0.005,0.1,-0.10455162285339183,0.0053288844666080715,0
1.2062125205993652,0.04220612281512077,[0.18618234],0.005,0.1,-0.034340521409237774,0.005293295946600955,0
1.2159218788146973,0.042401521531857445,[0.18561794],0.005,0.1,0.020359495263423826,0.00493202660961962,0
1.2262678146362305,0.04259692024859412,[0.1850653],0.005,0.1,0.0594276255286988,0.005088003340723316,0
1.2345373630523682,0.04259692024859412,[0.18452374],0.005,0.1,0.0853262121140477,0.005048582518480856,0
1.2457802295684814,0.04279231896533078,[0.18399357],0.005,0.1,0.10103955963787495,0.005532933721483333,0
1.2542295455932617,0.04279231896533078,[0.18347302],0.005,0.1,0.1092752494387105,0.0048821408123361125,0
1.263587474822998,0.04298771768206745,[0.18296131],0.005,0.1,0.11222704939731973,0.004084997209125791,0
1.27439284324646,0.04298771768206745,[0.18245989],0.005,0.1,0.11156987024183015,0.0038824032964391896,0
1.2832255363464355,0.04298771768206745,[0.18196943],0.005,0.1,0.10853662540824108,0.0037165528749754646,0
1.2932636737823486,0.04318311639880412,[0.18148938],0.005,0.1,0.10401216443978727,0.003804211463480026,0
1.301809310913086,0.0433785151155408,[0.1810193],0.005,0.1,0.09861903348663353,0.003377449020907765,0
1.3106129169464111,0.0433785151155408,[0.18055996],0.005,0.1,0.09278745727766935,0.003300506766668521,0
1.3184623718261719,0.04357391383227746,[0.18011193],0.005,0.1,0.086809251688703,0.0032253122319047503,0
1.3265376091003418,0.04357391383227746,[0.1796756],0.005,0.1,0.08087797948101609,0.0030058159622404668,0
1.3352301120758057,0.04376931254901414,[0.17925169],0.005,0.1,0.07511822578778886,0.0029980803935064286,0
1.3438911437988281,0.04376931254901414,[0.17884064],0.005,0.1,0.06960663554847747,0.0028487957342722887,0
1.3522241115570068,0.04376931254901414,[0.17844266],0.005,0.1,0.0643868764602146,0.0028851566913703115,0
1.360217571258545,0.044160109982487476,[0.17805824],0.005,0.1,0.059480198711836726,0.002841393534607924,0
1.370255708694458,0.044160109982487476,[0.17768813],0.005,0.1,0.054892839542551385,0.0028715770544257033,0
1.3792264461517334,0.04435550869922414,[0.17733109],0.005,0.1,0.05062118512338856,0.003072663875455237,0
1.389235258102417,0.044550907415960815,[0.1769836],0.005,0.1,0.046655347751923607,0.0032455507148177773,0
1.39729642868042,0.044550907415960815,[0.17664363],0.005,0.1,0.04298162839737461,0.0032272284802441747,0
1.407200813293457,0.044550907415960815,[0.17631159],0.005,0.1,0.03958419818086675,0.0031303224647043775,0
1.4175314903259277,0.044746306132697485,[0.17598665],0.005,0.1,0.03644623442977529,0.0032480155175183315,0
1.4265244007110596,0.044746306132697485,[0.17566647],0.005,0.1,0.03355067718009768,0.003089633456860688,0
1.434194803237915,0.04494170484943416,[0.17535029],0.005,0.1,0.030880722575152144,0.002785800559414786,0
1.4432358741760254,0.04494170484943416,[0.17503821],0.005,0.1,0.02842013472584834,0.0028662698113509698,0
1.4547219276428223,0.04513710356617083,[0.17472969],0.005,0.1,0.02615343304651921,0.002726512550084067,0
1.462599515914917,0.04533250228290749,[0.17442488],0.005,0.1,0.024065994836436348,0.0025117624609606805,0
1.4721951484680176,0.04533250228290749,[0.17412505],0.005,0.1,0.022144100785329437,0.002448554502090876,0
1.4820854663848877,0.04552790099964417,[0.17383139],0.005,0.1,0.020374942613698585,0.00232048934365069,0
1.4919474124908447,0.04552790099964417,[0.17354486],0.005,0.1,0.018746606136505237,0.002319457412955555,0
1.500194787979126,0.04572329971638084,[0.17326621],0.005,0.1,0.017248038901948287,0.0022163071152898647,0
1.5100610256195068,0.04572329971638084,[0.17299645],0.005,0.1,0.01586900867126368,0.002173539242142367,0
1.520737886428833,0.04572329971638084,[0.17273656],0.005,0.1,0.014600056995600824,0.0021437061172609397,0
1.528195858001709,0.04572329971638084,[0.17248736],0.005,0.1,-0.262605908929598,0.0020925305120264035,0
1.5392091274261475,0.04572329971638084,[0.17224988],0.005,0.1,-0.29680482933152286,0.00206171653591209,0
1.5502095222473145,0.04572329971638084,[0.1720251],0.005,0.1,-0.5187343879252915,0.002035311826292456,0
1.5596590042114258,0.04572329971638084,[0.1718141],0.005,0.1,-0.4766834235502322,0.002009508008169125,0
1.5682799816131592,0.04572329971638084,[0.17161864],0.005,0.1,-0.6279385726065504,0.002011797683632849,0
1.5782136917114258,0.04572329971638084,[0.17144394],0.005,0.1,-0.5291261893171115,0.0026426351840436353,0
1.5878801345825195,0.04572329971638084,[0.17129829],0.005,0.1,-0.36221689916552685,0.0027748044675690708,0
1.5967581272125244,0.04572329971638084,[0.17118735],0.005,0.1,-0.20074656734314678,0.0029270585550613564,0
1.6062326431274414,0.04572329971638084,[0.17111783],0.005,0.1,-0.06929798434090495,0.00545348035455508,0
1.6173615455627441,0.04572329971638084,[0.17110357],0.005,0.1,0.028339940582917833,0.008810456116438714,0
1.6268832683563232,0.04572329971638084,[0.17115663],0.005,0.1,0.09619954858296852,0.007204956984850154,0
1.635185718536377,0.04572329971638084,[0.17127865],0.005,0.1,0.14042281843055832,0.006181458335213263,0
1.6436009407043457,0.04572329971638084,[0.17146804],0.005,0.1,0.16694769230084824,0.007341388914767918,0
1.6517744064331055,0.04572329971638084,[0.17172645],0.005,0.1,0.1807305843234816,0.007952712314635749,0
1.660212516784668,0.04572329971638084,[0.17205518],0.005,0.1,0.18562304169498736,0.007771990417762987,0
1.6714508533477783,0.04591869843311751,[0.17245193],0.005,0.1,0.18449573570790426,0.006755378179301068,0
1.682751178741455,0.04591869843311751,[0.17291023],0.005,0.1,0.1794303052284062,0.005207420731333625,0
1.6912217140197754,0.04572329971638084,[0.17341949],0.005,0.1,0.17190606679071507,0.0037150463768062273,0
1.6999635696411133,0.04591869843311751,[0.17396649],0.005,0.1,0.16295682469215764,0.0028352584832869536,0
1.7108652591705322,0.04591869843311751,[0.174537],0.005,0.1,0.15329360551722188,0.0022750264202198445,0
1.7192063331604004,0.04591869843311751,[0.1751174],0.005,0.1,0.14339697410072327,0.0022041983284861095,0
1.7275607585906982,0.04591869843311751,[0.17569707],0.005,0.1,0.13358478022236736,0.0022326368673317833,0
1.7386455535888672,0.04591869843311751,[0.17626796],0.005,0.1,0.12406107470551256,0.0022229557624236598,0
1.7472102642059326,0.04591869843311751,[0.17682292],0.005,0.1,0.1149510335927974,0.0022474814454978946,0
1.7592203617095947,0.04591869843311751,[0.17735547],0.005,0.1,0.1063256878265176,0.0022994790506523093,0
1.7682206630706787,0.04591869843311751,[0.17785997],0.005,0.1,0.09821932140346504,0.0023482422128590164,0
1.776200771331787,0.04591869843311751,[0.17833253],0.005,0.1,0.0906416440924698,0.002373486149832733,0
1.7856359481811523,0.04591869843311751,[0.17877092],0.005,0.1,0.08358626363553674,0.002420343853894697,0
1.7968080043792725,0.04591869843311751,[0.17917278],0.005,0.1,0.0770365498888024,0.0025062546078871914,0
1.8042056560516357,0.04591869843311751,[0.17953603],0.005,0.1,0.07096966783596598,0.002491985023354234,0
1.8151872158050537,0.04591869843311751,[0.17985989],0.005,0.1,0.065359329164572,0.002526918729293591,0
1.8252127170562744,0.04591869843311751,[0.18014399],0.005,0.1,0.06017764985959238,0.002599329022998171,0
1.833587884902954,0.04591869843311751,[0.18038825],0.005,0.1,0.05539638614022942,0.002559423981262325,0
1.8444716930389404,0.04591869843311751,[0.18059355],0.005,0.1,0.05098773971243105,0.0026130768004245164,0
1.8523213863372803,0.04591869843311751,[0.18076097],0.005,0.1,0.04692486599724904,0.0026053946786765954,0
1.8622093200683594,0.04591869843311751,[0.18089204],0.005,0.1,0.043182178709447114,0.0025975070260786815,0
1.8722491264343262,0.04591869843311751,[0.18098866],0.005,0.1,0.03973551589143061,0.0026245132545147753,0
1.8801970481872559,0.04591869843311751,[0.18105313],0.005,0.1,0.03656221269741097,0.002628361891525788,0
1.8890297412872314,0.04591869843311751,[0.18108874],0.005,0.1,0.033641112356813066,0.002577788105766811,0
1.8993456363677979,0.04591869843311751,[0.18109841],0.005,0.1,0.030952537051448823,0.0026029001019602376,0
1.9078481197357178,0.04591869843311751,[0.18108416],0.005,0.1,0.028478233670831698,0.0025889223447006036,0
1.9162025451660156,0.04591869843311751,[0.18104799],0.005,0.1,0.026201304688250347,0.0025775377615336425,0
1.9262282848358154,0.04591869843311751,[0.1809919],0.005,0.1,0.02410613111226799,0.0025978243831215886,0
1.9365720748901367,0.04591869843311751,[0.18091783],0.005,0.1,0.02217829218329994,0.0025521256838135077,0
1.9452400207519531,0.04591869843311751,[0.18082829],0.005,0.1,0.020404484900974854,0.00252246343610629,0
1.9552059173583984,0.04591869843311751,[0.18072558],0.005,0.1,0.018772445373698862,0.0025477808123378427,0
1.9653143882751465,0.04591869843311751,[0.18061121],0.005,0.1,0.017270873229246697,0.0025394241576096985,0
1.9731805324554443,0.04591869843311751,[0.18048681],0.005,0.1,0.015889359810758785,0.0025068595448350718,0
1.9838292598724365,0.04591869843311751,[0.18035427],0.005,0.1,0.014618320533814965,0.0025074037517411767,0
1.9943304061889648,0.04591869843311751,[0.18021475],0.005,0.1,0.013448931546661873,0.0025448236826930795,0
2.0024728775024414,0.04591869843311751,[0.18006898],0.005,0.1,0.012373070681820536,0.002507562126104156,0
2.01021671295166,0.04591869843311751,[0.17991795],0.005,0.1,0.011383262588501624,0.002522403863922974,0
2.0181922912597656,0.04591869843311751,[0.17976265],0.005,0.1,0.010472627874281472,0.002494328929188161,0
2.026216983795166,0.04591869843311751,[0.17960376],0.005,0.1,0.009634836049341594,0.0025273713709815433,0
2.037208080291748,0.04591869843311751,[0.17944131],0.005,0.1,0.00886406204889641,0.002568969513827208,0
2.048677444458008,0.04591869843311751,[0.17927468],0.005,0.1,0.008154946103436382,0.0026189219442137503,0
2.056877374649048,0.04591869843311751,[0.17910307],0.005,0.1,0.0075025567280777115,0.0026758065835749533,0
2.0672407150268555,0.04591869843311751,[0.17892548],0.005,0.1,0.006902356608872932,0.0027364377173218655,0
2.075949192047119,0.04591869843311751,[0.1787409],0.005,0.1,0.0063501711734920965,0.002797117206396136,0
2.0865697860717773,0.04591869843311751,[0.17854829],0.005,0.1,0.005842159644943043,0.002852855171580271,0
2.094573736190796,0.04591869843311751,[0.1783473],0.005,0.1,0.005374788389078845,0.00272355106316957,0
2.1051671504974365,0.04591869843311751,[0.17813765],0.005,0.1,0.004944806378964401,0.0029948578790782456,0
2.1166911125183105,0.04591869843311751,[0.17791794],0.005,0.1,0.00454922261135555,0.003000210669474411,0
2.1254940032958984,0.04591869843311751,[0.17768712],0.005,0.1,0.004185285322342915,0.0029929468813321564,0
2.1346285343170166,0.04591869843311751,[0.17744571],0.005,0.1,0.0038504628604825557,0.0027850312743632885,0
2.145169973373413,0.04591869843311751,[0.17719437],0.005,0.1,0.003542426086392903,0.003004664715029899,0
2.1553821563720703,0.04591869843311751,[0.17693274],0.005,0.1,0.0032590321778057365,0.002946823341186095,0
2.166538953781128,0.04591869843311751,[0.17666087],0.005,0.1,0.0029983097284082593,0.0028809091616839116,0
2.174147605895996,0.04591869843311751,[0.17638018],0.005,0.1,0.0027584450375144863,0.0026665396291118302,0
2.184269666671753,0.04591869843311751,[0.17609229],0.005,0.1,0.0025377694956785508,0.00277288876914687,0
2.1958820819854736,0.04591869843311751,[0.17579801],0.005,0.1,0.002334747978839922,0.002677879525186043,0
2.2033655643463135,0.04591869843311751,[0.17549878],0.005,0.1,0.0021479681705036903,0.0024975657904529264,0
2.2131669521331787,0.04591869843311751,[0.17519702],0.005,0.1,0.0019761307378430653,0.002450854362863181,0
2.222149133682251,0.04591869843311751,[0.17489472],0.005,0.1,0.0018180402935013904,0.0023969499497945423,0
2.230682611465454,0.04591869843311751,[0.1745935],0.005,0.1,0.001672597080301316,0.002340907027244973,0
2.2401671409606934,0.04591869843311751,[0.17429506],0.005,0.1,0.0015387893210732381,0.0022853668981288925,0
2.2521910667419434,0.04591869843311751,[0.17400095],0.005,0.1,0.0014156861804246,0.002255877194694362,0
2.263690948486328,0.04591869843311751,[0.17371264],0.005,0.1,0.0013024312895166864,0.0021940573913704167,0
2.271186590194702,0.04591869843311751,[0.173432],0.005,0.1,0.0011982367888235907,0.0021796001430028694,0
2.2811501026153564,0.04591869843311751,[0.17316101],0.005,0.1,0.0011023778474454696,0.0021368369832199356,0
2.2911999225616455,0.04591869843311751,[0.17290115],0.005,0.1,0.0010141876208592665,0.0020937462402515123,0
2.2996137142181396,0.04591869843311751,[0.17265367],0.005,0.1,0.0009330526120371312,0.002081375620664876,0
2.309204339981079,0.04591869843311751,[0.17241979],0.005,0.1,0.0008584084036667845,0.0020479575583643946,0
2.3181869983673096,0.04591869843311751,[0.17220068],0.005,0.1,0.0007897357317882786,0.002019732596610247,0
2.327115058898926,0.04572329971638084,[0.17199858],0.005,0.1,0.000726556873535601,0.00206341720647742,0
2.3361895084381104,0.04591869843311751,[0.17181785],0.005,0.1,0.0006684323238560235,0.0022607064542340583,0
2.3461203575134277,0.04591869843311751,[0.17166418],0.005,0.1,0.0006149577380898314,0.0025820310551527663,0
2.356811285018921,0.04591869843311751,[0.17154304],0.005,0.1,0.0005657611191422462,0.0028961961936820576,0
2.3671951293945312,0.04591869843311751,[0.17145882],0.005,0.1,0.0005205002296805875,0.003104799836715939,0
2.376173257827759,0.04591869843311751,[0.17141429],0.005,0.1,0.00047886021135494646,0.003149972662224779,0
2.385284900665283,0.04591869843311751,[0.17140971],0.005,0.1,0.0004405513944807142,0.0027910725488867667,0
2.396941900253296,0.04591869843311751,[0.17144322],0.005,0.1,0.0004053072829461722,0.002785171140351745,0
2.405165195465088,0.04591869843311751,[0.1715119],0.005,0.1,0.00037288270032721836,0.0024192240687516227,0
2.4151856899261475,0.04591869843311751,[0.17161051],0.005,0.1,0.00034305208431275897,0.002125350017250061,0
2.4244775772094727,0.04591869843311751,[0.17173226],0.005,0.1,0.00031560791757594077,0.00204983182566193,0
2.4341542720794678,0.04591869843311751,[0.17187116],0.005,0.1,0.00029035928417560705,0.0020192219161096754,0
2.4441802501678467,0.04591869843311751,[0.1720222],0.005,0.1,0.0002671305414455781,0.0020125026498981464,0
2.4539222717285156,0.04591869843311751,[0.17218076],0.005,0.1,0.00024576009813274523,0.0020166546533154925,0
2.463866949081421,0.04591869843311751,[0.17234266],0.005,0.1,0.00022609929028409543,0.0020259836024154056,0
2.4736719131469727,0.04591869843311751,[0.17250432],0.005,0.1,0.0002080113470627464,0.0020419175326625936,0
2.4832258224487305,0.04591869843311751,[0.17266246],0.005,0.1,0.00019137043929869156,0.002061858263747389,0
2.493964910507202,0.04591869843311751,[0.17281407],0.005,0.1,0.00017606080415547167,0.0020833285460626454,0
2.504495620727539,0.04591869843311751,[0.17295629],0.005,0.1,0.00016197593982350658,0.0021273144908948104,0
2.5121688842773438,0.04572329971638084,[0.17308675],0.005,0.1,0.00014901786463795725,0.002125451581758376,0
2.521540880203247,0.04572329971638084,[0.17320403],0.005,0.1,0.00013709643546715234,0.0021418451506006564,0
2.5320358276367188,0.04591869843311751,[0.17330707],0.005,0.1,0.00012612872062994223,0.0021443777349043646,0
2.5401742458343506,0.04591869843311751,[0.17339519],0.005,0.1,0.00011603842297966046,0.002129796653273931,0
2.5484352111816406,0.04572329971638084,[0.17346806],0.005,0.1,0.0001067553491413673,0.002174361195457816,0
2.55623459815979,0.04572329971638084,[0.17352562],0.005,0.1,9.821492121011351e-05,0.0021776433887776008,0
2.5693397521972656,0.04591869843311751,[0.17356826],0.005,0.1,9.03577275133433e-05,0.0021921839355997495,0
2.57975697517395,0.04591869843311751,[0.17359616],0.005,0.1,8.312910931230312e-05,0.00218121938199313,0
2.5901665687561035,0.04591869843311751,[0.17360929],0.005,0.1,7.647878056733797e-05,0.002196273905091865,0
2.5981979370117188,0.04572329971638084,[0.17360827],0.005,0.1,7.03604781219643e-05,0.0022060418106685676,0
2.6087775230407715,0.04572329971638084,[0.17359419],0.005,0.1,6.473163987221664e-05,0.002214279544280942,0
2.6182310581207275,0.04591869843311751,[0.17356781],0.005,0.1,5.955310868244584e-05,0.0021837486043879833,0
2.628636360168457,0.04591869843311751,[0.17352955],0.005,0.1,5.478885998785468e-05,0.002192387963038115,0
2.637489080429077,0.04591869843311751,[0.17348014],0.005,0.1,5.040575118882949e-05,0.0021523576383676076,0
2.646207571029663,0.04591869843311751,[0.17342066],0.005,0.1,4.637329109372538e-05,0.002145856807553973,0
2.656994581222534,0.04591869843311751,[0.17335217],0.005,0.1,4.266342780622896e-05,0.0021408058267411473,0
2.66723370552063,0.04572329971638084,[0.17327548],0.005,0.1,3.925035358173173e-05,0.0021454591440785344,0
2.6751627922058105,0.04572329971638084,[0.17319154],0.005,0.1,3.611032529519401e-05,0.002122842521917819,0
2.684140682220459,0.04591869843311751,[0.17310128],0.005,0.1,3.3221499271579076e-05,0.0021318149808514796,0
2.695364236831665,0.04591869843311751,[0.17300519],0.005,0.1,3.0563779329853084e-05,0.0021237252369753377,0
2.704197406768799,0.04591869843311751,[0.17290398],0.005,0.1,2.811867698346508e-05,0.0020984170845437856,0
2.714155435562134,0.04572329971638084,[0.17279871],0.005,0.1,2.586918282478812e-05,0.0021043559903320876,0
2.7262473106384277,0.04572329971638084,[0.17269008],0.005,0.1,2.3799648198805148e-05,0.002112078517605003,0
2.7372355461120605,0.04572329971638084,[0.17257837],0.005,0.1,2.1895676342900827e-05,0.0021081046992367275,0
2.7475218772888184,0.04572329971638084,[0.1724642],0.005,0.1,2.0144022235468802e-05,0.0020783150543658155,0
2.75618839263916,0.04591869843311751,[0.17234874],0.005,0.1,1.8532500456631368e-05,0.0020488430169421767,0
2.7662458419799805,0.04572329971638084,[0.1722332],0.005,0.1,1.7049900420100902e-05,0.0020509125843304345,0
2.777733325958252,0.04572329971638084,[0.1721185],0.005,0.1,1.5685908386492833e-05,0.0020371262263549107,0
2.78657865524292,0.04591869843311751,[0.17200561],0.005,0.1,1.4431035715573416e-05,0.0020154159501694015,0
2.7951271533966064,0.04572329971638084,[0.17189564],0.005,0.1,1.3276552858327545e-05,0.0020150434654160774,0
2.8063716888427734,0.04591869843311751,[0.17179013],0.005,0.1,1.2214428629661355e-05,0.00200416009918386,0
2.81479549407959,0.04572329971638084,[0.17169156],0.005,0.1,1.1237274339288456e-05,0.002036324630814299,0
2.824169874191284,0.04572329971638084,[0.17160353],0.005,0.1,1.0338292392145386e-05,0.0022110371149483454,0
2.8341519832611084,0.04591869843311751,[0.17153222],0.005,0.1,9.511229000773762e-06,0.002828110529376534,0
2.8448705673217773,0.04572329971638084,[0.1714853],0.005,0.1,8.750330680711864e-06,0.0031202239736319603,0
2.8533360958099365,0.04591869843311751,[0.17146748],0.005,0.1,8.050304226254915e-06,0.0028901074774519207,0
2.8621346950531006,0.04591869843311751,[0.17148044],0.005,0.1,7.406279888154511e-06,0.003133517719531391,0
2.872339963912964,0.04572329971638084,[0.17152697],0.005,0.1,6.813777497102159e-06,0.003787978571329825,0
2.8803117275238037,0.04572329971638084,[0.17160889],0.005,0.1,6.268675297333992e-06,0.0037995515353807874,0
2.8903915882110596,0.04572329971638084,[0.17172431],0.005,0.1,5.767181273547264e-06,0.0037446558115065234,0
2.9011616706848145,0.04572329971638084,[0.17187279],0.005,0.1,5.305806771663485e-06,0.004166698210544632,0
2.9124159812927246,0.04572329971638084,[0.17205676],0.005,0.1,4.8813422299304055e-06,0.004378891557971204,0
2.9201223850250244,0.04572329971638084,[0.17227581],0.005,0.1,4.490834851535973e-06,0.004395506370350498,0
2.932530403137207,0.04572329971638084,[0.17252636],0.005,0.1,4.131568063413102e-06,0.004451250992567737,0
2.9421544075012207,0.04572329971638084,[0.17280632],0.005,0.1,3.8010426183400498e-06,0.004018394875840042,0
2.9514694213867188,0.04572329971638084,[0.17311425],0.005,0.1,3.4969592088728454e-06,0.0037495150517714362,0
2.959136962890625,0.04572329971638084,[0.17344704],0.005,0.1,3.2172024721630182e-06,0.0032279175895419277,0
2.9684314727783203,0.04572329971638084,[0.17380103],0.005,0.1,2.95982627438998e-06,0.003225281708880521,0
2.977240562438965,0.04572329971638084,[0.17417345],0.005,0.1,2.723040172438783e-06,0.003198369354990481,0
2.9851574897766113,0.04591869843311751,[0.17456156],0.005,0.1,2.5051969586436785e-06,0.0028797763936439734,0
2.9951491355895996,0.04572329971638084,[0.17496215],0.005,0.1,2.3047812019521856e-06,0.003042279392225309,0
3.0056726932525635,0.04591869843311751,[0.17537255],0.005,0.1,2.1203987057960084e-06,0.002810535396374743,0
3.0141007900238037,0.04572329971638084,[0.175789],0.005,0.1,1.9507668093323294e-06,0.0025646790753214785,0
3.0241305828094482,0.04572329971638084,[0.17620623],0.005,0.1,1.7947054645857428e-06,0.0024114810790353378,0
3.035170078277588,0.04572329971638084,[0.17661861],0.005,0.1,1.651129027418882e-06,0.0022974047652870714,0
3.0440666675567627,0.04572329971638084,[0.17702078],0.005,0.1,1.5190387052253704e-06,0.002288660969857869,0
3.0547220706939697,0.04591869843311751,[0.17740854],0.005,0.1,1.3975156088073406e-06,0.0022847402449695598,0
3.0651185512542725,0.04572329971638084,[0.17777873],0.005,0.1,1.2857143601027538e-06,0.0023075110776004516,0
3.0751168727874756,0.04572329971638084,[0.17812875],0.005,0.1,1.1828572112945348e-06,0.0023251552249804078,0
3.0831751823425293,0.04572329971638084,[0.17845675],0.005,0.1,1.0882286343909713e-06,0.002342502374003613,0
3.0951473712921143,0.04572329971638084,[0.17876151],0.005,0.1,1.0011703436396934e-06,0.002361814777886813,0
3.1051809787750244,0.04591869843311751,[0.17904188],0.005,0.1,9.210767161485185e-07,0.002372855668449147,0
3.11513090133667,0.04572329971638084,[0.179297],0.005,0.1,8.473905788566374e-07,0.0023996049924489018,0
3.124117612838745,0.04591869843311751,[0.17952666],0.005,0.1,7.795993325481057e-07,0.0023991887933311057,0
3.133146286010742,0.04572329971638084,[0.17973119],0.005,0.1,7.172313859442581e-07,0.002423740508844927,0
3.1438980102539062,0.04572329971638084,[0.17991106],0.005,0.1,6.59852875068718e-07,0.002436178569525005,0
3.1522042751312256,0.04572329971638084,[0.180067],0.005,0.1,6.070646450632194e-07,0.0024410435408772644,0
3.162144422531128,0.04572329971638084,[0.18020004],0.005,0.1,5.584994734581617e-07,0.002450805659845522,0
3.173158884048462,0.04572329971638084,[0.18031125],0.005,0.1,5.138195155815096e-07,0.002458774175201112,0
3.183983325958252,0.04572329971638084,[0.18040161],0.005,0.1,4.7271395433498867e-07,0.002472771711474025,0
3.1921308040618896,0.04572329971638084,[0.18047216],0.005,0.1,4.3489683798819006e-07,0.002469709130411884,0
3.20317006111145,0.04572329971638084,[0.18052409],0.005,0.1,4.001050909491347e-07,0.0024860409513906244,0
3.2126595973968506,0.04572329971638084,[0.18055838],0.005,0.1,3.6809668367320363e-07,0.0024923791036924017,0
3.2220373153686523,0.04572329971638084,[0.18057612],0.005,0.1,3.3864894897934725e-07,0.00248526181014466,0
3.23044490814209,0.04572329971638084,[0.18057863],0.005,0.1,3.115570330609993e-07,0.0024951302005039758,0
3.2394754886627197,0.04572329971638084,[0.18056692],0.005,0.1,2.8663247041611963e-07,0.0025064520166280793,0
3.2471306324005127,0.04572329971638084,[0.18054191],0.005,0.1,2.6370187278283036e-07,0.002496731826170484,0
3.2571399211883545,0.04572329971638084,[0.18050465],0.005,0.1,2.426057229602037e-07,0.002513176487979665,0
3.267190456390381,0.04572329971638084,[0.18045549],0.005,0.1,2.2319726512338752e-07,0.0025705536760690997,0
3.2770979404449463,0.04572329971638084,[0.18039448],0.005,0.1,2.0534148391351645e-07,0.0025407725295109517,0
3.2877848148345947,0.04572329971638084,[0.18032186],0.005,0.1,1.8891416520043524e-07,0.002617192035290331,0
3.2963812351226807,0.04572329971638084,[0.18023783],0.005,0.1,1.7380103198440037e-07,0.002571551634212035,0
3.3041255474090576,0.04572329971638084,[0.1801429],0.005,0.1,1.5989694942564832e-07,0.002596271590846138,0
3.313201427459717,0.04591869843311751,[0.18003788],0.005,0.1,1.471051934715965e-07,0.002546540664418663,0
3.3241915702819824,0.04572329971638084,[0.17992316],0.005,0.1,1.3533677799386876e-07,0.002659504445451195,0
3.3321914672851562,0.04572329971638084,[0.17979874],0.005,0.1,1.2450983575435937e-07,0.0025931564180884025,0
3.3420944213867188,0.04572329971638084,[0.17966511],0.005,0.1,1.1454904889401058e-07,0.002616142340691858,0
3.3501241207122803,0.04572329971638084,[0.17952276],0.005,0.1,1.0538512498248978e-07,0.0026320462314710223,0
3.359408140182495,0.04572329971638084,[0.17937184],0.005,0.1,9.69543149838907e-08,0.002640828069868028,0
3.3676624298095703,0.04572329971638084,[0.17921256],0.005,0.1,8.919796978517929e-08,0.0026449102279692232,0
3.377101421356201,0.04572329971638084,[0.17904524],0.005,0.1,8.206213220236479e-08,0.002644756637492079,0
3.386751413345337,0.04572329971638084,[0.17887059],0.005,0.1,7.549716162617558e-08,0.0025627771809725486,0
3.394123077392578,0.04572329971638084,[0.17869012],0.005,0.1,6.945738869608155e-08,0.002508073080828587,0
3.4025228023529053,0.04572329971638084,[0.17850518],0.005,0.1,6.390079760039502e-08,0.002531953474392826,0
3.411102294921875,0.04572329971638084,[0.17831658],0.005,0.1,5.878873379236346e-08,0.002480360662771549,0
3.419290065765381,0.04572329971638084,[0.17812514],0.005,0.1,5.4085635088974437e-08,0.0025000655630315273,0
3.4297573566436768,0.04572329971638084,[0.17793127],0.005,0.1,4.9758784281856526e-08,0.002507718686306106,0
3.4380950927734375,0.04572329971638084,[0.17773541],0.005,0.1,4.577808153930805e-08,0.0024477304293207157,0
3.4461216926574707,0.04572329971638084,[0.1775384],0.005,0.1,4.2115835016163376e-08,0.0024531689484813095,0
3.455484628677368,0.04572329971638084,[0.17734077],0.005,0.1,3.874656821487029e-08,0.002447992670340532,0
3.4679160118103027,0.04572329971638084,[0.17714252],0.005,0.1,3.5646842757680663e-08,0.0024787363887860173,0
3.4822702407836914,0.04591869843311751,[0.17694327],0.005,0.1,3.279509533706624e-08,0.0024990046531010415,0
3.4901328086853027,0.04572329971638084,[0.17674307],0.005,0.1,3.017148771010095e-08,0.002399518056639828,0
3.49812388420105,0.04572329971638084,[0.17654321],0.005,0.1,2.775776869329287e-08,0.002346620089056601,0
3.5087058544158936,0.04572329971638084,[0.17634538],0.005,0.1,2.553714719782938e-08,0.0023010548342836633,0
3.5172135829925537,0.04572329971638084,[0.17615113],0.005,0.1,2.3494175422003042e-08,0.00226007706431379,0
3.5271244049072266,0.04572329971638084,[0.17596214],0.005,0.1,2.1614641388242792e-08,0.0022328738640899227,0
3.5364701747894287,0.04572329971638084,[0.17578006],0.005,0.1,1.9885470077183402e-08,0.00220814799626371,0
3.544600009918213,0.04572329971638084,[0.17560869],0.005,0.1,1.8294632471008752e-08,0.002377973149171446,0
3.5535616874694824,0.04572329971638084,[0.17545745],0.005,0.1,1.6831061873328026e-08,0.00359394112206896,0
3.56184720993042,0.04572329971638084,[0.17533851],0.005,0.1,1.5484576923461772e-08,0.004138436705705429,0
3.5732016563415527,0.04572329971638084,[0.17526427],0.005,0.1,1.4245810769584857e-08,0.007510616078873326,0
3.582217216491699,0.04591869843311751,[0.17525137],0.005,0.1,1.3106145908018052e-08,0.012185797304399115,0
3.5903825759887695,0.04572329971638084,[0.17531941],0.005,0.1,1.2057654235376598e-08,0.017560058945279514,0
3.5992507934570312,0.04572329971638084,[0.17548679],0.005,0.1,1.1093041896546485e-08,0.02284863230839282,0
3.6099483966827393,0.04572329971638084,[0.1757737],0.005,0.1,1.0205598544822775e-08,0.0372841817082042,0
3.6192128658294678,0.04572329971638084,[0.17619621],0.005,0.1,9.389150661236932e-09,0.027772546156535197,0
3.627166986465454,0.04591869843311751,[0.17674906],0.005,0.1,8.63801860833799e-09,0.02776384112514196,0
3.6351799964904785,0.04591869843311751,[0.17741317],0.005,0.1,7.946977119670958e-09,0.021753848326179385,0
3.644510269165039,0.04591869843311751,[0.17818175],0.005,0.1,7.311218950097282e-09,0.031921029440909916,0
3.653099775314331,0.04591869843311751,[0.1790605],0.005,0.1,6.726321434089493e-09,0.028409601506255957,0
3.663344383239746,0.04591869843311751,[0.18004824],0.005,0.1,6.188215719362341e-09,0.023136055969294838,0
3.6720800399780273,0.04591869843311751,[0.18113298],0.005,0.1,0.27603836537183946,0.016975614054792507,0
3.6800882816314697,0.046309495866590854,[0.18229654],0.005,0.1,0.3091629680778285,0.010563750364016003,0
3.688084840774536,0.046309495866590854,[0.18351615],0.005,0.1,0.2540657110669473,0.006691157899065862,0
3.69803524017334,0.046504894583327516,[0.18476657],0.005,0.1,0.4540190652051791,0.003690349148355955,0
3.7060670852661133,0.046504894583327516,[0.18602301],0.005,0.1,0.416620990386018,0.003139469034098082,0
3.7146244049072266,0.046700293300064186,[0.18726548],0.005,0.1,0.3049019377735844,0.0029150010784937757,0
3.7275922298431396,0.046700293300064186,[0.18847825],0.005,0.1,0.46285768673347794,0.002864423004855326,0
3.735121965408325,0.046700293300064186,[0.18964808],0.005,0.1,0.39604447757779754,0.002926412755250279,0
3.744755744934082,0.046895692016800855,[0.19076442],0.005,0.1,0.264797639917549,0.0030122497513191617,0
3.754415512084961,0.04709109073353753,[0.1918185],0.005,0.1,0.13456250135526565,0.0031321130235036866,0
3.7654690742492676,0.0472864894502742,[0.19280247],0.005,0.1,0.02778305621309811,0.003381358608922402,0
3.7740864753723145,0.04709109073353753,[0.19371015],0.005,0.1,-0.051488957745337745,0.0034169763468659877,0
3.7840828895568848,0.0472864894502742,[0.19453786],0.005,0.1,-0.10622402871756553,0.0035920921737028683,0
3.7951672077178955,0.0472864894502742,[0.19528366],0.005,0.1,-0.14138385221889932,0.003597968191806554,0
3.8046696186065674,0.04748188816701086,[0.19594666],0.005,0.1,-0.161863473342725,0.003819620170442325,0
3.8121414184570312,0.04748188816701086,[0.19652683],0.005,0.1,-0.4478209392860357,0.003794899331867437,0
3.8211140632629395,0.04767728688374754,[0.19702488],0.005,0.1,-0.4835181417818769,0.004068056280390872,0
3.8304390907287598,0.04767728688374754,[0.19744027],0.005,0.1,-0.42604685327204117,0.004845986380818664,0
3.8403379917144775,0.04787268560048421,[0.19777131],0.005,0.1,-0.3443822932359819,0.005087197958725452,0
3.8480989933013916,0.04787268560048421,[0.19801787],0.005,0.1,-0.2663111786564981,0.005359142283010525,0
3.8560726642608643,0.04787268560048421,[0.19818354],0.005,0.1,-0.20103493114025486,0.005374858224873186,0
3.864908456802368,0.04826348303395755,[0.19827541],0.005,0.1,-0.14986869867277888,0.004918057291189629,0
3.8757407665252686,0.04826348303395755,[0.19829916],0.005,0.1,-0.11116905083575325,0.005322010550359248,0
3.888270139694214,0.04826348303395755,[0.19825555],0.005,0.1,-0.08250254772873764,0.006653947384216967,0
3.9002768993377686,0.048458881750694224,[0.19814197],0.005,0.1,-0.06152332224237439,0.007984921704299005,0
3.908916711807251,0.04865428046743089,[0.19795647],0.005,0.1,-0.04626717312536143,0.00783556131628021,0
3.9202990531921387,0.04865428046743089,[0.19770046],0.005,0.1,-0.03519731685400644,0.007786899875649058,0
3.931105375289917,0.04865428046743089,[0.19737701],0.005,0.1,-0.027156351768264263,0.007794576472819769,0
3.9426956176757812,0.04884967918416756,[0.19698795],0.005,0.1,-0.021292596789359942,0.009288370538638997,0
3.95111083984375,0.049045077900904226,[0.19653547],0.005,0.1,-0.016988505749377533,0.007432747257594492,0
3.9612648487091064,0.049045077900904226,[0.19602358],0.005,0.1,-0.013800541726332018,0.009019384909433213,0
3.972100019454956,0.049045077900904226,[0.19545487],0.005,0.1,-0.011412077266402785,0.008679579292235723,0
3.98007869720459,0.0492404766176409,[0.19483519],0.005,0.1,-0.009597914985986824,0.008593693735240101,0
3.989712953567505,0.0492404766176409,[0.19417455],0.005,0.1,-0.008198193860821377,0.008325181315576483,0
3.99768328666687,0.0492404766176409,[0.19347901],0.005,0.1,-0.007099491475097391,0.008111757186820006,0
4.008183479309082,0.04943587533437757,[0.1927512],0.005,0.1,-0.006221276679060517,0.007915799056080015,0
4.016654014587402,0.04943587533437757,[0.1919938],0.005,0.1,-0.0055062643780014915,0.007754434803170992,0
4.0266547203063965,0.04963127405111425,[0.19120954],0.005,0.1,-0.004913580444990734,0.007582406206745509,0
4.034098863601685,0.04963127405111425,[0.19040257],0.005,0.1,-0.004413933228422997,0.006188438227188566,0
4.044164419174194,0.0498266727678509,[0.18957821],0.005,0.1,-0.003986209606956185,0.006371803992805271,0
4.05209493637085,0.0498266727678509,[0.18874129],0.005,0.1,-0.0036150783559079796,0.005393249032812964,0
4.064306735992432,0.05002207148458758,[0.18789474],0.005,0.1,-0.003289303845562514,0.006830861937502386,0
4.072419881820679,0.05002207148458758,[0.18703852],0.005,0.1,-0.0030005597165432586,0.0066854345340228,0
4.081512212753296,0.050217470201324256,[0.18617289],0.005,0.1,-0.00274259403822483,0.0064943412772667485,0
4.089768886566162,0.050217470201324256,[0.18529979],0.005,0.1,-0.002510641371454237,0.006310375131554665,0
4.0978844165802,0.050217470201324256,[0.18442119],0.005,0.1,-0.0023010082046312687,0.006115183712462007,0
4.107072353363037,0.050412868918060925,[0.183539],0.005,0.1,-0.0021107801200320664,0.005893853763684718,0
4.116072177886963,0.050412868918060925,[0.18265638],0.005,0.1,-0.0019376144465420692,0.00481073673927069,0
4.1274943351745605,0.050412868918060925,[0.18177628],0.005,0.1,-0.0017795929740337274,0.00572529557096407,0
4.13606858253479,0.050412868918060925,[0.18090014],0.005,0.1,-0.0016351168983311675,0.004627256928631242,0
4.144107818603516,0.050608267634797595,[0.18003056],0.005,0.1,-0.0015028314920021762,0.004586646829183357,0
4.155608892440796,0.050608267634797595,[0.17916892],0.005,0.1,-0.0013815717305104768,0.005218154550989584,0
4.163668394088745,0.050803666351534264,[0.17831446],0.005,0.1,-0.0012703227205736307,0.004815219455567829,0
4.1739501953125,0.050803666351534264,[0.17746791],0.005,0.1,-0.0011681906118777316,0.004476597307881622,0
4.1840972900390625,0.050803666351534264,[0.17663126],0.005,0.1,-0.0010743809586913659,0.0041808261222574875,0
4.192058324813843,0.05099906506827094,[0.17580724],0.005,0.1,-0.0009881823987806515,0.0034395696064338527,0
4.202072620391846,0.05099906506827094,[0.17499922],0.005,0.1,-0.0009089541485031976,0.0033709961963343652,0
4.211053848266602,0.05099906506827094,[0.1742092],0.005,0.1,-0.0008361162556972904,0.003274013224315108,0
4.220900297164917,0.0511944637850076,[0.17343808],0.005,0.1,-0.0007691418625618194,0.0031420451867746092,0
4.229675531387329,0.05138986250174427,[0.17268673],0.005,0.1,-0.0007075509486659039,0.0029959358123018004,0
4.238037586212158,0.05138986250174427,[0.17195665],0.005,0.1,-0.0006509051773402132,0.0025891254577024435,0
4.2460362911224365,0.05138986250174427,[0.17124987],0.005,0.1,-0.0005988035763473904,0.002545518840155216,0
4.256105661392212,0.05138986250174427,[0.17056738],0.005,0.1,-0.0005508788594739067,0.0024739917898659,0
4.265070915222168,0.05158526121848094,[0.16990938],0.005,0.1,-0.0005067942491782408,0.00237413806271632,0
4.274954557418823,0.05158526121848094,[0.16927564],0.005,0.1,-0.0004662406981665653,0.0024316006286026924,0
4.28315806388855,0.05178065993521762,[0.16866604],0.005,0.1,-0.00042893443455985545,0.0021166006560162597,0
4.294076442718506,0.05178065993521762,[0.16808151],0.005,0.1,-0.0003946147743678932,0.002025667903460429,0
4.305055379867554,0.05197605865195429,[0.16752289],0.005,0.1,-0.00036304215861839267,0.0019277493411710184,0
4.31304669380188,0.05197605865195429,[0.16699076],0.005,0.1,-0.00033399638226918184,0.0017766666626824088,0
4.321072578430176,0.05197605865195429,[0.16648589],0.005,0.1,-0.0003072749891256719,0.0017297821653526832,0
4.3300864696502686,0.05197605865195429,[0.16600852],0.005,0.1,-0.00028269181220231285,0.0016792268534738962,0
4.338039875030518,0.05197605865195429,[0.16555865],0.005,0.1,-0.0002600756427708007,0.0015963004174051197,0
4.34958028793335,0.05217145736869095,[0.16513623],0.005,0.1,-0.000239269014230453,0.0015831469227648631,0
4.360036611557007,0.05217145736869095,[0.16474071],0.005,0.1,-0.00022012708910974132,0.001536827268565849,0
4.36883020401001,0.05217145736869095,[0.16437151],0.005,0.1,-0.2762408763178735,0.0014947777163942706,0
4.377029895782471,0.05236685608542762,[0.16402835],0.005,0.1,-0.3093492779502284,0.0014432730480354685,0
4.38803768157959,0.05236685608542762,[0.16371087],0.005,0.1,-0.2542371160109895,0.0014265277584184972,0
4.396637201309204,0.05236685608542762,[0.16341847],0.005,0.1,-0.1781383979780202,0.0013980497294399322,0
4.40703272819519,0.05236685608542762,[0.16315047],0.005,0.1,-0.10760310453339705,0.0013816279746954277,0
4.41508936882019,0.05236685608542762,[0.16290611],0.005,0.1,-0.05096970230630027,0.0013679678747813358,0
4.423050403594971,0.05236685608542762,[0.16268445],0.005,0.1,-0.008961419046719318,0.001354448164800163,0
4.434032201766968,0.05236685608542762,[0.16248447],0.005,0.1,0.020463539114562057,0.0013464029473085237,0
4.443035840988159,0.05236685608542762,[0.16230492],0.005,0.1,0.04000036207417281,0.001340289457331464,0
4.45203971862793,0.05236685608542762,[0.16214434],0.005,0.1,0.05216120479162874,0.0013361579577388174,0
4.4637627601623535,0.05236685608542762,[0.16200097],0.005,0.1,0.05901048729729513,0.0013414716270436166,0
4.471050500869751,0.05236685608542762,[0.16187291],0.005,0.1,-0.21389840178756023,0.0013321487179562398,0
4.479863882064819,0.05236685608542762,[0.16175843],0.005,0.1,-0.24643159269830894,0.001335991897029714,0
4.489036560058594,0.05236685608542762,[0.16165585],0.005,0.1,-0.19242532341157312,0.001329337350812682,0
4.500226974487305,0.05236685608542762,[0.16156344],0.005,0.1,-0.11850543522478885,0.001340500147577559,0
4.510377645492554,0.052562254802164296,[0.16147888],0.005,0.1,-0.05079607528497999,0.0013791624181787535,0
4.518033504486084,0.052562254802164296,[0.16139965],0.005,0.1,0.002658269074158528,0.0013605053458879365,0
4.526976108551025,0.052562254802164296,[0.16132383],0.005,0.1,0.04133427375919495,0.0013864289963074316,0
4.537931442260742,0.052562254802164296,[0.16124947],0.005,0.1,0.06740720089390345,0.0014164215945822308,0
4.547401189804077,0.05236685608542762,[0.16117435],0.005,0.1,0.08365919449108503,0.0014549553388322346,0
4.5559375286102295,0.052562254802164296,[0.16109639],0.005,0.1,0.09265705837182532,0.0014790847880137177,0
4.566136121749878,0.05236685608542762,[0.16101367],0.005,0.1,0.09649761364606871,0.001514794628704031,0
4.574575185775757,0.05236685608542762,[0.16092404],0.005,0.1,0.09678983868316116,0.0016364039457255211,0
4.58230447769165,0.05236685608542762,[0.16082569],0.005,0.1,0.09472250056264551,0.0015333777137517249,0
4.590015649795532,0.052562254802164296,[0.1607185],0.005,0.1,0.09115150734152641,0.001461927935526155,0
4.599520206451416,0.052562254802164296,[0.16060293],0.005,0.1,0.0866810078019272,0.0014971379724367695,0
4.607025146484375,0.052562254802164296,[0.16047902],0.005,0.1,0.08173009004667807,0.001440860111162465,0
4.617543697357178,0.052562254802164296,[0.16034689],0.005,0.1,0.07658439091892694,0.001478302789187009,0
4.628281354904175,0.052562254802164296,[0.16020631],0.005,0.1,0.07143464233247565,0.0015063069595859103,0
4.640640020370483,0.052562254802164296,[0.16005626],0.005,0.1,0.0664048263437591,0.0016271386745962831,0
4.651025295257568,0.052562254802164296,[0.15989552],0.005,0.1,0.06157243577324417,0.0016125871079933208,0
4.660617351531982,0.052562254802164296,[0.15972363],0.005,0.1,0.056982901166508906,0.0015988152034474346,0
4.670153617858887,0.052562254802164296,[0.15954083],0.005,0.1,0.0526597829413924,0.001586517054192144,0
4.682400226593018,0.05236685608542762,[0.15934701],0.005,0.1,0.04861192585863252,0.0016860487382017225,0
4.692551374435425,0.05236685608542762,[0.15914187],0.005,0.1,0.04483845259913234,0.0016321234625307512,0
4.7016990184783936,0.052562254802164296,[0.15892584],0.005,0.1,0.04133222941883716,0.0015810621583466399,0
4.709048748016357,0.052562254802164296,[0.15870035],0.005,0.1,0.038082256415276,0.0014574545049536307,0
4.718497276306152,0.052562254802164296,[0.15846723],0.005,0.1,0.0350753037623166,0.0014560914339989733,0
4.727054595947266,0.052562254802164296,[0.15822771],0.005,0.1,0.03229702102116542,0.0014523488389215746,0
4.736046552658081,0.052562254802164296,[0.15798334],0.005,0.1,0.029732679460181155,0.001443594664810857,0
4.745822429656982,0.052562254802164296,[0.15773638],0.005,0.1,0.027367659702275574,0.0014367242853648259,0
4.758015155792236,0.052562254802164296,[0.1574875],0.005,0.1,0.025187763402536006,0.0015130536285992246,0
4.767487525939941,0.05236685608542762,[0.15723612],0.005,0.1,0.023179403992446015,0.0014800787629386286,0
4.776030778884888,0.052562254802164296,[0.15698226],0.005,0.1,0.02132971490083091,0.0014370083731832688,0
4.784698963165283,0.052562254802164296,[0.15672648],0.005,0.1,0.019626602000361627,0.001404037013874164,0
4.794029235839844,0.05236685608542762,[0.15646939],0.005,0.1,0.01805875886052613,0.0013788469161231576,0
4.805063486099243,0.052562254802164296,[0.15621169],0.005,0.1,0.016615657673857167,0.0013403485598575805,0
4.813031196594238,0.05236685608542762,[0.15595442],0.005,0.1,0.015287524729488633,0.0012666085201548112,0
4.822103261947632,0.052562254802164296,[0.15569867],0.005,0.1,0.01406530652181695,0.0012883672051414907,0
4.831032752990723,0.052562254802164296,[0.15544521],0.005,0.1,0.012940630640557525,0.0012154597793129808,0
4.839438438415527,0.052562254802164296,[0.1551951],0.005,0.1,0.011905764238155408,0.0011941797264539782,0
4.851029396057129,0.052562254802164296,[0.15494946],0.005,0.1,0.010953571933543899,0.0011704630662037272,0
4.863178253173828,0.052562254802164296,[0.154709],0.005,0.1,0.010077474363094646,0.0011615016393521597,0
4.875009059906006,0.052562254802164296,[0.15447441],0.005,0.1,0.009271408143073818,0.0011275028258796967,0
4.886098146438599,0.05236685608542762,[0.15424665],0.005,0.1,0.008529787701978056,0.0011048744944593578,0
4.899047613143921,0.052562254802164296,[0.15402686],0.005,0.1,0.007847469233080598,0.0010781960842015767,0
4.907944440841675,0.052562254802164296,[0.15381616],0.005,0.1,0.007219716877524564,0.001055017100394221,0
4.916021108627319,0.05236685608542762,[0.15361571],0.005,0.1,0.006642171155489797,0.0010460617650008047,0
4.924495220184326,0.052562254802164296,[0.15342677],0.005,0.1,0.0061108196027696154,0.0010278016782503067,0
4.933095693588257,0.052562254802164296,[0.15325117],0.005,0.1,0.005621969532352328,0.0010377456008356233,0
4.942012786865234,0.052562254802164296,[0.15309348],0.005,0.1,0.005172222818227632,0.0013507820067509735,0
4.950049877166748,0.052562254802164296,[0.15296286],0.005,0.1,0.004758452586694104,0.0022692464677672906,0
4.961589097976685,0.05236685608542762,[0.15287485],0.005,0.1,0.004377781695505984,0.005934918411880962,0
4.974286794662476,0.052562254802164296,[0.15285313],0.005,0.1,0.004027562880888748,0.012608697323269741,0
4.982046604156494,0.05236685608542762,[0.15291905],0.005,0.1,0.0037053604551339596,0.010697825023026948,0
4.990010023117065,0.052562254802164296,[0.15307987],0.005,0.1,0.003408933442024673,0.00966952285665958,0
4.999521255493164,0.052562254802164296,[0.15333978],0.005,0.1,0.003136220042973703,0.014988876368091764,0
5.007849931716919,0.05236685608542762,[0.15371197],0.005,0.1,0.0028853233329535115,0.021209099428006244,0
5.018064498901367,0.052562254802164296,[0.15421912],0.005,0.1,0.002654498091709625,0.03963349003871749,0
5.0291056632995605,0.052562254802164296,[0.15488718],0.005,0.1,0.002442138682147539,0.04338449940073454,0
5.038150310516357,0.052562254802164296,[0.1557268],0.005,0.1,0.002246767894018015,0.03295503821025609,0
5.046018123626709,0.052562254802164296,[0.15673402],0.005,0.1,0.0020670266770061625,0.038017042731112505,0
5.054046392440796,0.05275765351890097,[0.15790283],0.005,0.1,0.0019016646930023876,0.029193589251923377,0
5.063993453979492,0.05275765351890097,[0.15922467],0.005,0.1,0.0017495316226718996,0.033071502544050446,0
5.073999404907227,0.052953052235637635,[0.16069259],0.005,0.1,0.27764792884511585,0.033294737132368676,0
5.0839924812316895,0.05314845095237431,[0.16229918],0.005,0.1,0.31064376652474657,0.029825433625778913,0
5.099096775054932,0.053343849669110974,[0.16403148],0.005,0.1,0.5314664053528457,0.027331079557281146,0
5.108986139297485,0.053343849669110974,[0.16586742],0.005,0.1,0.7644353759091782,0.013330260350954392,0
5.1183342933654785,0.05353924838584765,[0.16777058],0.005,0.1,0.947878136365389,0.005640773245806889,0
5.126010894775391,0.05373464710258431,[0.16970088],0.005,0.1,0.7931064353676152,0.003338235197656227,0
5.136294603347778,0.05373464710258431,[0.17162567],0.005,0.1,0.5493190237468234,0.0022910420845004328,0
5.144294738769531,0.05393004581932099,[0.17351847],0.005,0.1,0.5926346929070891,0.001888310452982518,0
5.152114152908325,0.05412544453605766,[0.17535771],0.005,0.1,0.4370176009448391,0.0019560118064407828,0
5.161021709442139,0.054320843252794335,[0.1771267],0.005,0.1,0.24166719616262883,0.0018944363624414078,0
5.169015407562256,0.054320843252794335,[0.17881154],0.005,0.1,0.06773923520705871,0.001938320301876654,0
5.179985523223877,0.054320843252794335,[0.18039904],0.005,0.1,-0.0670572570772583,0.0022120420540163014,0
5.192023038864136,0.054320843252794335,[0.1818767],0.005,0.1,-0.43887575550916497,0.002693709198759375,0
5.202855587005615,0.05412544453605766,[0.18323438],0.005,0.1,-0.811103316152425,0.0029700948958369185,0
5.211814641952515,0.054320843252794335,[0.18446572],0.005,0.1,-1.1030061185116917,0.003236058151492156,0
5.222036123275757,0.054320843252794335,[0.18556708],0.005,0.1,-1.3003467428331112,0.003527643913191682,0
5.232009410858154,0.054320843252794335,[0.18653646],0.005,0.1,-1.138101106612596,0.003839448795942113,0
5.239988327026367,0.054320843252794335,[0.18737443],0.005,0.1,-1.1532765117788062,0.00357167185318755,0
5.248992204666138,0.054320843252794335,[0.18808384],0.005,0.1,-0.9328204874699348,0.00398348748783432,0
5.2570414543151855,0.054320843252794335,[0.18866723],0.005,0.1,-0.6671839416391334,0.004388151832723202,0
5.268759250640869,0.054320843252794335,[0.18912554],0.005,0.1,-0.4294640042864539,0.005677612424414178,0
5.276986598968506,0.054320843252794335,[0.18946079],0.005,0.1,-0.2407464349093002,0.004858432842308381,0
5.286003828048706,0.054320843252794335,[0.18967854],0.005,0.1,-0.10077500898301395,0.005211865137477862,0
5.2966086864471436,0.054320843252794335,[0.18978339],0.005,0.1,-0.0018851120661058512,0.006585989370340951,0
5.305019378662109,0.054320843252794335,[0.18977796],0.005,0.1,0.06501007344036389,0.00648213930477476,0
5.31400728225708,0.054320843252794335,[0.18966856],0.005,0.1,0.10811275574515893,0.005331626917991587,0
5.322011947631836,0.054320843252794335,[0.18946597],0.005,0.1,0.13406738931216153,0.004615876233298743,0
5.331005811691284,0.05412544453605766,[0.18918064],0.005,0.1,0.14796016213611834,0.004948265990109736,0
5.339360952377319,0.054320843252794335,[0.18882131],0.005,0.1,0.1535538670186299,0.004317745451510016,0
5.348290920257568,0.054320843252794335,[0.18839654],0.005,0.1,0.15356982169209438,0.004581880301562817,0
5.358059883117676,0.054320843252794335,[0.18791359],0.005,0.1,0.14994387154998276,0.004683428756422283,0
5.367408275604248,0.054320843252794335,[0.18737859],0.005,0.1,0.14403483212565704,0.0046364546273242,0
5.377024173736572,0.054320843252794335,[0.18679806],0.005,0.1,0.1367849374575727,0.004475319800466638,0
5.384976387023926,0.054320843252794335,[0.18617884],0.005,0.1,0.12883934813844275,0.004234843271614634,0
5.394981861114502,0.054320843252794335,[0.18552795],0.005,0.1,0.12063333493464991,0.003951589308764544,0
5.403020143508911,0.054320843252794335,[0.18485253],0.005,0.1,0.1124550077295,0.003651028597444763,0
5.4111926555633545,0.054320843252794335,[0.18416085],0.005,0.1,0.1044900174921378,0.0036056498714555673,0
5.41935658454895,0.054320843252794335,[0.18346188],0.005,0.1,0.09685318969359666,0.003312071119183398,0
5.429387807846069,0.054320843252794335,[0.18276248],0.005,0.1,0.08961078920575521,0.003035065403249392,0
5.43700909614563,0.054320843252794335,[0.18206824],0.005,0.1,0.08279612093418015,0.0026608600251360956,0
5.445990562438965,0.054320843252794335,[0.18138479],0.005,0.1,0.0764204159566318,0.002518003927169947,0
5.456028461456299,0.054320843252794335,[0.1807168],0.005,0.1,0.07048039611401463,0.0023830137841526324,0
5.466360330581665,0.054320843252794335,[0.18006789],0.005,0.1,0.06496350590157454,0.002309394706525569,0
5.4749603271484375,0.054320843252794335,[0.17944133],0.005,0.1,0.059851510499595986,0.002149919357354455,0
5.484522819519043,0.054320843252794335,[0.17884037],0.005,0.1,0.05512295222696701,0.0020708123269770327,0
5.493305921554565,0.05412544453605766,[0.1782677],0.005,0.1,0.05075481135506439,0.002015846210061609,0
5.503335475921631,0.054320843252794335,[0.17772516],0.005,0.1,0.046723613915596394,0.001965418033140944,0
5.510997533798218,0.054320843252794335,[0.17721406],0.005,0.1,0.04300615640788412,0.0019075308417494065,0
5.5233070850372314,0.054320843252794335,[0.17673545],0.005,0.1,0.03957996620776785,0.001876453580464457,0
5.530982971191406,0.054320843252794335,[0.17628991],0.005,0.1,0.03642358062422647,0.0018392767877790438,0
5.540248870849609,0.054320843252794335,[0.17587772],0.005,0.1,0.03351670242060428,0.0018124082743926518,0
5.5510430335998535,0.054320843252794335,[0.17549889],0.005,0.1,0.030840272022957117,0.001788934615375959,0
5.560997486114502,0.054320843252794335,[0.17515335],0.005,0.1,0.0283764843301113,0.001767001579122952,0
5.572018384933472,0.054320843252794335,[0.17484276],0.005,0.1,0.026108769437890946,0.0018824705182736877,0
5.581047058105469,0.054320843252794335,[0.17457258],0.005,0.1,0.02402175058373915,0.0024959289071462033,0
5.592496633529663,0.05412544453605766,[0.17435454],0.005,0.1,0.022101188429129393,0.005561901564788278,0
5.599963426589966,0.054320843252794335,[0.17420241],0.005,0.1,0.020333917879998508,0.005438724234030553,0
5.609673976898193,0.054320843252794335,[0.17412622],0.005,0.1,0.018707781617606653,0.00850908634210588,0
5.61797022819519,0.054320843252794335,[0.17413377],0.005,0.1,0.01721156310598796,0.008144638180759502,0
5.626971483230591,0.054320843252794335,[0.17423274],0.005,0.1,0.01583492087005392,0.01279575007891315,0
5.636378765106201,0.054320843252794335,[0.17443498],0.005,0.1,0.014568325169277176,0.018387472983882394,0
5.645063161849976,0.054320843252794335,[0.17475602],0.005,0.1,0.013402997733937315,0.024769126948682586,0
5.652978420257568,0.054320843252794335,[0.1752058],0.005,0.1,0.012330854919975459,0.021188116329124953,0
5.6609930992126465,0.054320843252794335,[0.1757888],0.005,0.1,0.011344454429710379,0.02979554201760663,0
5.668996572494507,0.054320843252794335,[0.17651476],0.005,0.1,0.010436945607669506,0.03898102763675602,0
5.680274486541748,0.054320843252794335,[0.17740438],0.005,0.1,0.009602023231692552,0.06834021297657966,0
5.688981771469116,0.054320843252794335,[0.17847588],0.005,0.1,0.00883388466400348,0.05239527096380781,0
5.700286149978638,0.05451624196953099,[0.17973225],0.005,0.1,0.008127190194475995,0.06292731141571528,0
5.708751678466797,0.05471164068626767,[0.18117595],0.005,0.1,0.007477026391433044,0.07333349491224125,0
5.7180774211883545,0.05471164068626767,[0.18281498],0.005,0.1,0.28291723194756,0.08325081372911496,0
5.726071119308472,0.054907039403004336,[0.18464789],0.005,0.1,0.315491530919624,0.06465907264831688,0
5.734972238540649,0.05529783683647768,[0.18665731],0.005,0.1,0.535926352474573,0.05332512759825302,0
5.7466042041778564,0.05549323555321435,[0.18883468],0.005,0.1,1.0445768896547565,0.10131759194225542,0
5.7550048828125,0.05588403298668769,[0.19119401],0.005,0.1,1.260816002847493,0.1105707166810642,0
5.764003753662109,0.05607943170342436,[0.1937379],0.005,0.1,1.3266834139754813,0.08439713204266722,0
5.773000717163086,0.056665627853634375,[0.19645156],0.005,0.1,1.315696127956597,0.09941775401840813,0
5.781168460845947,0.05705642528710771,[0.19932831],0.005,0.1,1.5422992199432102,0.11159436394939481,0
5.789048910140991,0.05744722272058106,[0.20236026],0.005,0.1,1.5078058758521373,0.08564744121967535,0
5.796963214874268,0.0578380201540544,[0.2055303],0.005,0.1,1.3776995442111297,0.10001339038114143,0
5.805957078933716,0.0584242163042644,[0.20882857],0.005,0.1,1.5010319987389797,0.10907133467744635,0
5.814329385757446,0.05901041245447442,[0.21225064],0.005,0.1,1.3884878323893606,0.11287990627683078,0
5.822954177856445,0.05959660860468442,[0.21578192],0.005,0.1,1.2047129317349543,0.08307428042361008,0
5.831932783126831,0.059987406038157755,[0.21939326],0.005,0.1,1.2945007702565996,0.06417027753064662,0
5.840954065322876,0.060769000905104446,[0.2230569],0.005,0.1,1.1637437525520715,0.07310359764380314,0
5.84998893737793,0.061550595772051124,[0.22675882],0.005,0.1,1.2488885591546182,0.07630222935412681,0
5.859985113143921,0.06233219063899781,[0.23048931],0.005,0.1,1.3723895772197183,0.07474899368193699,0
5.86898136138916,0.06311378550594449,[0.23423572],0.005,0.1,1.1922690673380645,0.06991605649995797,0
5.879928350448608,0.06409077908962785,[0.23798305],0.005,0.1,0.9342980935270141,0.06278390994102694,0
5.89000129699707,0.0650677726733112,[0.24171433],0.005,0.1,0.6890621782324775,0.0544844399296935,0
5.8982834815979,0.06584936754025787,[0.24541381],0.005,0.1,0.486253029547433,0.054527803918269085,0
5.90601110458374,0.06663096240720455,[0.24906454],0.005,0.1,0.32980400160622303,0.035911152464581084,0
5.915139675140381,0.06741255727415124,[0.25264389],0.005,0.1,0.21405059983408797,0.029415804851340665,0
5.922936916351318,0.06819415214109792,[0.25612861],0.005,0.1,-0.14521263085159555,0.02073470956232908,0
5.932965040206909,0.06936654444151794,[0.25949824],0.005,0.1,-0.2368451013682421,0.017503256327453486,0
5.947138786315918,0.07073433545867464,[0.26273624],0.005,0.1,-0.22204815649589565,0.014977443376403245,0
5.959246397018433,0.07171132904235797,[0.26582854],0.005,0.1,-0.44916614119475773,0.011296585852410711,0
5.9691712856292725,0.07249292390930466,[0.26875984],0.005,0.1,-0.7056383224284332,0.008955810080568232,0
5.978611469268799,0.07327451877625135,[0.27151505],0.005,0.1,-0.9143651806427826,0.008051837669305253,0
5.9859771728515625,0.07386071492646136,[0.27408272],0.005,0.1,-1.3331259192951448,0.00809943650108224,0
5.993937253952026,0.07464230979340802,[0.27645688],0.005,0.1,-1.7239555160730518,0.008253539235677319,0
6.004468202590942,0.07542390466035472,[0.27863601],0.005,0.1,-1.734807835908047,0.008430401149119911,0
6.012964725494385,0.07601010081056472,[0.28062146],0.005,0.1,-1.8764661974465353,0.008617858884482188,0
6.0221521854400635,0.07659629696077475,[0.28241699],0.005,0.1,-1.7347730616732093,0.008790744556606934,0
6.030969619750977,0.07718249311098475,[0.28402828],0.005,0.1,-1.7839835225010088,0.008930992600526932,0
6.039906024932861,0.07776868926119475,[0.28546253],0.005,0.1,-1.8639071516070675,0.009050822395781928,0
6.04874587059021,0.07835488541140477,[0.28672819],0.005,0.1,-1.916168045549301,0.009136473110430539,0
6.0586652755737305,0.07894108156161479,[0.28783481],0.005,0.1,-1.9265979523731676,0.009191059998582869,0
6.0674519538879395,0.07952727771182479,[0.2887936],0.005,0.1,-1.6224190639412235,0.009206927195867168,0
6.076062440872192,0.07991807514529814,[0.2896191],0.005,0.1,-1.531299463150361,0.009621954896475288,0
6.085498571395874,0.08050427129550815,[0.29033029],0.005,0.1,-1.507722083572388,0.011074437560283649,0
6.093955039978027,0.08089506872898149,[0.2909474],0.005,0.1,-1.4922803363419193,0.01161336339483433,0
6.102986812591553,0.0814812648791915,[0.29149085],0.005,0.1,-1.188446470986336,0.0157459136105891,0
6.111950874328613,0.08187206231266483,[0.29198572],0.005,0.1,-1.1112557800388903,0.02264355785345703,0
6.120263576507568,0.08226285974613817,[0.29246642],0.005,0.1,-0.8323369934917321,0.047020779059067895,0
6.128950119018555,0.08284905589634818,[0.29296811],0.005,0.1,-0.8075066453621882,0.04164421149895441,0
6.138402223587036,0.08323985332982153,[0.29352282],0.005,0.1,-0.5834821011247167,0.08622593464966033,0
6.1469762325286865,0.08382604948003153,[0.29416286],0.005,0.1,-0.6069182636107913,0.07232916174938732,0
6.15593957901001,0.08421684691350488,[0.29491245],0.005,0.1,-0.4222625239474741,0.09829666140624016,0
6.166905164718628,0.08480304306371489,[0.29580475],0.005,0.1,-0.2006186320407292,0.1826036031754362,0
6.177958965301514,0.08558463793066157,[0.29688669],0.005,0.1,-0.0067694709893880295,0.20603981654047993,0
6.185988664627075,0.08617083408087158,[0.29818377],0.005,0.1,0.4174180394573189,0.16140779963898055,0
6.193968057632446,0.08695242894781824,[0.29970139],0.005,0.1,0.5541314952722758,0.20140229590434677,0
6.205485820770264,0.08792942253150161,[0.30146397],0.005,0.1,1.1177298903050799,0.33471767568661054,0
6.2129881381988525,0.08890641611518496,[0.30350132],0.005,0.1,1.4222504223474455,0.250039936104541,0
6.2224109172821045,0.09027420713234166,[0.30580644],0.005,0.1,1.8444603360293477,0.19773539687732353,0
6.231323719024658,0.09144659943276168,[0.30836105],0.005,0.1,2.47825118264596,0.24880238318408654,0
6.2399420738220215,0.09261899173318171,[0.31115763],0.005,0.1,3.3060501742973156,0.20025545025968833,0
6.248979568481445,0.09437758018381173,[0.31418732],0.005,0.1,3.7233270184658576,0.25472896157476954,0
6.257918834686279,0.0959407699177051,[0.31746209],0.005,0.1,3.8844532065313087,0.4152759090323349,0
6.267212390899658,0.09750395965159846,[0.32100019],0.005,0.1,4.161909828799438,0.3050285707192383,0
6.275937795639038,0.09945794681896515,[0.32478098],0.005,0.1,4.374165174704303,0.23645630037451698,0
6.287872314453125,0.10219352885327855,[0.32878383],0.005,0.1,5.0,0.39861989281279325,0
6.300966739654541,0.10531990832106528,[0.33303202],0.005,0.1,5.0,0.5403215468768806,0
6.309738636016846,0.1076646929219053,[0.33755267],0.005,0.1,5.0,0.5057256330286504,0
6.318954706192017,0.11040027495621868,[0.3423428],0.005,0.1,5.0,0.47928617555988323,0
6.32958459854126,0.11372205314074207,[0.34738482],0.005,0.1,5.0,0.45792073848768966,0
6.3379528522491455,0.11665303389179212,[0.35264919],0.005,0.1,5.0,0.3247510623950507,0
6.349651098251343,0.12095180565999888,[0.35810681],0.005,0.1,5.0,0.4593493905703049,0
6.358820676803589,0.12446898256125893,[0.36375006],0.005,0.1,5.0,0.4335409235027259,0
6.368988990783691,0.128572355612729,[0.36956853],0.005,0.1,5.0,0.40943561672393414,0
6.377995014190674,0.13228493123072574,[0.37552942],0.005,0.1,5.0,0.2870336779323765,0
6.390021085739136,0.13716989914914252,[0.38160065],0.005,0.1,5.0,0.3912736528073509,0
6.4009740352630615,0.14146867091734927,[0.38776895],0.005,0.1,4.4942114798924155,0.35056064628198863,0
6.409961223602295,0.14518124653534598,[0.39401669],0.005,0.1,3.1997066487602908,0.3081403448459045,0
6.417931318283081,0.14811222728639603,[0.40030566],0.005,0.1,1.8587946036081764,0.206843351438639,0
6.427932977676392,0.1522156003378661,[0.4065905],0.005,0.1,0.1833304695199236,0.1900654302361716,0
6.437206745147705,0.15592817595586284,[0.41283439],0.005,0.1,-1.5597595770419375,0.16690286931612944,0
6.446800470352173,0.16003154900733293,[0.41900715],0.005,0.1,-2.698682583970339,0.13961186492409045,0
6.457841873168945,0.16433032077553966,[0.42508051],0.005,0.1,-3.3942842418127634,0.13238521841570428,0
6.467976093292236,0.1680428963935364,[0.43102796],0.005,0.1,-4.050279059036356,0.09684512119747418,0
6.47781229019165,0.17175547201153316,[0.4368185],0.005,0.1,-4.520278109599791,0.07102564277754787,0
6.485970973968506,0.17468645276258318,[0.44241786],0.005,0.1,-4.786843366376361,0.047582673270593394,0
6.494688987731934,0.17839902838057992,[0.44779479],0.005,0.1,-4.879813422369541,0.03914652799910387,0
6.504399061203003,0.18211160399857668,[0.45292589],0.005,0.1,-5.0,0.03366682545444127,0
6.513020753860474,0.18543338218310007,[0.45779391],0.005,0.1,-5.0,0.027748735481527884,0
6.522991895675659,0.1891459578010968,[0.46238766],0.005,0.1,-5.0,0.03011172383397905,0
6.532940149307251,0.19266313470235683,[0.46670349],0.005,0.1,-5.0,0.026561649624834538,0
6.540964603424072,0.19520331801993357,[0.47073926],0.005,0.1,-5.0,0.025010322800677994,0
6.548969984054565,0.19793890005424694,[0.47449651],0.005,0.1,-5.0,0.027437360622127382,0
6.5569517612457275,0.20067448208856034,[0.4779862],0.005,0.1,-5.0,0.03094167855079687,0
6.5661461353302,0.2036054628396104,[0.48122608],0.005,0.1,-5.0,0.03582430057369524,0
6.573990821838379,0.20595024744045046,[0.48423419],0.005,0.1,-5.0,0.033498198237023644,0
6.583987236022949,0.20927202562497385,[0.48702852],0.005,0.1,-5.0,0.04210797152484251,0
6.5920493602752686,0.21161681022581388,[0.48963432],0.005,0.1,-4.836965800376111,0.0543409000686935,0
6.60213303565979,0.2145477909768639,[0.49208369],0.005,0.1,-4.827563249077567,0.0703395354522199,0
6.610496997833252,0.21728337301117734,[0.49441119],0.005,0.1,-4.53544745461891,0.09016731833855439,0
6.618934631347656,0.21923736017854403,[0.49664619],0.005,0.1,-4.1533746273543715,0.07817667485095374,0
6.627928256988525,0.22177754349612072,[0.49881237],0.005,0.1,-3.765088977178432,0.10652318807171678,0
6.637741804122925,0.22451312553043412,[0.50094078],0.005,0.1,-3.4033960038322135,0.1372351490915421,0
6.650677919387817,0.22822570114843083,[0.50307694],0.005,0.1,-3.078146785314973,0.23761843939743083,0
6.657927513122559,0.2303750870325342,[0.50527215],0.005,0.1,-2.513453686268544,0.25929016182747155,0
6.6658875942230225,0.2325244729166376,[0.5075565],0.005,0.1,-1.9487899022752608,0.1992712446422572,0
6.675278902053833,0.23545545366768764,[0.50994037],0.005,0.1,-1.1919978381818506,0.2392184983336104,0
6.685450792312622,0.2383864344187377,[0.51244236],0.005,0.1,-0.5028269860157413,0.27580411750399575,0
6.694933652877808,0.24170821260326106,[0.51508776],0.005,0.1,0.3156996575090474,0.307949651391008,0
6.706761121749878,0.2456161869379945,[0.51790796],0.005,0.1,1.2926087673702211,0.4533025346398829,0
6.714901685714722,0.2487425664057812,[0.52092866],0.005,0.1,2.1193929953096493,0.32427058084884985,0
6.724897623062134,0.25245514202377795,[0.5241501],0.005,0.1,2.9913536516967203,0.3501400547184074,0
6.733598232269287,0.255386122774828,[0.52757085],0.005,0.1,3.40025398983136,0.37304684464055365,0
6.7409117221832275,0.25831710352587806,[0.53118749],0.005,0.1,3.8175931530438634,0.2781844651068473,0
6.75091290473938,0.26222507786061144,[0.53498472],0.005,0.1,4.66462077844189,0.31924714948401334,0
6.762324333190918,0.26691464706229157,[0.53896827],0.005,0.1,5.0,0.4786316090622581,0
6.771928310394287,0.27062722268028827,[0.54315124],0.005,0.1,5.0,0.34121148877066465,0
6.78322696685791,0.2751213931652317,[0.54753218],0.005,0.1,5.0,0.5002428833917816,0
6.791888236999512,0.2786385700664918,[0.55210769],0.005,0.1,4.548697241077216,0.3555264222027579,0
6.801363945007324,0.2823511456844885,[0.55686214],0.005,0.1,4.118217367695132,0.3815216524124488,0
6.8114519119262695,0.28645451873595856,[0.5617801],0.005,0.1,3.174738311630043,0.40116010363140603,0
6.81890344619751,0.28938549948700865,[0.56684629],0.005,0.1,1.9311993199751964,0.2974302820786441,0
6.828951835632324,0.29368427125521535,[0.57203505],0.005,0.1,0.8041390456350772,0.33769007110019156,0
6.839509010314941,0.29798304302342216,[0.57733317],0.005,0.1,-0.08092329815262977,0.3680626618098983,0
6.848917484283447,0.30189101735815554,[0.58273809],0.005,0.1,-0.44289102372626343,0.389588886305579,0
6.858081340789795,0.3052127955426789,[0.58824572],0.005,0.1,-0.8383720817700544,0.4054701782602297,0
6.866434574127197,0.308729972443939,[0.59385094],0.005,0.1,-1.4354809265382316,0.418484073755778,0
6.875629425048828,0.31205175062846235,[0.59953792],0.005,0.1,-1.6907991073285982,0.30896248245671387,0
6.8842363357543945,0.31556892752972243,[0.60528222],0.005,0.1,-1.4912222910013182,0.3511722910177975,0
6.892915964126587,0.3188907057142458,[0.61107329],0.005,0.1,-1.4412325728910673,0.3878017992712132,0
6.902064561843872,0.3224078826155059,[0.61691265],0.005,0.1,-1.4316131559729115,0.41830615297831547,0
6.91247034072876,0.3263158569502393,[0.6228124],0.005,0.1,-1.4196413073813616,0.5968450441244983,0
6.920887470245361,0.32983303385149937,[0.62878264],0.005,0.1,-1.392150931334807,0.42393406827145397,0
6.930923700332642,0.33413180561970607,[0.63481015],0.005,0.1,-1.3481809497205608,0.45089217722925157,0
6.9389564990997314,0.3372581850874929,[0.64088341],0.005,0.1,-1.2910806602235765,0.47551795604776087,0
6.947067737579346,0.34057996327201623,[0.64699216],0.005,0.1,-1.2251084986701803,0.3545694669131283,0
6.962539911270142,0.3464419247741163,[0.65313822],0.005,0.1,-1.1541130030255893,0.7287470513247709,0
6.969975709915161,0.34956830424190305,[0.65934421],0.005,0.1,-1.0811397819398723,0.5070069323489939,0
6.979840993881226,0.3536716772933732,[0.66560686],0.005,0.1,-0.7323826082065107,0.5170555531959791,0
6.9920268058776855,0.3585566452117899,[0.67192245],0.005,0.1,-0.6283366331100608,0.6980085958866853,0
7.000030040740967,0.36187842339631326,[0.67828716],0.005,0.1,-0.6153163596457014,0.7070835178147754,0
7.008700132369995,0.36500480286410003,[0.68466474],0.005,0.1,-0.9027347774280216,0.6641134136358625,0
7.016926288604736,0.3685219797653601,[0.69102444],0.005,0.1,-0.9454137774053288,0.4709505783372241,0
7.02590537071228,0.37203915666662013,[0.69735119],0.005,0.1,-0.6137943498462768,0.4981360450912323,0
7.0346314907073975,0.37516553613440684,[0.70364324],0.005,0.1,-0.49333134733720463,0.52085093372384,0
7.0443360805511475,0.37926890918587697,[0.7099101],0.005,0.1,-0.7338670676815131,0.5365374826630916,0
7.053170680999756,0.3829814848038737,[0.71615994],0.005,0.1,-0.7600978254283235,0.5491994647001012,0
7.062328577041626,0.3866940604218704,[0.72239982],0.005,0.1,-0.7032173673418223,0.5602445704582135,0
7.072050333023071,0.3906020347566038,[0.72864678],0.005,0.1,-0.6219437763852182,0.756188252285516,0
7.080799341201782,0.3941192116578639,[0.73491541],0.005,0.1,-0.5407942536096464,0.5324741537674526,0
7.090255498886108,0.3976363885591239,[0.74119663],0.005,0.1,-0.46861355907238,0.5557727884296352,0
7.100764989852905,0.4019351603273307,[0.74748302],0.005,0.1,-0.4074117964811064,0.5762712593228893,0
7.110920429229736,0.40603853337880075,[0.75377952],0.005,0.1,-0.35648464331096474,0.5952728728088171,0
7.120635509490967,0.4097511089967975,[0.76009064],0.005,0.1,-0.31426425775704625,0.6119099731032758,0
7.130460739135742,0.41365908333153095,[0.76642044],0.005,0.1,-0.5551365132163646,0.6270961039365833,0
7.14102029800415,0.417762456383001,[0.77277239],0.005,0.1,-0.5586988727074018,0.6396910162144833,0
7.149427175521851,0.4212796332842611,[0.77914936],0.005,0.1,-0.47846621092090347,0.6516847719824411,0
7.1597278118133545,0.42499220890225775,[0.78555356],0.005,0.1,-0.10471580381268267,0.6613445545655747,0
7.170989513397217,0.42968177810393793,[0.79198643],0.005,0.1,0.017752969905636615,0.666693875489506,0
7.18298602104187,0.43437134730561794,[0.79845943],0.005,0.1,-0.24021140465170715,0.879464803835638,0
7.1910223960876465,0.4374977267734046,[0.80498111],0.005,0.1,-0.2927411252533422,0.6159269923948106,0
7.200187683105469,0.4414057011081381,[0.81153533],0.005,0.1,-0.2656273468639483,0.6261313769066383,0
7.208338975906372,0.44492287800939817,[0.81810682],0.005,0.1,-0.21483245153095054,0.6324803024725738,0
7.216885328292847,0.4484400549106582,[0.82468173],0.005,0.1,-0.1634852772371005,0.46625224255133274,0
7.224912405014038,0.4515664343784449,[0.83123686],0.005,0.1,-0.11975440890680232,0.5112379359734504,0
7.232863187789917,0.454497415129495,[0.83775213],0.005,0.1,-0.08534780317269285,0.3936307438956086,0
7.245944976806641,0.45977318048138505,[0.84422017],0.005,0.1,-0.059456691445911314,0.6055133576995361,0
7.2539098262786865,0.4627041612324352,[0.85065371],0.005,0.1,-0.04051339972029023,0.5960224262639926,0
7.263906717300415,0.46661213556716846,[0.85705241],0.005,0.1,-0.3029587303448938,0.4335779196787787,0
7.272182464599609,0.4703247111851653,[0.86340343],0.005,0.1,-0.3264727201047865,0.5939226528345832,0
7.279876708984375,0.4732556919362153,[0.86970328],0.005,0.1,-0.26466548741065193,0.42464548731581353,0
7.288943529129028,0.4767728688374754,[0.87594641],0.005,0.1,-0.18395220944921506,0.5488165767966747,0
7.297540187835693,0.47989924830526204,[0.88212563],0.005,0.1,-0.1102792812109793,0.3892646900812349,0
7.305894136428833,0.4832210264897855,[0.88821811],0.005,0.1,-0.051547850574363785,0.29314452877885544,0
7.316256284713745,0.4869336021077822,[0.89419563],0.005,0.1,-0.008167979779524777,0.31054374399337137,0
7.324573755264282,0.490646177725779,[0.90004851],0.005,0.1,0.022124529052560453,0.3131406620242607,0
7.332876205444336,0.4941633546270391,[0.90576803],0.005,0.1,0.04218183630591214,0.23835169376566206,0
7.341869592666626,0.49787593024503574,[0.91133876],0.005,0.1,0.0546263382371138,0.24435409559473195,0
7.34986424446106,0.5011977084295592,[0.91674714],0.005,0.1,0.06159954542885271,0.19173406837855916,0
7.357987642288208,0.504324087897346,[0.92198142],0.005,0.1,0.06474689180282814,0.1980608130648176,0
7.369922399520874,0.5092090558157627,[0.92704074],0.005,0.1,0.06528735248081108,0.23432408458550233,0
7.378917217254639,0.5129216314337594,[0.93193294],0.005,0.1,0.06410226020613123,0.20987066128692972,0
7.38869047164917,0.5164388083350194,[0.93665857],0.005,0.1,0.061817480290392926,0.18858922127169617,0
7.398401260375977,0.5203467826697529,[0.94121296],0.005,0.1,0.058870899374769345,0.17120067575002493,0
7.408466577529907,0.5242547570044862,[0.94559259],0.005,0.1,0.055564618118610666,0.1584799129521692,0
7.416881084442139,0.5277719339057463,[0.9497924],0.005,0.1,0.05210393137413974,0.12924794542181425,0
7.426035165786743,0.5312891108070064,[0.95381058],0.005,0.1,0.048625809367308814,0.1538119792696075,0
7.434849739074707,0.5346108889915298,[0.95765205],0.005,0.1,0.045219406674901416,0.128429014083732,0
7.443916082382202,0.5381280658927898,[0.96131653],0.005,0.1,-0.23409767844544277,0.11375952089630703,0
7.451905012130737,0.5412544453605765,[0.96480327],0.005,0.1,-0.2703402253147654,0.1239223845839996,0
7.459895849227905,0.5443808248283633,[0.96812232],0.005,0.1,-0.21818260425825073,0.13285975671354067,0
7.469712972640991,0.54809340044636,[0.97128868],0.005,0.1,-0.14485188587928846,0.13873564643539527,0
7.479247093200684,0.5514151786308834,[0.9743168],0.005,0.1,-0.3529364037026391,0.14161074108058938,0
7.487849712371826,0.5549323555321435,[0.97721608],0.005,0.1,-0.6078653323522962,0.12069780224476034,0
7.49821662902832,0.5586449311501402,[0.97999458],0.005,0.1,-0.8221472808562286,0.14345688612937124,0
7.50586724281311,0.561771310617927,[0.98266279],0.005,0.1,-0.9727615641673288,0.11888657242350847,0
7.515784740447998,0.5652884875191869,[0.98522585],0.005,0.1,-1.0625850066872031,0.1161277793787866,0
7.526925563812256,0.5691964618539204,[0.98768676],0.005,0.1,-1.3790546839919968,0.11063290948542936,0
7.5361857414245605,0.5723228413217071,[0.99004986],0.005,0.1,-1.415788194322983,0.10405748853591289,0
7.545917510986328,0.5758400182229672,[0.99231722],0.005,0.1,-1.3384778335935943,0.09669739284161563,0
7.558964967727661,0.5803341887079105,[0.99449099],0.005,0.1,-1.223072580918321,0.09583772695948385,0
7.567899465560913,0.5832651694589607,[0.99657189],0.005,0.1,-1.3786892597523397,0.08272187700527808,0
7.577003240585327,0.586000751493274,[0.9985544],0.005,0.1,-1.299425200758291,0.07597683886691743,0
7.587114095687866,0.5891271309610607,[1.0004306],0.005,0.1,-1.6960733323407151,0.07263037533556804,0
7.601182699203491,0.5936213014460042,[1.00219427],0.005,0.1,-1.8742108046212533,0.06960837005742829,0
7.61020040512085,0.5961614847635809,[1.00383982],0.005,0.1,-1.925651195217853,0.0689097531159148,0
7.617890357971191,0.5985062693644211,[1.00536286],0.005,0.1,-1.6273752772776149,0.06884887513915401,0
7.626670837402344,0.6010464526819976,[1.00676089],0.005,0.1,-1.8057113484271414,0.06884455742160081,0
7.635949611663818,0.6035866359995743,[1.00803293],0.005,0.1,-1.8059257306854148,0.06887264239746009,0
7.643836736679077,0.6057360218836778,[1.00917842],0.005,0.1,-1.727073087723363,0.07014743962528382,0
7.65588116645813,0.6088624013514644,[1.01019538],0.005,0.1,-1.893056347429181,0.07245545315132354,0
7.663878917694092,0.6110117872355679,[1.0110813],0.005,0.1,-1.8075849126020962,0.07376375169128295,0
7.6736907958984375,0.6135519705531445,[1.01183414],0.005,0.1,-1.63569361980136,0.07825343465377645,0
7.682881593704224,0.6158967551539846,[1.0124526],0.005,0.1,-1.449006154927635,0.07803722267841083,0
7.692883253097534,0.6180461410380881,[1.01293962],0.005,0.1,-1.551675226791949,0.07403606987961633,0
7.701873779296875,0.6201955269221914,[1.01330249],0.005,0.1,-1.4333515174314972,0.07310259211334524,0
7.709918975830078,0.6219541153728214,[1.01354901],0.005,0.1,-1.2491494190859878,0.07126773263237318,0
7.720205783843994,0.6242988999736614,[1.01368733],0.005,0.1,-1.063743085143934,0.06930167402883679,0
7.728079080581665,0.6258620897075547,[1.01372754],0.005,0.1,-0.9004112737670059,0.06550106387418113,0
7.73587965965271,0.6276206781581847,[1.01368201],0.005,0.1,-0.7644155675324955,0.06266491887180073,0
7.747265815734863,0.6299654627590249,[1.01356391],0.005,0.1,-0.9299266442066804,0.06015184769305534,0
7.756491422653198,0.6317240512096549,[1.01338581],0.005,0.1,-0.873878321000249,0.05831664597072238,0
7.764858722686768,0.633482639660285,[1.01315943],0.005,0.1,-0.7466505125893781,0.05694593435954175,0
7.774887323379517,0.6352412281109149,[1.01289472],0.005,0.1,-0.33567802771106303,0.05616463189186144,0
7.784412860870361,0.636999816561545,[1.01259964],0.005,0.1,-0.18343475248325875,0.055234405918863624,0
7.793868780136108,0.6385630062954383,[1.01228015],0.005,0.1,-0.41726564770507324,0.05517169718371208,0
7.8018903732299805,0.6397353985958584,[1.01193938],0.005,0.1,-0.44993900826839367,0.056003752379300345,0
7.809873104095459,0.6409077908962785,[1.01157996],0.005,0.1,-0.4062324360653611,0.055265996409634636,0
7.819229364395142,0.642275581913435,[1.01120484],0.005,0.1,-0.3413609849974263,0.056957001627389016,0
7.830191135406494,0.6438387716473285,[1.01081056],0.005,0.1,-0.553942046496601,0.06464418250570801,0
7.839335680007935,0.6452065626644852,[1.01038712],0.005,0.1,-0.5327867511208442,0.06911933281440497,0
7.846837997436523,0.6461835562481684,[1.00992746],0.005,0.1,-0.7100327736180713,0.06611034773985175,0
7.855865001678467,0.6473559485485886,[1.00942795],0.005,0.1,-0.35689016355510533,0.07323119418504669,0
7.866690397262573,0.6485283408490086,[1.00887823],0.005,0.1,-0.44785354711439274,0.09546845607555941,0
7.87489128112793,0.6495053344326919,[1.00826553],0.005,0.1,-0.10708505582110273,0.08505103434567572,0
7.883861541748047,0.6502869292996385,[1.00758792],0.005,0.1,0.03320174682021426,0.07844867658367853,0
7.893443584442139,0.6514593216000585,[1.00684661],0.005,0.1,0.08188053225186748,0.08923697407971616,0
7.903779983520508,0.652436315183742,[1.00603547],0.005,0.1,-0.18520835915569653,0.09915099604782943,0
7.914893865585327,0.6534133087674253,[1.00514558],0.005,0.1,0.051071666529173734,0.10775917886810417,0
7.9233458042144775,0.654194903634372,[1.00416943],0.005,0.1,0.40393041863933965,0.11493437595413172,0
7.931869983673096,0.6549764985013187,[1.00310509],0.005,0.1,0.4463988330551603,0.09794127976792222,0
7.941792726516724,0.6559534920850019,[1.0019512],0.005,0.1,0.6515341336764229,0.13448233026903636,0
7.954004764556885,0.6567350869519486,[1.00069818],0.005,0.1,0.5862156952550043,0.1393324206349415,0
7.962986946105957,0.6575166818188953,[0.99933741],0.005,0.1,0.7152254274975205,0.14590079138744996,0
7.971873760223389,0.6582982766858421,[0.99786498],0.005,0.1,0.8737142764377772,0.15425379559591285,0
7.981340169906616,0.6590798715527887,[0.99627672],0.005,0.1,1.2771363080174991,0.16399655020226236,0
7.989478349685669,0.6598614664197354,[0.99456846],0.005,0.1,1.391412643032085,0.17410609813581165,0
7.99688458442688,0.660643061286682,[0.9927421],0.005,0.1,1.6502129680622057,0.14078562094267202,0
8.00485110282898,0.6610338587201554,[0.99081104],0.005,0.1,1.8865754005048652,0.12013525791753636,0
8.014503479003906,0.6620108523038388,[0.98878712],0.005,0.1,2.0481650645642175,0.1443970113662725,0
8.023083209991455,0.6627924471707854,[0.98666882],0.005,0.1,2.130397880258081,0.16595185158484108,0
8.031836986541748,0.6637694407544688,[0.98445521],0.005,0.1,2.145888781233314,0.13746303706362006,0
8.043265581130981,0.6647464343381523,[0.98214478],0.005,0.1,2.387233208787743,0.2198799022256154,0
8.052273988723755,0.6657234279218355,[0.97972229],0.005,0.1,2.3507618724812165,0.23379963920527452,0
8.059927225112915,0.6667004215055189,[0.97718129],0.005,0.1,2.203554271639935,0.1834147084748545,0
8.068840742111206,0.6674820163724656,[0.97452979],0.005,0.1,2.298254746197272,0.21025013601625075,0
8.07921552658081,0.6686544086728856,[0.97176753],0.005,0.1,2.149239114234023,0.2313884697175946,0
8.090271472930908,0.6700221996900422,[0.96888036],0.005,0.1,2.200307356352069,0.31912228715388175,0
8.098248720169067,0.6709991932737257,[0.96585079],0.005,0.1,2.2796959516456106,0.30158840091209954,0
8.105865001678467,0.671976186857409,[0.96268157],0.005,0.1,2.325763516136154,0.21836215748444815,0
8.116134405136108,0.673734775308039,[0.95939283],0.005,0.1,2.3244397092612985,0.22033820920225192,0
8.124815702438354,0.6749071676084589,[0.95599778],0.005,0.1,2.5562524872805357,0.21667188394108908,0
8.13578200340271,0.6766657560590891,[0.95250399],0.005,0.1,2.7884157879646514,0.20727775586126315,0
8.145813941955566,0.6782289457929824,[0.94892158],0.005,0.1,3.2191583000399984,0.1948942697251896,0
8.154884099960327,0.6795967368101391,[0.94526264],0.005,0.1,3.0412956219311598,0.18096431143946298,0
8.163830518722534,0.6809645278272958,[0.9415406],0.005,0.1,3.2168371533178544,0.16718636143275642,0
8.174936771392822,0.6827231162779259,[0.9377695],0.005,0.1,3.158181543680194,0.15426237240153334,0
8.182878732681274,0.6840909072950825,[0.93396315],0.005,0.1,2.997360841939644,0.14358391432288717,0
8.192848682403564,0.6856540970289758,[0.93013964],0.005,0.1,2.5221922240907046,0.10480247181936778,0
8.204562425613403,0.6876080841963426,[0.92631466],0.005,0.1,2.0058193079570934,0.13765909267462917,0
8.21485447883606,0.689171273930236,[0.92249609],0.005,0.1,1.2741812704670508,0.10079076330927782,0
8.224233150482178,0.6907344636641293,[0.91868944],0.005,0.1,0.5969489157777133,0.1374050271664631,0
8.231863737106323,0.6917114572478126,[0.91489781],0.005,0.1,0.058745951351870496,0.10207546580033738,0
8.242818832397461,0.693274646981706,[0.9111274],0.005,0.1,-0.6091742972631504,0.11132407916339426,0
8.250861883163452,0.6946424379988627,[0.90737988],0.005,0.1,-0.9086102129043644,0.12345063016150062,0
8.259445905685425,0.6960102290160194,[0.90364645],0.005,0.1,-1.2976363864800164,0.13836608475898055,0
8.26686406135559,0.6967918238829661,[0.8999227],0.005,0.1,-1.6260240134934483,0.10971420981627307,0
8.275565385818481,0.6979642161833861,[0.89621695],0.005,0.1,-1.8529800912193413,0.09202675871358229,0
8.287973165512085,0.6995274059172796,[0.8925243],0.005,0.1,-1.9819177942121065,0.17682319185001433,0
8.296868085861206,0.7006997982176995,[0.88882098],0.005,0.1,-2.307050763120305,0.13843398462288567,0
8.308306217193604,0.7020675892348561,[0.88508263],0.005,0.1,-2.3298603747246114,0.23721593145576558,0
8.31783938407898,0.702849184101803,[0.88128471],0.005,0.1,-2.2230297145755484,0.17949944126391865,0
8.327471733093262,0.7042169751189595,[0.87741425],0.005,0.1,-2.068076355775294,0.20869563956730075,0
8.335840225219727,0.7051939687026428,[0.87346856],0.005,0.1,-1.902251709912127,0.16295340358338475,0
8.346992492675781,0.7065617597197996,[0.86943277],0.005,0.1,-1.7416061718097329,0.2791859868427611,0
8.35530972480774,0.7073433545867464,[0.86526988],0.005,0.1,-1.3162133249053811,0.2901996913157931,0
8.367822885513306,0.7091019430373763,[0.86093524],0.005,0.1,-0.8706019255797642,0.3926533804438054,0
8.377851486206055,0.7102743353377963,[0.85639005],0.005,0.1,-0.49269909513940047,0.36441921016964796,0
8.38681173324585,0.711642126354953,[0.85161535],0.005,0.1,0.07355078715658192,0.3384660383012919,0
8.397706031799316,0.7135961135223197,[0.84661035],0.005,0.1,0.8680166927466594,0.312986742158709,0
8.407838821411133,0.7153547019729498,[0.84137815],0.005,0.1,1.5746034354623502,0.2886859450633685,0
8.419885873794556,0.7176994865737898,[0.83591316],0.005,0.1,2.651823084748316,0.34189499914380284,0
8.430357933044434,0.7200442711746298,[0.83020205],0.005,0.1,3.3358545598899183,0.2928212845642894,0
8.438818454742432,0.7218028596252599,[0.82426054],0.005,0.1,3.723283207961458,0.1939413054302249,0
8.448349475860596,0.7239522455093631,[0.81811642],0.005,0.1,4.172953263765974,0.24222765811827549,0
8.461232900619507,0.7268832262604134,[0.811759],0.005,0.1,4.507152303092483,0.26302882278735207,0
8.468907356262207,0.7286418147110434,[0.80518184],0.005,0.1,4.134509310646551,0.16516239974117983,0
8.47785758972168,0.7304004031616733,[0.7984188],0.005,0.1,3.5554512408068453,0.14420006620556255,0
8.486819744110107,0.7327451877625135,[0.79151305],0.005,0.1,3.2533214941049104,0.09145506620700562,0
8.497140884399414,0.7350899723633534,[0.78450308],0.005,0.1,2.506650742040101,0.08179995675283279,0
8.507864713668823,0.7372393582474569,[0.77741077],0.005,0.1,1.7286254202362352,0.06787891169921935,0
8.5162034034729,0.7389979466980869,[0.77024383],0.005,0.1,0.7915468733976584,0.05134429213204146,0
8.525138139724731,0.7407565351487168,[0.76301013],0.005,0.1,-0.02820045048357861,0.03273895745515193,0
8.53379225730896,0.741928927449137,[0.75572965],0.005,0.1,-0.9301150833079919,0.012220372967819967,0
8.542791843414307,0.7434921171830302,[0.74843233],0.005,0.1,-1.952000788054417,-0.003006180846207305,0
8.551898956298828,0.744859908200187,[0.74113237],0.005,0.1,-2.7949348846012576,-0.02025663592081081,0
8.559836149215698,0.7460323005006069,[0.73383065],0.005,0.1,-3.6625882260274314,-0.03822554423130388,0
8.569425582885742,0.7470092940842904,[0.72652884],0.005,0.1,-4.329395970721447,-0.055912983522427524,0
8.577814817428589,0.7475954902345003,[0.71924071],0.005,0.1,-5.0,-0.05117417991632769,0
8.585787057876587,0.7481816863847104,[0.71199005],0.005,0.1,-5.0,-0.06967796045813408,0
8.595263242721558,0.7487678825349204,[0.70478597],0.005,0.1,-5.0,-0.08758574804100153,0
8.605791807174683,0.7487678825349204,[0.69762529],0.005,0.1,-5.0,-0.10305189385152808,0
8.61559510231018,0.748963281251657,[0.69050601],0.005,0.1,-5.0,-0.11714556874993508,0
8.625797033309937,0.7485724838181836,[0.6834272],0.005,0.1,-5.0,-0.1285570052371301,0
8.635457038879395,0.7481816863847104,[0.67638888],0.005,0.1,-5.0,-0.13843795417697316,0
8.645801067352295,0.7477908889512369,[0.66939184],0.005,0.1,-5.0,-0.14691703346905402,0
8.654834270477295,0.7474000915177638,[0.66243755],0.005,0.1,-5.0,-0.15405999250658992,0
8.664478540420532,0.7464230979340803,[0.65552801],0.005,0.1,-5.0,-0.15938199187521196,0
8.671850681304932,0.7456415030671336,[0.64867543],0.005,0.1,-5.0,-0.11985144220465811,0
8.681225538253784,0.7446645094834503,[0.64190999],0.005,0.1,-4.8939451119086685,-0.09467503780845868,0
8.693931579589844,0.743101319749557,[0.63524734],0.005,0.1,-5.0,-0.16008369503549807,0
8.702802181243896,0.741928927449137,[0.62868073],0.005,0.1,-4.60598321247798,-0.11994722594494094,0
8.714022397994995,0.7403657377152436,[0.62220441],0.005,0.1,-4.268025372444172,-0.1837316678382535,0
8.726140975952148,0.7384117505478769,[0.6157954],0.005,0.1,-3.409037479281318,-0.23687625552335054,0
8.735086679458618,0.7368485608139834,[0.60943459],0.005,0.1,-2.5045771589604744,-0.1646864376528602,0
8.743518352508545,0.7352853710800901,[0.60313383],0.005,0.1,-1.4512288923694991,-0.16697216411453367,0
8.752901315689087,0.7331359851959867,[0.59690348],0.005,0.1,-1.0847368503807713,-0.16807766030986784,0
8.76286268234253,0.7311819980286202,[0.59074339],0.005,0.1,-0.719990798808566,-0.16871342382981291,0
8.771055698394775,0.7290326121445166,[0.58465354],0.005,0.1,-0.4164688163634959,-0.16859827123496357,0
8.780875205993652,0.7266878275436768,[0.57863395],0.005,0.1,-0.7374092544029289,-0.16774655904270866,0
8.791873216629028,0.7239522455093631,[0.57268463],0.005,0.1,-0.6375222782006791,-0.16623357740180036,0
8.801179885864258,0.7212166634750498,[0.56680554],0.005,0.1,-0.689495492431321,-0.16472024097893845,0
8.808992624282837,0.7190672775909466,[0.56099652],0.005,0.1,-0.22014211201097744,-0.16372709178761793,0
8.81781554222107,0.7167224929901064,[0.55526528],0.005,0.1,0.05450463527255178,-0.1180905170289091,0
8.82681155204773,0.713986910955793,[0.54962602],0.005,0.1,0.4896572687575794,-0.1288378128161682,0
8.834791421890259,0.7114467276382163,[0.54408998],0.005,0.1,0.6118995503335656,-0.09667691598917297,0
8.84379506111145,0.7089065443206396,[0.53866581],0.005,0.1,0.8788542301700641,-0.1122139861521611,0
8.855895757675171,0.7053893674193795,[0.53334454],0.005,0.1,0.8551003026368226,-0.16748709753367422,0
8.865410804748535,0.7024583866683295,[0.52809514],0.005,0.1,1.008028605808863,-0.21212393585336634,0
8.8728609085083,0.7001136020674896,[0.52289895],0.005,0.1,1.452734226074281,-0.14451624054972467,0
8.881791114807129,0.6969872225997028,[0.51777026],0.005,0.1,1.6134269042017644,-0.10370554234223463,0
8.891652584075928,0.693274646981706,[0.51272823],0.005,0.1,1.632774683266219,-0.11364761827763456,0
8.902949571609497,0.6893666726469726,[0.50777366],0.005,0.1,1.5833400306108996,-0.12033183995456728,0
8.913973569869995,0.6854586983122393,[0.50289933],0.005,0.1,1.778188298257703,-0.12436902878026934,0
8.923794507980347,0.6819415214109791,[0.49809874],0.005,0.1,1.9933362358097693,-0.1267404947578813,0
8.934332609176636,0.6782289457929824,[0.49336608],0.005,0.1,1.874184164428076,-0.12743436460199706,0
8.943305969238281,0.6747117688917224,[0.48869613],0.005,0.1,1.923574533437785,-0.12738797286844675,0
8.95215106010437,0.6711945919904623,[0.48408427],0.005,0.1,1.9947685037403666,-0.1266199176670851,0
8.960389375686646,0.6682636112394121,[0.47952641],0.005,0.1,2.311557516935638,-0.12582523058188594,0
8.973119735717773,0.662987845887522,[0.47501236],0.005,0.1,2.343461171553269,-0.16288838781551704,0
8.980945587158203,0.6602522638532087,[0.47053353],0.005,0.1,2.52548687195163,-0.1111760664899543,0
8.989120960235596,0.6569304856686854,[0.46609613],0.005,0.1,2.414922785873607,-0.11222692569009414,0
8.998772144317627,0.6534133087674253,[0.4617054],0.005,0.1,2.4782112511531946,-0.1123798944255026,0
9.008521318435669,0.6497007331494286,[0.45735912],0.005,0.1,2.5557168945530004,-0.11164710957280471,0
9.016765594482422,0.6465743536816418,[0.45306177],0.005,0.1,2.5924057943268544,-0.08013460789158391,0
9.025763511657715,0.6428617780636451,[0.44882334],0.005,0.1,2.3018335824855947,-0.08727625697086165,0
9.03556489944458,0.6389538037289116,[0.44464563],0.005,0.1,2.209508369642895,-0.09204948084063536,0
9.044476509094238,0.6356320255443884,[0.44052354],0.005,0.1,2.4480847401608146,-0.09516484225069964,0
9.053757429122925,0.6317240512096549,[0.43645262],0.005,0.1,2.718504893240574,-0.09652094798355253,0
9.06177282333374,0.6285976717418682,[0.43243495],0.005,0.1,2.6391384968224734,-0.06992998426784344,0
9.070756435394287,0.6248850961238713,[0.4284841],0.005,0.1,2.7065891445023604,-0.05362207299101112,0
9.082813501358032,0.6201955269221914,[0.42460504],0.005,0.1,2.499981827909854,-0.08977882142434752,0
9.094327449798584,0.6157013564372479,[0.42077774],0.005,0.1,2.4904218147180277,-0.1202532292787635,0
9.102797508239746,0.6123795782527245,[0.41698508],0.005,0.1,2.7922807336297195,-0.08256434327774598,0
9.11088514328003,0.6092531987849378,[0.41323026],0.005,0.1,2.82751762560327,-0.08418560828479149,0
9.119369506835938,0.6059314206004144,[0.40951597],0.005,0.1,2.736277003920531,-0.0850444925466142,0
9.126811981201172,0.6030004398493644,[0.40584424],0.005,0.1,2.588811016913188,-0.06165038397273584,0
9.136856079101562,0.5990924655146309,[0.40222226],0.005,0.1,2.42019326759969,-0.067609547376412,0
9.145185708999634,0.5957706873301075,[0.39865024],0.005,0.1,2.5237980636605952,-0.07195432694273196,0
9.15476369857788,0.5922535104288476,[0.39512253],0.005,0.1,2.3890496716379976,-0.0745074400033791,0
9.164989471435547,0.5883455360941141,[0.39162886],0.005,0.1,2.1744851514771364,-0.10076796899674831,0
9.172800779342651,0.5852191566263274,[0.38816595],0.005,0.1,1.9488932750685648,-0.10123657824512697,0
9.181803226470947,0.581897378441804,[0.38474184],0.005,0.1,2.0152646868437865,-0.12094668940361519,0
9.192859411239624,0.5775986066735972,[0.38135787],0.005,0.1,1.862816173256029,-0.0801048447218737,0
9.200773000717163,0.5744722272058105,[0.37802011],0.005,0.1,1.6465190672039878,-0.0567876246474798,0
9.20877981185913,0.5711504490212871,[0.37473868],0.005,0.1,1.431000935721877,-0.060781232413480206,0
9.218217611312866,0.5678286708367637,[0.37151131],0.005,0.1,1.5155484274829152,-0.06344390939000291,0
9.22789454460144,0.5643114939355037,[0.36833059],0.005,0.1,1.3864280856852185,-0.06500019492629869,0
9.238828897476196,0.5600127221672969,[0.36519001],0.005,0.1,1.1964024293949227,-0.06513145847016066,0
9.248852968215942,0.5559093491158269,[0.362084],0.005,0.1,1.0085133073804096,-0.06472245361782702,0
9.258833169937134,0.5520013747810935,[0.35900786],0.005,0.1,0.8449089228968922,-0.06397815751840302,0
9.267817974090576,0.5484841978798334,[0.35595764],0.005,0.1,0.986108509554047,-0.06318509598705692,0
9.27580976486206,0.54574861584552,[0.35293006],0.005,0.1,0.9107553916604603,-0.06249698473132631,0
9.285830736160278,0.5420360402275233,[0.34991769],0.005,0.1,1.0450986902800374,-0.08080195609753446,0
9.293768644332886,0.5389096607597365,[0.34691917],0.005,0.1,0.9328594643170334,-0.08096597879534038,0
9.301872491836548,0.5359786800086865,[0.34394762],0.005,0.1,0.7513518047996779,-0.07351285629039545,0
9.309765577316284,0.5330476992576364,[0.34101398],0.005,0.1,0.8490483030071256,-0.050923569207230825,0
9.318825960159302,0.529725921073113,[0.33812255],0.005,0.1,1.0078976257065362,-0.05208368022466076,0
9.328634023666382,0.5260133454551164,[0.33527207],0.005,0.1,0.868123655392266,-0.05251387825385886,0
9.33676815032959,0.5230823647040662,[0.33246118],0.005,0.1,0.6483325552225914,-0.038374234407696446,0
9.347902297973633,0.5189789916525962,[0.32968859],0.005,0.1,0.43675625760905684,-0.056528270228138076,0
9.355773210525513,0.5160480109015461,[0.32694856],0.005,0.1,0.5388219075525422,-0.040411814174354466,0
9.366879224777222,0.5121400365668127,[0.32423622],0.005,0.1,0.43998356855088194,-0.057065518901770654,0
9.375767469406128,0.5088182583822893,[0.32154749],0.005,0.1,0.5659919863750931,-0.04021729838420745,0
9.383758544921875,0.5058872776312392,[0.31888327],0.005,0.1,0.7336675566743233,-0.04197337384362018,0
9.394250392913818,0.5023701007299791,[0.31624023],0.005,0.1,0.5980592213547841,-0.05679062629395935,0
9.401790380477905,0.49963451869566583,[0.31361135],0.005,0.1,0.6594207011592066,-0.03967460421106484,0
9.4100821018219,0.49650813922787906,[0.3110034],0.005,0.1,0.48859637217806356,-0.02944588100573272,0
9.418832540512085,0.49338175976009235,[0.30843043],0.005,0.1,0.5456400384868655,-0.023270508314221595,0
9.42780089378357,0.4898645828588323,[0.30589994],0.005,0.1,0.6586712222186488,-0.027876884115231225,0
9.440250158309937,0.4851750136571522,[0.30340185],0.005,0.1,0.484312047306209,-0.05483707837755646,0
9.449778079986572,0.4824394316228388,[0.30091946],0.005,0.1,0.5207680352547515,-0.03772516558485367,0
9.46032977104187,0.4787268560048421,[0.2984509],0.005,0.1,0.6119306515111543,-0.03734135155809431,0
9.470771312713623,0.47560047653705534,[0.29599879],0.005,0.1,0.6960447371759375,-0.037003018098777804,0
9.482080221176147,0.47149710348558527,[0.29355782],0.005,0.1,0.7535549828677417,-0.04744237476367146,0
9.49076223373413,0.4685661227345353,[0.29112371],0.005,0.1,0.5064908259336924,-0.032723489540405375,0
9.500340223312378,0.46543974326674853,[0.28870067],0.005,0.1,0.47825637093909823,-0.03274563536559938,0
9.508230924606323,0.4627041612324352,[0.28629245],0.005,0.1,0.24407219028804727,-0.032678262252853876,0
9.5180823802948,0.4595777817646485,[0.28389863],0.005,0.1,0.2611766856944892,-0.03230805358614202,0
9.525742053985596,0.4572329971638084,[0.28152258],0.005,0.1,0.3528121604359863,-0.023735696647714674,0
9.535507440567017,0.4541066176960216,[0.27917077],0.005,0.1,0.4468021243971554,-0.025555138114397465,0
9.544168710708618,0.4513710356617082,[0.27684505],0.005,0.1,0.24229215556303418,-0.02676964706614736,0
9.552417039871216,0.44883085234413156,[0.27454337],0.005,0.1,0.2536529562592288,-0.02749132971097824,0
9.562735080718994,0.4453136754428715,[0.27226403],0.005,0.1,0.053283397458107895,-0.027558615933244355,0
9.573748588562012,0.4417964985416114,[0.27000564],0.005,0.1,0.09820583798029678,-0.02736174111664949,0
9.58605670928955,0.437888524206878,[0.26776376],0.005,0.1,0.21239856852954925,-0.03508413749178338,0
9.598773956298828,0.43378515115540794,[0.26552819],0.005,0.1,0.32465093084078267,-0.040528935773412864,0
9.609770059585571,0.43046337297088455,[0.26329076],0.005,0.1,0.4110547345702302,-0.03506066595284831,0
9.619218587875366,0.4275323922198345,[0.26105158],0.005,0.1,0.46778592291287824,-0.031288751738083265,0
9.627880096435547,0.42499220890225775,[0.25881436],0.005,0.1,0.22253181256215332,-0.02865055540512733,0
9.635759353637695,0.42245202558468103,[0.25658562],0.005,0.1,0.2000046949268108,-0.020291852389962308,0
9.64374303817749,0.42030263970057774,[0.25437724],0.005,0.1,-0.024962594721231482,-0.015457156341415201,0
9.653499841690063,0.4173716589495276,[0.25219913],0.005,0.1,0.003966076091037184,-0.017171838996642527,0
9.662865161895752,0.41483147563195094,[0.25005325],0.005,0.1,-0.16693315387451496,-0.018404595509627048,0
9.671773195266724,0.41209589359763754,[0.24793793],0.005,0.1,-0.09166455667194814,-0.01915739623233467,0
9.680266857147217,0.4097511089967975,[0.24585164],0.005,0.1,0.04966902209036729,-0.019638496297925523,0
9.687770366668701,0.4076017231126941,[0.24379589],0.005,0.1,-0.09121224299369929,-0.014848360578055409,0
9.699689865112305,0.404084546211434,[0.24177472],0.005,0.1,-0.01906634083575512,-0.01610123782361191,0
9.708755731582642,0.40154436289385737,[0.23978833],0.005,0.1,0.10819538385413711,-0.017075993536369825,0
9.71862530708313,0.3986133821428072,[0.23783365],0.005,0.1,-0.04831202857667614,-0.017587835807932235,0
9.72977614402771,0.39548700267502057,[0.23590789],0.005,0.1,0.01016140922313542,-0.017793328228570153,0
9.73877239227295,0.39314221807418054,[0.23400854],0.005,0.1,0.1266267907045506,-0.01793220424614981,0
9.748761177062988,0.3906020347566038,[0.23213333],0.005,0.1,0.23811763408149428,-0.01788812229180631,0
9.75774097442627,0.3880618514390271,[0.23028027],0.005,0.1,0.047927644659501084,-0.017720888927248303,0
9.768236875534058,0.3851308706879771,[0.22844758],0.005,0.1,0.07219575300926868,-0.017441765533422377,0
9.775742769241333,0.3829814848038737,[0.22663644],0.005,0.1,0.16004207921891386,-0.013000529063349133,0
9.783764123916626,0.3808320989197703,[0.22485052],0.005,0.1,-0.026289075029699308,-0.013946990556086284,0
9.794852495193481,0.37751032073524693,[0.22308735],0.005,0.1,0.010851369900435191,-0.01881667907762867,0
9.803085327148438,0.37555633356788015,[0.2213394],0.005,0.1,0.11276276879059015,-0.017863831672195084,0
9.812763214111328,0.37301615025030344,[0.21960566],0.005,0.1,0.2148140958412417,-0.012989255737490981,0
9.822240352630615,0.3706713656494634,[0.21788791],0.005,0.1,0.018904598791176078,-0.01766761865404015,0
9.829777717590332,0.3689127771988334,[0.21618497],0.005,0.1,0.04008602531337022,-0.012876597837764878,0
9.8390953540802,0.36637259388125676,[0.21449843],0.005,0.1,0.1266652258828711,-0.013260684766885772,0
9.848251104354858,0.36422320799715335,[0.21282967],0.005,0.1,-0.059705880801915134,-0.013499928447197327,0
9.85937213897705,0.36148762596283995,[0.21117723],0.005,0.1,-0.021801645904112016,-0.01351398895728646,0
9.867409706115723,0.3595336387954733,[0.20953989],0.005,0.1,0.08137906410353198,-0.013526355858060696,0
9.87575912475586,0.35757965162810657,[0.20791905],0.005,0.1,-0.09104044425284882,-0.010217395126201102,0
9.8837890625,0.35543026574400316,[0.20631836],0.005,0.1,-0.04231267132499543,-0.010978983894360738,0
9.891902923583984,0.35347627857663644,[0.20474314],0.005,0.1,-0.20716435830271243,-0.010956123073190853,0
9.902769327163696,0.3507406965423231,[0.20319772],0.005,0.1,-0.13094247886589677,-0.014778031516120387,0
9.914039611816406,0.3480051145080097,[0.20167581],0.005,0.1,0.009994241609748516,-0.017728847121725705,0
9.921737670898438,0.34605112734064297,[0.20016723],0.005,0.1,0.14487123311017774,-0.01585917956312489,0
9.93184518814087,0.3439017414565396,[0.19867055],0.005,0.1,-0.02560645098042677,-0.011232981838099537,0
9.941789627075195,0.34155695685569953,[0.1971893],0.005,0.1,0.014328056456289942,-0.011222112517010855,0
9.953505277633667,0.3390167735381229,[0.19572181],0.005,0.1,0.11425579647436243,-0.014296403595203205,0
9.96273946762085,0.3368673876540195,[0.19426207],0.005,0.1,-0.0628943424561856,-0.013171520144242789,0
9.970981121063232,0.3349134004866528,[0.19281187],0.005,0.1,-0.018811940223263914,-0.01312549748784856,0
9.97982668876648,0.3327640146025494,[0.19137954],0.005,0.1,0.08835742712279467,-0.01228977527969298,0
9.99172067642212,0.32983303385149937,[0.18996527],0.005,0.1,-0.08162003136467963,-0.014624654820233954,0
10.000717878341675,0.32787904668413265,[0.18856247],0.005,0.1,-0.307563610281564,-0.01307870046947849,0
10.009140968322754,0.325925059516766,[0.18716785],0.005,0.1,-0.22886987698043104,-0.011972015091809379,0
10.017861127853394,0.3239710723493993,[0.18578302],0.005,0.1,-0.3403266596272395,-0.008659841778522163,0
10.025765895843506,0.3224078826155059,[0.18441153],0.005,0.1,-0.4877511997908209,-0.008841633215664543,0
10.034138202667236,0.3208446928816125,[0.18305419],0.005,0.1,-0.336855321167601,-0.008956950696120363,0
10.041749000549316,0.3190861044309825,[0.1817116],0.005,0.1,-0.3905665804581239,-0.00689029404844413,0
10.052357912063599,0.3165459211134058,[0.18038426],0.005,0.1,-0.2192310402474599,-0.009505604508038348,0
10.062991857528687,0.3147873326627758,[0.17906841],0.005,0.1,-0.005353410754447466,-0.009230414667793055,0
10.070777654647827,0.31283334549540903,[0.17776293],0.005,0.1,-0.094388096865854,-0.006919675381318901,0
10.079731702804565,0.311074757044779,[0.17647098],0.005,0.1,-0.26291130107829136,-0.007252022225916203,0
10.088738918304443,0.309316168594149,[0.17519321],0.005,0.1,-0.14581710402735262,-0.007466243638491738,0
10.098729133605957,0.30736218142678234,[0.17392811],0.005,0.1,-0.23329055563957368,-0.00753401935281581,0
10.108286142349243,0.3054081942594156,[0.17267448],0.005,0.1,-0.09117698796869994,-0.007528638044759658,0
10.115847826004028,0.3038450045255222,[0.17143321],0.005,0.1,-0.17708221376916286,-0.005814243604125593,0
10.128517627716064,0.3015002199246822,[0.170207],0.005,0.1,-0.041924151921330574,-0.006153868864291815,0
10.13673210144043,0.29974163147405214,[0.16899805],0.005,0.1,0.13923934662112797,-0.004955311209414779,0
10.148198127746582,0.2973968468732121,[0.16780625],0.005,0.1,0.023086299218084777,-0.006963416963581598,0
10.157128810882568,0.29544285970584544,[0.16662778],0.005,0.1,0.10902772711521073,-0.006847896899172302,0
10.170770168304443,0.292707277671532,[0.16545764],0.005,0.1,-0.03363198764550183,-0.008349411610351314,0
10.180763483047485,0.2905578917874287,[0.16429179],0.005,0.1,0.05364601899295206,-0.007600176205019432,0
10.190175533294678,0.2887993033367986,[0.16312877],0.005,0.1,-0.07830096124601593,-0.007051399795186334,0
10.199718475341797,0.2868453161694319,[0.16196928],0.005,0.1,0.021209510199518944,-0.0066257022564628265,0
10.207750082015991,0.2854775251522752,[0.16081404],0.005,0.1,0.17608777739043532,-0.006338263146474633,0
10.219725847244263,0.2831327405514352,[0.15966377],0.005,0.1,0.31725455071642134,-0.006036594844544712,0
10.229748249053955,0.28137415210080513,[0.15851917],0.005,0.1,0.14733912179867378,-0.0058100874056904355,0
10.239657640457153,0.27942016493343846,[0.15738093],0.005,0.1,0.18380944546991973,-0.005608819523284354,0
10.250739812850952,0.27746617776607174,[0.15624966],0.005,0.1,0.0015625469529235159,-0.005416952838435528,0
10.26365327835083,0.2751213931652317,[0.15512598],0.005,0.1,0.059535222724810016,-0.005221262464681356,0
10.274897575378418,0.273167405997865,[0.15401043],0.005,0.1,-0.09290898933027743,-0.005061094411858826,0
10.284741401672363,0.27121341883049827,[0.15290349],0.005,0.1,-0.006989771424576664,-0.004919466040719253,0
10.295166254043579,0.26965022909660497,[0.15180561],0.005,0.1,0.13944169678352758,-0.004813425033575613,0
10.304705619812012,0.26808703936271155,[0.15071716],0.005,0.1,0.2758628302680121,-0.004718184114840462,0
10.314120292663574,0.2665238496288182,[0.14963847],0.005,0.1,0.10379190696760435,-0.004614433400304779,0
10.322745084762573,0.26476526117818816,[0.1485713],0.005,0.1,0.1398728736045991,-0.0035721182122533286,0
10.331799745559692,0.2633974701610315,[0.14752011],0.005,0.1,0.23444489065712343,-0.0029713488963601827,0
10.343435764312744,0.26144348299366477,[0.14648704],0.005,0.1,0.05103064433694407,-0.004131138415424829,0
10.350742101669312,0.2602710906932448,[0.14547074],0.005,0.1,0.08837951995815109,-0.003284987878735737,0
10.365274906158447,0.2581217048091414,[0.14446849],0.005,0.1,-0.08738107944167572,-0.005394315507163373,0
10.373758316040039,0.2567539137919847,[0.14347648],0.005,0.1,-0.021281483280317925,-0.00395468334487075,0
10.382744550704956,0.255386122774828,[0.14249438],0.005,0.1,-0.16564480929826333,-0.003911397179292993,0
10.390783786773682,0.254213730474408,[0.14152334],0.005,0.1,-0.07232206692421202,-0.0038854102161516462,0
10.401719093322754,0.2528459394572513,[0.14056284],0.005,0.1,-0.19536622645464854,-0.003836378605537506,0
10.414391279220581,0.2508919522898846,[0.13961102],0.005,0.1,-0.08631938369142973,-0.004658220265759758,0
10.425399780273438,0.24932876255599123,[0.13866355],0.005,0.1,0.0777776942896756,-0.005292278126535968,0
10.43351435661316,0.24796097153883453,[0.13771822],0.005,0.1,0.2274891708630455,-0.0038049792919433692,0
10.443798542022705,0.2462023830882045,[0.13677736],0.005,0.1,0.3413934331838172,-0.0036657010035103426,0
10.453237056732178,0.24463919335431117,[0.13584299],0.005,0.1,0.14199088179740454,-0.00355918784781193,0
10.463730573654175,0.24307600362041779,[0.13491411],0.005,0.1,-0.12211386942084937,-0.004282218476950462,0
10.472688436508179,0.24190361131999777,[0.1339899],0.005,0.1,-0.3554074598204539,-0.003181035984229975,0
10.481241703033447,0.24053582030284107,[0.13307234],0.005,0.1,-0.25415082506397324,-0.0031686885941921623,0
10.490723609924316,0.23936342800242105,[0.13216313],0.005,0.1,-0.3373963281889091,-0.0031584188940928363,0
10.499205112457275,0.23799563698526438,[0.13126233],0.005,0.1,-0.46018611817964317,-0.0031239814421021657,0
10.507009506225586,0.2368232446848443,[0.13036998],0.005,0.1,-0.29081851534607694,-0.0030986832855826466,0
10.51500415802002,0.23584625110116098,[0.12948734],0.005,0.1,-0.33210461405600944,-0.0024736211114390243,0
10.522725343704224,0.23486925751747764,[0.12861798],0.005,0.1,-0.15335323086068153,-0.002105978688230703,0
10.531720876693726,0.2336968652170576,[0.12776601],0.005,0.1,-0.21191066220735572,-0.0018725352577386458,0
10.541514158248901,0.2323290741999009,[0.12693349],0.005,0.1,-0.05717433225550181,-0.0021268032140254224,0
10.5517098903656,0.2311566818994809,[0.12611939],0.005,0.1,0.13752877813069414,-0.002333602706739323,0
10.56005573272705,0.2303750870325342,[0.12532021],0.005,0.1,0.030418895827115516,-0.003086586009214691,0
10.568718194961548,0.22959349216558755,[0.12453284],0.005,0.1,0.12214944044386326,-0.0024510036002126662,0
10.577728271484375,0.2286164985819042,[0.12375704],0.005,0.1,0.5350503654451344,-0.002568282088474838,0
10.590205192565918,0.22763950499822086,[0.12299253],0.005,0.1,0.9664963727946276,-0.002658546646100923,0
10.599685430526733,0.2270533088480108,[0.12223775],0.005,0.1,1.3103411987903042,-0.0027402508106484265,0
10.607694864273071,0.22627171398106416,[0.12149252],0.005,0.1,1.8209621927440867,-0.0022725708520809147,0
10.617075204849243,0.2256855178308541,[0.12075781],0.005,0.1,1.9903772179375436,-0.0024641176227256957,0
10.626211643218994,0.22529472039738077,[0.12003316],0.005,0.1,2.2698888994668565,-0.0026315896408401988,0
10.635690927505493,0.22470852424717075,[0.11931692],0.005,0.1,2.5045058180521256,-0.0027577675387587307,0
10.644680500030518,0.22451312553043412,[0.11860761],0.005,0.1,2.3739969789429263,-0.002868521575309851,0
10.653566122055054,0.22431772681369744,[0.11790399],0.005,0.1,2.3982647212182098,-0.002964089521619988,0
10.66406536102295,0.2239269293802241,[0.11720383],0.005,0.1,2.1629421153336894,-0.0036706345657837205,0
10.671705484390259,0.2239269293802241,[0.11650524],0.005,0.1,1.8627874070758033,-0.00293189463966246,0
10.679721355438232,0.22373153066348742,[0.11580899],0.005,0.1,1.5764327075377327,-0.0030272770184198326,0
10.690156698226929,0.22353613194675076,[0.11511577],0.005,0.1,1.6060501709079404,-0.003119913575254856,0
10.69972014427185,0.22334073323001408,[0.11442499],0.005,0.1,1.4364723909646795,-0.0031941704977546327,0
10.707878589630127,0.22334073323001408,[0.11373622],0.005,0.1,0.9416974924934219,-0.0032578958304138126,0
10.718743324279785,0.22314533451327742,[0.1130491],0.005,0.1,0.7009543423344817,-0.0033078764359185334,0
10.726744413375854,0.22314533451327742,[0.11236447],0.005,0.1,0.3033008018756198,-0.0027962681206449478,0
10.736311197280884,0.22294993579654077,[0.11168417],0.005,0.1,-0.07296332119516147,-0.002981359704093087,0
10.743931531906128,0.22294993579654077,[0.11100862],0.005,0.1,-0.36997430862919156,-0.003138396741745187,0
10.754687547683716,0.22294993579654077,[0.11033706],0.005,0.1,-0.580594007072167,-0.0032598523818394287,0
10.76577877998352,0.22275453707980408,[0.10966778],0.005,0.1,-0.9924491993496769,-0.003966903133132689,0
10.7747061252594,0.22275453707980408,[0.10899932],0.005,0.1,-1.3789403437169696,-0.003236351078156838,0
10.784730195999146,0.2225591383630674,[0.10833266],0.005,0.1,-1.6672836631027992,-0.003319636419102284,0
10.79271936416626,0.2225591383630674,[0.10766972],0.005,0.1,-1.8492307482040484,-0.002863427121467419,0
10.802719116210938,0.22236373964633074,[0.10701209],0.005,0.1,-1.940157530717972,-0.0030573523665535203,0
10.81069564819336,0.22236373964633074,[0.10635998],0.005,0.1,-1.9612177967525257,-0.003219528853940944,0
10.822734355926514,0.22216834092959406,[0.10571248],0.005,0.1,-1.932244980373114,-0.0033344452867668712,0
10.831732988357544,0.22216834092959406,[0.10506879],0.005,0.1,-1.8694794068040275,-0.003430163343059524,0
10.842712640762329,0.2219729422128574,[0.10442818],0.005,0.1,-1.7853242715163402,-0.003494798988764405,0
10.853408575057983,0.2219729422128574,[0.10378901],0.005,0.1,-1.6888472818017286,-0.0041841657294235425,0
10.860716819763184,0.22177754349612072,[0.1031509],0.005,0.1,-1.3104287559471215,-0.004228941375950408,0
10.868722677230835,0.2219729422128574,[0.10251777],0.005,0.1,-1.173437789975132,-0.0034931260440589306,0
10.879672288894653,0.22177754349612072,[0.10189284],0.005,0.1,-1.126133528340316,-0.003570938150826015,0
10.887654066085815,0.22158214477938404,[0.10127564],0.005,0.1,-1.103182592872603,-0.0036365395999971226,0
10.89568042755127,0.22158214477938404,[0.10066459],0.005,0.1,-1.0791959150550905,-0.0037036864068836156,0
10.903678178787231,0.22158214477938404,[0.10005831],0.005,0.1,-1.0464828460056077,-0.003760665842472769,0
10.912911176681519,0.22138674606264738,[0.09945555],0.005,0.1,-1.0046175679467622,-0.0037945641573109493,0
10.922923564910889,0.22138674606264738,[0.09885525],0.005,0.1,-0.9557042706027271,-0.0038371641802310307,0
