t_s,q_rad,q_des_rad,jerk
0.006417989730834961,-0.04396471126575081,0.005072080386148017,0.0
0.014917135238647461,-0.04376931254901414,0.024510621720655355,0.0
0.024981975555419922,-0.04376931254901414,0.06091371537627217,0.0
0.035482168197631836,-0.04318311639880412,0.11118229044389165,0.276038359678681
0.04299116134643555,-0.04279231896533078,0.17251532586977658,0.5852013225188036
0.05094265937805176,-0.0420107240983841,0.24240435814803957,1.1153053884457425
0.0591731071472168,-0.040642933081227406,0.31861875081297647,2.154525771736531
0.06806111335754395,-0.038493547197124035,0.39918885677317295,3.6864521464897524
0.0760183334350586,-0.03556256644607399,0.4823924126383729,5.0
0.08682847023010254,-0.031849990828077254,0.5667402565881013,5.0
0.09803056716918945,-0.027160421626397167,0.6509595640032988,5.0
0.10658764839172363,-0.023447846008400428,0.733975782601671,5.0
0.11699247360229492,-0.019344472956930356,0.8148961190272461,5.0
0.12694573402404785,-0.015241099905460279,0.8929937568065066,5.0
0.13594985008239746,-0.011919321720936885,0.9676917224129478,5.0
0.14702200889587402,-0.0072297525192568,1.038547210597101,5.0
0.15812039375305176,-0.002540183317576713,1.1052369995665983,5.0
0.1679673194885254,0.0015631897338933619,1.1675441284567227,3.475729139712045
0.18025684356689453,0.006448157652310118,1.2253438597708193,0.9146420069147498
0.18801069259643555,0.009574537120096843,1.2785879082944642,-1.504669114482008
0.19594955444335938,0.012505517871146895,1.3272921238427986,-3.4006032177686234
0.20493459701538086,0.016022694772406962,1.3715301448056887,-5.0
0.2139878273010254,0.019735270390403698,1.4114255600296821,-5.0
0.2249464988708496,0.024229440875347112,1.44714253903318,-5.0
0.23501229286193848,0.02872361136029053,1.4788768056153958,-5.0
0.24302411079406738,0.031849990828077254,1.5068438267475497,-5.0
0.25195956230163574,0.03556256644607399,1.5312726518932578,-5.0
0.2599527835845947,0.03829814848038737,1.5524053817672054,-5.0
0.26955556869506836,0.042401521531857445,1.5704921102005136,-5.0
0.27787113189697266,0.04572329971638084,1.585782658941449,-5.0
0.2868647575378418,0.0492404766176409,1.5985231922544345,-5.0
0.29592013359069824,0.052953052235637635,1.6089577860651267,-5.0
0.30646610260009766,0.05744722272058106,1.6173256907548685,-4.864061033285097
0.3151118755340576,0.06057360218836778,1.623856870252685,-4.605039310479363
0.3229038715362549,0.06389538037289116,1.6287677728125318,-4.300338595819813
0.3347759246826172,0.06858494957457126,1.6322632574639306,-3.7111799587400567
0.34304213523864746,0.07210212647583132,1.6345381628287374,-3.3738702118600052
0.35185980796813965,0.07542390466035472,1.6357709031777086,-3.1412582169890833
0.3619234561920166,0.0793318789950881,1.6361266384642017,-2.948860078686754
0.37157773971557617,0.08363065076329486,1.6357631095384766,-2.7705801275327313
0.38104820251464844,0.08773402381476494,1.6348238391649321,-2.5974724618292737
0.38889145851135254,0.09105580199928834,1.6334321605331794,-2.427751058982643
0.39891958236694336,0.09496377633402173,1.6316956515144072,-2.5382724462876576
0.40796422958374023,0.0984809532352818,1.6297102263983116,-2.4115353193994262
0.4169754981994629,0.10199813013654188,1.627564279925086,-2.2035425812169325
0.42848658561706543,0.10668769933822195,1.6253425739991436,-1.9824616454777453
0.43599700927734375,0.10981407880600867,1.6231186399190862,-1.7753821481700154
0.44797539710998535,0.11450364800768877,1.6209480853615885,-1.5908516327476638
0.45601940155029297,0.11802082490894884,1.6188781774966805,-1.4295524678296423
0.46770215034484863,0.12251499539389225,1.6169565402434531,-1.2892260094944734
0.4799954891204834,0.12720456459557233,1.615231360577064,-1.4428824373274507
0.48893213272094727,0.13072174149683238,1.6137379505395675,-1.3686536842916932
0.4976491928100586,0.1346297158315658,1.6124913322088827,-1.218725521881447
0.5098798274993896,0.13971008246671923,1.6115022233881693,-1.0582837942480547
0.5191679000854492,0.14361805680145262,1.6107871133968532,-0.9122412213321405
0.5293729305267334,0.14791682856965938,1.6103629145179177,-0.7876363704333085
0.5368883609771729,0.15084780932070943,1.6102259811049566,-0.6841577512495431
0.54512619972229,0.15416958750523282,1.6103548412534174,-0.598932823307986
0.5546185970306396,0.15807756183996624,1.6107392199391368,-0.5285911263755135
0.5658907890319824,0.16257173232490962,1.6113787272118967,-0.4700636587287096
0.5748791694641113,0.1660889092261697,1.6122768308286224,-0.14478146818146942
0.5838780403137207,0.16980148484416643,1.6134342792552954,-0.06970885512462349
0.5923750400543213,0.1733186617454265,1.614837609123404,-0.08863101623904636
0.6025969982147217,0.17742203479689655,1.6164731819249412,-0.1331607118299223
0.611424446105957,0.18093921169815663,1.618333191536803,-0.17587746281810362
0.6203057765960693,0.18465178731615337,1.6204088879310903,-0.20778373340261236
0.627875804901123,0.18777816678394008,1.6226843197226613,-0.2276534330852272
0.6378774642944336,0.1916861411186735,1.6251310331774296,-0.23714027280065972
0.6483991146087646,0.19598491288688025,1.6277295000624095,-0.238635648787199
0.6559004783630371,0.19911129235466699,1.630474356546077,-0.23441002423014923
0.6649541854858398,0.20321466540613706,1.6333529468665875,-0.2263321858730682
0.6768982410430908,0.20790423460781715,1.6363530860824016,-0.215832737729809
0.6859827041625977,0.21142141150907717,1.6394695189011899,-0.20395843352984855
0.6949515342712402,0.21493858841033725,1.6426897909347205,-0.1914500422752547
0.705528974533081,0.21923736017854403,1.6459954579357732,-0.17881666882014197
0.7158524990081787,0.22353613194675076,1.6493762683958306,-0.16639759202711504
0.72597336769104,0.22744410628148415,1.6528289213441503,-0.15441037224556964
0.7344348430633545,0.23076588446600757,1.6563494128208736,-0.1429868577133481
0.7428381443023682,0.23428306136726765,1.6599267368942126,-0.13219948173995405
0.75187087059021,0.23780023826852767,1.663544075433983,-0.12208015003654787
0.7612490653991699,0.24170821260326106,1.6671989456699985,-0.11263363981124314
0.7718977928161621,0.24581158565473116,1.6709008752357355,-0.10384701136702659
0.7848939895629883,0.2510873510066213,1.6746564050093249,-0.37173451980288386
0.7928798198699951,0.25440912919114467,1.678469457292205,-0.12127494011643769
0.8009843826293945,0.2575355086589314,1.6823299665140024,-0.026077978592290496
0.8098716735839844,0.26124808427692814,1.6862163223745101,0.0013499329371259132
0.820016622543335,0.2653514573283982,1.6901155196074518,0.0017287079823843868
0.8315844535827637,0.27023642524681496,1.6940278460537948,-0.0066950506746170394
0.8404331207275391,0.27375360214807504,1.6979530974583803,-0.01627237043083047
0.8496174812316895,0.2776615764828084,1.7018791163977554,-0.024206177662192966
0.8588480949401855,0.2811787533840685,1.7057955707498214,-0.0298128763545883
0.8675153255462646,0.2846959302853286,1.70969391273853,-0.03324721882959271
0.878608226776123,0.28938549948700865,1.7135673478240017,0.24110778877226186
0.888495683670044,0.2930980751050054,1.717422492140784,0.2738518625105889
0.8978390693664551,0.2970060494397388,1.7212656987353037,0.21928961918437107
0.9074592590332031,0.3007186250577355,1.7250972788531087,0.14435009256521525
0.9178686141967773,0.3046265993924689,1.7289121177686169,0.07535538967257394
0.9279096126556396,0.3089253711606756,1.732700585516124,0.02047964889335778
0.9358561038970947,0.31205175062846235,1.7364618321705727,-0.019669151124007862
0.9456770420074463,0.3163505223966691,1.7402026138758744,-0.04721157439921703
0.9559946060180664,0.32045389544813924,1.7439299298184026,-0.06489514504838126
0.9676313400268555,0.32514346464981925,1.7476578302015233,-0.07526554498804394
0.9778718948364258,0.3292468377012893,1.7514134422410015,-0.08040754143092138
0.9881477355957031,0.3335456094694961,1.7552138400315012,-0.08192412212639624
0.9958603382110596,0.3366719889372828,1.7590456856133279,-0.0810020791536104
1.0053913593292236,0.34057996327201623,1.7628909345898567,-0.07849796257465058
1.0167770385742188,0.34526953247369635,1.766757030830047,-0.07501822489359602
1.0249145030975342,0.34839591194148306,1.7706583162807707,-0.07098526867831748
1.033867359161377,0.3519130888427431,1.7745923346177974,-0.066688614551842
1.0418450832366943,0.3548440695937931,1.778549458519906,-0.062323150607345904
1.0508382320404053,0.3585566452117899,1.782521736520575,-0.058017090243550035
1.0618698596954346,0.36324621441346994,1.7865193357082731,-0.05385210421898491
1.0708584785461426,0.36676339131473,1.7905592116491853,-0.049877666225671635
1.081286907196045,0.37106216308293677,1.7946395129993096,-0.046121195922476196
1.0909388065338135,0.37497013741767016,1.7987588589319194,-0.04259518622206612
1.1013693809509277,0.37926890918587697,1.8029243911270432,0.23673617523465357
1.109894037246704,0.38278608608713705,1.807142180666615,0.27292470749848946
1.1211018562316895,0.3872802565720805,1.811417223139986,0.22067033114218929
1.1298718452453613,0.3906020347566038,1.8157534827976518,0.14721762574413605
1.1418766975402832,0.39548700267502057,1.8201539335982457,0.07912846091139891
1.1526479721069336,0.4003719705934373,1.8246292636283779,0.024753755927906705
1.1624515056610107,0.404084546211434,1.8291965181366932,-0.015170744108386456
1.16983962059021,0.4072109256792208,1.8338518175675205,-0.04267457421545877
1.1802403926849365,0.41131429873069086,1.8385823273536066,-0.060441125994422536
1.1914496421813965,0.4156130704988976,1.8433938948191217,-0.07097133580172262
1.1991150379180908,0.41873944996668433,1.848290647473815,-0.352357407279909
1.2079524993896484,0.42245202558468103,1.8532576785194517,-0.3872290640691767
1.2179372310638428,0.4267507973528878,1.8582639872718287,-0.3314507157698549
1.2269158363342285,0.4306587716876212,1.8632830076141007,-0.25310354341961355
1.2359058856964111,0.43398054987214457,1.8683100624543247,-0.1793379299505099
1.2458605766296387,0.437888524206878,1.8733500324193004,-0.39494934951954924
1.2563846111297607,0.44199189725834814,1.8784162543841774,-0.3819962521357856
1.263883113861084,0.4451182767261348,1.8835204375219354,-0.2933225137705149
1.2728161811828613,0.4486354536273949,1.8886542009323044,-0.19359486913337756
1.281820297241211,0.45215263052865495,1.8938101849529159,-0.10693298072818815
1.2908568382263184,0.45586520614665166,1.8989912993655715,-0.03966082885791362
1.300440788269043,0.4595777817646485,1.9041908169945838,0.009062048939114515
1.3099000453948975,0.46368115481611855,1.9093938811854223,0.04244596911584241
1.3202238082885742,0.4679799265843252,1.9145974030543866,0.06403844847586541
1.3306567668914795,0.47227869835253194,1.9198083511121913,0.3530014111114377
1.341172695159912,0.4765774701207387,1.9250328764597302,0.392880329849021
1.3502099514007568,0.4800946470219988,1.9302763237565814,0.3402626279330229
1.3598508834838867,0.48419802007346885,1.9355432737216567,0.2637752259955182
1.3693022727966309,0.488301393124939,1.9408470724290314,0.19096908430722148
1.3768045902252197,0.4914277725927257,1.9461892342875737,-0.14514851335047368
1.3858356475830078,0.49494494949398576,1.9515421539868045,-0.2244099144364276
1.395136833190918,0.49865752511198247,1.9569014885108673,-0.20321103504668914
1.4037086963653564,0.5021747020132425,1.9622825918723599,-0.15125320000723114
1.4125652313232422,0.5053010814810293,1.9676789660143004,-0.09744793150605036
1.4218337535858154,0.5092090558157627,1.9730848254034785,-0.32813977494594637
1.4298052787780762,0.512530834000286,1.9784953191208892,-0.3266322011993544
1.4411497116088867,0.5172204032019662,1.983896639365143,-0.24672326771610664
1.4499170780181885,0.5205421813864896,1.9892864779687667,-0.15379111454685324
1.4603888988494873,0.5248409531546963,1.9946723646694466,-0.07247710036633828
1.469806432723999,0.528553528772693,2.0000604656592307,-0.009484064430108956
1.4788291454315186,0.5322661043906898,2.0054556825168124,0.03575474845674141
1.4888083934783936,0.5367602748756332,2.010861692024337,0.06625227009165928
1.496849775314331,0.5398866543434199,2.016271796394448,0.08541353959180395
1.5068037509918213,0.54399002739489,2.0216706361070167,0.09625893222433919
1.515836477279663,0.5475072042961501,2.0270540789250413,0.1012108807187104
1.5256931781768799,0.5516105773476201,2.0324273481792106,0.10210973941800106
1.5359063148498535,0.5557139503990901,2.0377941727319624,0.10030740317742454
1.5460782051086426,0.5596219247338236,2.0431568890474336,0.0967740372137513
1.555307388305664,0.5633345003518203,2.0485161216376966,0.09219333076574711
1.5648419857025146,0.5672424746865538,2.0538710785994976,0.08703939493777682
1.5738646984100342,0.5711504490212871,2.059220283940248,0.0816356543174985
1.5833311080932617,0.5750584233560204,2.0645610884373577,0.07619855942018317
1.5938467979431152,0.5793571951242272,2.0698818038033,0.07086938976303644
1.603621482849121,0.583655966892434,2.075171369948259,0.06573708159098868
1.6134731769561768,0.5873685425104307,2.0804349244524727,0.3368928160692832
1.6218080520629883,0.5908857194116909,2.085668405878641,0.3654126372586874
1.6323401927947998,0.5949890924631609,2.0908594224801647,0.30599997669604445
1.6413228511810303,0.5985062693644211,2.096004071915157,0.22588946279573208
1.6499476432800293,0.6022188449824176,2.101091490978503,0.15162456420822393
1.6597826480865479,0.6063222180338877,2.106111676451757,0.09153278971251672
1.667834758758545,0.6094485975016745,2.111062499952748,0.04632380485208019
1.6758196353912354,0.6123795782527245,2.1159353696249585,0.013940899719425505
1.685530662536621,0.6158967551539846,2.1207165715218013,-0.28436490624095534
1.6944844722747803,0.619804729488718,2.1254008029619422,-0.33216904458186036
1.7027828693389893,0.6235173051067148,2.129983999721297,-0.28624283112952986
1.711827039718628,0.6272298807247115,2.1344566883565554,-0.21542651098214266
1.720672845840454,0.6309424563427082,2.1388165723376735,-0.14746555917525506
1.7307820320129395,0.6350458293941783,2.143068020761527,-0.09156703010710386
1.7410378456115723,0.6391492024456484,2.1472150952933013,-0.04907451732258929
1.749185562133789,0.6426663793469085,2.1512609944656313,0.2576549346760641
1.7584381103515625,0.6461835562481684,2.1552081547376822,0.31205986632720006
1.7658252716064453,0.6493099357159552,2.159054017194473,0.2711346470168032
1.7758095264434814,0.6534133087674253,2.1627921151314125,0.20403529500155654
1.7856121063232422,0.6573212831021586,2.166422080776498,0.1388083255982531
1.794428825378418,0.6610338587201554,2.169948586657848,0.08491168767542732
1.8027899265289307,0.6641602381879422,2.1733717409422644,0.043884837442530425
1.8117849826812744,0.6676774150892022,2.176687981283349,0.014270542340714117
1.8217976093292236,0.671976186857409,2.1798990073697246,-0.006213440447587856
1.8333590030670166,0.6764703573423524,2.1830144993168132,-0.019790944655793053
1.8430612087249756,0.6801829329603492,2.186046471197521,-0.02832734562577529
1.8531148433685303,0.6844817047285559,2.189001295477577,-0.03327866702128375
1.8614189624786377,0.6879988816298159,2.1918806526497634,-0.03573549772436635
1.8687899112701416,0.6913206598143393,2.194682822836652,-0.03649347861829295
1.8767762184143066,0.694447039282126,2.197400133551751,-0.036122491760305894
1.8868024349212646,0.6983550136168594,2.20002675191404,-0.03502499488817973
1.8978638648986816,0.7024583866683295,2.2025649722960807,-0.0334817862585
1.9078078269958496,0.7067571584365363,2.2050204736949914,-0.03168648664744847
1.9191677570343018,0.7112513289214797,2.207401301369951,0.24626747685199413
1.9268088340759277,0.7143777083892665,2.209714580599993,0.28133970765768085
1.9367868900299072,0.7182856827239998,2.2119608440324354,0.22816422019104543
1.9468281269073486,0.72238905577547,2.2141407346230064,0.153938339417054
1.9583244323730469,0.7272740236938866,2.216260200738185,0.08518988927209764
1.9663503170013428,0.7304004031616733,2.218326722406662,0.030245098646053535
1.9742133617401123,0.7339175800629335,2.220344215423589,-0.01017834457974489
1.9818754196166992,0.7368485608139834,2.22230891877006,-0.3141616792735686
1.9928171634674072,0.7417335287324003,2.2242156271393303,-0.36544616559818416
2.002807140350342,0.7458369017838703,2.22606530044336,-0.04519385668037312
2.014786958694458,0.7505264709855504,2.2278614420321756,0.058349328212523296
2.0253705978393555,0.7544344453202838,2.229609361899436,0.07173877810120331
2.0368099212646484,0.7591240145219639,2.2313136701193823,0.05269386450250199
2.0474698543548584,0.763227387573434,2.232978100468239,0.30222965274927677
2.056170701980591,0.7665491657579574,2.234607868188199,0.31117151171169655
2.0637893676757812,0.7696755452257441,2.236203344864322,0.23720911410114415
2.073800802230835,0.7739743169939507,2.237760920161526,0.14775789205088566
2.0817596912384033,0.7774914938952109,2.2392778049963917,0.06854190601605045
2.090752601623535,0.7810086707964708,2.2407519602077066,0.006850200452580828
2.101133346557617,0.7851120438479411,2.2421838287037397,-0.03755946514751064
2.1097447872161865,0.788629220749201,2.243575900277266,-0.06751576383361035
2.117751121520996,0.7919509989337246,2.244928732017782,-0.08631619245706894
2.1277835369110107,0.7960543719851946,2.246241304276342,-0.09691655517233194
2.1358721256256104,0.7995715488864547,2.2475147634764387,-0.10169942908726129
2.1456737518310547,0.8032841245044513,2.2487520319959997,-0.10247993241557612
2.1558597087860107,0.807582896272658,2.249955751912229,-0.10059361759363106
2.1655120849609375,0.8112954718906548,2.2511298506808246,-0.09699986373237157
2.1759793758392334,0.815398844942125,2.252279245525489,-0.09237512936928377
2.1838018894195557,0.8185252244099116,2.253405047383513,-0.0871886172611325
2.1963162422180176,0.823605591045065,2.2545066752291762,-0.35779874629125225
2.204793930053711,0.8275135653797985,2.255586634849436,-0.38546752461790124
2.2148075103759766,0.8316169384312686,2.256645696729102,-0.3250265098405778
2.2243497371673584,0.8353295140492653,2.2576817285457222,-0.24379761637338307
2.2332828044891357,0.8388466909505254,2.2586944114628813,-0.1683829443303495
2.2417547702789307,0.8421684691350487,2.259683651697763,-0.3831870036208344
2.2537832260131836,0.8472488357702022,2.2606494682394205,-0.09395375973462397
2.2640485763549805,0.8513522088216723,2.2615945649631755,0.027714264874198022
2.2748239040374756,0.8556509805898791,2.2625212821460727,0.0719767930214912
2.2847630977630615,0.859754353641349,2.2634303335665495,0.08204114944398841
2.2958133220672607,0.8642485241262925,2.264322351692562,0.078196973057509
2.304105758666992,0.8673749035940792,2.265197900532551,0.06966627894330003
2.3117663860321045,0.8703058843451292,2.2660563438460426,0.060411362655065665
2.320760726928711,0.8742138586798627,2.2668960618139673,0.051956744569728874
2.32981538772583,0.8777310355811228,2.2677169163345483,0.04474271900712562
2.341094493865967,0.8822252060660662,2.268520017153199,0.038761916465568425
2.3500239849090576,0.8861331804007996,2.269306368243311,0.03384942122220702
2.359785556793213,0.8904319521690063,2.270076856456054,0.02980810197039021
2.368117332458496,0.8937537303535298,2.2708332673008536,0.02645745482203795
2.3757801055908203,0.8966847111045797,2.271576140240217,-0.252390022087356
2.3839776515960693,0.9000064892891031,2.2723029634499974,-0.28789941762328247
2.393308401107788,0.9035236661903633,2.273012710240956,-0.23485237279365373
2.4018142223358154,0.9070408430916233,2.273705678715828,-0.16055086421043507
2.4121015071868896,0.9109488174263566,2.2743821954705465,-0.09159609455882695
2.420130968093872,0.9144659943276168,2.275043576004653,-0.03636522794225353
2.4287829399108887,0.9181785699456134,2.2756891815007263,0.0043890599751200965
2.437572479248047,0.9215003481301368,2.276318547154156,0.03268590612737564
2.448111057281494,0.9256037211816069,2.276934124834132,-0.22483553528978395
2.456162452697754,0.928534701932657,2.2775380368476412,-0.24672500533294073
2.464951753616333,0.9324426762673904,2.278131121782773,-0.18562128122148694
2.4750726222991943,0.9367414480355971,2.278714020567519,-0.10717600079875347
2.483698844909668,0.9402586249368571,2.2792864744066414,-0.03676523051454583
2.493799924850464,0.9445573967050639,2.279847517972041,0.018121563917231708
2.503779411315918,0.948660769756534,2.280397181541083,0.05736368841545572
2.5157580375671387,0.9533503389582141,2.2809363554595437,0.08342386127944723
2.523759365081787,0.9568675158594742,2.281465097705718,0.37532528621638406
2.5337560176849365,0.9605800914774709,2.28198271142979,0.4168240604694781
2.544281482696533,0.9650742619624143,2.2824901791995185,0.3648065253687466
2.553325891494751,0.9687868375804112,2.2829899265644364,0.28818239202076384
2.560727596282959,0.9717178183314611,2.283482541875472,0.21473533066899386
2.571040391921997,0.9758211913829312,2.283967758753967,0.1536894041888194
2.580463171005249,0.9797291657176646,2.28444610178537,0.10639109631834595
2.5891339778900146,0.9832463426189246,2.2849173453852685,0.07122950697965612
2.5977585315704346,0.9869589182369213,2.2853806348302803,0.0458018888989257
2.6068027019500732,0.9904760951381815,2.2858353009517134,0.027790234331709962
2.6167750358581543,0.9945794681896515,2.2862814879909164,0.015255251571626422
2.6267611980438232,0.9984874425243848,2.2867200238607257,0.0066823408390457775
2.6357691287994385,1.002590815575855,2.2871516421660663,0.0009338822484561645
2.647298812866211,1.0072803847775351,2.287577604199561,-0.002824102207211768
2.6558265686035156,1.0106021629620585,2.2879989633611912,-0.005193247718431422
2.66672420501709,1.0147055360135286,2.288415949671997,-0.006602730469715866
2.674762725830078,1.0178319154813154,2.2888287780051946,-0.007356167323873922
2.684821605682373,1.022130687249522,2.289237036875735,-0.007666930389054022
2.693488359451294,1.025647864150782,2.2896403371292773,-0.007684104347167006
2.7013065814971924,1.028774243618569,2.2900383799408957,-0.007511270308483656
2.713904619216919,1.033854610253722,2.2904309258955613,-0.007219956918599824
2.721738815307617,1.0367855910047723,2.290818362621601,-0.006859203238630882
2.730785369873047,1.0403027679060324,2.2912004385907117,-0.006462322545521773
2.7403011322021484,1.0444061409575025,2.291576943368136,-0.0060516684153759616
2.7488279342651367,1.047727919142026,2.2919482985457686,-0.28168034318093726
2.760002374649048,1.0522220896269692,2.292315416889474,-0.03836735016997214
2.770846366882324,1.0569116588286493,2.2926796069783633,0.050237439716410925
2.781776189804077,1.0614058293135928,2.293041404891585,0.0715884288415656
2.7897613048553467,1.0643368100646429,2.2934001776604775,0.06636794504177652
2.7993690967559814,1.0688309805495864,2.293754851644063,0.052786923541640815
2.809602975845337,1.072543556167583,2.294105056153692,0.3144991195831794
2.8206918239593506,1.0770377266525264,2.294451012801898,0.3353180653115968
2.8292572498321533,1.0805549035537865,2.2947928852642607,0.2705899679670007
2.8391826152801514,1.08446287788852,2.2951308324304938,0.18736698163280022
2.8487753868103027,1.0883708522232534,2.2954650140341286,0.11175260466783818
2.85876202583313,1.09266962399146,2.295795547529441,0.05161390028707977
2.867753267288208,1.0959914021759836,2.2961225177287545,0.007265349507317397
2.875750780105591,1.09911778164377,2.296445537532163,-0.023659731358813885
2.888620376586914,1.104002749562187,2.296764298335443,-0.04410277277188527
2.8987674713134766,1.1081061226136568,2.2970794684074187,-0.05675718633936851
2.909777879714966,1.112795691815337,2.2973920500866623,-0.06381823692664479
2.919431447982788,1.1168990648668071,2.2977024125965606,-0.06697080617961884
2.9286019802093506,1.1206116404848039,2.29800994872574,-0.06746220661068708
2.9367430210113525,1.1239334186693273,2.298313704418467,-0.06619379811991716
2.945737838745117,1.1274505955705874,2.2986129156780484,-0.06380540319204595
2.955087423324585,1.1315539686220573,2.2989078299910815,-0.0607445028295124
2.962700843811035,1.1342895506563708,2.2991990976071737,-0.05731969275185817
2.9720370769500732,1.1383929237078407,2.299486423050552,-0.05374058134775704
2.9820995330810547,1.1424962967593109,2.2997695828134224,-0.050146929107076174
2.9897398948669434,1.145427277510361,2.30004884104924,-0.0466296254934844
2.9977073669433594,1.1485536569781476,2.300324018432263,-0.043245638318449325
3.0069944858551025,1.1522662325961444,2.3005945822372276,-0.040028588940167975
3.0157103538513184,1.155588010780668,2.3008601371007678,-0.0369961898469329
3.024355173110962,1.1593005863986645,2.3011203857763904,-0.034155449695037504
3.033540725708008,1.1630131620166613,2.3013754977346386,-0.03150629895479647
3.0417423248291016,1.1661395414844482,2.3016256612106343,-0.02904410305827641
3.0537610054016113,1.1710245094028648,2.3018710994892038,-0.026761394605140598
3.0637311935424805,1.1755186798878081,2.302112829340163,-0.024649058979532026
3.071876287460327,1.1788404580723315,2.302351737782878,0.2533412212132079
3.08310866355896,1.183334628557275,2.3025882068680166,0.2882675919866421
3.090752601623535,1.186265609308325,2.302822192849679,0.23483216237624754
3.1009843349456787,1.1901735836430585,2.3030532909314667,0.16027897871977348
3.1107211112976074,1.194081557977792,2.303281529003775,0.09116763541049125
3.120631694793701,1.1981849310292618,2.303507312077448,0.03584570829694591
3.1337733268737793,1.2036560950978887,2.3037313580546903,-0.2809933688283983
3.1449058055877686,1.2083456642995687,2.3039546200571412,-0.3424312634989759
3.153503179550171,1.211667442484092,2.3041775274000953,-0.30584760226972446
3.1648128032684326,1.215966214252299,2.3044004060307532,-0.24098172444708918
3.1728463172912598,1.2192879924368225,2.3046235018432526,-0.1764417089743632
3.1820547580718994,1.2231959667715557,2.304846306503354,-0.12215192361035034
3.190136432647705,1.2267131436728156,2.3050683738365283,-0.08001194847723797
3.199875593185425,1.230816516724286,2.305289329139673,-0.04883066413197677
3.212799310684204,1.2357014846427024,2.3055088375225132,-0.02651655427646949
3.2239508628845215,1.2401956551276458,2.3057272839027876,-0.2870175165066115
3.2322845458984375,1.2433220345954328,2.3059449866941755,-0.30960717924778314
3.242004871368408,1.2474254076469027,2.3061618503052013,-0.2475820814817204
3.2498018741607666,1.250356388397953,2.3063774650275852,-0.167124814430116
3.2627789974212646,1.2558275524665796,2.306591499027723,-0.09401377183522405
3.271517276763916,1.2593447293678397,2.3068043114279635,-0.036031146346316975
3.2840731143951416,1.26462049471973,2.3070165082085903,0.28253416342632953
3.2924258708953857,1.2681376716209898,2.307228276995461,0.34505091904175156
3.3008298873901367,1.2714594498055134,2.307439122587903,0.30910124562311614
3.3127264976501465,1.27634441772393,2.307648605751169,0.24456660505765088
3.324709415435791,1.2812293856423467,2.3078569803743227,0.18015438751760632
3.334742546081543,1.285332758693817,2.3080644577586824,0.12585805887411777
3.345850706100464,1.2900223278954968,2.3082706058662708,0.08362505219103372
3.3573904037475586,1.2949072958139138,2.3084753483604405,-0.22374115385588636
3.3657824993133545,1.2980336752817005,2.3086791948392236,-0.279357417424183
3.374721050262451,1.3015508521829606,2.3088819863499035,-0.2399908204272097
3.384821891784668,1.3054588265176938,2.309083009135591,-0.174639505912528
3.394747257232666,1.3093668008524273,2.3092819489131227,-0.3872805477226698
3.4027631282806396,1.3126885790369507,2.3094785529959445,-0.36834760407410916
3.411763906478882,1.3164011546549474,2.3096723337340723,-0.27402492515218047
3.4203732013702393,1.3199183315562075,2.30986318248473,-0.17005976136560744
3.4297478199005127,1.323630907174204,2.3100513279611077,-0.0807023814356837
3.4389700889587402,1.327343482792201,2.3102369816056427,-0.012058181517051826
3.447727680206299,1.3306652609767244,2.310420042558145,-0.23901968504711452
3.4588327407836914,1.3353548301784044,2.310600433632732,-0.239136943517613
3.4683971405029297,1.3396536019466112,2.310778660783509,0.11271992703132058
3.4777698516845703,1.3433661775646077,2.31095490965059,0.23366866291712168
3.486699104309082,1.3470787531826045,2.311128811537162,0.25448069566810977
3.4977662563323975,1.3513775249508115,2.3113003143866315,0.236040655439043
3.506707191467285,1.355090100568808,2.311469641531409,0.2056325674885928
3.5167741775512695,1.3589980749035415,2.311637008472206,0.17468071407259278
3.526691198348999,1.3629060492382747,2.3118026128016367,0.14733845175678809
3.53570556640625,1.366618624856272,2.311966625143004,0.12458544619429426
3.545667886734009,1.3709173966244785,2.312129206545673,0.10613822700879885
3.556699514389038,1.375411567109422,2.3122907410637046,0.36734714363651866
3.5677926540374756,1.3801011363111018,2.3124517932702924,0.3885291164345589
3.5756947994232178,1.3834229144956252,2.312612348810071,0.3237354890905667
3.5867247581481934,1.387721686263832,2.312771885413924,0.2396836818271551
3.5947227478027344,1.3910434644483554,2.31293020858637,0.16252437982779278
3.6090357303619385,1.3967100272337187,2.3130876521617862,0.10029443934534635
3.616722583770752,1.4000318054182421,2.313244491308914,0.05349190869092084
3.629047393798828,1.4051121720533957,2.3134007078850853,0.01990758192122116
3.636789560317993,1.408043152804446,2.313556290752358,-0.0032783520944618966
3.649519681930542,1.4127327220061259,2.313711247194879,-0.29470969563388805
3.6597018241882324,1.4166406963408593,2.313865816180995,-0.33756922974123527
3.6687357425689697,1.4205486706755925,2.314020168521748,-0.2881944989741057
3.6798813343048096,1.425238239877273,2.314174195889929,-0.21504319977552327
3.6886565685272217,1.4289508154952695,2.314327811661101,-0.1455540739923874
3.700002908706665,1.4338357834136866,2.314480945597271,-0.0887004530599392
3.709181070327759,1.4373529603149464,2.3146335429996046,-0.04565324722984829
3.716721534729004,1.4406747384994696,2.314785322109894,-0.014682837203672187
3.725736379623413,1.4441919154007297,2.314935807403222,0.2827290203937504
3.7343380451202393,1.4477090923019897,2.315084831259045,0.329995663242186
3.7441627979278564,1.4518124653534599,2.3152325025047436,0.2837749368414354
3.7533209323883057,1.4555250409714566,2.3153789314640996,0.21282791631644887
3.7622177600860596,1.4592376165894534,2.3155242236642835,0.14484502798742177
3.771784543991089,1.4627547934907135,2.3156684722599064,0.08899519867211308
3.7808022499084473,1.4664673691087102,2.3158115209160077,0.04659573954513495
3.7898013591766357,1.4701799447267068,2.315953021330283,0.016024047978270277
3.800638437271118,1.4744787164949138,2.3160929260290484,0.27091559006657334
3.813581705093384,1.4797544818468038,2.3162316687858264,0.290007553635501
3.8243584632873535,1.4840532536150106,2.316369846127204,0.22606448919940764
3.831723213195801,1.487375031799534,2.3165075057699043,0.144820554118229
3.8417510986328125,1.4916738035677406,2.3166442399796754,0.07170423970531792
3.85200572013855,1.495777176619211,2.31678014139708,0.014236668009581767
3.8637237548828125,1.5002713471041542,2.3169157199693915,-0.3034823696038523
3.8734843730926514,1.5041793214388874,2.31705117947059,-0.36495561398227994
3.8848989009857178,1.508673491923831,2.31718649763941,-0.3278583291393336
3.894690752029419,1.5127768649753008,2.317321656709449,-0.2621355180576393
3.905243158340454,1.5168802380267712,2.3174565981612294,-0.19653699541586842
3.913479804992676,1.5203974149280313,2.3175912753271395,-0.14108376900869224
3.924208641052246,1.5246961866962379,2.3177256668373083,-0.09774043577831808
3.9326398372650146,1.5280179648807612,2.3178597451944745,-0.06535883623528876
3.94168758392334,1.5317305404987582,2.317993278863122,0.23416324686071985
3.9510812759399414,1.535833913550228,2.3181258613581246,0.28394705123157105
3.961219072341919,1.5399372866016983,2.3182575488748176,0.2404488424076343
3.97383189201355,1.5452130519535883,2.3183887958656015,0.17229309890265232
3.9816629886627197,1.548339431421375,2.31851957770209,0.10707970330944847
3.9921000003814697,1.5524428044728453,2.3186496819146205,0.053919332466879175
4.000113248825073,1.5555691839406316,2.3187791453138495,0.014093474064536395
4.0095837116241455,1.5594771582753653,2.318907787269174,-0.014040879924422588
4.018008470535278,1.5627989364598887,2.3190354440524703,-0.032896551675313454
4.026699066162109,1.5661207146444118,2.3191619760715474,0.23125120818593306
4.034788608551025,1.5692470941121985,2.319287072145127,0.2575246244757634
4.044801473617554,1.5733504671636689,2.31941068076173,0.1991202575468207
4.053271293640137,1.5770630427816656,2.319532975298615,0.12215703104737377
4.063753843307495,1.5813618145498722,2.319654125571734,0.052374980428530844
4.072651386260986,1.585074390167869,2.3197742730212867,-0.0024646417043829964
4.083943128585815,1.589373161936076,2.319893533259372,-0.042043697959074866
4.094041109085083,1.5936719337042826,2.320012193911139,-0.06868430693706892
4.102999448776245,1.5973845093222792,2.3201304858970473,-0.08527280850289254
4.1126627922058105,1.6014878823737493,2.3202482278311902,-0.09444944248243291
4.1221277713775635,1.605200457991746,2.3203652819445724,-0.09836250133329816
4.1296515464782715,1.608131438742796,2.3204815383273556,-0.3746952174738556
4.139174222946167,1.6120394130775293,2.3205967089789086,-0.4057091449065155
4.151608943939209,1.6167289822792097,2.3207109350464066,-0.070930906745409
4.161303281784058,1.620636956613943,2.3208247187554245,-0.23320100499023794
4.169217109680176,1.6239587347984663,2.3209382866954913,-0.24585257715266462
4.179032802581787,1.6282575065666731,2.321051462647579,-0.20497295427990134
4.190252065658569,1.6329470757683533,2.3211641011265587,-0.15216373950023984
4.199732780456543,1.6366596513863498,2.321276265975536,-0.10372098206073987
4.208909749984741,1.6399814295708732,2.321387825827301,-0.06464369601348807
4.219834089279175,1.64486639748929,2.3214986588977244,-0.03523105175131619
4.230669975280762,1.649165169257497,2.321608854613503,-0.014096051932793535
4.240267515182495,1.6530731435922303,2.321718492993751,0.0005270490325283012
4.248784780502319,1.6563949217767535,2.3218276427490734,0.01026860479535464
4.257195472717285,1.659716699961277,2.321936372946983,0.016464184150509466
4.266682147979736,1.6636246742960106,2.322044738935653,0.020143228815048587
4.275651454925537,1.6673372499140071,2.3221526046074064,0.2981095717559162
4.287018775939941,1.6718314203989504,2.322259858256146,0.3319671450432059
4.295664310455322,1.6753485973002107,2.32236659557224,0.2768051498369534
4.3053810596466064,1.679256571634944,2.322472728116015,0.2001379708668782
4.314704179763794,1.6833599446864143,2.3225781588197605,0.12871123107883375
4.324376821517944,1.6872679190211477,2.322682975296255,0.07099845849414237
4.334656238555908,1.6917620895060912,2.3227872758067942,-0.24822333104064073
4.3441619873046875,1.6954746651240877,2.322891150129628,-0.5880202040492135
4.352824926376343,1.6987964433086111,2.3229946827949033,-0.5867862459373775
4.363191604614258,1.7028998163600813,2.3230981265318427,-0.4689333772948268
4.372480630874634,1.706416993261341,2.3232016676424836,-0.3302940639759693
4.38067102432251,1.7097387714458647,2.323304943530854,-0.20733945623414238
4.392054080963135,1.7146237393642816,2.3234076633594127,-0.3863469853629433
4.4031822681427,1.7191179098492249,2.323510242391175,-0.34790036852659223
4.41073203086853,1.7218534918835382,2.32361285756677,-0.2425635694660665
4.420365571975708,1.7257614662182716,2.3237149932319823,-0.13279136071723716
4.42919921875,1.729083244402795,2.323816383232252,-0.04085417338245777
4.436631679534912,1.7322096238705815,2.323916975849132,0.02836232154398198
4.4456257820129395,1.7361175982053152,2.3240165554510623,0.07677127162038522
4.4551191329956055,1.740220971256785,2.324115111102504,0.1083612364811187
4.462652206420898,1.7433473507245718,2.3242128220969756,0.12723305994108708
4.472452163696289,1.7472553250593055,2.324309847906679,0.13689719869328534
4.484029293060303,1.7519448942609854,2.324406296746144,0.14011751022240126
4.492189884185791,1.7554620711622455,2.3245022459807974,0.4150079997510769
4.4996514320373535,1.7583930519132955,2.3245977775443016,0.4441286379095031
4.508784055709839,1.762105627531292,2.3246928225155883,0.3832489190217305
4.516645193099976,1.7652320069990788,2.3247870077039448,0.300357244725488
4.5256335735321045,1.7689445826170758,2.324880008584616,0.22252285196735838
4.535643577575684,1.7730479556685457,2.324971879556746,0.1584351642648375
4.545675754547119,1.7769559300032791,2.3250628271950236,0.10904935428255685
4.5566792488098145,1.7814501004882224,2.325153174046781,0.07247226057144285
4.565673828125,1.7851626761062194,2.3252431967948124,0.04609955417795883
4.573632001876831,1.7884844542907428,2.325332814718216,0.027470280065278185
4.583666801452637,1.7925878273422127,2.325421957850707,0.014544309867702172
4.593379974365234,1.796105004243473,2.325510726060545,0.005736206149856897
4.600633144378662,1.7994267824279964,2.3255990588620468,-0.00014123932884280372
4.60898232460022,1.8029439593292562,2.3256867617226504,-0.003956603341715188
4.619678020477295,1.8074381298141997,2.325773815738732,-0.006335578719994876
4.631648302078247,1.81212769901588,2.325860499794936,-0.007724004691409312
4.640660762786865,1.81564487591714,2.3259470529771127,-0.008436984763000775
4.650373458862305,1.8193574515351367,2.326033385748214,-0.008695761223997595
4.6607136726379395,1.82385162202008,2.326119421386225,-0.008654767460185519
4.668647050857544,1.8269780014878667,2.3262052370742845,-0.008421179289607022
4.678663969039917,1.8308859758226002,2.3262908970705687,-0.0080689033209011
4.687632083892822,1.8345985514405967,2.3263763141130274,-0.00764851547544809
4.696674823760986,1.8381157283418568,2.326461266988367,-0.0071942871106165426
4.705628395080566,1.841632905243117,2.326545710538738,-0.006729134042565674
4.716661214828491,1.8461270757280606,2.326629761426049,-0.006268092694467093
4.726252794265747,1.8500350500627938,2.3267135280244826,-0.005820756063991605
4.734806537628174,1.853552226964054,2.3267970940808214,-0.0053929772395599086
4.744203329086304,1.8574602012987873,2.3268805167980533,-0.004988058278508228
4.753364324569702,1.8609773782000472,2.3269638603050673,-0.004607578096725967
4.760643482208252,1.864103757667834,2.327047186035431,-0.004251967499226395
4.771224021911621,1.868207130719304,2.3271305199175862,-0.003920907311423362
4.780640125274658,1.8723105037707743,2.327213737837194,0.2724247567752516
4.790625095367432,1.8762184781055076,2.32729659272118,0.305833990380869
4.800135135650635,1.880126452440241,2.3273790069676763,0.25099993110188823
4.811437368392944,1.8846206229251845,2.327461193999798,0.1751580036039703
4.821707010269165,1.888919394693391,2.3275433279755395,0.10485961272080163
4.8316545486450195,1.8930227677448612,2.327625407062404,0.04844461954281111
4.840061664581299,1.8959537484959115,2.3277074227003727,0.006637593695205828
4.849665641784668,1.8998617228306447,2.3277892271705003,-0.02260198288540617
4.859622001647949,1.9037696971653784,2.327870682847633,-0.04196809745701528
4.8687756061553955,1.907482272783375,2.327951796778101,-0.05397177832371206
4.876643896102905,1.910999449684635,2.3280324403620076,-0.06067639483279355
4.885610103607178,1.9145166265858953,2.32811238276678,-0.06367271874404394
4.894735336303711,1.9184246009206285,2.3281915660489902,-0.0641415982707299
4.90429949760437,1.9221371765386253,2.328270055282317,-0.3389762140949968
4.91308069229126,1.9256543534398853,2.328347883601294,-0.36983194575254097
4.921953916549683,1.9291715303411452,2.328425067512028,-0.31182590434450985
4.929638624191284,1.9322979098089321,2.3285015134993277,-0.23248560902476534
4.939140319824219,1.9362058841436656,2.3285770354482844,-0.1585605127479034
4.948427677154541,1.9401138584783988,2.3286515960420515,-0.09852215270245848
4.957404136657715,1.9438264340963956,2.328725281189028,0.22285801537899808
4.966675758361816,1.9475390097143923,2.3287981455367244,0.28861535784931924
4.974616289138794,1.9504699904654423,2.328870133197664,0.2561048711092987
4.9846580028533936,1.9543779648001756,2.328941094762811,0.19505587739084707
4.9934117794036865,1.9578951417014356,2.329011000568994,0.13407612270308633
5.004810333251953,1.9627801096198525,2.3290799588905684,0.08309590290148883
5.013203144073486,1.9661018878043761,2.3291480874619217,0.044024624260774886
5.021629571914673,1.9694236659888995,2.3292153900378034,0.01568327212437521
5.033309698104858,1.9743086339073164,2.3292818758608256,-0.004006386037145242
5.04211950302124,1.978021209525313,2.3293477563632328,-0.0171210870556799
5.051116228103638,1.981538386426573,2.329413218183306,0.250616954042783
5.058597564697266,1.9842739684608863,2.3294782253617683,0.2788735871670146
5.071747303009033,1.989745132529513,2.3295427456580065,-0.05473639609486736
5.079794883728027,1.9928715119973,2.3296068723923113,-0.1647863365813923
5.088410139083862,1.9963886888985598,2.3296705892003464,0.09607534111584401
5.102535963058472,2.0022506504006596,2.3297339446926117,-0.1264227823450665
5.112780809402466,2.00635402345213,2.3297971753762794,-0.18473268525438338
5.122451543807983,2.0104573965036003,2.3298604126043756,-0.17687830737034094
5.132898807525635,2.0145607695550702,2.329923687067345,-0.14708882318032748
5.141157388687134,2.0176871490228567,2.32998693389535,-0.11413117087775662
5.1504058837890625,2.0213997246408537,2.330049991261641,-0.08504574832992763
5.161034345626831,2.025893895125797,2.330112928618255,-0.337751224745937
5.171486139297485,2.030583464327477,2.3301760239959375,-0.35308795573356955
5.180617809295654,2.0341006412287372,2.3302392911744674,-0.28484091633678177
5.189600229263306,2.037617818129997,2.3303025195203495,-0.1992287493656023
5.199764013290405,2.0415257924647303,2.3303656510975346,-0.12190057804763552
5.2085347175598145,2.045042969365991,2.330428698393394,-0.06046939894385185
5.218877077102661,2.0495371398509343,2.3304916136046305,-0.015103342575338036
5.229325532913208,2.0534451141856676,2.3305544244219676,0.01665143367317879
5.2365758419036865,2.056180696219981,2.330617110057872,0.03779015303184688
5.24747109413147,2.0610656641383978,2.330679622897253,0.051040663557461216
5.258628606796265,2.065559834623341,2.330742109455255,0.334659445554969
5.269606351852417,2.0698586063915476,2.330804695516485,0.37139496936153404
5.279279947280884,2.073961979443018,2.3308673996811096,0.31719759487496313
5.2884814739227295,2.077674555061015,2.330930233059744,0.24021095715202795
5.296679258346558,2.081191731962275,2.3309930813755626,0.16763110634848682
5.306586503982544,2.085099706297008,2.3310557520516695,0.10824883930955154
5.315611362457275,2.0890076806317412,2.3311181756503725,0.06309983890836582
5.324605941772461,2.0927202562497382,2.3311803437534637,-0.24568329730476607
5.3330230712890625,2.096432831867735,2.3312422262990595,-0.30170127012247927
5.341660499572754,2.0995592113355217,2.331303748286835,-0.26206503025001915
5.349576950073242,2.1026855908033086,2.3313647806989186,-0.19601423910411037
5.359706878662109,2.106593565138042,2.331425312659105,-0.4076938015752677
5.368478536605835,2.109915343322565,2.331485437198757,-0.3876527357440671
5.377986669540405,2.114214115090772,2.3315452367230267,-0.29215359727849677
5.38953161239624,2.1185128868589786,2.3316047920771217,-0.18699595256572588
5.40041184425354,2.1230070573439224,2.331664170929787,-0.09646426990604746
5.410673379898071,2.1271104303953923,2.33172341966483,-0.30272395517265754
5.421609878540039,2.131409202163599,2.3317826641278194,-0.2856900735700916
5.431172609329224,2.135707973931806,2.3318421003634007,-0.19656382005730724
5.439603328704834,2.139029752116329,2.33190169863581,0.17723931456262576
5.44870138168335,2.1429377264510627,2.3319612178164624,0.29352057786775854
5.457688808441162,2.1464549033523226,2.3320204210463746,0.30126411164709754
5.466586112976074,2.149972080253583,2.3320791321955,0.26897205576131467
5.4756176471710205,2.1536846558715794,2.3321373430477506,0.2266963659525255
5.485576391220093,2.1577880289230493,2.3321951419327096,0.18651797069280457
5.495834112167358,2.1618914019745197,2.332252599616963,0.15241058372886357
5.505591154098511,2.165603977592516,2.3323097911740045,0.1249095379546262
5.515620231628418,2.169707350643986,2.3323667850811947,0.10326201828504966
5.527125835418701,2.174592318562403,2.3324237275143984,0.08637321853904281
5.53565239906311,2.1783048941803997,2.3324806439190926,0.07318911993764822
5.54703426361084,2.182799064665343,2.3325373646588763,0.0628246443997987
5.5563132762908936,2.1867070390000767,2.332593926409091,0.05458344210790769
5.566769599914551,2.1910058107682833,2.3326505398365502,0.32397512060995626
5.574686050415039,2.1939367915193335,2.332707295169088,0.07561574700770174
5.58457612991333,2.1978447658540667,2.332764047580581,-0.017140213673252573
5.596637725830078,2.2029251324892205,2.3328207271430377,-0.04196256029996796
5.606167793273926,2.206637708107217,2.3328774964987544,-0.039690486618669446
5.614666938781738,2.20995948629174,2.332934339137935,-0.028649417758133202
5.6256420612335205,2.2140628593432106,2.3329910548355084,-0.01653874252026005
5.634695053100586,2.217775434961207,2.3330475670293738,-0.0061862174138804715
5.644636631011963,2.2218788080126775,2.333103897002843,0.001707438188922592
5.6547040939331055,2.2265683772143574,2.3331600550767515,0.2833274136674142
5.66267991065979,2.229694756682144,2.3332160583828667,0.32014118016228865
5.672604560852051,2.2337981297336142,2.333271937312086,-0.008747322110135042
5.681576728820801,2.2373153066348745,2.333327626518415,-0.1167598119499235
5.691061973571777,2.2412232809696078,2.333383060845774,0.14431162470519862
5.700684547424316,2.2451312553043414,2.33343826879989,0.19685441355211322
5.710571050643921,2.249039229639074,2.333493190166885,0.16990559496119922
5.719172477722168,2.2527518052570716,2.3335477646133054,-0.15559647251052947
5.729005813598633,2.256855178308541,2.3336020135611677,0.038556583725130586
5.738338947296143,2.2607631526432748,2.3336559709246876,0.08664847042641313
5.748732566833496,2.264671126978008,2.3337096915527105,0.07753142041930866
5.756663799285889,2.267602107729058,2.3337632349325386,0.05079495524840511
5.767752408981323,2.272291676930738,2.333816659842626,0.02285542731427906
5.775550603866577,2.2752226576817884,2.333869931815547,-0.0004372416499653052
5.784784317016602,2.2791306320165217,2.3339229240788586,-0.01780276802283847
5.794596195220947,2.2828432076345186,2.333975617987216,-0.02974667125417345
5.803729057312012,2.2869465806859886,2.334028096611855,-0.03731851016489282
5.813594818115234,2.291049953737459,2.3340804329904583,-0.0415960728494818
5.824549913406372,2.2957395229391384,2.3341326961347217,-0.04350098880489117
5.833865404129028,2.299061301123662,2.3341849600234927,-0.04375796661634154
5.8436219692230225,2.3029692754583957,2.334237291067715,-0.0429103869618821
5.852579116821289,2.306291053642919,2.3342897275703964,-0.041353255294164434
5.8651909828186035,2.311566818994809,2.334342374681865,-0.03936726383149737
5.873586177825928,2.3148885971793325,2.3343953147329892,-0.03714811072683198
5.8831610679626465,2.318601172797329,2.334448438275194,-0.03482974133462094
5.892051696777344,2.322313748415326,2.3345016596424895,-0.03250195758631814
5.903545379638672,2.327003317617006,2.3345549993259898,-0.030223397836478868
5.9145684242248535,2.331302089385213,2.3346084777540534,-0.028030933792553264
5.924290895462036,2.335405462436683,2.3346621273916175,-0.30198474920744683
5.933749437332153,2.3383364431877327,2.334715970386018,-0.6091826246887877
5.945678234100342,2.3426352149559393,2.3347700970869414,-1.4134840190311637
5.954754114151001,2.3455661957069895,2.3348246806015136,-2.2080736732933883
5.9645490646362305,2.3479109803078297,2.3348796799456535,-3.374143948217796
5.974558353424072,2.350646562342143,2.3349349462023876,-4.3977879033812055
5.982579469680786,2.352405150792773,2.3349904372352097,-5.0
5.9906065464019775,2.3539683405266665,2.3350459369068717,-5.0
5.999703407287598,2.3559223276940333,2.33510116658427,-5.0
6.012094259262085,2.358267112294873,2.3351561620737935,-5.0
6.022303104400635,2.3598303020287665,2.3352111589901527,-5.0
6.029545307159424,2.3610026943291866,2.335266189006359,-5.0
6.039275169372559,2.3621750866296063,2.335321082353467,-5.0
6.048325061798096,2.362956681496553,2.3353757721354724,-5.0
6.057793378829956,2.3637382763635,2.3354302916712872,-5.0
6.06594181060791,2.36432447251371,2.3354846852409086,-5.0
6.074234485626221,2.3647152699471836,2.335538908529897,-5.0
6.082577466964722,2.3649106686639203,2.3355928312962613,-4.511705787164486
6.09055757522583,2.3651060673806565,2.335646351927405,-4.130966009734015
6.103286981582642,2.3651060673806565,2.335699485450244,-4.359704445456369
6.112023830413818,2.3649106686639203,2.3357524248634163,-4.1368413903237755
6.120665550231934,2.3647152699471836,2.3358052401441936,-3.761264538927178
6.129571199417114,2.36432447251371,2.3358578005851607,-3.3627382724318644
6.1400556564331055,2.3637382763635,2.335910076169779,-2.716151065960987
6.149540901184082,2.3631520802132897,2.335962146355563,-2.0799459932559023
6.158150672912598,2.36256588406308,2.3360140802240736,-0.9909268601609387
6.165930271148682,2.3619796879128696,2.336065921744725,-0.2271624722652542
6.173632621765137,2.36139349176266,2.336117625904932,0.2894806036433151
6.184203147888184,2.36022109946224,2.3361690730279987,0.6249146654256377
6.194717884063721,2.35904870716182,2.336220244770357,0.5547296172569061
6.204408407211304,2.3580717135781364,2.336271200996535,0.6366519791076031
6.2166428565979,2.356508523844243,2.336321992034009,0.7443478544835946
6.228798151016235,2.354749935393613,2.3363727506061904,0.8309484106395143
6.2365758419036865,2.353577543093193,2.3364235801048787,1.1603691470879498
6.249647617340088,2.351818954642563,2.336474530753349,1.4914636119003246
6.257598876953125,2.350646562342143,2.3365256982754072,2.018329865267405
6.2675840854644775,2.34908337260825,2.336577017191403,2.4839100880261453
6.275588750839233,2.347715581591093,2.3366282649289736,2.811489045548522
6.286644220352173,2.3461523918571996,2.336679298977181,2.9986537251889605
6.296663999557495,2.3445892021233066,2.3367301537026726,3.0690598735174657
6.3076112270355225,2.3426352149559393,2.3367808589461783,3.051663888098899
6.318725347518921,2.3406812277885725,2.336831336867393,3.248719245864806
6.327449798583984,2.339118038054679,2.3368814937001297,3.4384027872101983
6.336708307266235,2.337750247037523,2.3369312326909513,3.8244502570447394
6.34775710105896,2.3363824560203663,2.3369804789779387,4.154484489499669
6.356966495513916,2.3352100637199458,2.3370291787257083,4.6299605011566225
6.364708423614502,2.3344284688529995,2.337077274185135,5.0
6.373624801635742,2.3330606778358427,2.337124643274131,5.0
6.384711742401123,2.3322790829688964,2.3371711203549466,5.0
6.393613815307617,2.3314974881019492,2.3372166294179317,5.0
6.401614665985107,2.3307158932350025,2.3372611102324012,5.0
6.410801649093628,2.330129697084793,2.337304455692041,5.0
6.422672748565674,2.3293481022178457,2.337346638575739,5.0
6.432993650436401,2.328566507350899,2.3373877482145735,5.0
6.442395210266113,2.3281757099174256,2.337427907256357,5.0
6.456881999969482,2.327589513767216,2.3374671993020737,5.0
6.467653512954712,2.3271987163337426,2.3375056738499307,5.0
6.477493524551392,2.3268079189002693,2.3375433316144876,4.665131110544792
6.485622882843018,2.3266125201835326,2.337580104250236,4.149055635281957
6.49665904045105,2.3262217227500592,2.3376159037317135,3.898935671744296
6.506716728210449,2.3260263240333225,2.337650689847229,3.183112228636003
6.5191192626953125,2.325830925316586,2.33768450966808,2.6911797322315794
6.527456521987915,2.325830925316586,2.3377174626183854,2.3325131381958766
6.536542654037476,2.3256355265998496,2.3377495606140593,1.7808763002526524
6.545533895492554,2.3254401278831125,2.337780736010738,1.250543527377384
6.554521322250366,2.3254401278831125,2.337811001467716,0.8128273679717715
6.565195798873901,2.3254401278831125,2.337840425806571,0.2023075402961162
6.573007822036743,2.325244729166376,2.337869005540711,-0.0742456321090012
6.583387136459351,2.325049330449639,2.337896686891639,-0.18982549117472045
6.591667413711548,2.325049330449639,2.3379234553234096,-0.5053722239072513
6.600533485412598,2.3248539317329024,2.3379493026486657,-0.5432515843757488
6.6117072105407715,2.3248539317329024,2.3379741983576237,-0.754044313152386
6.620531320571899,2.3248539317329024,2.3379981498253075,-0.9714159962988455
6.6303489208221436,2.3248539317329024,2.338021222621175,-0.8619101313203004
6.641030788421631,2.3246585330161658,2.3380435036521274,-0.933651248294266
6.6485326290130615,2.3244631342994295,2.3380650334274304,-1.0389192662523505
6.659742593765259,2.3244631342994295,2.3380858142399163,-1.1225149917202584
6.670936346054077,2.3244631342994295,2.3381058808951654,-1.1697788712667885
6.679141998291016,2.3242677355826924,2.338125265128556,-1.1823264128575888
6.687637805938721,2.3240723368659557,2.3381457955331215,-1.167123343770101
6.695580244064331,2.3240723368659557,2.338173317564538,-1.40790604072426
6.704686641693115,2.323876938149219,2.338212207421092,-1.3924342097551743
6.7136218547821045,2.323876938149219,2.3382596476004203,-1.2806788581618713
6.721593379974365,2.3236815394324823,2.3383111008679505,-1.1437855834323538
6.730644702911377,2.323486140715746,2.338364804054223,-1.2871205523290727
6.740509271621704,2.323290741999009,2.3384194941202723,-1.2019715652764371
6.749509811401367,2.3230953432822723,2.3384729690470607,-1.045005393164791
6.758529424667358,2.3228999445655356,2.3385219439464784,-1.158235955126057
6.768865346908569,2.322704545848799,2.338561276278739,-1.04701886754597
6.7765421867370605,2.322704545848799,2.3385862233123387,-0.8720966570432319
6.7866051197052,2.322313748415326,2.3385943112090297,-0.6994314570703996
6.795605897903442,2.3221183496985893,2.338581485847443,-0.8279445846768742
6.8055315017700195,2.321727552265116,2.3385412942914354,-0.7430459448238487
6.814523220062256,2.321727552265116,2.338466931582873,-0.8726812657617373
6.8257856369018555,2.321336754831642,2.3383493030791027,-0.7602552762282744
6.833478927612305,2.321141356114906,2.3381795163898866,-0.5821234194196616
6.843180418014526,2.3207505586814325,2.337953053078916,-0.6857322047877281
6.853459358215332,2.320555159964696,2.3376650666496506,-0.5761086615806207
6.863567590713501,2.319968963814486,2.3373056044412146,-0.6877778375213688
6.872149705886841,2.319773565097749,2.336865528204977,-0.5651944318700496
6.8805248737335205,2.3195781663810124,2.3363455338994,-0.3836902088373898
6.8892340660095215,2.319187368947539,2.3357490197342057,-0.4891333621567831
6.899271011352539,2.3187965715140657,2.3350724334547928,-0.3850314115062842
6.911548614501953,2.3184057740805923,2.3343053704226744,-0.22861493106300163
6.920602321624756,2.318014976647119,2.3334387632570794,-0.3583672838165942
6.9292848110198975,2.317819577930382,2.3324724772516747,-0.2752742867519132
6.939058542251587,2.3172333817801722,2.331406454344408,-0.13612946504701645
6.9485368728637695,2.316842584346699,2.330237022006268,-0.27977827803002264
6.958647012710571,2.316451786913226,2.3289569034040722,-0.20779766790071447
6.970578670501709,2.3158655907630155,2.3275558456162386,-0.3536054871176798
6.9795496463775635,2.3154747933295425,2.3260347621617234,-0.26155606940883336
6.988511562347412,2.3148885971793325,2.3244042933054425,-0.3833056976203357
6.9997100830078125,2.314497799745859,2.322669723844496,-0.27012816120786937
7.008967161178589,2.3141070023123858,2.3208317744898657,-0.0995662717703655
7.019063711166382,2.3137162048789124,2.3188918928120827,0.05826141560932098
7.026595115661621,2.313325407445439,2.31685199103042,0.1813022923369354
7.038982152938843,2.312739211295229,2.314714293154134,0.26758842194829857
7.0472657680511475,2.312348413861755,2.312481370006245,0.3224340972986809
7.059797763824463,2.3117622177115456,2.310150842739693,0.3528660588928746
7.0685319900512695,2.311566818994809,2.30772137958476,0.3654203392479636
7.077791452407837,2.3109806228445993,2.30520319546989,0.36544764890562204
7.0879833698272705,2.3105898254111255,2.302605894932218,0.3570507133768863
7.097357511520386,2.310199027977652,2.299933008343661,0.3432519800880627
7.108882904052734,2.3096128318274425,2.2971878733395927,0.3262166034843177
7.1190245151519775,2.309026635677232,2.294373800468666,0.30746115004606306
7.127564430236816,2.3084404395270224,2.291494209764011,0.011987474541130194
7.135552644729614,2.307854243376812,2.288558090360953,-0.040554960139147944
7.144490718841553,2.3070726485098656,2.2855789997230938,-0.5564805325203257
7.158836841583252,2.305509458775972,2.2825516308936877,-1.3929502097772077
7.167223930358887,2.3043370664755525,2.279460317736115,-1.8809520879292552
7.174597263336182,2.3031646741751324,2.276309007727368,-2.41749391254418
7.183333158493042,2.3019922818747123,2.2731126702695623,-3.3907894456501495
7.195596933364868,2.2998428959906088,2.2698840795544357,-4.279104048252291
7.204575777053833,2.2980843075399786,2.2666277513239192,-4.9199257681587785
7.2132861614227295,2.296325719089349,2.263340925913749,-5.0
7.221522808074951,2.2945671306387183,2.2600269963460233,-5.0
7.234654903411865,2.291245352454195,2.256687720594035,-5.0
7.246460676193237,2.2875327768361986,2.2533105888298053,-5.0
7.255638122558594,2.2849925935186217,2.249877374190753,-5.0
7.264507532119751,2.2818662140508352,2.246378431827469,-5.0
7.274481296539307,2.2785444358663116,2.242819144160745,-5.0
7.283795356750488,2.275613455115262,2.2392036322834388,-4.996426027240933
7.2929346561431885,2.272096278214001,2.235527878487037,-4.585597817502164
7.300524473190308,2.2693606961796884,2.2317959361555366,-4.342702289174983
7.312552452087402,2.2644757282612713,2.2280109501687293,-4.147918807174395
7.320551156997681,2.2615447475102215,2.2241678276072037,-3.9558612399849564
7.332218408584595,2.256855178308541,2.220262224117564,-3.4776636605722206
7.340579986572266,2.2531426026905446,2.2162905502785093,-2.956454573385122
7.349587440490723,2.2492346283558113,2.2122582407156286,-2.2089096927009484
7.359581232070923,2.2451312553043414,2.2081702535607817,-1.5040112975283368
7.368481636047363,2.2414186796863445,2.2040232201289625,-0.6526892705241243
7.377484321594238,2.237510705351611,2.1998147516202398,0.6439389714026337
7.385499715805054,2.2341889271670876,2.1955513413801033,1.5538308212328924
7.3935019969940186,2.230867148982564,2.1912475606986717,2.423706491164184
7.403245687484741,2.2265683772143574,2.186908689239888,3.08633609598711
7.412222146987915,2.222660402879624,2.182531450783035,3.795335169455656
7.420509338378906,2.2187524285448905,2.1781216059755546,4.339011365835552
7.430161237716675,2.2148444542101573,2.1736927160124613,4.674086982090735
7.441673517227173,2.210350283725214,2.1692404319143197,4.54620144099346
7.455628156661987,2.20468372093985,2.1647373267927845,4.515024602423974
7.46661114692688,2.1999941517381703,2.1601610254151176,4.466731270167554
7.4754626750946045,2.1962815761201737,2.15551775112402,4.368501384830591
7.486189842224121,2.1917874056352304,2.150821630566956,4.2204335909978345
7.4964892864227295,2.1872932351502867,2.146077173844031,4.033805668365625
7.504456520080566,2.183971456965763,2.141296835910347,3.821815021539701
7.514581203460693,2.1796726851975565,2.136491549973661,3.59607402016192
7.5242226123809814,2.175764710862823,2.1316626831359238,3.365643306638185
7.531474590301514,2.1722475339615634,2.126819741914005,3.1370966216933676
7.539443016052246,2.16892575577704,2.1219870940556294,3.190973664308868
7.5513756275177,2.1638453891418865,2.1171769631160755,3.0112244654514018
7.561562776565552,2.159742016090416,2.112375067061732,2.754265271037168
7.572521209716797,2.155247845605473,2.1075610261535695,2.488215521739959
7.583544969558716,2.1505582764037925,2.1027176331958053,2.2399294798759573
7.595498323440552,2.145477909768639,2.097838840183696,2.0176585460010763
7.605495452880859,2.1411791380004326,2.0929199796543174,1.8217840517829411
7.614091396331787,2.1376619610991727,2.087957644487837,1.6497639564143687
7.623500823974609,2.1335585880477024,2.0829657841635165,1.4983116281183597
7.632014274597168,2.1296506137129687,2.077956531919153,1.3642783236585438
7.64046835899353,2.1263288355284455,2.0729403873723546,1.2449489328374934
7.6499292850494385,2.1224208611937123,2.067934479540573,1.1380873992699971
7.658190011978149,2.118903684292452,2.062944998565962,1.0418871583247318
7.667120695114136,2.1151911086744555,2.0579688433705052,0.9548952534836221
7.675481796264648,2.1114785330564585,2.0530113989959506,0.8759381517459373
7.684532403945923,2.1075705587217253,2.0480851206816335,0.8040588481168582
7.694232940673828,2.1038579831037287,2.043191990526216,0.7384669569908355
7.703862905502319,2.099950008768995,2.038325111476544,0.6785004685208951
7.715533018112183,2.0950650408505784,2.0334782492322208,0.6235969868931647
7.72607946395874,2.0905708703656347,2.028637581209457,0.5732722911352595
7.7356116771698,2.086272098597428,2.023791281794635,0.5271043891277705
7.744557857513428,2.0825595229794316,2.018945713561588,0.484721623419762
7.75403094291687,2.0784561499279612,2.014106169919367,0.4457937376037737
7.761542081832886,2.0753297704601747,2.0092770456954567,0.4100250965667719
7.773450613021851,2.070444802541758,2.004461897669635,0.10111111330805311
7.783935785293579,2.066146030773551,1.9996471406659828,0.313801372670894
7.792109251022339,2.0626288538722912,1.9948212937314922,0.374233072728137
7.800461769104004,2.0589162782542942,1.9899912043835204,0.09362633712670415
7.811535120010376,2.0542267090526143,1.9851627833978065,0.03143534864063233
7.820527076721191,2.0503187347178806,1.9803329247904022,0.05101329435430606
7.830450534820557,2.046606159099884,1.9755073230901403,0.09258886766256169
7.839255094528198,2.0425027860484137,1.970690935986059,0.13223725171563305
7.850943088531494,2.038008615563471,1.9658718875581378,-0.11389331884067205
7.860008716583252,2.0341006412287372,1.9610404667398575,-0.12787482487086427
7.868364572525024,2.0307788630442136,1.9562050992184892,-0.06291334807940105
7.879525899887085,2.0256984964090607,1.9513734592972722,0.015880048767163396
7.88947057723999,2.0213997246408537,1.94654449941289,-0.19207234179325589
7.899192571640015,2.0169055541559104,1.9417179410167391,0.1015356657667407
7.912051439285278,2.0116297888040204,1.9368866808924794,0.2236038124171647
7.919522285461426,2.00869880805297,1.9320455418140752,0.26455993024205
7.929463148117065,2.0045954350015,1.927206204512095,0.2684415932355223
7.938648462295532,2.0006874606667666,1.9223794040308957,0.2564264666857267
7.947109699249268,1.9969748850487696,1.9175674279299586,0.23849833034721815
7.9564783573150635,1.9928715119973,1.912772942501383,0.219210570796894
7.967263221740723,1.9885727402290931,1.907998851511608,0.20051916003731068
7.975553750991821,1.9850555633278328,1.9032550090655698,0.18316491171228916
7.984490871429443,1.981538386426573,1.8985568967513997,0.16734055793238622
7.9955198764801025,1.9768488172248928,1.8939107172711984,0.15300737071901793
8.006134986877441,1.9723546467399493,1.8893081043541116,0.1400415562619023
8.01356554031372,1.9690328685554261,1.8847419468681863,0.12829904190410565
8.021507740020752,1.9657110903709027,1.880226012752731,0.11764191940340854
8.033499717712402,1.9610215211692226,1.8757716177164396,0.10794744332296904
8.042863130569458,1.9569181481177527,1.8713679822041664,0.09910952052521713
8.05100393295288,1.9534009712164924,1.8670054117334327,0.0910372989697841
8.060550451278687,1.9496883955984958,1.862688266760653,0.0836529077223326
8.068620920181274,1.9463666174139724,1.8584261094474452,0.07688919727832566
8.077361822128296,1.943044839229449,1.8542195971745237,0.07068778067007928
8.085433721542358,1.939527662328189,1.8500684059428898,0.06499743846449363
8.093453407287598,1.9360104854269287,1.8459779156778302,0.05977285797402877
8.103203773498535,1.9319071123754588,1.8419449352385298,0.05497364875334611
8.112502574920654,1.9279991380407253,1.8379589713810485,0.050563575048372895
8.123209953308105,1.9237003662725185,1.8340100766396759,0.32254831376149573
8.132107734680176,1.9195969932210482,1.8300889093899506,0.07590778259540779
8.142369270324707,1.9154936201695782,1.8261867648241479,-0.01574091826287425
8.152082204818726,1.9111948484013719,1.8222955257195437,-0.039880105579748096
8.16050672531128,1.9076776715001116,1.8184077618315138,-0.03721622267911219
8.17066502571106,1.9033788997319045,1.8145168239629579,-0.02598129424739295
8.179130554199219,1.8998617228306447,1.8106239047634503,-0.013809350025699526
8.188571691513062,1.8959537484959115,1.806736875397816,-0.0034826439215109974
8.199134826660156,1.8918503754444413,1.802854971158099,0.28036797275471304
8.207536220550537,1.888528597259918,1.798977382075612,0.3189588961149869
8.21578860282898,1.8848160216419212,1.795103254570873,0.2674164160357628
8.224809885025024,1.8807126485904508,1.791217357036816,0.19343505427157065
8.23327112197876,1.8775862691226646,1.787314174767267,0.12396361068878964
8.242515087127686,1.8738736935046676,1.7834037520460015,0.0676563717128594
8.253531217575073,1.8687933268695143,1.7794876539318185,0.025474505565174162
8.26389455795288,1.8644945551013075,1.7755532985560385,-0.004450130030431548
8.271546602249146,1.861368175633521,1.7715906478546046,-0.024688855064803936
8.282305002212524,1.8568740051485775,1.7676061631965139,0.23837126679750234
8.290475368499756,1.853552226964054,1.7636130136783774,0.26377337932653105
8.299022197723389,1.8500350500627938,1.7596228069810413,-0.07138042876098241
8.307987689971924,1.8463224744447972,1.7556389986582142,-0.18205909492652
8.31754732131958,1.8422191013933271,1.7516582628210284,-0.19724310968261108
8.326498746871948,1.838701924492067,1.7476850921537772,0.09961239311372135
8.337543964385986,1.8342077540071235,1.7437240932096068,0.16330836663451329
8.34544849395752,1.8308859758226002,1.7397732181549725,-0.1381733233186832
8.358497381210327,1.8254148117539735,1.7358316152209277,-0.22226426026081605
8.366451978683472,1.82209303356945,1.731899496042812,0.05832743408737516
8.375466108322144,1.818380457951453,1.7279897416399372,0.12629622489720266
8.384415864944458,1.8144724836167199,1.7241197904598178,0.11137081581501004
8.395493507385254,1.8099783131317762,1.7202926844959954,0.07125285230348685
8.407670974731445,1.8050933452133597,1.7165000307454834,0.029790265105163413
8.41715145111084,1.800794573445153,1.7127300501919542,-0.004584882533840181
8.425458431243896,1.7972773965438928,1.7089845703521613,-0.030091577992866072
8.437049388885498,1.7925878273422127,1.7052715160603074,-0.04753526077687982
8.44546365737915,1.7890706504409528,1.7015927475722072,-0.058497930621254475
8.45726466178894,1.7837948850890626,1.6979504640424286,-0.06458883186114905
8.46845555305481,1.778909917170646,1.6943377890617406,-0.06717868639252403
8.47679328918457,1.7757835377028592,1.6907450270297866,-0.06734298728603415
8.485816717147827,1.7720709620848625,1.687174509326473,-0.06588692689099912
8.493422985076904,1.7689445826170758,1.6836378818840498,-0.06339511851339386
8.501458168029785,1.7656228044325524,1.6801538513760659,-0.06028250145503857
8.511799812316895,1.761128633947609,1.6767380000214664,-0.05683799122500888
8.519493103027344,1.7581976531965589,1.6733986450959333,-0.05325901244282878
8.530928611755371,1.753312685278142,1.6701381598766194,-0.049677632606069985
8.538609504699707,1.7499909070936184,1.6669538642418418,0.2298585494712316
8.548022508621216,1.7462783314756218,1.663846970070324,0.2663436410030127
8.556132555007935,1.742761154574362,1.6608180430802189,-0.06160036938271796
8.566991090774536,1.7380715853726818,1.6578591479577307,-0.16780362450127953
8.574384450912476,1.7347498071881584,1.6549668632302086,0.0956242652214291
8.584797620773315,1.7298648392697418,1.6521454243256224,0.15083623367427856
8.59348464012146,1.7267384598019548,1.649393884608407,0.12670236666820395
8.605086326599121,1.7218534918835382,1.6467067773360011,-0.19595421270327498
8.61442494392395,1.7183363149822781,1.6440748417086053,0.0009978145340957395
8.62567663192749,1.7136467457805982,1.6414854531985232,0.05179259447124003
8.635506868362427,1.7093479740123914,1.6389308316048286,0.0452522214560091
8.645480394363403,1.705244600960921,1.6364112733431218,0.020949573405495213
8.655761241912842,1.701141227909451,1.6339217867931402,-0.0047064189576381255
8.663476705551147,1.6980148484416642,1.6314531102501473,-0.025867072612881296
8.674644708633423,1.6933252792399842,1.6290046159716889,-0.04124929813834977
8.683109998703003,1.6898081023387241,1.6265745792984054,-0.051353255378558144
8.690442562103271,1.6866817228709376,1.6241607432551328,-0.05722161929072717
8.700489521026611,1.6823829511027306,1.6217646585945868,-0.0599244735765134
8.709036588668823,1.678670375484734,1.6193819697009029,-0.06037539776532341
8.716495990753174,1.6755439960169474,1.617003242545152,-0.05929102009384608
8.725498676300049,1.6718314203989504,1.6146244418710702,-0.057206814739837374
8.73440933227539,1.6683142434976903,1.6122463088195071,-0.05451018211246382
8.744450330734253,1.6642108704462204,1.6098635986032264,-0.05147458591683824
8.753387928009033,1.6603028961114872,1.607465958514343,-0.04828891169843892
8.763417720794678,1.6563949217767535,1.6050438377393705,-0.045080723517891066
8.773051023483276,1.6526823461587568,1.6025885703136462,-0.041933872913500814
8.783578395843506,1.6481881756738137,1.6000924287897382,-0.0389014681486254
8.793428421020508,1.6438894039056067,1.597548608818953,-0.3120536139102064
8.803786754608154,1.6395906321374,1.594951253185631,-0.3424552742010337
8.812512874603271,1.63607345523614,1.5922954714442357,-0.28480549942462535
8.822499990463257,1.63197008218467,1.5895772976728608,-0.20633895377101927
8.833345174789429,1.627085114266253,1.58679366979602,-0.4096403438025215
8.843006610870361,1.6231771399315198,1.5839423969156219,-0.38408970121434316
8.85047698020935,1.6198553617469964,1.5810221134496847,-0.2850942497997895
8.862038612365723,1.6153611912620527,1.578032233133111,-0.17783757471430056
8.870389461517334,1.6118440143607926,1.5749790922229556,-0.08616550297646536
8.879510164260864,1.608131438742796,1.571874890777991,-0.01589538111101884
8.888437509536743,1.604614261841536,1.5687243315897534,0.03432273431433577
8.898272037506104,1.600510888790066,1.5655257485421086,0.06813078892348803
8.909834861755371,1.5954305221549125,1.5622783216100986,0.36545206378563216
8.920742273330688,1.5907409529532324,1.5589757569635156,0.4107097689013583
8.928434371948242,1.5876145734854459,1.5556133944104586,0.08523716368123037
8.938268423080444,1.5837065991507122,1.5522004474943805,-0.022755292760759722
8.949581861495972,1.5790170299490323,1.5487453045998192,0.23611084861967077
8.95992374420166,1.574327460747352,1.5452492604794315,0.009010842095833221
8.972456216812134,1.569051695395462,1.541707480910784,-0.055491033240202846
8.98041582107544,1.5659253159276751,1.5381163023903832,-0.05471506162093767
8.989388704299927,1.5624081390264153,1.5344856817268702,-0.03241047715032125
8.998454093933105,1.5586955634084183,1.5308243505866475,-0.00702262466511306
9.009133577346802,1.554201392923475,1.5271335645477973,0.014618619644528794
9.019412755966187,1.5502934185887418,1.523414523343872,0.030766196267048726
9.031126499176025,1.5457992481037983,1.519661881802369,0.31774593765953507
9.039349555969238,1.5420866724858016,1.5158712886858134,0.35755617431282405
9.049694776535034,1.537592502000858,1.5120456466934404,0.30592321138418266
9.058435678482056,1.5336845276661246,1.5081875224577104,0.23098472260997469
9.067456483840942,1.529971952048128,1.5043057569523846,0.16000835070926078
9.078730821609497,1.525282382846448,1.500407676428663,0.10187319089446983
9.087404489517212,1.5215698072284511,1.4964926387563187,0.057696103445362704
9.095481872558594,1.5182480290439277,1.492566649073797,0.0257148086720251
9.104354858398438,1.514535453425931,1.4886412706295706,0.0034284274432117862
9.114475011825562,1.5106274790911975,1.484718924657544,-0.011542920320162051
9.124360799789429,1.506328707322991,1.4807941481246196,-0.021175756188774708
9.134543418884277,1.5022253342715206,1.476861615331883,-0.02700524333794926
9.14440393447876,1.498121961220051,1.472916136290576,-0.03017838672111617
9.153129816055298,1.4948001830355275,1.4689526690335573,-0.031531149528116864
9.164241075515747,1.4899152151171104,1.4649663219317575,0.24437600861672187
9.174463272094727,1.4856164433489039,1.4609523691483965,0.27816762947851653
9.18419599533081,1.4815130702974335,1.4569062445728866,-0.0517987318611286
9.193480491638184,1.477800494679437,1.4528314788140104,0.11649674932470822
9.201677799224854,1.4744787164949138,1.4487386951812193,0.1358200817077984
9.212377786636353,1.4699845460099703,1.4446288255452273,0.10187310804319002
9.223277568817139,1.465490375525027,1.4404864893862819,0.056000543530960026
9.233105897903442,1.4617777999070298,1.4362905543592834,0.014331719500678228
9.244406461715698,1.45708823070535,1.4320314402905934,-0.018238404162591162
9.25340723991394,1.4533756550873536,1.4277015792765835,-0.04147156196175676
9.26495885848999,1.4482952884522,1.4232873701147326,-0.05678625802727171
9.272947311401367,1.445168908984413,1.418794578539926,-0.06595998206577944
9.281366109848022,1.441651732083153,1.4142453557766264,-0.07062178575950832
9.290015459060669,1.4381345551818931,1.4096593185954842,-0.07209754697127914
9.298399448394775,1.4346173782806328,1.405053751254236,-0.07140183730991437
9.30847954750061,1.4303186065124263,1.4004359059183948,-0.06928227681544358
9.317675590515137,1.4266060308944293,1.395812331140194,-0.06627556552478014
9.327441930770874,1.422111860409486,1.3911968996650768,0.2132791996418452
9.335367918014526,1.4183992847914892,1.3866016026486436,0.2501693227006394
9.348400831222534,1.413318918156336,1.3820291494078902,-0.07712808393152301
9.356466054916382,1.4101925386885492,1.377466957079016,-0.18254347117830122
9.364397764205933,1.4070661592207623,1.3729050616886214,-0.19429340295189151
9.37337851524353,1.4033535836027657,1.3683507812557487,0.10471930948791261
9.382938623428345,1.3992502105512956,1.3638182096156148,-0.10634817307024759
9.39142656326294,1.3957330336500358,1.359312454690641,-0.16424411897624902
9.40044093132019,1.3922158567487755,1.3548380259888217,-0.15984767093040345
9.41140866279602,1.387721686263832,1.350399258485884,0.14172813456900418
9.420766353607178,1.3836183132123618,1.3459864103168278,0.2039571928300802
9.429681301116943,1.3799057375943653,1.3415918240820885,0.17484559109693137
9.43845796585083,1.3761931619763685,1.3372231005908695,-0.15628300559683272
9.448341131210327,1.371894390208162,1.3328935835900126,0.03220547412820203
9.457403659820557,1.368181814590165,1.3286081879244207,0.0757730159442485
9.466814279556274,1.3640784415386948,1.3243584806125008,0.06348890661718418
9.475375652313232,1.3607566633541714,1.3201376065751464,-0.2412456801637522
9.483333110809326,1.357434885169648,1.3159525178964675,-0.30331644135595937
9.492038488388062,1.3541131069851247,1.3118092747357446,0.004222150892784993
9.500361680984497,1.3505959300838646,1.3077127126318175,0.0962535969329777
9.509652614593506,1.346883354465868,1.3036727205497003,0.10025072398315452
9.521423578262329,1.3419983865474514,1.2996855842790098,0.07393833749124473
9.532411336898804,1.3373088173457712,1.2957360659271042,0.04197838102233429
9.541339635848999,1.3334008430110378,1.2918228064792163,0.013768558177667898
9.550345659255981,1.3294928686763046,1.2879561304842835,-0.008039077997597241
9.559214353561401,1.3257802930583074,1.2841385901310776,-0.023545290256097015
9.569365501403809,1.3216769200068375,1.2803661183729766,-0.033793720201240156
9.577813386917114,1.318355141822314,1.2766348395729425,-0.0399964179094171
9.586357355117798,1.314837964921054,1.2729467318271706,-0.0432379202578909
9.596343040466309,1.3105391931528474,1.2693029063317747,-0.044391177211195655
9.605450630187988,1.3066312188181142,1.2656922122170764,-0.04412020619960036
9.618038177490234,1.3019416496164338,1.2621046145551704,-0.042912675801088505
9.625378131866455,1.298815270148647,1.258542614952998,0.23492030773254607
9.63541841506958,1.2949072958139138,1.255013530451244,0.27018101693289254
9.643334150314331,1.2915855176293904,1.251516941272413,-0.05864661283216993
9.654109239578247,1.2867005497109734,1.248039665456133,-0.16549131905597642
9.663912296295166,1.2829879740929768,1.2445696565586761,0.09746722579048614
9.673704862594604,1.2786892023247702,1.241108049554012,0.15233232757248188
9.682680606842041,1.2747812279900368,1.2376548722818173,-0.14809937626048267
9.69077754020691,1.2714594498055134,1.2342030527335415,-0.22803907557928577
9.700692415237427,1.2677468741875166,1.2307456431732633,-0.21905533766709806
9.712553024291992,1.2628619062690998,1.2272759175983756,-0.18051649911778855
9.723368644714355,1.2579769383506831,1.2237874972268472,-0.13761709949823783
9.731363773345947,1.2546551601661597,1.2202812875118305,-0.09981307994787518
9.740447521209717,1.2509425845481628,1.216764428537014,-0.06963477953495883
9.750105142593384,1.2472300089301662,1.2132285764754045,-0.04681022040829818
9.759398698806763,1.2433220345954328,1.2096523487993673,-0.030128509565057728
9.76737356185913,1.2400002564109094,1.2060317098250055,-0.2942711384931134
9.776671886444092,1.2362876807929126,1.202377554291975,-0.3190824919906187
9.784332036972046,1.2333567000418626,1.1986992850909501,-0.2582860277310501
9.792848348617554,1.2298395231406025,1.1950049641963192,-0.17837574203029233
9.800350904464722,1.2263223462393424,1.191301458830718,-0.10535325120428217
9.808371305465698,1.2228051693380821,1.1875945759128441,-0.3231970242491178
9.817497730255127,1.218897195003349,1.1838891670961005,-0.31339269341210435
9.830204963684082,1.2140122270849323,1.1801819575411503,0.04765057601542036
9.840319871902466,1.2097134553167255,1.1764555459505803,0.17658439588698172
9.850347518920898,1.2056100822652553,1.172695456482172,-0.07187582520342056
9.861346006393433,1.2011159117803119,1.1688899137106847,-0.11774861589518135
9.870344161987305,1.1972079374455786,1.1650295760333684,0.18777891930221358
9.879352331161499,1.1932999631108452,1.1611218521216968,0.27011542103813196
9.8883216381073,1.1899781849263218,1.157173570756117,0.2616990896171195
9.896358489990234,1.1864610080250617,1.153190976081003,-0.05351929986451742
9.905303001403809,1.1829438311238019,1.149187047605581,-0.1309558667630638
9.914331912994385,1.1794266542225416,1.14516562094066,0.16049609100071185
9.923125743865967,1.1757140786045446,1.1411226750013506,-0.03864839071875674
9.934420585632324,1.170829110686128,1.1370548916347174,-0.08142533405784619
9.944337844848633,1.166725737634658,1.132959578521578,-0.0647472067952591
9.953346490859985,1.163208560733398,1.128834546840383,-0.03131642449734385
9.961349487304688,1.1596913838321379,1.1246855694502393,0.0015326611792912774
9.970472812652588,1.1559788082141411,1.120517580449786,0.0279347223312053
9.97874641418457,1.1526570300296177,1.1163272895465157,0.046909233299361044
9.986380815505981,1.149530650561831,1.112127153844248,0.05932400522477129
9.99488377571106,1.1462088723773076,1.1079276097036295,0.06655584644987901
10.004125118255615,1.1426916954760478,1.1037221899673997,0.34598442367798343
10.012866497039795,1.1387837211413143,1.0995129892980708,0.3797787474629206
10.022342920303345,1.1346803480898442,1.0953016955946537,0.04746221547173521
10.03167986869812,1.1309677724718472,1.0910820492417148,-0.06413305790796424
10.040092945098877,1.1274505955705874,1.0868564497873343,0.19335497230095972
10.05488395690918,1.1213932353517506,1.0826192925123164,0.24240648117947017
10.062560558319092,1.1182668558839637,1.0783429888742597,0.21211276572841692
10.073326349258423,1.1135772866822837,1.0740200444471348,0.15948034079025994
10.08129596710205,1.1102555084977603,1.0696753528553389,0.10774124804599225
10.089749813079834,1.1067383315965003,1.065330226924329,0.06482734091303918
10.100836038589478,1.1022441611115568,1.0609796878323714,0.032130857811270654
10.10870623588562,1.0993131803605067,1.056611890172072,0.008551146743104398
10.116595983505249,1.0959914021759836,1.0522323015215342,-0.007715432388244258
10.12530255317688,1.0924742252747233,1.0478532874578639,-0.01844394781227585
10.137545347213745,1.0875892573563064,1.0434774202225996,-0.025129461418218008
10.145426988601685,1.084267479171783,1.0390911001060603,-0.028941327316637726
10.153867721557617,1.0807503022705232,1.0346904689530854,-0.0307563282046825
10.163033962249756,1.0770377266525264,1.0302876613174292,-0.031214412452281837
10.172439575195312,1.073129752317793,1.0258846698625737,-0.03077396058515316
10.182980298995972,1.0688309805495864,1.0214747220729867,-0.029758578416754698
10.192332744598389,1.064727607498116,1.0170514500838634,-0.028393888362398662
10.20263957977295,1.0604288357299092,1.012608812265134,0.2492030740599
10.210323333740234,1.0576932536955959,1.0081494689611787,0.28397460875706415
10.21932077407837,1.053980678077599,1.0036834837896644,0.23054206882920575
10.228333473205566,1.0500727037428659,0.9992102336581866,0.15609349463248584
10.23966360092163,1.0455785332579226,0.9947109877156358,0.08714986456289305
10.247800588607788,1.042256755073399,0.9901690979759477,0.03203231784076644
10.257179021835327,1.0383487807386655,0.985587618409219,-0.008545283980394665
10.26563048362732,1.0350270025541424,0.9809684665500811,-0.0366287357896628
10.27332878112793,1.031705224369619,0.9763130939163879,-0.054913670621874494
10.282867670059204,1.0277972500348853,0.9716315658739174,-0.06591038132182801
10.293388366699219,1.0236938769834154,0.9669225051763104,-0.07167998424241127
10.303017139434814,1.0195905039319453,0.9621747391637134,-0.07381007409217083
10.310348749160767,1.0164641244641586,0.9573880521376106,-0.0734778027725449
10.32027816772461,1.0125561501294251,0.9525716289343691,-0.07153404907387519
10.329701662063599,1.009038973228165,0.9477228697936771,-0.06858230266306399
10.338173389434814,1.005521796326905,0.942839341128028,-0.06504382678494082
10.350006580352783,1.000246030975015,0.9379182507436725,-0.06120820851386048
10.361868619918823,0.9951656643398614,0.9329253608136393,-0.05727117936150693
10.369402170181274,0.9920392848720748,0.9278313629720021,-0.053362277292045804
10.379317283630371,0.9883267092540782,0.9226430013035091,-0.049564776208915806
10.388402223587036,0.9844187349193447,0.9173658489318047,-0.04592989413473873
10.396835803985596,0.9809015580180845,0.9119937081024758,-0.042486844245851384
10.405818939208984,0.9773843811168246,0.9065211478752656,-0.0392499016686223
10.414307355880737,0.9738672042155644,0.9009550838171662,-0.0362233459154139
10.423288583755493,0.9703500273143044,0.8953129649011563,-0.03340490016155487
10.432300329208374,0.966442052979571,0.8895979001454515,-0.030788111718897473
10.441608905792236,0.9625340786448376,0.883800712093521,-0.028363989393848522
10.450356721878052,0.9588215030268408,0.8779256137228802,-0.0261221209277226
10.459339618682861,0.9553043261255808,0.8719882873647546,-0.02405142776165775
10.467735290527344,0.9519825479410575,0.8659898220807336,-0.02214066761060504
10.477844953536987,0.9478791748895873,0.8599188687011561,-0.020378762307672386
10.485268354415894,0.9447527954218007,0.8537783591438327,-0.01875500512575946
10.49829387664795,0.9392816313531739,0.84757079648339,-0.017259185441915882
10.509286403656006,0.9343966634347571,0.8412731788256456,-0.015881657147064597
10.518303871154785,0.9304886891000236,0.8348663723621428,-0.014613369169659184
10.528466939926147,0.9261899173318169,0.8283473519703648,-0.013445870860175763
10.538906335830688,0.9220865442803469,0.8217141950489238,-0.012371301052262943
10.547579765319824,0.91896016481256,0.814965924855434,0.2646559928059676
10.556284427642822,0.9154429879113001,0.8081156634246384,0.29869064638301185
10.564293146133423,0.91192581101004,0.8011749487244361,0.24443079785325972
10.574278354644775,0.90782243795857,0.794140728168818,0.1691163212915562
10.584027290344238,0.9037190649070999,0.7870244141048404,0.09930260919475598
10.592616319656372,0.900592685439313,0.7798358533018225,0.04333311724363961
10.603294610977173,0.8960985149543697,0.7725699497797572,0.0019356702432885564
10.612323999404907,0.8925813380531097,0.7652224507796861,-0.026927291395728865
10.621664047241211,0.8884779650016396,0.7577898919693964,-0.045947058540261404
10.631135702133179,0.8845699906669061,0.7502695200454098,-0.057632196597632204
10.640296697616577,0.8806620163321728,0.742673498274359,-0.06404382149890481
10.649845123291016,0.8767540419974394,0.7350121328854091,-0.0667706405746086
10.657334566116333,0.8736276625296527,0.7272799930835099,-0.06699160886329675
10.667272090911865,0.8697196881949194,0.7194871710691081,-0.06555980991727556
10.676300525665283,0.8660071125769225,0.7116568125858677,-0.06308114400239481
10.685319423675537,0.8622945369589258,0.7038085071397598,-0.05997935971936985
10.696594715118408,0.8578003664739824,0.6959289749450625,-0.05654651801897136
10.704268217086792,0.8548693857229324,0.6879921177425167,-0.32901911721574645
10.713342189788818,0.8511568101049355,0.6800056004983039,-0.358576885448732
10.723037719726562,0.8470534370534655,0.671975871975263,-0.023958819842959
10.730825185775757,0.8437316588689421,0.6638934883673392,0.08859557795316983
10.740325927734375,0.8400190832509454,0.6557506013178866,-0.16884136748080902
10.749917984008789,0.8361111089162119,0.6475408380341359,-0.21843804971391043
10.757489919662476,0.8329847294484253,0.6392744474076321,-0.18906554097551315
10.765334367752075,0.8298583499806385,0.6309756907953603,-0.13757694291290254
10.773659467697144,0.8261457743626417,0.6226652657789096,-0.08709887440485312
10.783543586730957,0.8220424013111718,0.6143606051117441,-0.32153020261565335
10.791943550109863,0.8183298256931749,0.6060607090760706,-0.3232636820998235
10.802467584609985,0.814226452641705,0.5977489985509697,-0.24585992900682857
10.810305118560791,0.8112954718906548,0.5894268154269052,-0.15473038096354685
10.818862199783325,0.8077782949893948,0.5810952287974671,-0.07463897650297058
10.827304124832153,0.8044565168048715,0.572739653754763,-0.012423553405515778
10.83800196647644,0.799962346319928,0.5643634486732505,0.03236395594539023
10.845796346664429,0.7966405681354046,0.555969604782389,0.0626416828218607
10.854089498519897,0.7931233912341445,0.5475609001777276,0.35778115111983105
10.863819122314453,0.7890200181826744,0.5391555748988224,0.12575950800813582
10.873729467391968,0.7851120438479411,0.5307539317542238,0.04260534479639254
10.88288140296936,0.781594866946681,0.5223414510662445,0.022674536985044923
10.890382528305054,0.7784684874788942,0.5139221008583685,0.026616408652966897
10.898370504379272,0.7751467092943709,0.5055154999321675,0.037176930592526136
10.907555341720581,0.7708479375261642,0.49712438667316056,0.047416035583876054
10.918292045593262,0.766744564474694,0.4887377431586565,0.05503722194250964
10.928314208984375,0.7628365901399606,0.4803485454049632,0.05970696643003468
10.936851739883423,0.7595148119554372,0.47196710170172734,0.06182261158524256
10.946923017501831,0.7552160401872305,0.46361812658573726,0.061971992836898596
10.954587459564209,0.7522850594361805,0.455310856007984,0.060716190759733626
10.962341070175171,0.7491586799683937,0.4470544037347243,0.05851792775629939
10.973348379135132,0.7450553069169236,0.4388594222435208,0.055731647172153356
10.98341679573059,0.7407565351487168,0.4307129420119688,0.05261663847200003
10.991974592208862,0.7368485608139834,0.4226071046753541,0.04935623130975421
11.00027585029602,0.7333313839127235,0.4145615249408466,0.046076208427904206
11.009379148483276,0.7296188082947267,0.4066058625028092,0.042860159130738304
11.018324375152588,0.7261016313934666,0.3987561223585723,0.0397614367846601
11.027867078781128,0.7219982583419965,0.3910169238363843,0.03681211372124099
11.037181377410889,0.7180902840072632,0.3834032941687268,0.034029523244272816
11.046700477600098,0.7141823096725297,0.3759383241132336,0.03142095857179456
11.055767059326172,0.7106651327712696,0.36863278042246805,0.30502536567187793
11.064087867736816,0.7069525571532729,0.361487034065224,0.3358868482670545
11.074024200439453,0.702849184101803,0.3545019905357942,0.27869078529933294
11.085289001464844,0.6985504123335962,0.3476788227538815,0.2006631552006133
11.096649885177612,0.6942516405653893,0.34101146891443096,0.12834505234206167
11.10867977142334,0.6889758752134992,0.33448796256305885,0.0700657161699042
11.11639666557312,0.6858494957457124,0.32810624898007296,0.02653914814949667
11.127538204193115,0.6809645278272958,0.3218723209962493,-0.004285450380073861
11.137781858444214,0.6770565534925623,0.31579124000814696,-0.02511191560836893
11.146372318267822,0.673734775308039,0.3098671737408627,0.2375777491457329
11.15436053276062,0.6704129971235157,0.3041092916368295,0.2627592787823787
11.164610147476196,0.6661142253553088,0.29853060074282944,0.20352558693489242
11.175273656845093,0.661815453587102,0.29313518571086683,0.1259222881773824
11.183264017105103,0.6588844728360521,0.287919658424836,0.05563753530054331
11.19493055343628,0.654194903634372,0.28287524857206675,0.0003958068203530375
11.202359199523926,0.6508731254498485,0.2779988215451023,-0.03951088907476428
11.211272716522217,0.6471605498318519,0.27330207547544827,-0.06642330158852545
11.221863985061646,0.6428617780636451,0.2687886287517327,-0.08324111685684626
11.230730295181274,0.6393446011623851,0.2644502173358534,-0.09261419350883218
11.239251613616943,0.6356320255443884,0.26028337000450236,-0.0966978094403882
11.248227834701538,0.6319194499263915,0.2562885092438547,-0.097141958279639
11.257329225540161,0.6280114755916582,0.2524602034614956,-0.09516410693638405
11.269133806228638,0.6231265076732413,0.24878427845328974,-0.09164019400639076
11.27926230430603,0.618632337188298,0.24524409346814877,-0.08718831037401982
11.28760838508606,0.6153105590037747,0.24182920750505815,-0.0822372183411422
11.29567551612854,0.6121841795359879,0.23853796642807767,-0.07707924206952438
11.304313659667969,0.6088624013514644,0.2353718840118121,-0.07190971365975538
11.3132164478302,0.605540623166941,0.23232773892349715,-0.06685575929545078
11.323230504989624,0.601437250115471,0.22939843044083283,-0.061997001991434805
11.332354545593262,0.5975292757807376,0.22657739733806828,-0.05738029800472426
11.341247797012329,0.5938167001627408,0.22385856830979234,-0.053030145367617666
11.349727392196655,0.5904949219782174,0.22123929590928024,-0.048955989521712436
11.359183073043823,0.5865869476434841,0.21871977853057645,-0.04515732237899549
11.37112021446228,0.5817019797250673,0.21629371098473515,-0.04162722148735003
11.380259990692139,0.577794005390334,0.21395222127174543,-0.03835479144001415
11.388358116149902,0.5744722272058105,0.21169306383048614,-0.03532683561631288
11.397334098815918,0.5707596515878138,0.20951397179116962,-0.03252899007180603
11.407000541687012,0.566460879819607,0.20740987126058782,-0.029946482809654545
11.41722059249878,0.5621621080514002,0.20537617654725984,-0.027564633060611
11.426224708557129,0.5588403298668769,0.20341109155576279,-0.02536917088630919
11.438273668289185,0.5541507606651968,0.20151284048207016,-0.02334643327360916
11.446876525878906,0.5506335837639368,0.1996749783864976,0.2545548837617985
11.454264402389526,0.5475072042961501,0.19789186940873765,0.28939483485084916
11.464699506759644,0.5432084325279433,0.1961609239095803,-0.040161662298796585
11.473191976547241,0.5396912556266832,0.1944817737699259,-0.14791778169643469
11.482910871505737,0.5355878825752132,0.19285586915645556,0.11403285628655864
11.492251873016357,0.531484509523743,0.19128211398383643,0.1678516949753246
11.504264116287231,0.5265995416053263,0.1897573224118795,-0.13362606507800634
11.513264894485474,0.5230823647040662,0.1882786178550577,-0.2145866830564971
11.521703720092773,0.5195651878028061,0.18684339698312172,-0.20658322367428153
11.529268026351929,0.5166342070517561,0.1854510219122103,0.10706336969822504
11.539226770401001,0.5123354352835494,0.18410246703711838,0.18221107935969397
11.549291849136353,0.5082320622320793,0.18279494509141933,0.16409755067833331
11.558262348175049,0.5045194866140825,0.18152418819021537,0.11742630309185333
11.567267894744873,0.5011977084295592,0.18029128333896194,0.06901789142218731
11.577080249786377,0.4970943353780891,0.1790985327231119,0.028419496438002262
11.586334705352783,0.4935771584768291,0.1779444519257011,-0.0022914120837787023
11.598811149597168,0.488301393124939,0.17682460856098037,-0.023955980400475217
11.607229471206665,0.4847842162236789,0.17573515761697214,-0.03830388742620982
11.615586757659912,0.48107164060568214,0.17467563668232208,-0.047110080532173894
11.623259782791138,0.4779452611378954,0.17364690374531874,-0.051893344099502636
11.633265256881714,0.47384188808642536,0.17264946229201006,-0.05384968414846093
11.643240690231323,0.46993391375169197,0.17168223556363574,-0.05387785400530708
11.653246879577637,0.4656351419834852,0.17074164111444298,-0.05263326653954856
11.662373781204224,0.46211796508222514,0.16982344660941914,-0.05058372363581097
11.671273708343506,0.45820999074749164,0.16892535094150457,-0.048057393549187824
11.68094515800476,0.4541066176960216,0.1680466420627756,-0.04528085198356696
11.689653635025024,0.4507848395114983,0.16718672670790513,-0.042407914995367335
11.697292566299438,0.4480492574771848,0.1663461671567539,-0.03954090172883761
11.705203294754028,0.44453208057592475,0.16552748721118274,-0.03674603760065347
11.713252305984497,0.4412103023914014,0.16473266821575225,-0.3101028369068535
11.721234798431396,0.4382793216403513,0.1639621295959441,-0.34068308624916854
11.730535984039307,0.43437134730561794,0.16321506745041,-0.28319084209307605
11.740493774414062,0.4306587716876212,0.16248965287421369,-0.20486449131502038
11.751198291778564,0.4259692024859411,0.1617851744325178,-0.13225319095672958
11.760288715362549,0.4220612281512078,0.16110094513362136,-0.3497296052888841
11.770222425460815,0.417762456383001,0.1604353349933941,-0.3390586300861561
11.78022813796997,0.4138544820482676,0.15978604073877037,-0.2528829771806538
11.789218187332153,0.4101419064302709,0.15915021339337404,-0.15573359638071238
11.798905611038208,0.4064293308122741,0.158527154753951,-0.07164025439418857
11.808225870132446,0.4025213564775407,0.15791795348167093,-0.006869008830354462
11.817009210586548,0.3991995782930173,0.15732342418223216,0.03945641313429592
11.827256917953491,0.3945100090913372,0.15674414702104905,0.0705669727691074
11.836456537246704,0.3907974334733405,0.15617972647150616,0.09002053672979402
11.845199584960938,0.38747565528881706,0.15562896687572275,0.10094412449015436
11.855114221572876,0.383372282237347,0.15509082093281612,0.10583424874573935
11.864589929580688,0.37965970661935033,0.15456436781916105,0.10658246315920664
11.87294626235962,0.3763379284348269,0.15404882571874504,0.10457583230702275
11.88314938545227,0.3718437579498835,0.15354355429672478,0.10080849115357654
11.895845174789429,0.36676339131473,0.15304735037798778,0.0959802942083658
11.903252840042114,0.36383241056368,0.15255920282302685,0.09057609558741636
11.911227226257324,0.3605106323791566,0.15208024905145284,0.08492630901772386
11.919854640960693,0.3569934554778965,0.15161208465624812,0.07925178686854505
11.928224802017212,0.35347627857663644,0.15115533857013816,0.07369643762872637
11.937787294387817,0.3497637029586398,0.15071047956896846,0.06835062116973248
11.945962905883789,0.346637323490853,0.1502772488152275,0.06326777193938285
11.955230236053467,0.3429247478728562,0.1498547781275679,0.05847612624712055
11.964229345321655,0.33921217225485956,0.14944229851922317,0.05398694726072675
11.973050594329834,0.3353041979201261,0.14903914869895152,0.04980026319383869
11.984895944595337,0.330614628718446,0.1486447805751348,0.045908849305430856
11.993824481964111,0.327097451817186,0.14825873652881466,0.0423009748615993
12.003036737442017,0.32338487619918926,0.14788064514120264,0.03896228456494679
12.012760400772095,0.31928150314771914,0.14751021458189825,0.035877075305340456
12.021257877349854,0.31576432624645917,0.147147207406957,0.033029151795240866
12.029324531555176,0.3122471493451991,0.14679234646516356,0.030402389941885103
12.03920578956604,0.30814377629372897,0.14644713361324063,0.027981098214789196
12.050979137420654,0.30345420709204884,0.1461114119264726,0.025750240117926388
12.062043190002441,0.29896003660710546,0.14578322833840343,0.023695561807010768
12.072219610214233,0.2948566635556354,0.14546138046591855,0.021803655524613268
12.081891298294067,0.2913394866543753,0.14514614014219898,0.020061980162715466
12.092221975326538,0.2870407148861686,0.1448377301621273,0.018458853713999926
12.102248668670654,0.2827419431179618,0.1445359152898453,0.016983427796046998
12.112218618392944,0.2788339687832284,0.14424048302105644,0.015625651239788173
12.12209939956665,0.274925994448495,0.14395122521266313,0.2904145871876329
12.130498170852661,0.271408817547235,0.14366793774127867,0.3223895320066872
12.139844179153442,0.2673054444957649,0.14339042633951965,0.2662344577825371
12.149579524993896,0.26359286887776817,0.14311850030420706,0.18917616803574983
12.159132480621338,0.2596848945430347,0.14285197349974224,0.11775800392611066
12.171226739883423,0.25479992662461803,0.1425903346702807,0.0603123154052847
12.182177543640137,0.25030575613967454,0.14233280752815428,0.017556697058180075
12.192270994186401,0.2462023830882045,0.14207908106005804,-0.01255583157170121
12.200187683105469,0.24307600362041779,0.14182954765217637,-0.03272523489410875
12.209331750869751,0.2391680292856844,0.14158451303695158,-0.045468062417506366
12.217846393585205,0.2360416498178977,0.14134388406213091,-0.052852778555153815
12.226209163665771,0.2325244729166376,0.1411078722009977,-0.05647485341781484
12.235634326934814,0.22881189729864085,0.14087694089697853,-0.057519465325014216
12.24318242073059,0.2256855178308541,0.1406517553105216,-0.05684542431427686
12.253618478775024,0.22138674606264738,0.14043250583806247,-0.055063899764289284
12.261177062988281,0.21845576531159733,0.140218654820572,-0.05260348838191935
12.2701735496521,0.2145477909768639,0.14001002429926263,-0.049760711741616184
12.281302452087402,0.21044441792539384,0.13980644856486119,-0.046737812508936785
12.291208744049072,0.20634104487392377,0.1396074396413049,-0.043670410905710715
12.303609848022461,0.20106527952203365,0.1394122678660732,-0.04064744091288634
12.311562776565552,0.19793890005424694,0.13922002244999881,-0.03772537290630667
12.321279764175415,0.19364012828604024,0.13903023120955607,-0.03493828378563228
12.330288171768188,0.19012295138478016,0.13884305465874436,-0.03230494539377657
12.340234994888306,0.18621497705004675,0.13865888489294423,0.24620456999241203
12.348205804824829,0.18289319886552335,0.13847778588388698,0.28163659192883783
12.360267877578735,0.17781283223036992,0.13829928651255663,0.22868593770330983
12.37120795249939,0.1735140604621632,0.13812273662043906,-0.12144590487467645
12.381870031356812,0.16921528869395644,0.13794786865551872,0.052789030203605376
12.39206576347351,0.16511191564248637,0.1377747310781562,0.0860936019812057
12.402338027954102,0.1608131438742796,0.1376033827004351,-0.20938075476431514
12.413167953491211,0.1563189733893362,0.1374338947662723,-0.2760308699766705
12.422479629516602,0.15280179648807612,0.1372663532250313,-0.2530236870853423
12.432406663894653,0.14869842343660605,0.13710086422788936,0.07355642496981016
12.441195249557495,0.14518124653534598,0.136937534625942,0.15891576214686093
12.45017147064209,0.1416640696340859,0.13677666375499142,0.1484767466037476
12.461898803710938,0.13677910171566918,0.13661852385701478,0.3834307131573279
12.469247341156006,0.1338481209646191,0.13646315766190673,0.6481587977430052
12.478309631347656,0.13052634278009573,0.136310998978819,0.8643979066908628
12.487261772155762,0.12739996331230902,0.13616258800207323,1.289603719581603
12.497676372528076,0.12407818512778561,0.13601795865068395,1.6858324620576943
12.510445833206177,0.12075640694326222,0.1358767880358984,2.8053322162813212
12.521507024765015,0.11763002747547549,0.13573865189149384,3.911356296389644
12.530149221420288,0.11528524287463544,0.13560337687075294,4.755960358655608
12.539251565933228,0.11294045827379541,0.13547116490850894,5.0
12.548166990280151,0.1109864711064287,0.13534233853309707,5.0
12.556179523468018,0.10922788265579866,0.13521700820343913,5.0
12.564161539077759,0.1076646929219053,0.13509512783798122,5.0
12.57621455192566,0.10571070575453859,0.13497652010524017,5.0
12.586282014846802,0.1043429147373819,0.13486101335372072,5.0
12.596613883972168,0.10297512372022523,0.13474872952035605,5.0
12.607011795043945,0.10199813013654188,0.13463978421259665,5.0
12.617387056350708,0.10121653526959519,0.13453415492347795,5.0
12.626484632492065,0.10063033911938518,0.13442415890227857,5.0
12.636647462844849,0.10023954168591184,0.1342931723797081,4.837054942543504
12.645415782928467,0.10004414296917516,0.13413322316597484,4.794540810863738
12.653293371200562,0.0996533455357018,0.13394896068282078,4.1892719132155385
12.663830280303955,0.0996533455357018,0.1337460282216625,3.7435641681987746
12.6725172996521,0.09984874425243849,0.13352715132956622,3.388996815864103
12.682181119918823,0.10004414296917516,0.13329357161461752,2.8144381454476255
12.69474720954895,0.10043494040264851,0.13304594262652325,2.5204735199212553
12.707372903823853,0.1010211365528585,0.13278482795870955,2.342467773460418
12.7165048122406,0.1018027314198052,0.1325116488333522,1.6554355452473783
12.72532868385315,0.10219352885327855,0.13222848678975263,0.9151676867276434
12.73566460609436,0.10297512372022523,0.13193746405119341,0.28742683612713965
12.747304439544678,0.10414751602064523,0.13164069966691683,0.08777968133589406
12.756686687469482,0.10492911088759192,0.13134026179968392,-0.48921841952781114
12.764259099960327,0.10571070575453859,0.13103814999498467,-1.3482616245071115
12.772697925567627,0.10668769933822195,0.13073654080553715,-1.566649285214102
12.781180381774902,0.1076646929219053,0.1304379448540484,-2.0705291330658775
12.791605234146118,0.10903248393906198,0.13014459421254476,-2.2697155848109656
12.799202680587769,0.11000947752274534,0.12985817875262778,-2.3057087501604037
12.812178611755371,0.11215886340684872,0.12958009393522335,-2.254646470872122
12.822246074676514,0.1135266544240054,0.12931144467474773,-2.4342367735034944
12.833186388015747,0.11508984415789876,0.12905342256493582,-2.0726874893736142
12.845696210861206,0.11704383132526547,0.12880755001561103,-2.132790091776182
12.854492425918579,0.1182162236256855,0.1285755427256889,-2.5676899857630664
12.862929105758667,0.1195840146428422,0.12835920752948746,-3.00983134795344
12.871243715286255,0.12075640694326222,0.12816035666416103,-3.3341796279137306
12.88254690170288,0.12231959667715558,0.12798078992598508,-3.518962206668505
12.890175104141235,0.12329659026083893,0.12782189979950417,-3.5814683931916713
12.902177333831787,0.12485977999473229,0.12768463198079763,-4.101824504615927
12.911511182785034,0.12583677357841566,0.12757070488932173,-4.621518736632342
12.920181035995483,0.126813767162099,0.12748203361000246,-4.98679971455672
12.92825436592102,0.12739996331230902,0.12741934519469325,-5.0
12.939054012298584,0.127986159462519,0.12738330356421687,-5.0
12.950176239013672,0.1287677543294657,0.12737496761604064,-5.0
12.962506532669067,0.12935395047967568,0.12739585880776072,-5.0
12.971462965011597,0.12954934919641237,0.12744715847131627,-5.0
12.982239723205566,0.1299401466298857,0.12752837846135046,-5.0
12.993198871612549,0.1301355453466224,0.12763977201708912,-5.0
13.00315546989441,0.13033094406335904,0.127782911601638,-5.0
13.013016700744629,0.13033094406335904,0.1279582712937238,-5.0
13.024226903915405,0.13033094406335904,0.12816539346854888,-5.0
13.033334970474243,0.13033094406335904,0.1284038262210166,-4.766306809713649
13.041283369064331,0.13033094406335904,0.12867219249985215,-4.162762911947583
13.049178123474121,0.13033094406335904,0.12896834336341748,-3.228808912326548
13.057878971099854,0.13033094406335904,0.1292915432269774,-2.3271684128882812
13.067221403121948,0.13033094406335904,0.12964244447281625,-1.8553568941261758
13.081380128860474,0.13033094406335904,0.13002343547006134,-1.3132918532983846
13.089327573776245,0.13033094406335904,0.13043699549439294,-0.5597996742044629
13.098423957824707,0.13033094406335904,0.13088290457586488,0.1253261254737521
13.106146335601807,0.13033094406335904,0.13135984789092298,0.6567601355355727
13.115777730941772,0.13033094406335904,0.13186877283689608,1.0298518058027368
13.12471866607666,0.13033094406335904,0.13241461993732617,1.2687116036356305
13.134189128875732,0.13033094406335904,0.13300006775622752,1.4037408377128067
13.144209623336792,0.13033094406335904,0.133623991159438,1.4628361857334329
13.15276837348938,0.13033094406335904,0.1342879901218755,1.4686986720911235
13.160324573516846,0.13033094406335904,0.1349935430461361,1.4386819205202948
13.173630714416504,0.13033094406335904,0.13574252023699968,1.3855510540886997
13.18213677406311,0.13033094406335904,0.1365421901601985,1.3184456946448755
13.190141677856445,0.13033094406335904,0.1373962310259204,1.2437692184097011
13.20066785812378,0.13033094406335904,0.13830564288020197,1.165918142431478
13.209161281585693,0.13033094406335904,0.1392743628968495,1.0878455320626776
13.218493223190308,0.13033094406335904,0.14030604307160197,1.011481237205433
13.226152896881104,0.13033094406335904,0.14140060997845685,0.9380384611193204
13.236684322357178,0.13052634278009573,0.1425510663775449,0.8682340800004402
13.245136499404907,0.13052634278009573,0.14375502292278447,0.8024452855135906
13.25799822807312,0.13052634278009573,0.1450213574691703,0.7408200374485951
13.266141176223755,0.13091714021356907,0.14636179389435486,0.9593927676930821
13.27660608291626,0.13111253893030572,0.14777858212391926,1.2151477149944545
13.285564422607422,0.1313079376470424,0.14926561383728226,1.4197001236209492
13.294147968292236,0.1318941337972524,0.15081732268181183,1.5518639556716487
13.303142786026001,0.13208953251398908,0.15242864435014364,1.6169851705072469
13.312142372131348,0.1326757286641991,0.15409930456300755,1.6287418097347333
13.321130752563477,0.13306652609767244,0.1558331226388791,1.8775747521250505
13.329246520996094,0.13365272224788244,0.1576331828271917,2.132937108054136
13.337446689605713,0.13423891839809246,0.15949729763935147,2.0402494825408484
13.346299171447754,0.13502051326503914,0.1614187268429788,2.1046557777388353
13.358422994613647,0.1359975068487225,0.16340078201939873,2.458191609664049
13.366141557693481,0.1365837029989325,0.16545059482346042,2.5321186853549853
13.374157905578613,0.13736529786587917,0.16756436892086332,2.4715801729329527
13.383116483688354,0.1385376901662992,0.1697384698845472,2.0735487367448515
13.392675876617432,0.13951468374998255,0.17197427501230916,2.169664686496234
13.402021408081055,0.14068707605040257,0.1742727544497265,2.3805980878294206
13.412100315093994,0.14205486706755927,0.17663453961366157,2.283819825586005
13.422685623168945,0.14361805680145262,0.1790600130464239,2.354978799268829
13.432349443435669,0.14518124653534598,0.1815493877693303,2.4384336123289234
13.44365119934082,0.14693983498597601,0.18410277923796511,2.4807300678391435
13.451338768005371,0.14830762600313271,0.18672027913338407,2.4719684448572923
13.459159135818481,0.14967541702028941,0.18939639349294304,2.418767207629255
13.468034267425537,0.15143400547091945,0.19212092349702836,2.3323394431957314
13.479219436645508,0.1535833913550228,0.19489691914499477,2.499684298604735
13.488120555877686,0.1555373785223895,0.19773283072997838,2.4109138438133826
13.497576475143433,0.15768676440649287,0.2006242896922753,2.227609679422126
13.508114099502563,0.16003154900733293,0.2035680027200852,2.298000495299651
13.518179655075073,0.16257173232490962,0.20656114199296127,2.4091308338633626
13.527137517929077,0.16491651692574968,0.2095952740746141,2.207316604719918
13.537057161331177,0.16784749767679974,0.21266999475989587,2.1926294887340525
13.547215461730957,0.17038768099437648,0.21579182149737602,1.9386379416787547
13.559459447860718,0.17429565532910984,0.21897370982556819,2.1846618258168133
13.567859172821045,0.1768358386466866,0.22223400399496004,1.9666534795457544
13.576580047607422,0.17937602196426328,0.22558156593695589,1.8930868587985983
13.586159229278564,0.18250240143205002,0.22901691234196772,1.5812527296278023
13.594140529632568,0.18523798346636342,0.2325254632001244,1.5090082742102218
13.60615849494934,0.18934135651783346,0.2360873069998731,1.509530040979995
13.616147994995117,0.19285853341909354,0.2397077593244775,1.5152690351160487
13.62682557106018,0.19715730518730026,0.24340656110815073,1.2273759794782
13.635641813278198,0.20047908337182369,0.24719290636864547,0.884904572630476
13.645535230636597,0.20458245642329373,0.2510586542006603,0.8553480088014831
13.65485429763794,0.20829503204129046,0.2549965643045544,0.6458632357676525
13.665099382400513,0.21200760765928722,0.2590079985806149,0.4104933274170777
13.67417311668396,0.21572018327728396,0.2630937660513065,0.20658276815217771
13.683249473571777,0.2194327588952807,0.26725415042633505,0.04906613233531955
13.695957660675049,0.22470852424717075,0.2714971725159517,-0.06417229291408239
13.705146312713623,0.22842109986516748,0.2758289925948707,-0.41690612572706476
13.714152574539185,0.23193827676642756,0.2802375880363401,-1.05077353771104
13.722277164459229,0.23526005495095098,0.2847121431086835,-1.642121871458587
13.73336672782898,0.2397542254358944,0.28925120874546495,-2.087717416144434
13.741785526275635,0.24327140233715447,0.2938530010534093,-2.652703159947075
13.750121355056763,0.24639778180494118,0.29851543633838007,-3.116952818623418
13.75812816619873,0.24971955998946457,0.3032277461278075,-3.4231545889171535
13.766174793243408,0.2528459394572513,0.3079634584214464,-3.5792087477288455
13.776917457580566,0.2573401099421947,0.31270003180019734,-3.6143145804964467
13.786595344543457,0.26124808427692814,0.3174355081875489,-3.2843948094072344
13.79409670829773,0.26417906502797817,0.32216838996058467,-3.4122855320276466
13.803084135055542,0.2678916406459749,0.3268891012691276,-3.34630621026157
13.816000699996948,0.273167405997865,0.33160714663866725,-3.190281130815518
13.827487468719482,0.27785697519954505,0.3363568993735003,-2.9966227089215165
13.836617231369019,0.28137415210080513,0.34115882101934536,-2.791681978412076
13.847132205963135,0.28567292386901194,0.3460039545958354,-2.5885468995842436
13.856513500213623,0.28958089820374533,0.3508937101537435,-2.3935263427801754
13.865169763565063,0.2930980751050054,0.3558380216163211,-2.209450251747233
13.873132705688477,0.29602905585605543,0.36082732291783504,-2.037359332967846
13.882107257843018,0.29935083404057883,0.36584446341990756,-1.877376602226572
13.893138408660889,0.3036496058087855,0.370884223960149,-1.7291609076477286
13.901572465896606,0.3071667827100456,0.3759609453623677,-1.5921452497913242
13.911299228668213,0.31127015576151573,0.381086937412873,-1.4656632357547703
13.92056655883789,0.3151781300962491,0.38626342219493925,-1.3490166788661684
13.929330587387085,0.3190861044309825,0.39148181949424593,-1.241511784841581
13.93887209892273,0.3229940787657159,0.39672530032890163,-0.8664399350271272
13.951122760772705,0.32768364796739596,0.4019894356381325,-0.7421162573713849
13.962406635284424,0.33237321716907614,0.40729029066503036,-0.7132495948169837
13.975396633148193,0.3382351786711762,0.4126616161503596,-0.7120457618727225
13.985255002975464,0.3417523555724363,0.4181221400524561,-0.7114335391798304
13.993200540542603,0.34487873504022304,0.4236474236444924,-0.4265525751506143
14.003133296966553,0.34898210809169306,0.42920646935998413,-0.3751841883536057
14.014170408248901,0.3530854811431631,0.4347933394203301,-0.4042646346565621
14.023105144500732,0.35679805676115983,0.4404134835497165,-0.44887314480430707
14.033091068267822,0.36090142981262996,0.4460718683666217,-0.4846195968442511
14.04585313796997,0.36617719516452,0.45178366152403954,-0.5049052051238889
14.058283805847168,0.37106216308293677,0.4575834658046914,-0.7863376533566601
14.066123723983765,0.3743839412674602,0.46350085844377975,-0.8129128073712311
14.07677960395813,0.3786827130356669,0.46953913917327644,-0.7426196796962615
14.08610987663269,0.3823952886536637,0.4756897193918441,-0.6455792234191955
14.094893455505371,0.38591246555492376,0.48193346404889864,-0.5506168633438469
14.10605239868164,0.3900158386063938,0.4882424458080717,-0.4677590962996245
14.11738109588623,0.3950962052415472,0.49460409065602345,-0.3989288747942549
14.125693082809448,0.39822258470933397,0.5010190769122679,-0.3429061185408883
14.133079528808594,0.4013489641771207,0.5074764841370835,-0.29753681636428253
14.141828298568726,0.40486614107838076,0.5139555745460958,-0.26064765201759066
14.152469635009766,0.40916491284658746,0.5204624753571562,-0.2303702614537681
14.161181449890137,0.41268208974784754,0.5270142425537965,-0.20521012311772718
14.171085119247437,0.4165900640825809,0.5336018438859693,-0.18401564480549704
14.18112063407898,0.420693437134051,0.5402179134940319,-0.1659168721625916
14.192177534103394,0.42557840505246775,0.5468683975301188,-0.15026268108134327
14.201775074005127,0.4294863793872012,0.5535586022029453,-0.13656678939548272
14.211101531982422,0.4333943537219346,0.5602932442789968,-0.12446488806247474
14.221301555633545,0.437302328056668,0.5670765597212928,-0.11368203421959383
14.232081413269043,0.4416010998248747,0.5739123604781385,-0.10400847148808604
14.240995645523071,0.4451182767261348,0.5808040847175265,-0.09528197575550995
14.25118088722229,0.44922164977760487,0.5877548358491942,-0.08737508607679637
14.261417150497437,0.453325022829075,0.5947803551837757,-0.08018591755340729
14.27042555809021,0.4570375984470717,0.6019070358157766,-0.07363156625081248
14.278058767318726,0.46016397791485847,0.6091309921872541,-0.343681733724533
14.286650657653809,0.4638765535328551,0.6164225306156147,-0.37132648394085266
14.294348239898682,0.4670029330006419,0.6237562169846427,-0.03516990977315526
14.303422451019287,0.4707155086186386,0.6311105483587798,0.07864462099291124
14.312105178833008,0.474037286803162,0.6384676531214488,-0.1777418421925014
14.323078870773315,0.47853145728810537,0.6458130046414551,-0.22644833564008546
14.331099271774292,0.48165783675589213,0.6531488793682839,-0.1963102650493767
14.341064691543579,0.4859566085240989,0.6604918292623128,-0.14415475506998643
14.35012412071228,0.48966918414209565,0.6678567675979743,-0.09308931944262847
14.359113931655884,0.49338175976009235,0.6752570370103271,-0.32699860837118444
14.368622303009033,0.4970943353780891,0.6827045120936024,-0.3282646507311784
14.376841306686401,0.5006115122793491,0.6902096370391845,-0.25043984383897566
14.388165712356567,0.5047148853308193,0.6977814619024123,-0.15892921867103982
14.399102210998535,0.5092090558157627,0.7054277639130723,-0.07849162817611657
14.40922212600708,0.5135078275839694,0.7131551198351177,-0.01596079750187554
14.418099641799927,0.5170250044852295,0.720954044446276,0.029114728252089432
14.427104949951172,0.5205421813864896,0.7288014781843982,0.05965591918940355
14.436855554580688,0.5244501557212229,0.7366928489850801,0.07899835700738711
14.446068525314331,0.5281627313392196,0.744639365518369,0.0901117528513907
14.457905769348145,0.5334384966911098,0.7526659422981469,0.09538251093533187
14.467313528060913,0.5371510723091065,0.760808820245517,0.0966259054932469
14.476357460021973,0.5410590466438399,0.7690673041155552,0.09517673316386203
14.48510479927063,0.5443808248283633,0.7774092519372229,0.09199377624142333
14.49484133720398,0.5486795965965701,0.7858224233526039,0.08775337718037092
14.5043203830719,0.5523921722145668,0.7943116450369904,0.08292511704620703
14.513081789016724,0.5559093491158269,0.8028649041680026,0.07782983366732793
14.525806665420532,0.5607943170342435,0.8114718459403727,0.07268271464163634
14.535178899765015,0.5645068926522403,0.820155188608799,0.06762466457690954
14.545080184936523,0.5686102657037104,0.828933748196952,0.0627448282549852
14.55368423461914,0.5721274426049705,0.8378070052079012,0.05809660772030909
14.562643051147461,0.576035416939704,0.8467738406456284,0.05370897007807167
14.570156335830688,0.5791617964074907,0.8558325824331706,0.04959438363826442
14.579094886779785,0.5828743720254873,0.8649648459027754,0.045754358505573904
14.588328838348389,0.5863915489267474,0.8741383153325593,0.042183294586939216
14.59710168838501,0.5901041245447443,0.8833254022339175,0.03887113878870459
14.60718059539795,0.5940120988794776,0.8925028165145028,0.03580520734149547
14.616759300231934,0.5977246744974742,0.9016675724023512,0.03297142462209177
14.625946521759033,0.6018280475489444,0.9108339471100035,0.030355155414342964
14.637160778045654,0.6063222180338877,0.9200143618242717,0.027941754841847185
14.650149822235107,0.6114025846690411,0.9292359886731282,0.025716923020524966
14.660064220428467,0.6151151602870378,0.9385381110415868,0.023666925306888867
14.669078350067139,0.618632337188298,0.9479367106615653,0.021778720637862556
14.680269002914429,0.6235173051067148,0.9574277843273196,0.2960783872472511
14.689000844955444,0.6272298807247115,0.9670069333418662,0.3276023114269252
14.699070692062378,0.6315286524929183,0.9766694807732378,0.2710316732129967
14.708059787750244,0.6352412281109149,0.9864105533682109,0.193590627090402
14.720242977142334,0.6401261960293317,0.996225122093713,0.1218200208594316
14.731053829193115,0.6444249677975383,1.0061080542674428,0.06404987120718872
14.740878343582153,0.6485283408490086,1.0160541902563927,0.020995598552616013
14.751166582107544,0.6528271126172153,1.0260584210400185,-0.00939179708687949
14.760071277618408,0.656539688235212,1.036115726506597,-0.02981415159101007
14.768552780151367,0.6600568651364721,1.0462211877691014,-0.04278974567467288
14.776128053665161,0.6627924471707854,1.0563700514769758,-0.05038864307894303
14.786580801010132,0.6668958202222556,1.0665578534798843,-0.05420778992869679
14.795700311660767,0.6708037945569889,1.076780449391973,-0.055433725719308734
14.805078506469727,0.674320971458249,1.0870171904546506,-0.054926515039949074
14.81620478630066,0.6786197432264557,1.097233686820935,-0.0532984830459441
14.82462453842163,0.6821369201277159,1.107417847993934,-0.05097929087095961
14.833049297332764,0.6856540970289758,1.1175598631785795,-0.04826644014039531
14.843053102493286,0.6899528687971827,1.1276351912640854,-0.04536307571213338
14.8511061668396,0.693274646981706,1.1376406414264342,-0.042405648206006986
14.859127759933472,0.6964010264494928,1.1475912154669863,-0.03948385583652683
14.868159055709839,0.6999182033507527,1.1575002838391384,-0.03665487226120971
14.87708592414856,0.7034353802520129,1.167379570432678,-0.03395342152976215
14.888031244277954,0.708124949453693,1.1772392656623618,-0.03139887095462519
14.898158073425293,0.7120329237884264,1.1870881230485164,0.24703815929104903
14.907978296279907,0.7161362968398964,1.196933576105167,0.2824034946537191
14.917089939117432,0.7196534737411566,1.206781883241208,0.2293914886093267
14.926055431365967,0.7233660493591532,1.2166382825053519,0.15524156191699603
14.936200380325317,0.72766482112736,1.2264904512001211,0.0865108121045082
14.949244499206543,0.7329405864792501,1.236328059015892,0.03154574996649492
14.957528591156006,0.7364577633805102,1.2461759339053762,-0.008921947933673017
14.967081308364868,0.7405611364319802,1.256054997192138,-0.03692556857310196
14.975620746612549,0.744273712049977,1.2659659469944435,-0.05515196159013095
14.98306655883789,0.7470092940842904,1.275875621788399,0.209933110578273
14.991049528121948,0.7503310722688137,1.2857227042594737,0.23732075381866385
15.000550508499146,0.7538482491700736,1.2954896967512721,0.18011832368285627
15.0098135471344,0.7575608247880705,1.3051963567614366,0.10438493176145215
15.018672466278076,0.7612734004060673,1.3148603559247185,0.03582129542898177
15.026081562042236,0.7640089824403806,1.3244805967013682,-0.01783644424576037
15.036686182022095,0.7681123554918509,1.3340400657923912,-0.05628547732764365
15.044429540634155,0.7714341336763741,1.3435421102326848,-0.0818565648730871
15.052576780319214,0.7749513105776341,1.3530072937893112,-0.3734785282224185
15.060053825378418,0.7780776900454209,1.3624368617087368,-0.13880223884811704
