t_s,q_rad,q_des_rad,K,B,jerk,tau_Nm,ilc_ff_Nm
0.005762577056884766,-0.03224078826155059,[0.00749543],0.005,0.1,0.0,9.998999999999999,0
0.017209291458129883,-0.03224078826155059,[0.03622341],0.005,0.1,0.0,10.098989999999999,0
0.02807450294494629,-0.03224078826155059,[0.09003073],0.005,0.1,0.0,10.099989899999999,0
0.037996768951416016,-0.03224078826155059,[0.16435041],0.005,0.1,0.0,10.099999898999998,0
0.04747653007507324,-0.03224078826155059,[0.25505468],0.005,0.1,0.0,10.099999998989999,0
0.05795454978942871,-0.03224078826155059,[0.35844065],0.005,0.1,0.0,10.0999999999899,0
0.06907057762145996,-0.03224078826155059,[0.47121274],0.005,0.1,0.0,10.099999999999898,0
0.08128714561462402,-0.03224078826155059,[0.59046261],0.005,0.1,0.0,10.099999999999998,0
0.09111261367797852,-0.03224078826155059,[0.71364692],0.005,0.1,0.0,10.099999999999998,0
0.10202860832214355,-0.03224078826155059,[0.83856363],0.005,0.1,0.0,10.099999999999998,0
0.11101007461547852,-0.03224078826155059,[0.96332818],0.005,0.1,0.0,5.100499999999999,0
0.12300753593444824,-0.03224078826155059,[1.08634918],0.005,0.1,0.0,5.050504999999999,0
0.13140058517456055,-0.030482199810920558,[1.20630344],0.005,0.1,0.276038359678681,5.050005049999999,0
0.14291763305664062,-0.026378826759450486,[1.32211146],0.005,0.1,3.3455849193056126,5.874554316239685,0
0.15469980239868164,-0.021493858841033726,[1.43291423],0.005,0.1,5.0,5.355306526682784,0
0.17043113708496094,-0.014850302471986938,[1.53805087],0.005,0.1,5.0,5.51630523611239,0
0.17890691757202148,-0.011723923004200214,[1.63703588],0.005,0.1,5.0,6.134910683986417,0
0.18690872192382812,-0.00840214481967682,[1.72953778],0.005,0.1,5.0,7.043798258884045,0
0.19595837593078613,-0.004884967918416756,[1.81535992],0.005,0.1,5.0,8.11587881064991,0
0.20395636558532715,-0.0019539871673667024,[1.89442254],0.005,0.1,5.0,9.301521572287266,0
0.21604657173156738,0.0035171769012600643,[1.96674608],0.005,0.1,5.0,10.09201521572287,0
0.22807645797729492,0.00840214481967682,[2.03243549],0.005,0.1,5.0,10.099920152157228,0
0.2383408546447754,0.012114720437673556,[2.09166529],0.005,0.1,3.910922715495655,10.099999201521571,0
0.24732422828674316,0.01582729605567029,[2.14466659],0.005,0.1,1.0994950490766198,10.099999992015215,0
0.2579648494720459,0.020126067823877037,[2.19171551],0.005,0.1,-1.469513764609568,10.09999999992015,0
0.26599717140197754,0.0236432447251371,[2.23312251],0.005,0.1,-3.4547178679400785,10.0999999999992,0
0.2775871753692627,0.028528212643553853,[2.26922306],0.005,0.1,-5.0,10.09999999999999,0
0.2909097671508789,0.033999376712180625,[2.30036991],0.005,0.1,-5.0,10.099999999999998,0
0.3009982109069824,0.0381027497636507,[2.32692585],0.005,0.1,-5.0,5.100499999999999,0
0.3139171600341797,0.0433785151155408,[2.34925717],0.005,0.1,-5.0,5.050504999999999,0
0.3262641429901123,0.04826348303395755,[2.36772854],0.005,0.1,-5.0,5.050005049999999,0
0.33399462699890137,0.05138986250174427,[2.38269831],0.005,0.1,-5.0,5.0500000505,0
0.34254956245422363,0.054907039403004336,[2.39451438],0.005,0.1,-5.0,5.050000000504999,0
0.3509030342102051,0.05803341887079106,[2.40351148],0.005,0.1,-5.0,5.050000000005049,0
0.3620758056640625,0.06272298807247115,[2.41000939],0.005,0.1,-5.0,5.05000000000005,0
0.37071704864501953,0.06604476625699454,[2.41431102],0.005,0.1,-5.0,5.05,0
0.38010191917419434,0.06995274059172794,[2.4167008],0.005,0.1,-5.0,5.05,0
0.38788604736328125,0.07307912005951467,[2.41744369],0.005,0.1,-4.898126725525545,5.05,0
0.4028925895690918,0.07913648027835145,[2.41678544],0.005,0.1,-4.381733789532012,5.05,0
0.4109640121459961,0.08245825846287484,[2.41495249],0.005,0.1,-4.053437734572413,5.05,0
0.4199340343475342,0.08617083408087158,[2.4121514],0.005,0.1,-3.799443872933231,5.05,0
0.4289109706878662,0.08968801098213164,[2.40856904],0.005,0.1,-3.5720408247794033,5.05,0
0.4380171298980713,0.09379138403360171,[2.40437321],0.005,0.1,-3.3535421078198118,5.05,0
0.4469122886657715,0.09750395965159846,[2.39971396],0.005,0.1,-3.139182836433185,5.05,0
0.45689988136291504,0.10141193398633185,[2.39472445],0.005,0.1,-2.9292145340473805,5.05,0
0.468015193939209,0.10571070575453859,[2.38952175],0.005,0.1,-2.7254035267245458,5.05,0
0.4778170585632324,0.10961868008927202,[2.38420775],0.005,0.1,-2.5295944174825835,5.05,0
0.4889044761657715,0.11411285057421541,[2.37886994],0.005,0.1,-2.343210517168895,5.05,0
0.49693727493286133,0.11723923004200215,[2.37358243],0.005,0.1,-2.1671559489836776,5.05,0
0.5056724548339844,0.12095180565999888,[2.36840709],0.005,0.1,-2.001871922311158,5.05,0
0.5159366130828857,0.12485977999473229,[2.36339463],0.005,0.1,-1.8474375120058801,5.05,0
0.5261168479919434,0.12896315304620237,[2.35858612],0.005,0.1,-1.7036699659846841,5.05,0
0.5359013080596924,0.13287112738093576,[2.35401397],0.005,0.1,-1.570208944415204,5.05,0
0.5439200401306152,0.1359975068487225,[2.34970223],0.005,0.1,-1.4465817104844467,5.05,0
0.552985429763794,0.1399054811834559,[2.3456677],0.005,0.1,-1.6082895097730092,5.05,0
0.5645632743835449,0.14459505038513598,[2.34192131],0.005,0.1,-1.5358128740973909,5.05,0
0.5740964412689209,0.1485030247198694,[2.33846842],0.005,0.1,-1.1072312969739486,5.05,0
0.5830566883087158,0.15202020162112945,[2.33530946],0.005,0.1,-0.9081660124726229,5.05,0
0.5949363708496094,0.15670977082280954,[2.33244131],0.005,0.1,-0.8099293861012522,5.05,0
0.6065545082092285,0.16159473874122632,[2.32985789],0.005,0.1,-0.7531053940250396,5.05,0
0.6179032325744629,0.1660889092261697,[2.3275502],0.005,0.1,-0.7113755639581274,5.05,0
0.6279480457305908,0.1701922822776398,[2.32550688],0.005,0.1,-0.6738982150033489,5.05,0
0.6376857757568359,0.1741002566123732,[2.32371491],0.005,0.1,-0.6368240826881122,5.05,0
0.647958517074585,0.17820362966384326,[2.32216001],0.005,0.1,-0.5992819822783292,5.05,0
0.657320499420166,0.18211160399857668,[2.32082705],0.005,0.1,-0.561530811432694,5.05,0
0.6689243316650391,0.1866057744835201,[2.31970039],0.005,0.1,-0.24810831295150276,5.05,0
0.6779310703277588,0.19012295138478016,[2.3187641],0.005,0.1,-0.4545693412850945,5.05,0
0.6899185180664062,0.19481252058646023,[2.3180024],0.005,0.1,-0.23167371841679235,5.05,0
0.699873685836792,0.19911129235466699,[2.3173997],0.005,0.1,-0.1861336972641403,5.05,0
0.7101202011108398,0.2034100641228737,[2.31694057],0.005,0.1,-0.2041211795158277,5.05,0
0.7189936637878418,0.2069272410241338,[2.31661009],0.005,0.1,-0.23669744208165888,5.05,0
0.7309706211090088,0.21181220894255054,[2.316394],0.005,0.1,-0.26494143271616294,5.05,0
0.7416830062866211,0.21630637942749392,[2.31627893],0.005,0.1,-0.2832447763756502,5.05,0
0.7508342266082764,0.22001895504549068,[2.31625211],0.005,0.1,-0.29147065909736813,5.05,0
0.7598798274993896,0.22353613194675076,[2.31630123],0.005,0.1,-0.2913910337707995,5.05,0
0.7682619094848633,0.2270533088480108,[2.31641507],0.005,0.1,-0.2851554712594879,5.05,0
0.7779676914215088,0.2313520806162176,[2.31658347],0.005,0.1,-0.2747005881967344,5.05,0
0.7875163555145264,0.23486925751747764,[2.31679712],0.005,0.1,-0.26157710464002876,5.05,0
0.795966625213623,0.2383864344187377,[2.31704756],0.005,0.1,-0.24694886834425783,5.05,0
0.8067615032196045,0.24248980747020776,[2.31732714],0.005,0.1,-0.23165208014267985,5.05,0
0.8166711330413818,0.24639778180494118,[2.31762906],0.005,0.1,-0.21626658302393625,5.05,0
0.8289096355438232,0.2514781484400946,[2.31794726],0.005,0.1,-0.20118056709013943,5.05,0
0.8389599323272705,0.255386122774828,[2.31827642],0.005,0.1,-0.18664316032032177,5.05,0
0.8496956825256348,0.2598802932597714,[2.31861207],0.005,0.1,-0.1728047950636203,5.05,0
0.8608713150024414,0.26437446374471485,[2.31895044],0.005,0.1,-0.15974715303222534,5.05,0
0.8717875480651855,0.26886863422965823,[2.31928818],0.005,0.1,-0.14750489002892414,5.05,0
0.8809313774108887,0.272581209847655,[2.31962213],0.005,0.1,-0.1360811503629727,5.05,0
0.893486499786377,0.27746617776607174,[2.31994969],0.005,0.1,-0.12545851194383623,5.05,0
0.9026010036468506,0.2811787533840685,[2.32026903],0.005,0.1,-0.11560662728248734,5.05,0
0.9099040031433105,0.28410973413511853,[2.32057859],0.005,0.1,-0.10648750388931597,5.05,0
0.9198782444000244,0.288017708469852,[2.32087681],0.005,0.1,-0.09805911302261514,5.05,0
0.9309179782867432,0.292707277671532,[2.32116289],0.005,0.1,-0.09027782293786285,5.05,0
0.9427671432495117,0.29759224558994873,[2.3214366],0.005,0.1,-0.0831000105456966,5.05,0
0.9556264877319336,0.3026726122251022,[2.32169789],0.005,0.1,-0.07648310219848302,5.05,0
0.9653863906860352,0.306385187843099,[2.32194691],0.005,0.1,-0.07038622031341626,5.05,0
0.9732439517974854,0.3095115673108857,[2.32218362],0.005,0.1,-0.06477055986349586,5.05,0
0.9844489097595215,0.3143965352293024,[2.32240797],0.005,0.1,-0.05959958148283877,5.05,0
0.9938983917236328,0.3184999082807725,[2.32262025],0.005,0.1,-0.05483908164303196,5.05,0
1.0028924942016602,0.32221248389876916,[2.32282069],0.005,0.1,-0.05045718188314252,5.05,0
1.0129101276397705,0.325925059516766,[2.32300965],0.005,0.1,-0.04642426612083443,5.05,0
1.023162841796875,0.32983303385149937,[2.3231877],0.005,0.1,-0.31875124568587904,5.05,0
1.0324132442474365,0.3337410081862328,[2.32335535],0.005,0.1,-0.34846061080197255,5.05,0
1.0432674884796143,0.33803977995443946,[2.32351314],0.005,0.1,-0.29022079736386897,5.05,0
1.0518910884857178,0.34136155813896296,[2.32366182],0.005,0.1,-0.21124426341614058,5.05,0
1.063765287399292,0.3462465260573797,[2.32380214],0.005,0.1,-0.13806111575343433,5.05,0
1.073094129562378,0.3501545003921131,[2.32393485],0.005,0.1,-0.07899150314134484,5.05,0
1.0819387435913086,0.3538670760101098,[2.3240605],0.005,0.1,-0.03474177717415153,5.05,0
1.091886281967163,0.3579704490615799,[2.32417967],0.005,0.1,-0.0032546013143083426,5.05,0
1.1012334823608398,0.3616830246795766,[2.32429321],0.005,0.1,0.018179525213432926,5.05,0
1.108891487121582,0.3646140054306266,[2.32440196],0.005,0.1,0.032085931513295335,5.05,0
1.119429111480713,0.3689127771988334,[2.32450632],0.005,0.1,0.040541163524690726,5.05,0
1.1288907527923584,0.37301615025030344,[2.32460668],0.005,0.1,0.045148129370801614,5.05,0
1.1408405303955078,0.3779011181687203,[2.32470377],0.005,0.1,0.0470988524484002,5.05,0
1.1489360332489014,0.38122289635324363,[2.32479823],0.005,0.1,0.047258441740476616,5.05,0
1.1588995456695557,0.38532626940471365,[2.32489033],0.005,0.1,0.04624386268714141,5.05,0
1.1669361591339111,0.3884526488725004,[2.32498017],0.005,0.1,0.04448904509455824,5.05,0
1.1786258220672607,0.39314221807418054,[2.32506803],0.005,0.1,0.0422954174937733,5.05,0
1.1888988018035889,0.397050192408914,[2.32515445],0.005,0.1,-0.23616862237405523,5.05,0
1.2021286487579346,0.40271675519427735,[2.32524008],0.005,0.1,-0.27181118426992246,5.05,0
1.2143144607543945,0.4076017231126941,[2.32532561],0.005,0.1,-0.21923140928731777,5.05,0
1.2260034084320068,0.41209589359763754,[2.32541158],0.005,0.1,-0.14560342216505207,5.05,0
1.2351620197296143,0.4158084692156343,[2.32549818],0.005,0.1,-0.07743998722113545,5.05,0
1.243894338607788,0.41932564611689427,[2.32558524],0.005,0.1,-0.023057910871311163,5.05,0
1.2566163539886475,0.42460141146878444,[2.32567261],0.005,0.1,0.01683066843524452,5.05,0
1.2668464183807373,0.4289001832369912,[2.32576048],0.005,0.1,0.04427154360430273,5.05,0
1.2770137786865234,0.4331989550051979,[2.32584898],0.005,0.1,0.06195923323577395,5.05,0
1.2848873138427734,0.43652073318972134,[2.32593791],0.005,0.1,0.07240222529534661,5.05,0
1.29317045211792,0.43984251137424474,[2.32602679],0.005,0.1,0.0776594295418817,5.05,0
1.3022091388702393,0.44355508699224144,[2.32611521],0.005,0.1,0.07931602815131102,5.05,0
1.3105213642120361,0.44668146646002815,[2.32620312],0.005,0.1,0.0785466856719284,5.05,0
1.318986177444458,0.45000324464455155,[2.32629062],0.005,0.1,0.07619980500496784,5.05,0
1.3312277793884277,0.4548882125629683,[2.32637783],0.005,0.1,0.07287646670828682,5.05,0
1.3409910202026367,0.45879618689770174,[2.32646482],0.005,0.1,0.068995625730749,5.05,0
1.3519411087036133,0.4632903573826451,[2.32655179],0.005,0.1,0.0648446811669152,5.05,0
1.3599047660827637,0.46661213556716846,[2.32663893],0.005,0.1,0.06061730654136957,5.05,0
1.3712272644042969,0.47149710348558527,[2.32672625],0.005,0.1,0.05644111493637326,5.05,0
1.3790504932403564,0.47442808423663535,[2.32681373],0.005,0.1,0.05239758728968664,5.05,0
1.3889031410217285,0.4787268560048421,[2.32690122],0.005,0.1,0.04853627664297332,5.05,0
1.3970849514007568,0.4818532354726288,[2.32698857],0.005,0.1,0.04488485357337124,5.05,0
1.4061896800994873,0.4855658110906255,[2.32707582],0.005,0.1,0.041456166443992915,5.05,0
1.4153239727020264,0.48927838670862234,[2.327163],0.005,0.1,0.03825317684465722,5.05,0
1.4239170551300049,0.492990962326619,[2.32724995],0.005,0.1,0.035272391751683216,5.05,0
1.4342262744903564,0.4970943353780891,[2.32733656],0.005,0.1,0.03250623697632592,5.05,0
1.443493366241455,0.5004161135626125,[2.32742303],0.005,0.1,0.02994468772694308,5.05,0
1.4517853260040283,0.5037378917471359,[2.32750939],0.005,0.1,0.027576379561570143,5.05,0
1.4615373611450195,0.507255068648396,[2.32759538],0.005,0.1,0.025389357021883767,5.05,0
1.4718706607818604,0.5117492391333394,[2.3276809],0.005,0.1,0.023371570451972922,5.05,0
1.4810967445373535,0.5158526121848095,[2.32776589],0.005,0.1,0.021511198467245796,5.05,0
1.4909000396728516,0.5199559852362795,[2.32785017],0.005,0.1,0.0197968502744024,5.05,0
1.501507043838501,0.5244501557212229,[2.32793387],0.005,0.1,0.01821768569586634,5.05,0
1.5119061470031738,0.528553528772693,[2.32801735],0.005,0.1,0.016763479282728675,5.05,0
1.5204262733459473,0.5318753069572164,[2.32810068],0.005,0.1,0.015424646865929391,5.05,0
1.5289223194122314,0.5353924838584764,[2.32818351],0.005,0.1,0.01419224727272514,5.05,0
1.5368647575378418,0.5385188633262632,[2.32826551],0.005,0.1,0.013057968004207884,5.05,0
1.545896053314209,0.5424268376609965,[2.32834672],0.005,0.1,0.012014100925197616,5.05,0
1.5559639930725098,0.54633481199573,[2.32842727],0.005,0.1,0.011053512105114863,5.05,0
1.5669512748718262,0.5508289824806734,[2.32850729],0.005,0.1,0.28620796829360756,5.05,0
1.577867031097412,0.5551277542488802,[2.32858691],0.005,0.1,0.31851926700090816,5.05,0
1.5897719860076904,0.5600127221672969,[2.32866635],0.005,0.1,0.2626736910408469,5.05,0
1.5998892784118652,0.5641160952187669,[2.32874595],0.005,0.1,0.18590017657775665,5.05,0
1.607926845550537,0.5670470759698171,[2.32882582],0.005,0.1,0.11474403154582179,5.05,0
1.6179285049438477,0.5711504490212871,[2.32890591],0.005,0.1,0.05753941864819668,5.05,0
1.626953125,0.5748630246392838,[2.32898618],0.005,0.1,0.015005602524636393,7.044242912568921,0
1.6368603706359863,0.5789663976907539,[2.32906662],0.005,0.1,-0.014902859204494202,7.008733178057104,0
1.6479434967041016,0.5838513656091707,[2.32914719],0.005,0.1,-0.03488451477972291,6.942694162361124,0
1.6577913761138916,0.5875639412271675,[2.32922786],0.005,0.1,-0.047454610036665235,6.892594283841368,0
1.66788911819458,0.5916673142786375,[2.32930861],0.005,0.1,-0.05468040945183029,6.837699907176174,0
1.6767377853393555,0.5951844911798975,[2.32938941],0.005,0.1,-0.05815627880375632,6.790992055092631,0
1.6868500709533691,0.5990924655146309,[2.32947021],0.005,0.1,-0.05906638015273176,6.739349472838344,0
1.698044776916504,0.6037820347163111,[2.32955096],0.005,0.1,0.21776977129210076,6.677896946746378,0
1.7079365253448486,0.6076900090510444,[2.32963152],0.005,0.1,0.25278975042780294,6.62672596753081,0
1.7193918228149414,0.6123795782527245,[2.32971198],0.005,0.1,0.20025764903903154,6.565195713913682,0
1.7268781661987305,0.6157013564372479,[2.32979246],0.005,0.1,0.12711178519676433,6.523027536615218,0
1.7372827529907227,0.619804729488718,[2.32987281],0.005,0.1,0.059700662552177854,6.4703930498801085,0
1.746530532836914,0.6237127038234513,[2.32995288],0.005,0.1,0.00622783192510314,6.4205272016202,0
1.7549395561218262,0.6270344820079748,[2.33003269],0.005,0.1,-0.03267176483632298,6.3784934544280905,0
1.7639026641845703,0.6309424563427082,[2.3301121],0.005,0.1,-0.059095795730303574,6.3298230751958275,0
1.7719457149505615,0.6342642345272317,[2.33019089],0.005,0.1,-0.07577297899638008,6.288052174888217,0
1.7808737754821777,0.6377814114284917,[2.33026888],0.005,0.1,-0.08523373675775366,6.2447168899746455,0
1.7898378372192383,0.6414939870464884,[2.33034594],0.005,0.1,-0.08955045669083228,6.1984475183101875,0
1.7986946105957031,0.6446203665142752,[2.33042202],0.005,0.1,-0.09031601417558166,6.159983062518674,0
1.8109383583068848,0.6495053344326919,[2.33049731],0.005,0.1,-0.08870884925985956,6.099248434225636,0
1.8238966464996338,0.6547810997845819,[2.33057215],0.005,0.1,-0.08557852287395123,6.034708131865647,0
1.8377375602722168,0.6600568651364721,[2.33064685],0.005,0.1,-0.0815255582335348,5.970173297679801,0
1.8479361534118652,0.6645510356214154,[2.33072168],0.005,0.1,-0.07696726065805012,5.91616116047878,0
1.859278678894043,0.6694360035398322,[2.33079689],0.005,0.1,-0.07218871528887569,5.857465647234303,0
1.8668859004974365,0.6723669842908824,[2.33087241],0.005,0.1,-0.0673809091668064,5.82276985950382,0
1.8794639110565186,0.6772519522092991,[2.33094793],0.005,0.1,-0.06266859333556309,5.7650860883840505,0
1.890134572982788,0.6815507239775059,[2.33102352],0.005,0.1,-0.058130342265865206,5.714710144820838,0
1.899900197982788,0.6856540970289758,[2.33109932],0.005,0.1,-0.05381284364541386,5.6678621425434486,0
1.9088947772979736,0.6895620713637093,[2.3311751],0.005,0.1,0.22629736175101234,5.62291430893713,0
1.9189364910125732,0.6934700456984426,[2.33125074],0.005,0.1,-0.012800407994506768,5.578179970377791,0
1.9309561252593994,0.6981596149001227,[2.33132635],0.005,0.1,-0.0974626049094432,5.524254023975632,0
1.9399371147155762,0.7016767918013829,[2.33140202],0.005,0.1,-0.11514117870021408,5.4851133112862565,0
1.9511046409606934,0.7059755635695895,[2.3314776],0.005,0.1,-0.10651040268035122,5.436789065753445,0
1.9640707969665527,0.7114467276382163,[2.33155305],0.005,0.1,-0.08976973863301078,5.375041180417804,0
1.9729490280151367,0.7151593032562131,[2.33162859],0.005,0.1,-0.07252117994628773,5.33395360008817,0
1.9808673858642578,0.7186764801574732,[2.33170416],0.005,0.1,-0.0575160511767288,5.295844995783478,0
1.990638017654419,0.72238905577547,[2.33177948],0.005,0.1,-0.0453940886926754,5.255221815820725,0
2.0029051303863525,0.7272740236938866,[2.33185452],0.005,0.1,-0.03595894956014292,5.201631724759685,0
2.0138909816741943,0.7315727954620934,[2.33192943],0.005,0.1,-0.304788496265996,5.155084437709729,0
2.0235488414764404,0.7356761685135634,[2.33200438],0.005,0.1,-0.3324458363038254,5.11061277853113,0
2.031891107559204,0.7389979466980869,[2.33207942],0.005,0.1,-0.27320148115171106,5.075831732581718,0
2.0420849323272705,0.743101319749557,[2.33215437],0.005,0.1,-0.19395278985347936,5.032388128629463,0
2.0518362522125244,0.747204692801027,[2.33222909],0.005,0.1,-0.12099252018460353,4.989139574556887,0
2.063059091567993,0.7515034645692338,[2.33230356],0.005,0.1,-0.0624676632753147,4.944081869401452,0
2.0728766918182373,0.7554114389039671,[2.33237779],0.005,0.1,0.25707723955065237,4.903533432823503,0
2.0818593502044678,0.7589286158052272,[2.33245173],0.005,0.1,0.3208337790716218,4.867335793612943,0
2.0927908420562744,0.7634227862901706,[2.33252537],0.005,0.1,0.2862627177504018,4.821210893988132,0
2.1057372093200684,0.768503152925324,[2.33259875],0.005,0.1,0.22316351799608702,4.768978440119576,0
2.1189846992492676,0.7741697157106875,[2.33267214],0.005,0.1,0.16018914340372584,4.711152024517655,0
2.126861810684204,0.7776868926119475,[2.33274567],0.005,0.1,0.10729782396514764,4.676398157962135,0
2.134862184524536,0.7810086707964708,[2.33281906],0.005,0.1,-0.20962333458684745,4.643813947866158,0
2.14689040184021,0.785698239998151,[2.33289201],0.005,0.1,-0.2727932415147284,4.596791360199581,0
2.159907341003418,0.7909740053500411,[2.33296464],0.005,0.1,-0.23897944420513056,4.544838962493931,0
2.1728999614715576,0.7960543719851946,[2.33303711],0.005,0.1,-0.1774937622895098,4.494725864485836,0
2.184664487838745,0.800548542470138,[2.33310972],0.005,0.1,-0.3926884476257767,4.4507736626030825,0
2.1935346126556396,0.8044565168048715,[2.33318258],0.005,0.1,-0.37533659995323154,4.413895399769712,0
2.2029266357421875,0.8083644911396048,[2.33325545],0.005,0.1,-0.005859220831440665,4.376703066759731,0
2.212955951690674,0.8120770667576015,[2.33332821],0.005,0.1,0.13083382835512458,4.341287741845592,0
2.222843885421753,0.815985041092335,[2.33340083],0.005,0.1,-0.11100972166178816,4.305021684790063,0
2.232332229614258,0.8198930154270683,[2.3334731],0.005,0.1,-0.15142130578039603,4.268368355327424,0
2.2408697605133057,0.8234101923283283,[2.33354488],0.005,0.1,0.15856181945074355,4.2357152020168325,0
2.248870372772217,0.8269273692295884,[2.33361606],0.005,0.1,0.2445341457865699,4.203715499908624,0
2.2574610710144043,0.8304445461308485,[2.33368641],0.005,0.1,0.23910584312481287,4.171300116107404,0
2.2663302421569824,0.8339617230321086,[2.33375587],0.005,0.1,0.2024086453141234,4.139124225476173,0
2.2739028930664062,0.837283501216632,[2.33382442],0.005,0.1,-0.11585193257288068,4.109292894144156,0
2.283639669418335,0.8409960768346287,[2.33389192],0.005,0.1,0.08916053350222702,4.075630970948534,0
2.2958784103393555,0.8462718421865187,[2.33395847],0.005,0.1,0.14660626509816432,4.027717338747416,0
2.307919502258301,0.8509614113881988,[2.33402438],0.005,0.1,0.1438615440073961,3.985871670672997,0
2.3166775703430176,0.854478588289459,[2.33408978],0.005,0.1,-0.15550770404801062,3.954665353993113,0
2.32749605178833,0.8589727587744024,[2.33415472],0.005,0.1,0.060432919150418735,3.9152056550477616,0
2.336893320083618,0.8628807331091358,[2.33421926],0.005,0.1,0.12451104777637363,3.881099313557794,0
2.3469481468200684,0.8667887074438692,[2.33428331],0.005,0.1,0.1260204761378371,3.847694545146501,0
2.355865240097046,0.8705012830618659,[2.33434669],0.005,0.1,0.1055837459117489,3.8156290267648956,0
2.365940570831299,0.8744092573965994,[2.33440935],0.005,0.1,0.08069632641248153,3.7821055056033246,0
2.375730037689209,0.8783172317313327,[2.33447139],0.005,0.1,0.05813603875517813,3.7488242625014996,0
2.386875629425049,0.8828114022162762,[2.33453289],0.005,0.1,0.03991390974073937,3.7107903329455616,0
2.3969757556915283,0.8871101739844829,[2.33459392],0.005,0.1,0.02607190540526409,3.6746484951121854,0
2.4065585136413574,0.8910181483192163,[2.33465466],0.005,0.1,0.0159574191752289,3.6416764158770882,0
2.4169459342956543,0.8955123188041597,[2.33471537],0.005,0.1,0.008773457128759366,3.6046191311758626,0
2.4249467849731445,0.8986386982719464,[2.33477605],0.005,0.1,0.0037927951726853854,3.579358070985779,0
2.4338462352752686,0.9019604764564698,[2.33483651],0.005,0.1,0.00042240807527063606,3.5522696969703373,0
2.442828893661499,0.9054776533577299,[2.33489668],0.005,0.1,-0.001794165866020307,3.5237675601178196,0
2.4514381885528564,0.9091902289757265,[2.33495659],0.005,0.1,-0.0031965329317186013,3.493812555456601,0
2.4600634574890137,0.9127074058769867,[2.33501619],0.005,0.1,-0.004031917245899355,3.465999275870322,0
2.467850923538208,0.9158337853447734,[2.33507522],0.005,0.1,-0.004477627087502952,3.4413426200365067,0
2.476853370666504,0.9193509622460335,[2.33513351],0.005,0.1,-0.004659445353918696,3.4133540536196345,0
2.4898366928100586,0.9246267275979236,[2.33519118],0.005,0.1,-0.00466583171820798,3.371286534809479,0
2.498027801513672,0.9277531070657102,[2.33524855],0.005,0.1,-0.0045585256202823315,3.346804664483036,0
2.511138439178467,0.9330288724176004,[2.33530588],0.005,0.1,-0.004380296400616018,3.3055433226607156,0
2.524036407470703,0.9383046377694905,[2.33536349],0.005,0.1,-0.0041605299306917455,3.2645920423421777,0
2.5328922271728516,0.9418218146707505,[2.33542157],0.005,0.1,-0.003919217736315038,3.2381973752746727,0
2.540999412536621,0.9451435928552739,[2.33547986],0.005,0.1,-0.0036697865227004896,3.2134413202701237,0
2.551879405975342,0.9496377633402174,[2.33553807],0.005,0.1,-0.003421095477295644,3.1795721247001016,0
2.5640828609466553,0.9543273325418974,[2.33559621],0.005,0.1,-0.0031788409188970718,3.144045944917975,0
2.5728859901428223,0.9580399081598941,[2.33565442],0.005,0.1,-0.00294654118441013,3.116887987136122,0
2.5818538665771484,0.961752483777891,[2.3357126],0.005,0.1,-0.0027262253585590007,3.0895260237851776,0
2.5939042568206787,0.9668328504130442,[2.33577075],0.005,0.1,-0.0025189136538643015,3.052034134957734,0
2.6055495738983154,0.9713270208979877,[2.33582915],0.005,0.1,-0.002324951536237585,3.019109724291136,0
2.6152241230010986,0.9752349952327212,[2.33588805],0.005,0.1,-0.0021442413696409245,2.9911201068278586,0
2.626023054122925,0.9797291657176646,[2.33594745],0.005,0.1,-0.0019764023664170073,2.9591445112856714,0
2.6348845958709717,0.9834417413356613,[2.33600717],0.005,0.1,0.27421747921869505,2.9332852409499504,0
2.6458513736724854,0.9877405131038681,[2.33606702],0.005,0.1,0.3074859395846399,2.90276254470252,0
2.655552387237549,0.9912576900051281,[2.33612703],0.005,0.1,-0.02351678410523561,2.878201647211627,0
2.662843704223633,0.9937978733227049,[2.33618715],0.005,0.1,-0.13260375047201958,2.8610048568011797,0
2.6728808879852295,0.9980966450909117,[2.33624713],0.005,0.1,0.12812228531335146,2.8314233086299483,0
2.683887481689453,1.0029816130093283,[2.33630685],0.005,0.1,0.18081433388994608,2.797903294045716,0
2.692514181137085,1.0064987899105884,[2.3363663],0.005,0.1,0.15433817734905225,2.7739478389751104,0
2.6998937129974365,1.0094297706616386,[2.33642541],0.005,0.1,0.10554827037501167,2.7545489593750725,0
2.713028907775879,1.0147055360135286,[2.33648417],0.005,0.1,0.05757683884196547,2.7184715846915717,0
2.7218363285064697,1.0182227129147887,[2.33654276],0.005,0.1,0.018292606326117997,2.6954168403116876,0
2.7298762798309326,1.021544491099312,[2.33660111],0.005,0.1,-0.01094985520402729,2.673799754988726,0
2.738649368286133,1.025061668000572,[2.33665902],0.005,0.1,-0.031271400523657136,2.6503802687311793,0
2.750681161880493,1.0303374333524622,[2.33671661],0.005,0.1,-0.0444840604065008,2.616018980394914,0
2.7589261531829834,1.033854610253722,[2.33677387],0.005,0.1,-0.052363445076037705,2.5935123129963404,0
2.768848419189453,1.0373717871549823,[2.33683067],0.005,0.1,-0.05640007069882199,2.5708309942250005,0
2.779850721359253,1.0416705589231892,[2.33688708],0.005,0.1,-0.05775556819180042,2.5430865407375083,0
2.7878406047821045,1.0447969383909759,[2.33694315],0.005,0.1,-0.057297131085007155,2.5232769756013695,0
2.799189805984497,1.0494865075926558,[2.33699874],0.005,0.1,-0.05565414451435477,2.4936110489109606,0
2.8088901042938232,1.053589880644126,[2.33705389],0.005,0.1,-0.05327405073056145,2.468086307603186,0
2.8208837509155273,1.058279449845806,[2.33710882],0.005,0.1,-0.05046953763432737,2.4388447351331433,0
2.8289356231689453,1.0616012280303293,[2.33716363],0.005,0.1,-0.04745558455619653,2.4188492469981857,0
2.8399293422698975,1.0662907972320095,[2.33721833],0.005,0.1,-0.044377375874008806,2.390007489058578,0
2.8524587154388428,1.0713711638671628,[2.33727303],0.005,0.1,-0.04133080802644903,2.3593055854145564,0
2.860903739929199,1.0744975433349495,[2.33732781],0.005,0.1,-0.03837730672243167,2.340604684275185,0
2.8700690269470215,1.078405517669683,[2.33738258],0.005,0.1,-0.0355544104124825,2.317735566862627,0
2.882783889770508,1.0832904855880998,[2.33743721],0.005,0.1,-0.03288326628454381,2.2885419671229967,0
2.8939225673675537,1.0877846560730433,[2.3374919],0.005,0.1,0.24566445513064675,2.2619551720889084,0
2.9048562049865723,1.0924742252747233,[2.33754683],0.005,0.1,0.28113403422311195,2.2351007399337246,0
2.9129347801208496,1.0957960034592467,[2.33760178],0.005,0.1,-0.04781873662932912,2.216214596943651,0
2.9218757152557373,1.09911778164377,[2.33765649],0.005,0.1,-0.1550022931837179,2.1971905853672182,0
2.930972099304199,1.1030257559785035,[2.33771084],0.005,0.1,-0.1685512594707019,2.1749791294612715,0
2.9408795833587646,1.106933730313237,[2.33776488],0.005,0.1,-0.1473529689833063,2.152869513257531,0
2.9505341053009033,1.1108417046479702,[2.33781863],0.005,0.1,-0.11722550137941593,2.130957290094448,0
2.958918571472168,1.1145542802659671,[2.33787214],0.005,0.1,-0.08854035157221041,2.1102704510154116,0
2.972036361694336,1.1202208430513305,[2.33792556],0.005,0.1,-0.06470732234002993,2.0787987486095063,0
2.982874631881714,1.124128817386064,[2.33797905],0.005,0.1,-0.04618846361902147,2.0574544890654733,0
2.9928689002990723,1.1280367917207974,[2.33803266],0.005,0.1,-0.03234508939622038,2.0363365105303046,0
3.0030951499938965,1.1321401647722673,[2.33808636],0.005,0.1,-0.2982876808900295,2.0142981551111494,0
3.013840436935425,1.1364389365404741,[2.33814012],0.005,0.1,-0.32417444911143645,1.9913431593467035,0
3.022853374481201,1.1399561134417342,[2.33819392],0.005,0.1,-0.263954662887782,1.972750666900788,0
3.033057451248169,1.1440594864932043,[2.33824783],0.005,0.1,-0.18428286956059556,1.9509988298251715,0
3.0408687591552734,1.1469904672442544,[2.33830179],0.005,0.1,-0.11127377624349664,1.9357273360691487,0
3.049858808517456,1.1508984415789878,[2.33835552],0.005,0.1,-0.05294651474504604,1.9156401495430975,0
3.058844804763794,1.1548064159137212,[2.33840885],0.005,0.1,-0.009793624599888643,1.8956172393249942,0
3.0679495334625244,1.1587143902484545,[2.33846183],0.005,0.1,0.02039159233709375,1.8757114313864893,0
3.076495885848999,1.1620361684329779,[2.33851451],0.005,0.1,0.040421328175005336,1.8589438834369827,0
3.085897922515869,1.1655533453342382,[2.33856686],0.005,0.1,0.05289029335169615,1.8415700995277344,0
3.098620653152466,1.1710245094028648,[2.33861883],0.005,0.1,0.059920903471652305,1.813985118897472,0
3.1089305877685547,1.175127882454335,[2.33867056],0.005,0.1,0.06314549649891511,1.7937087282436417,0
3.1178252696990967,1.1788404580723315,[2.33872221],0.005,0.1,0.06377413338917032,1.7752978619373303,0
3.1301281452178955,1.1841162234242217,[2.33877395],0.005,0.1,0.06268214179347732,1.7497704010271418,0
3.1386046409606934,1.1874380016087451,[2.33882574],0.005,0.1,0.060491400526962225,1.7340487813030854,0
3.148850202560425,1.1913459759434786,[2.33887738],0.005,0.1,0.05763720590073011,1.7153391596413892,0
3.1613800525665283,1.1962309438618952,[2.33892889],0.005,0.1,-0.22161832987769872,1.6919361680377392,0
3.170339822769165,1.1997481207631555,[2.33898042],0.005,0.1,-0.2581187660721978,1.6754111305603716,0
3.180917263031006,1.2042422912480988,[2.33903201],0.005,0.1,-0.20641955213074042,1.6545391356793866,0
3.1889328956604004,1.2073686707158855,[2.33908354],0.005,0.1,-0.13366586686881646,1.6403381317255934,0
3.2018067836761475,1.2128398347845122,[2.33913489],0.005,0.1,-0.06635185163914521,1.615014661116468,0
3.212843656539917,1.2169432078359823,[2.33918614],0.005,0.1,-0.012782850833693842,1.5963467709213723,0
3.2227602005004883,1.2210465808874524,[2.33923737],0.005,0.1,0.026335539384017215,1.5778687104117197,0
3.234905958175659,1.226126947522606,[2.33928861],0.005,0.1,0.05305231237853272,1.5552323486809951,0
3.2428808212280273,1.2294487257071294,[2.33933983],0.005,0.1,0.07006295000975549,1.5405418363718915,0
3.2558202743530273,1.234919889775756,[2.33939108],0.005,0.1,0.07987543550389198,1.5164329248757205,0
3.267509698867798,1.2398048576941727,[2.33944247],0.005,0.1,0.08454723853993734,1.4952689655496034,0
3.2768354415893555,1.2435174333121695,[2.33949402],0.005,0.1,0.08566153238515953,1.4793552725349672,0
3.2868387699127197,1.2474254076469027,[2.33954566],0.005,0.1,0.08439065405173918,1.4627876706831804,0
3.2968592643737793,1.2513333819816361,[2.33959734],0.005,0.1,0.0815805293115049,1.4463048521888233,0
3.3068294525146484,1.2552413563163693,[2.33964893],0.005,0.1,0.07782972457720302,1.4302058373054074,0
3.3162572383880615,1.2591493306511032,[2.33970032],0.005,0.1,0.0735547170893456,1.4137032540638388,0
3.3238823413848877,1.2624711088356266,[2.33975149],0.005,0.1,0.06904051113252743,1.400291873664787,0
3.334834575653076,1.26696527932057,[2.33980243],0.005,0.1,0.06447849626685237,1.3816573052483192,0
3.3443796634674072,1.2710686523720398,[2.33985315],0.005,0.1,0.059994127801831415,1.3652634879603451,0
3.3548424243927,1.2751720254235102,[2.33990358],0.005,0.1,0.05566686195263299,1.3487543952321375,0
3.36484694480896,1.2792753984749798,[2.33995365],0.005,0.1,0.32758272099218216,1.3324312394658555,0
3.3747105598449707,1.2831833728097135,[2.34000338],0.005,0.1,0.3568155006978476,1.3170137082959623,0
3.384871006011963,1.2872867458611836,[2.3400528],0.005,0.1,0.29806831470562856,1.3009581627263,0
3.3954460620880127,1.291780916346127,[2.34010203],0.005,0.1,0.21857672532067812,1.2832681756249016,0
3.402850389480591,1.2949072958139138,[2.34015119],0.005,0.1,0.14488591932253073,1.271499863558568,0
3.411834478378296,1.2982290739984372,[2.34020015],0.005,0.1,0.0853255876828147,1.2590670529563464,0
3.423799514770508,1.3027232444833805,[2.34024876],0.005,0.1,-0.23543053493281713,1.2417543232711528,0
3.4348621368408203,1.3070220162515873,[2.34029715],0.005,0.1,-0.3004845128479336,1.2256159619357385,0
3.4428558349609375,1.3105391931528474,[2.3403454],0.005,0.1,0.008802029467226358,1.2125883725490054,0
3.452941417694092,1.314837964921054,[2.34039342],0.005,0.1,0.10371779222444838,1.1969849332087028,0
3.4626176357269287,1.3189413379725243,[2.34044115],0.005,0.1,0.11032755553339886,1.1817299969764448,0
3.471855401992798,1.3226539135905209,[2.34048862],0.005,0.1,-0.19011535835372192,1.1684736306575039,0
3.4847311973571777,1.3281250776591476,[2.34053587],0.005,0.1,0.02201302299810287,1.148629661800581,0
3.4973549842834473,1.333205444294301,[2.34058309],0.005,0.1,0.08258245300545768,1.1304035405392996,0
3.507521390914917,1.3371134186290345,[2.34063051],0.005,0.1,0.08185071954233034,1.1167643625089196,0
3.5199084281921387,1.3421937852641879,[2.34067825],0.005,0.1,0.060536832165267236,1.0989990066540691,0
3.5278658866882324,1.3457109621654482,[2.3407263],0.005,0.1,0.03591868784357889,1.0871663448869764,0
3.5379180908203125,1.3496189365001814,[2.34077453],0.005,0.1,0.014482995952632529,1.073857528210868,0
3.5495221614837646,1.3543085057018613,[2.34082288],0.005,0.1,-0.002028960747710103,1.0578564540051132,0
3.557532548904419,1.3572394864529114,[2.3408714],0.005,0.1,-0.013793855414634041,1.0482863912911728,0
3.5701866149902344,1.362710650521538,[2.34092004],0.005,0.1,-0.02162933985510599,1.0299575459825454,0
3.5788354873657227,1.365837029989325,[2.34096876],0.005,0.1,-0.026451260080706154,1.0199030276396988,0
3.5898828506469727,1.3703312004742685,[2.34101746],0.005,0.1,-0.029069232665281743,1.0053156027126913,0
3.6027371883392334,1.3756069658261585,[2.34106608],0.005,0.1,-0.03013128852644467,0.9881092532556635,0
3.6129467487335205,1.3799057375943653,[2.34111476],0.005,0.1,-0.03012897312667713,0.9744258810923752,0
3.6238486766815186,1.3845953067960453,[2.34116354],0.005,0.1,-0.029422822429302352,0.9597156443868131,0
3.6318321228027344,1.387721686263832,[2.34121235],0.005,0.1,-0.028271131529467617,0.9499756820367453,0
3.6449077129364014,1.3926066541822488,[2.34126113],0.005,0.1,-0.026855544377072403,0.9349170535250184,0
3.6545259952545166,1.396514628516982,[2.34130984],0.005,0.1,-0.02530167765783293,0.9229584772730718,0
3.6635608673095703,1.4002272041349793,[2.34135844],0.005,0.1,0.25234346021597526,0.9117598262181915,0
3.674116611480713,1.4047213746199223,[2.34140689],0.005,0.1,0.28707093000418293,0.8983012635457086,0
3.684671401977539,1.4088247476713924,[2.34145517],0.005,0.1,0.23353584024900426,0.8861505110131093,0
3.6948249340057373,1.4129281207228626,[2.34150324],0.005,0.1,0.15894944329135102,0.8740182094774478,0
3.7068445682525635,1.4178130886412792,[2.34155117],0.005,0.1,0.08984854751698225,0.8596599365299342,0
3.7148215770721436,1.4211348668258026,[2.34159902],0.005,0.1,0.034564970750500836,0.850291210259197,0
3.7255518436431885,1.425629037310746,[2.34164666],0.005,0.1,-0.006180329358725662,0.8374650922714495,0
3.7356674671173096,1.4299278090789527,[2.341694],0.005,0.1,-0.03442853341133819,0.8252910641720116,0
3.7458462715148926,1.4342265808471597,[2.34174106],0.005,0.1,-0.05287237136269195,0.8132549259096206,0
3.757864475250244,1.4389161500488394,[2.34178783],0.005,0.1,-0.06402040576245084,0.8002750723553429,0
3.7658073902130127,1.4422379282333628,[2.34183432],0.005,0.1,-0.06993282001339263,0.791108242768612,0
3.7758688926696777,1.4461459025680965,[2.3418806],0.005,0.1,-0.07219681202860893,0.7805260782018425,0
3.7848384380340576,1.4496630794693566,[2.34192668],0.005,0.1,0.20404886782196924,0.7710888567775214,0
3.7948179244995117,1.45357105380409,[2.34197259],0.005,0.1,0.23900103674922654,0.7607296827680924,0
3.8071088790893555,1.4584560217225064,[2.34201838],0.005,0.1,0.18674777062197823,0.7477008865613809,0
3.8172497749328613,1.4625593947739768,[2.34206418],0.005,0.1,0.11410150172386271,0.7370145375040066,0
3.825507402420044,1.4660765716752369,[2.34211004],0.005,0.1,0.04732225900357003,0.7279918640966825,0
3.8349106311798096,1.4699845460099703,[2.3421559],0.005,0.1,-0.005447612278737492,0.7180041737484756,0
3.843872308731079,1.4735017229112304,[2.34220169],0.005,0.1,-0.04361481906697376,0.7092790537260121,0
3.8523218631744385,1.4770188998124902,[2.34224722],0.005,0.1,-0.06930482076959402,0.7004498300406926,0
3.863043785095215,1.4811222728639604,[2.34229242],0.005,0.1,-0.08526440426193269,0.6902111565656573,0
3.873914957046509,1.4856164433489039,[2.34233729],0.005,0.1,-0.0940352993757968,0.6791131037290081,0
3.8863823413848877,1.4908922087007939,[2.34238194],0.005,0.1,-0.09769654316768822,0.6661013100324615,0
3.8949131965637207,1.494409385602054,[2.34242646],0.005,0.1,-0.09784448439550608,0.6578018974143488,0
3.904836893081665,1.4983173599367874,[2.34247076],0.005,0.1,-0.37169725923022395,0.6484792272891408,0
3.9128577709198,1.5016391381213108,[2.34251478],0.005,0.1,-0.401152236478418,0.6405872189581869,0
3.924600839614868,1.506133308606254,[2.34255861],0.005,0.1,-0.06546249071011054,0.6299670907953152,0
3.937066078186035,1.5110182765246711,[2.34260241],0.005,0.1,-0.22726836529532285,0.6187179262668405,0
3.945817708969116,1.5149262508594041,[2.34264615],0.005,0.1,-0.2397591334009545,0.609940622923587,0
3.957538604736328,1.5196158200610843,[2.34268976],0.005,0.1,-0.1989200816792631,0.5991303193092897,0
3.967893362045288,1.5239145918292911,[2.34273345],0.005,0.1,-0.1462812068201838,0.5894308182595119,0
3.9768271446228027,1.5274317687305514,[2.34277733],0.005,0.1,-0.0980888006522052,0.5818783143088642,0
3.9848575592041016,1.530558148198338,[2.34282121],0.005,0.1,-0.05930764896687713,0.5751921057328787,0
3.9938085079193115,1.5342707238163347,[2.34286481],0.005,0.1,-0.030213648257569004,0.5672897937513802,0
4.006928205490112,1.5397418878849616,[2.342908],0.005,0.1,-0.009404206518247,0.5553783083587587,0
4.017532825469971,1.5438452609364317,[2.34295095],0.005,0.1,0.004896663780523865,0.546515702819977,0
4.024812459945679,1.5469716404042184,[2.34299382],0.005,0.1,0.014325848753297878,0.5401546571168424,0
4.034607410430908,1.5508796147389516,[2.34303654],0.005,0.1,0.020222895721284207,0.5320416561751271,0
4.045884609222412,1.555373785223895,[2.34307906],0.005,0.1,0.023619480579119476,0.5228253644314037,0
4.058682441711426,1.5604541518590485,[2.34312147],0.005,0.1,0.02528213174751466,0.5124077161838468,0
4.0714499950408936,1.565534518494202,[2.34316396],0.005,0.1,0.025767166964924884,0.5021633888153476,0
4.078824520111084,1.568465499245252,[2.34320663],0.005,0.1,0.025471647151314197,0.4965495791116438,0
4.0918800830841064,1.5741320620306156,[2.34324944],0.005,0.1,0.024675277616445057,0.4853893385633678,0
4.103755474090576,1.5790170299490323,[2.34329241],0.005,0.1,0.02357284135153516,0.4760316195673822,0
4.1139044761657715,1.5831204030005024,[2.34333556],0.005,0.1,-0.2537399192850031,0.4682446966862093,0
4.123883008956909,1.5870283773352356,[2.34337881],0.005,0.1,-0.28821974113816706,0.4609178780653502,0
4.133892774581909,1.5911317503867057,[2.34342212],0.005,0.1,-0.23449755365733532,0.45333255656221555,0
4.144447088241577,1.5950397247214392,[2.34346541],0.005,0.1,-0.15976756414833362,0.44617832101397,0
4.156660318374634,1.6001200913565925,[2.34350873],0.005,0.1,-0.09055454962331808,0.4368547943766196,0
4.1693220138549805,1.6053958567084827,[2.34355226],0.005,0.1,-0.3112201788859225,0.4272929091647083,0
4.176805019378662,1.6083268374595328,[2.34359603],0.005,0.1,-0.027488900384428416,0.422123480548907,0
4.1898064613342285,1.6134072040946863,[2.34363987],0.005,0.1,0.08904074662780495,0.41324723859452794,0
4.198825120925903,1.6171197797126828,[2.34368372],0.005,0.1,-0.14751601327003822,0.4069284503351553,0
4.208920955657959,1.6208323553306796,[2.34372762],0.005,0.1,-0.17501225997438208,0.40067408464958987,0
4.217955827713013,1.624740329665413,[2.34377149],0.005,0.1,-0.1278665874369379,0.39415728831555946,0
4.227839469909668,1.6292345001503563,[2.34381528],0.005,0.1,0.21192886404216715,0.38675830350799956,0
4.237862825393677,1.6333378732018264,[2.34385895],0.005,0.1,0.026776542833628306,0.38004435550621707,0
4.250837802886963,1.6386136385537167,[2.34390251],0.005,0.1,-0.016512978986036618,0.37140668129641113,0
4.261937379837036,1.6431078090386602,[2.34394605],0.005,0.1,0.2703388451696811,0.3642902694891312,0
4.272895574569702,1.6476019795236037,[2.34398959],0.005,0.1,0.3297119103191831,0.35727777702789737,0
4.281441688537598,1.6509237577081268,[2.34403306],0.005,0.1,0.3005993897665312,0.3521362886256875,0
4.29080867767334,1.6548317320428605,[2.34407642],0.005,0.1,0.24491869684552808,0.34617710027624976,0
4.300394773483276,1.6587397063775937,[2.34411955],0.005,0.1,0.18832335971483333,0.3403625036050046,0
4.308398246765137,1.662061484562117,[2.34416232],0.005,0.1,0.13992674088681528,0.3353593803049394,0
4.318544626235962,1.6659694588968506,[2.34420473],0.005,0.1,0.10168634603888746,0.3294460710573032,0
4.326855659484863,1.669291237081374,[2.3442468],0.005,0.1,0.07276169418128826,0.32457286477278824,0
4.335809946060181,1.6731992114161074,[2.34428834],0.005,0.1,0.051459255089313295,0.3189274508026592,0
4.3468194007873535,1.677497983184314,[2.34432928],0.005,0.1,0.03604112087430279,0.3127977564890589,0
4.357665300369263,1.6817967549525208,[2.34436973],0.005,0.1,0.025014684879988577,0.30661964832015454,0
4.370244979858398,1.6870725203044108,[2.34440993],0.005,0.1,0.01719722233311173,0.29921348801918946,0
4.379600524902344,1.6907850959224076,[2.3444501],0.005,0.1,0.011692000452188997,0.29411770588458086,0
4.389160394668579,1.6948884689738777,[2.34449026],0.005,0.1,0.007837008217705832,0.28871276786042677,0
4.398650169372559,1.6987964433086111,[2.3445303],0.005,0.1,0.0051517943552256105,0.28349799751150856,0
4.408865928649902,1.7027044176433446,[2.34457012],0.005,0.1,0.003291618230215478,0.2783462469228178,0
4.418007850646973,1.706416993261341,[2.34460974],0.005,0.1,0.002011038301626746,0.27349894864106133,0
4.426305055618286,1.7097387714458647,[2.34464916],0.005,0.1,0.001136266075171318,0.2692298173083488,0
4.433791875839233,1.7128651509136512,[2.34468832],0.005,0.1,0.0005447354588773298,0.26535171784761646,0
4.442811965942383,1.7165777265316482,[2.34472711],0.005,0.1,0.000150262632604687,0.2606479503339323,0
4.452097415924072,1.720290302149645,[2.34476552],0.005,0.1,-0.00010761089986721416,0.2559933250372343,0
4.4598164558410645,1.7234166816174314,[2.34480354],0.005,0.1,-0.0002712121576872728,0.25223570870684936,0
4.472409248352051,1.728301649535848,[2.34484117],0.005,0.1,-0.00037011895829129995,0.24616946696321437,0
4.481807231903076,1.7322096238705815,[2.34487851],0.005,0.1,-0.00042496042398755996,0.2414766922584096,0
4.4925806522369385,1.7363129969220519,[2.34491568],0.005,0.1,-0.000450093448260056,0.23663982397966346,0
4.504889488220215,1.741588762273942,[2.34495276],0.005,0.1,-0.000455483958449835,0.23039954641334062,0
4.514913558959961,1.7456921353254118,[2.34498989],0.005,0.1,-0.0004480273746675224,0.22573242850498998,0
4.523815631866455,1.749209312226672,[2.34502706],0.005,0.1,-0.000432474449098786,0.2218697932380263,0
4.531804323196411,1.7523356916944586,[2.34506406],0.005,0.1,-0.00041207986383378324,0.21845268354815708,0
4.540831089019775,1.7560482673124556,[2.34510077],0.005,0.1,-0.000389056277020896,0.2143375955927071,0
4.551830291748047,1.7605424377973988,[2.34513723],0.005,0.1,-0.00036489195792974784,0.20933851847556956,0
4.563918828964233,1.7654274057158155,[2.34517359],0.005,0.1,0.2756977868385992,0.20414248055974799,0
4.5737998485565186,1.7695307787672858,[2.34520994],0.005,0.1,0.3088462252047097,0.19985793125544693,0
4.585820913314819,1.7742203479689658,[2.34524625],0.005,0.1,-0.022266439518538433,0.19497838373136997,0
4.596622467041016,1.7787145184539093,[2.34528257],0.005,0.1,-0.13145421618615405,0.19030700918556798,0
4.607655763626099,1.783013290222116,[2.34531906],0.005,0.1,-0.14685905073876188,0.18598319260895213,0
4.618804931640625,1.7875074607070596,[2.34535576],0.005,0.1,0.14866180892222322,0.1816050678363567,0
4.627825975418091,1.790829238891583,[2.34539267],0.005,0.1,-0.06570888228014808,0.17838203670415892,0
4.635836362838745,1.7939556183593695,[2.34542966],0.005,0.1,-0.1267073552659348,0.17547147172134664,0
4.645894527435303,1.7982543901275763,[2.34546659],0.005,0.1,0.15082858382319583,0.1714178378325452,0
4.657486438751221,1.8029439593292562,[2.34550346],0.005,0.1,0.206792472488937,0.1669739573077,0
4.664828300476074,1.8062657375137796,[2.34554029],0.005,0.1,0.17829551240200534,0.16401727056572535,0
4.673830032348633,1.8097829144150397,[2.34557703],0.005,0.1,0.12587703528441252,0.1608379490717722,0
4.682825803756714,1.8134954900330365,[2.34561354],0.005,0.1,0.07420481591185661,0.15760246373368803,0
4.691403865814209,1.8168172682175598,[2.34564977],0.005,0.1,0.03170015542301921,0.15457211178202762,0
4.698889255523682,1.8199436476853468,[2.34568573],0.005,0.1,-0.00015706747748455568,0.1519493379431201,0
4.708331346511841,1.82385162202008,[2.34572138],0.005,0.1,-0.02253105831363602,0.14858387001941092,0
4.718936204910278,1.8281503937882868,[2.34575674],0.005,0.1,-0.03733001746646701,0.14486383820417867,0
4.726828575134277,1.8316675706895469,[2.34579188],0.005,0.1,-0.04643005396864666,0.14202488791735737,0
4.737343788146973,1.8357709437410168,[2.34582677],0.005,0.1,-0.051408869794275336,0.1386611549641219,0
4.748653888702393,1.839874316792487,[2.34586142],0.005,0.1,-0.05349777111766049,0.13527789473041296,0
4.7568066120147705,1.8431960949770103,[2.34589584],0.005,0.1,-0.05361725546640152,0.13263988894716547,0
4.765904903411865,1.8469086705950069,[2.34592989],0.005,0.1,-0.05243647845755946,0.12975597337807657,0
4.775110244750977,1.8506212462130038,[2.34596351],0.005,0.1,-0.05043212718168495,0.1269090144085613,0
4.784036874771118,1.8543338218310006,[2.34599675],0.005,0.1,-0.04793822620811527,0.12410750264404893,0
4.79382061958313,1.858241796165734,[2.34602965],0.005,0.1,-0.045185272702291945,0.12120103312414826,0
4.803877830505371,1.8623451692172042,[2.34606224],0.005,0.1,-0.04232974217486847,0.11818717640922141,0
4.812795639038086,1.8660577448352007,[2.34609458],0.005,0.1,-0.03947577574053851,0.11551336190724809,0
4.823933124542236,1.8707473140368809,[2.34612669],0.005,0.1,-0.03669085725780424,0.11218227853533103,0
4.835248231887817,1.8750460858050875,[2.3461586],0.005,0.1,-0.03401701644007299,0.10919015184516104,0
4.845796823501587,1.8791494588565578,[2.34619036],0.005,0.1,-0.03147876818864073,0.10638163654735325,0
4.857499361038208,1.883643629341501,[2.34622204],0.005,0.1,-0.029088702693028524,0.1033093760602367,0
4.869924068450928,1.8887239959766546,[2.34625382],0.005,0.1,-0.026851400056706984,0.09990796823767545,0
4.87917947769165,1.8924365715946512,[2.34628587],0.005,0.1,-0.30080451743989745,0.09753041263622876,0
4.8890674114227295,1.8963445459293846,[2.34631816],0.005,0.1,-0.6080302035572925,0.095113625682447,0
4.900464773178101,1.9006433176975914,[2.34635059],0.005,0.1,-0.8603004140021389,0.0923537450766581,0
4.908855199813843,1.9041604945988515,[2.34638314],0.005,0.1,-0.7605816566491816,0.09026361087822624,0
4.920950889587402,1.908459266367058,[2.34641579],0.005,0.1,-0.5573420356826132,0.08761127914868383,0
4.9297873973846436,1.9119764432683182,[2.34644851],0.005,0.1,-0.904772839545315,0.08558094730895886,0
4.93894100189209,1.9156890188863152,[2.34648123],0.005,0.1,-0.8005736740371581,0.08340879260599506,0
4.9468090534210205,1.918619999637365,[2.34651382],0.005,0.1,-0.8371789754283923,0.08176806564799277,0
4.958204507827759,1.9231141701223082,[2.34654621],0.005,0.1,-0.9021221601918284,0.0791526327556798,0
4.966210126876831,1.9256543534398853,[2.34657848],0.005,0.1,-0.676987112694982,0.07773856636899998,0
4.9738523960113525,1.9285853341909356,[2.34661063],0.005,0.1,-0.9451754074397459,0.07616166416015414,0
4.983777046203613,1.9319071123754588,[2.34664259],0.005,0.1,-1.0338775778168687,0.07433660814467206,0
4.994847059249878,1.9360104854269287,[2.34667438],0.005,0.1,-1.0355252728421858,0.07209723662517732,0
5.005950212478638,1.9397230610449256,[2.34670612],0.005,0.1,-0.9964020614752584,0.07016632372844435,0
5.016786336898804,1.9434356366629222,[2.34673785],0.005,0.1,-1.2156655633506976,0.06823647022947273,0
5.024806976318359,1.9463666174139724,[2.34676954],0.005,0.1,-1.185843175095037,0.06680520735246331,0
5.0351526737213135,1.9496883955984958,[2.34680109],0.005,0.1,-1.067251265884502,0.06513155242103486,0
5.04481315612793,1.9534009712164924,[2.34683246],0.005,0.1,-0.9298010184860006,0.06330900544509642,0
5.054790735244751,1.9567227494010155,[2.34686371],0.005,0.1,-0.8012363209748099,0.06171764957462684,0
5.0637993812561035,1.9596537301520658,[2.34689483],0.005,0.1,-0.6903452272026862,0.06032015575873083,0
5.074387788772583,1.9631709070533259,[2.34692585],0.005,0.1,-0.5979301989249667,0.05869048910330776,0
5.0861170291900635,1.9668834826713226,[2.34695685],0.005,0.1,-0.5218481567220152,0.056963229659001836,0
5.0988359451293945,1.9711822544395294,[2.34698798],0.005,0.1,-0.7352571058517302,0.05501184377751994,0
5.106932878494263,1.9739178364738426,[2.34701926],0.005,0.1,-0.7164730089070688,0.05380196647169761,0
5.115806579589844,1.9766534185081563,[2.34705053],0.005,0.1,-0.8939324131176366,0.052628797848571725,0
5.126788139343262,1.9799751966926797,[2.34708167],0.005,0.1,-0.8140993892641859,0.05122894986953011,0
5.13580322265625,1.9831015761604662,[2.34711272],0.005,0.1,-0.9328556451136517,0.04991592853615657,0
5.145808458328247,1.9860325569115163,[2.34714373],0.005,0.1,-0.8057613329961666,0.04870417655350065,0
5.156891345977783,1.9893543350960396,[2.34717481],0.005,0.1,-0.6139819212996156,0.04734380702636609,0
5.1669182777404785,1.9920899171303532,[2.34720601],0.005,0.1,-0.706482572384059,0.046297943975007305,0
5.177732467651367,1.9948254991646663,[2.34723731],0.005,0.1,-0.5884301294306307,0.04519962209578914,0
5.189581632614136,1.9981472773491897,[2.34726873],0.005,0.1,-0.6939867524835925,0.043928907745179144,0
5.198047637939453,2.00049206195003,[2.34730031],0.005,0.1,-0.5671235357022095,0.04304136397917735,0
5.207580804824829,2.0032276439843435,[2.34733202],0.005,0.1,-0.3827196592541531,0.04203436897073362,0
5.2188098430633545,2.00635402345213,[2.34736383],0.005,0.1,-0.4862701506861624,0.0408920960643306,0
5.230719566345215,2.0094804029199165,[2.3473957],0.005,0.1,-0.38099375371657374,0.03977499590158874,0
5.240981817245483,2.01221598495423,[2.34742762],0.005,0.1,-0.49994404873994736,0.03879957873855872,0
5.254681587219238,2.0157331618554903,[2.34745962],0.005,0.1,-0.3864570942671035,0.03756402438802708,0
5.2648890018463135,2.0184687438898035,[2.34749176],0.005,0.1,-0.2150503816750734,0.03664602444065015,0
5.274761199951172,2.0208135284906437,[2.34752406],0.005,0.1,-0.3310185374597617,0.03585765014146406,0
5.284808397293091,2.023549110524957,[2.34755648],0.005,0.1,-0.2374768691344519,0.034965895359381986,0
5.296884298324585,2.026480091276007,[2.34758902],0.005,0.1,-0.09139623199789833,0.03399997068496823,0
5.3081138134002686,2.0292156733103206,[2.34762175],0.005,0.1,-0.23109497285482586,0.033135397595650665,0
5.316438913345337,2.0311696604776874,[2.34765468],0.005,0.1,0.1185779463688043,0.032536818485227596,0
5.3287153244018555,2.0341006412287372,[2.34768778],0.005,0.1,0.005891030772157212,0.03161772458136324,0
5.337625503540039,2.0362500271128408,[2.34772107],0.005,0.1,0.041702429636080215,0.030998580810180282,0
5.346821546554565,2.038204014280207,[2.34775441],0.005,0.1,0.11802569081654449,0.030416205490553166,0
5.354884147644043,2.040158001447574,[2.34778767],0.005,0.1,0.1914760437488794,0.029862971916291888,0
5.36381196975708,2.041916589898204,[2.34782072],0.005,0.1,-0.028290319035536582,0.02934094785712132,0
5.374844312667847,2.0444567732157806,[2.3478535],0.005,0.1,-0.024339011844541347,0.02860509722316246,0
5.386056184768677,2.0468015578166208,[2.34788609],0.005,0.1,0.051190704854296165,0.02792482429680424,0
5.397963285446167,2.049146342417461,[2.34791863],0.005,0.1,0.1348037347837079,0.027255400273103487,0
5.407315969467163,2.050904930868091,[2.34795123],0.005,0.1,0.20351547106933576,0.02680372717420307,0
5.417166233062744,2.052663519318721,[2.34798378],0.005,0.1,-0.024106784424119787,0.026322276773135464,0
5.4268577098846436,2.0546175064860877,[2.34801625],0.005,0.1,-0.02757271563490113,0.025792840527201096,0
5.435840606689453,2.056376094936718,[2.34804861],0.005,0.1,0.04212908909102993,0.025349861743505106,0
5.444843292236328,2.058134683387348,[2.34808077],0.005,0.1,0.12164201282149853,0.024887207425614493,0
5.455918312072754,2.060284069271451,[2.34811269],0.005,0.1,0.18774695720882006,0.024334027133593384,0
5.464867353439331,2.062042657722081,[2.3481444],0.005,0.1,0.2347216293275763,0.023888260185301474,0
5.47681188583374,2.0639966448894476,[2.34817591],0.005,0.1,0.2637945065213052,0.02339851146173749,0
5.4894678592681885,2.0665368282070244,[2.3482073],0.005,0.1,0.0023752653255059153,0.0227584197478379,0
5.496777772903442,2.067709220507444,[2.34823867],0.005,0.1,-0.026902925669780087,0.022472330434369057,0
5.506870746612549,2.069663207674811,[2.34827005],0.005,0.1,0.02445399289658115,0.02201121562334935,0
5.519918918609619,2.071617194842178,[2.34830146],0.005,0.1,-0.18431420537916704,0.021534484596513873,0
5.529975652694702,2.073375783292808,[2.34833296],0.005,0.1,-0.15892660346252316,0.021126556123191843,0
5.5378100872039795,2.074548175593228,[2.34836453],0.005,0.1,-0.06105735900648922,0.020871746437768086,0
5.546781301498413,2.075915966610385,[2.34839598],0.005,0.1,0.042288506208631844,0.02057095089288145,0
5.554771661758423,2.077088358910805,[2.34842717],0.005,0.1,0.12725466684279088,0.020301944945068453,0
5.564215183258057,2.0786515486446984,[2.34845805],0.005,0.1,0.464670295757949,0.019951788833913,0
5.574506044387817,2.0800193396618547,[2.34848867],0.005,0.1,0.5376512807379871,0.019649880078986524,0
5.583791971206665,2.0813871306790115,[2.34851905],0.005,0.1,0.5051661078558554,0.01935141613071899,0
5.5935752391815186,2.0825595229794316,[2.3485492],0.005,0.1,0.16279266201669296,0.01909115186086002,0
5.603978395462036,2.083927313996588,[2.34857917],0.005,0.1,0.05977099472935282,0.01879414303412802,0
5.614875793457031,2.0852951050137447,[2.34860899],0.005,0.1,0.0526774649835057,0.018505218011826082,0
5.626768112182617,2.086858294747638,[2.34863872],0.005,0.1,-0.1988499230807585,0.018165765395712186,0
5.637838840484619,2.088226085764795,[2.34866845],0.005,0.1,-0.20287025103568398,0.017881706863259676,0
5.645871639251709,2.089203079348478,[2.34869819],0.005,0.1,-0.12399500031152925,0.017690628043450864,0
5.656770944595337,2.0907662690823714,[2.34872788],0.005,0.1,-0.03192573088658198,0.01736500692872487,0
5.6692588329315186,2.092329458816265,[2.34875762],0.005,0.1,0.047281960139950854,0.017045095667554765,0
5.677795886993408,2.0933064523999483,[2.34878747],0.005,0.1,0.10673137810546565,0.01686073297976047,0
5.689880132675171,2.094674243417105,[2.34881743],0.005,0.1,0.42328082587328336,0.01658912856964265,0
5.697805166244507,2.095455838284052,[2.34884744],0.005,0.1,0.4813543585724106,0.016446569894612937,0
5.711945533752441,2.097019028017945,[2.3488775],0.005,0.1,0.4393884231036896,0.016136583520726413,0
5.72178840637207,2.0979960216016282,[2.34890768],0.005,0.1,0.64394900522544,0.015954639394899776,0
5.734765291213989,2.0991684139020483,[2.34893805],0.005,0.1,0.3292205079881336,0.015726506727151462,0
5.74409031867981,2.1001454074857318,[2.34896864],0.005,0.1,0.17916705525512044,0.015552614159463973,0
5.753826379776001,2.1009270023526785,[2.34899935],0.005,0.1,0.38453747788736775,0.01541057109713631,0
5.7629663944244385,2.101903995936362,[2.34903008],0.005,0.1,0.3846811986737686,0.01523160217845958,0
5.771662950515747,2.1024901920865715,[2.34906073],0.005,0.1,0.3140984401323066,0.015132150395388294,0
5.78185510635376,2.1032717869535182,[2.3490912],0.005,0.1,0.23038329808856672,0.014988397825990311,0
5.791685104370117,2.1042487805372017,[2.34912149],0.005,0.1,0.1555808059683339,0.014806031202674947,0
5.799784183502197,2.1048349766874117,[2.34915164],0.005,0.1,0.3720320506333824,0.014709214961288969,0
5.811647891998291,2.106007368987832,[2.34918165],0.005,0.1,0.36063851777067363,0.014496300493456678,0
5.821511268615723,2.106593565138042,[2.34921155],0.005,0.1,0.5497544352533513,0.014395071527148227,0
5.831827402114868,2.1075705587217253,[2.3492414],0.005,0.1,0.4848669585238075,0.01422624599824094,0
5.8436009883880615,2.108352153588672,[2.34927122],0.005,0.1,0.34470060593425444,0.014086380743150287,0
5.8554980754852295,2.1093291471723554,[2.34930111],0.005,0.1,0.4788280147172799,0.013921312501195491,0
5.863789081573486,2.109915343322565,[2.34933103],0.005,0.1,0.3940095111382196,0.01382708196012874,0
5.871785879135132,2.1108923369062484,[2.34936086],0.005,0.1,0.5261161850035923,0.013662219133289594,0
5.882638931274414,2.111673931773195,[2.34939056],0.005,0.1,0.4206207440729251,0.013530858711363239,0
5.891494274139404,2.1122601279234052,[2.34942012],0.005,0.1,0.5296524667045681,0.01343389867069905,0
5.899860858917236,2.1128463240736153,[2.34944955],0.005,0.1,0.4046517194241311,0.013338534479736952,0
5.908808469772339,2.113627918940562,[2.3494788],0.005,0.1,0.4992251978608653,0.013213928700906919,0
5.917816162109375,2.1144095138075087,[2.34950772],0.005,0.1,0.36450355402256246,0.013088447322561488,0
5.930663108825684,2.1151911086744555,[2.34953629],0.005,0.1,0.17717195049269344,0.012955533312150897,0
5.944018602371216,2.115972703541402,[2.34956463],0.005,0.1,0.28240524088559543,0.012826418847797307,0
5.95485258102417,2.1169496971250856,[2.34959293],0.005,0.1,0.1824228793776603,0.012670549495190616,0
5.965790271759033,2.1175358932752952,[2.34962124],0.005,0.1,0.03316865209161511,0.012577396341745773,0
5.974615573883057,2.1181220894255053,[2.34964955],0.005,0.1,0.17204752306297,0.012486595544630351,0
5.9875571727752686,2.118903684292452,[2.34967789],0.005,0.1,0.37525369591189056,0.01236293069103752,0
5.997567892074585,2.1196852791593987,[2.34970632],0.005,0.1,0.28002268309446543,0.012242000050905732,0
6.008110284805298,2.120271475309609,[2.34973487],0.005,0.1,0.37946687640933824,0.012152333404174855,0
6.019115209579468,2.1208576714598184,[2.34976356],0.005,0.1,0.24211012717338018,0.012061064840972753,0
6.029678821563721,2.121248468893292,[2.34979249],0.005,0.1,0.3277342949435001,0.012003525931567208,0
6.038089275360107,2.1218346650435023,[2.34982166],0.005,0.1,0.18891855489525286,0.011917399930116522,0
6.047829866409302,2.1222254624769756,[2.34985092],0.005,0.1,0.27797949215859163,0.011860411573032,0
6.0574610233306885,2.1228116586271857,[2.34988018],0.005,0.1,0.4201593875303248,0.01177338735249089,0
6.064908504486084,2.1232024560606586,[2.34990936],0.005,0.1,0.27134913496328616,0.011717594716158014,0
6.074547529220581,2.1235932534941324,[2.34993836],0.005,0.1,0.32989617280681777,0.011660560688162411,0
6.084854364395142,2.124179449644342,[2.34996715],0.005,0.1,0.4401295668986074,0.011574299841576822,0
6.097431659698486,2.1247656457945525,[2.34999578],0.005,0.1,0.5407800680221064,0.011487007191581635,0
6.105034112930298,2.1251564432280254,[2.35002427],0.005,0.1,0.6127319215800939,0.011432869468860473,0
6.115020513534546,2.1257426393782355,[2.35005256],0.005,0.1,0.3783808157083242,0.011347391184995306,0
6.1248533725738525,2.126133436811709,[2.35008061],0.005,0.1,0.36142465690598047,0.011291565914049234,0
6.134639263153076,2.1265242342451827,[2.35010843],0.005,0.1,0.41335424534957677,0.011236222143465448,0
6.145798683166504,2.1271104303953923,[2.35013602],0.005,0.1,0.19659981197920662,0.011151990496434958,0
6.156543493270874,2.1275012278288656,[2.35016342],0.005,0.1,0.2081916278600301,0.011095920250657903,0
6.166810512542725,2.1280874239790757,[2.35019065],0.005,0.1,0.012571831769383451,0.01101346587064546,0
6.178747177124023,2.128478221412549,[2.35021769],0.005,0.1,0.06328515557859736,0.01095781570363482,0
6.1930389404296875,2.1288690188460224,[2.35024462],0.005,0.1,0.1829227906048668,0.010903135689571592,0
6.20246958732605,2.129455214996232,[2.35027153],0.005,0.1,0.023789470022105644,0.01082087342708419,0
6.210853338241577,2.129846012429706,[2.35029842],0.005,0.1,0.08088011868238212,0.010767130919748078,0
6.222835063934326,2.1300414111464425,[2.35032523],0.005,0.1,0.19577710076925953,0.010742163476973682,0
6.2335734367370605,2.1304322085799154,[2.35035192],0.005,0.1,0.029069610735094148,0.010689064235779753,0
6.243862628936768,2.130823006013389,[2.35037844],0.005,0.1,0.07904942813430214,0.010635830464460077,0
6.253995418548584,2.131213803446862,[2.35040474],0.005,0.1,0.18835780008359743,0.010582950413404957,0
6.262398958206177,2.131409202163599,[2.35043076],0.005,0.1,0.2937410823266502,0.010558194490950022,0
6.272500991821289,2.1317999995970722,[2.35045646],0.005,0.1,0.0982744093915163,0.010505391903259699,0
6.2838311195373535,2.1321907970305456,[2.35048181],0.005,0.1,0.11793178551265808,0.010452631161256627,0
6.291858911514282,2.1323861957472823,[2.35050677],0.005,0.1,0.20170902254075604,0.010427838422752893,0
6.299812316894531,2.132581594464019,[2.35053128],0.005,0.1,0.28779467147505605,0.010403843185083297,0
6.308924436569214,2.1329723918974923,[2.35055528],0.005,0.1,0.07877546000925556,0.0103511235945884,0
6.3188698291778564,2.133167790614229,[2.35057873],0.005,0.1,0.08953918783170578,0.010326030349930973,0
6.32796311378479,2.1335585880477024,[2.35060165],0.005,0.1,0.16795344356472183,0.010273828159043931,0
6.335788249969482,2.133753986764439,[2.35062401],0.005,0.1,0.25123701937288845,0.010249331787876736,0
6.344789743423462,2.1339493854811757,[2.35064576],0.005,0.1,0.31724979260923125,0.010224575104926501,0
6.3538124561309814,2.1341447841979124,[2.35066689],0.005,0.1,0.08531358331254635,0.01019954269365134,0
6.363774061203003,2.134340182914649,[2.35068744],0.005,0.1,0.07652027808552625,0.0101745593451288,0
6.371837139129639,2.134535581631386,[2.35070743],0.005,0.1,0.14033147262504655,0.010149875480186268,0
6.38036036491394,2.1349263790648587,[2.35072684],0.005,0.1,0.21371321145538458,0.010098000251235136,0
6.391887426376343,2.1351217777815954,[2.3507457],0.005,0.1,0.273669576632141,0.010072344221735112,0
6.402743339538574,2.135512575215069,[2.35076408],0.005,0.1,0.03858886751059182,0.010020237572924492,0
6.412811279296875,2.135707973931806,[2.35078204],0.005,0.1,0.028746848466630698,0.009995176909024654,0
6.422900676727295,2.1359033726485426,[2.35079957],0.005,0.1,0.09295670906441307,0.00997039024462628,0
6.43177056312561,2.136098771365279,[2.35081667],0.005,0.1,0.16769592088448118,0.009945740895925322,0
6.441143035888672,2.136294170082016,[2.3508333],0.005,0.1,0.22961278250169992,0.009920672923908356,0
6.4548258781433105,2.136684967515489,[2.35084951],0.005,0.1,0.27288129025631036,0.009868959086158969,0
6.46384072303772,2.1368803662322255,[2.35086529],0.005,0.1,0.2986494361107039,0.009843982990703319,0
6.474421977996826,2.137271163665699,[2.35088064],0.005,0.1,0.03426436480888359,0.009792220815029975,0
6.485832452774048,2.137466562382436,[2.35089556],0.005,0.1,0.002310308431086719,0.009767071327798697,0
6.494818210601807,2.1376619610991727,[2.35091004],0.005,0.1,0.05124258586943451,0.009742111705448685,0
6.506030082702637,2.137857359815909,[2.35092411],0.005,0.1,0.1163082190528587,0.00971705337214455,0
6.51603364944458,2.1380527585326456,[2.35093782],0.005,0.1,0.1728106238527138,0.009692330221396216,0
6.524169921875,2.1382481572493823,[2.35095113],0.005,0.1,0.21374648471485458,0.009667639635387444,0
6.533485651016235,2.138443555966119,[2.35096402],0.005,0.1,0.2393271470486677,0.009642646262444935,0
6.544501066207886,2.138638954682856,[2.35097996],0.005,0.1,0.25223118384834886,0.010443928712307341,0
6.554827690124512,2.1388343533995924,[2.35100625],0.005,0.1,0.2555748060279218,0.010369382420948299,0
6.56636643409729,2.139029752116329,[2.35104136],0.005,0.1,-0.023900570865311804,0.010117563772805656,0
6.577205419540405,2.1394205495498024,[2.35107483],0.005,0.1,-0.06501817732121652,0.00972202138007092,0
6.585143089294434,2.139615948266539,[2.35110387],0.005,0.1,-0.020792018341822073,0.00952337441248664,0
6.593955993652344,2.139615948266539,[2.35113244],0.005,0.1,0.042761367121755295,0.00950949403311824,0
6.608233213424683,2.140202144416749,[2.35116159],0.005,0.1,0.09994983986970103,0.009431440067937953,0
6.618266820907593,2.140397543133486,[2.3511904],0.005,0.1,0.143023602822666,0.009408607897590264,0
6.626796245574951,2.140397543133486,[2.3512184],0.005,0.1,0.17165213102670823,0.009412243004927429,0
6.636820077896118,2.140788340566959,[2.3512454],0.005,0.1,0.18813004771050978,0.009363983868704722,0
6.644854545593262,2.140788340566959,[2.35127128],0.005,0.1,0.19530710274235086,0.009366930035498114,0
6.658895492553711,2.1411791380004326,[2.35129596],0.005,0.1,0.19578195463329906,0.00931825949336525,0
6.6668195724487305,2.1411791380004326,[2.35131942],0.005,0.1,0.1916590917979989,0.009321086583827173,0
6.677603244781494,2.1413745367171693,[2.35134163],0.005,0.1,-0.09149916002070463,0.0092979821003354,0
6.687891006469727,2.1415699354339055,[2.35136256],0.005,0.1,-0.13357038964757756,0.009274679546096239,0
6.698666334152222,2.1417653341506426,[2.35138225],0.005,0.1,-0.08841521982380464,0.009251273438175642,0
6.70986270904541,2.1419607328673793,[2.35140073],0.005,0.1,-0.02269164900555435,0.00922768677312024,0
6.72051215171814,2.1419607328673793,[2.35141809],0.005,0.1,0.037439768265514026,0.009229765786491057,0
6.7289958000183105,2.1421561315841156,[2.35143436],0.005,0.1,0.0838962655937038,0.009206348394071882,0
6.738436222076416,2.1421561315841156,[2.35144958],0.005,0.1,-0.1599224106578762,0.009208005045895704,0
6.749224662780762,2.1423515303008527,[2.3514638],0.005,0.1,-0.17292671570776696,0.009184247697829228,0
6.758745431900024,2.1423515303008527,[2.35147712],0.005,0.1,-0.10706285468274136,0.009185725177642323,0
6.771403551101685,2.1423515303008527,[2.35148964],0.005,0.1,-0.3030711831988355,0.009187448356776842,0
6.778772830963135,2.1423515303008527,[2.35150148],0.005,0.1,-0.26648556045204536,0.00918898915019951,0
6.788894176483154,2.1423515303008527,[2.35151272],0.005,0.1,-0.4347964866737535,0.009190589190002759,0
6.79951548576355,2.1423515303008527,[2.35152344],0.005,0.1,-0.6318874678411067,0.009192759694232944,0
6.808792352676392,2.1423515303008527,[2.3515338],0.005,0.1,-0.517177330986387,0.009194035862961228,0
6.817840576171875,2.1423515303008527,[2.35154386],0.005,0.1,-0.5936943918378024,0.009195770736041836,0
6.829802751541138,2.1423515303008527,[2.35155368],0.005,0.1,-0.43408567640808915,0.009197252586634558,0
6.840765476226807,2.1423515303008527,[2.35156331],0.005,0.1,-0.2235610888305986,0.009198713224267806,0
6.852046966552734,2.1423515303008527,[2.35157286],0.005,0.1,-0.03395852899528304,0.009200939667457114,0
6.863293409347534,2.1423515303008527,[2.35158245],0.005,0.1,0.1132901538862869,0.009202206316834768,0
6.872030735015869,2.1423515303008527,[2.35159216],0.005,0.1,0.21756415679461713,0.009203623491017504,0
6.880842208862305,2.1423515303008527,[2.35160203],0.005,0.1,0.2855774823174459,0.009204096974859976,0
6.891531467437744,2.1423515303008527,[2.35161206],0.005,0.1,0.32556540808499734,0.009206316973342893,0
6.903906583786011,2.1423515303008527,[2.35162232],0.005,0.1,0.34502466433849416,0.009207974150359769,0
6.911852121353149,2.1423515303008527,[2.35163289],0.005,0.1,0.35003613434823827,0.009209311978159463,0
6.921673774719238,2.1423515303008527,[2.3516438],0.005,0.1,0.345242804273465,0.009210688069722164,0
6.931499242782593,2.1423515303008527,[2.35165506],0.005,0.1,0.3340601476344015,0.009212542333683368,0
6.942867040634155,2.1423515303008527,[2.35166673],0.005,0.1,0.31893611083144646,0.009214308679622609,0
6.953875303268433,2.1423515303008527,[2.35167884],0.005,0.1,0.3015892832783019,0.00921624733450161,0
6.964852333068848,2.1421561315841156,[2.35169141],0.005,0.1,0.2832035429393547,0.009243149360563483,0
6.975785493850708,2.1421561315841156,[2.35170445],0.005,0.1,0.26457812083250665,0.009245665598081279,0
6.98486590385437,2.1421561315841156,[2.35171796],0.005,0.1,0.2462394139467051,0.009247061219240023,0
6.998856544494629,2.1421561315841156,[2.35173197],0.005,0.1,0.22852251070302296,0.00925050570043254,0
7.008441925048828,2.1421561315841156,[2.35174653],0.005,0.1,0.21162976971996583,0.009251855818406185,0
7.019462823867798,2.1421561315841156,[2.35176169],0.005,0.1,0.1956724725349721,0.009255274205003472,0
7.029717206954956,2.1421561315841156,[2.35177744],0.005,0.1,0.1807002050476833,0.009255443300841208,0
7.040815114974976,2.1421561315841156,[2.35179372],0.005,0.1,0.16672144548506834,0.009257993737828596,0
7.052129745483398,2.1421561315841156,[2.35181052],0.005,0.1,0.15371790244527442,0.009261664156271462,0
7.060921907424927,2.1421561315841156,[2.3518279],0.005,0.1,0.1416544374740466,0.009263893677584486,0
7.068830251693726,2.1419607328673793,[2.35184581],0.005,0.1,0.1304858827357414,0.0092901733149908,0
7.079209566116333,2.1421561315841156,[2.35186414],0.005,0.1,0.12016168389988668,0.009267171506434,0
7.089021921157837,2.1419607328673793,[2.35188281],0.005,0.1,0.11062902523663463,0.009295392455859168,0
7.098752498626709,2.1421561315841156,[2.3519018],0.005,0.1,0.10183489935213899,0.009272584997241628,0
7.11066198348999,2.1419607328673793,[2.35192111],0.005,0.1,0.09372744614823147,0.009302127010085067,0
7.1187660694122314,2.1419607328673793,[2.35194077],0.005,0.1,0.0862567883024369,0.009303163458979637,0
7.126779079437256,2.1419607328673793,[2.35196069],0.005,0.1,0.0793755220930264,0.00930623692560128,0
7.134809970855713,2.1419607328673793,[2.35198077],0.005,0.1,0.07303897430520337,0.009307677958790898,0
7.145194053649902,2.1419607328673793,[2.35200094],0.005,0.1,0.06720530223715536,0.009310470449497928,0
7.153491497039795,2.1419607328673793,[2.35202113],0.005,0.1,0.06183549021695821,0.009313772114928617,0
7.163853168487549,2.1417653341506426,[2.35204135],0.005,0.1,-0.219145080145278,0.009342958332598449,0
7.1757972240448,2.1417653341506426,[2.3520616],0.005,0.1,-0.25681790568440177,0.009346241713135719,0
7.185798406600952,2.1417653341506426,[2.35208188],0.005,0.1,-0.20590598566983678,0.009349483444124935,0
7.197757005691528,2.1417653341506426,[2.35210222],0.005,0.1,-0.13367217056171338,0.009353041037347782,0
7.211002349853516,2.1417653341506426,[2.35212268],0.005,0.1,-0.06669306405726712,0.009357271490040456,0
7.2227866649627686,2.1417653341506426,[2.35214333],0.005,0.1,0.2627066724883185,0.009358197146168496,0
7.232684373855591,2.1417653341506426,[2.35216416],0.005,0.1,0.3348290622149491,0.009360586259601898,0
7.240765810012817,2.1417653341506426,[2.35218507],0.005,0.1,0.3063869434712368,0.00936132736665974,0
7.251779794692993,2.1415699354339055,[2.35220599],0.005,0.1,0.24729041223972464,0.009390980483798177,0
7.263234853744507,2.1417653341506426,[2.35222688],0.005,0.1,0.18658401617425158,0.009367599688241978,0
7.2722203731536865,2.1415699354339055,[2.35224772],0.005,0.1,0.1346544506905919,0.009395838500348377,0
7.283036231994629,2.1415699354339055,[2.35226846],0.005,0.1,0.09380178868788439,0.009398607185891411,0
7.293826103210449,2.1415699354339055,[2.35228904],0.005,0.1,0.06315227392230333,0.009400912562520193,0
7.302798748016357,2.1415699354339055,[2.35230941],0.005,0.1,0.04085375308546972,0.009403560296305813,0
7.314821243286133,2.1415699354339055,[2.35232953],0.005,0.1,0.024990726215665504,0.009406544698799736,0
7.323623895645142,2.1415699354339055,[2.3523494],0.005,0.1,0.01391401479391962,0.009408782864472878,0
7.336659669876099,2.1413745367171693,[2.35236899],0.005,0.1,0.006316103939053174,0.009437470226270223,0
7.347468376159668,2.1413745367171693,[2.35238826],0.005,0.1,0.0012061766818779076,0.009439960544107043,0
7.35885763168335,2.1413745367171693,[2.35240719],0.005,0.1,-0.0021462077981600335,0.009442465908480743,0
7.369343042373657,2.1413745367171693,[2.35242576],0.005,0.1,-0.004269955959174636,0.00944493614553874,0
7.380787372589111,2.1411791380004326,[2.35244395],0.005,0.1,-0.005543331603360846,0.009473300288881195,0
7.393054485321045,2.1413745367171693,[2.35246176],0.005,0.1,-0.006234425945492594,0.009450031459721104,0
7.401188611984253,2.1411791380004326,[2.35247919],0.005,0.1,-0.006531904672011891,0.009477973983324875,0
7.408768653869629,2.1411791380004326,[2.35249622],0.005,0.1,-0.006567735356201144,0.009479974928297594,0
7.4208083152771,2.1411791380004326,[2.35251283],0.005,0.1,-0.006433694716489751,0.009483019961683862,0
7.4296674728393555,2.1411791380004326,[2.35252904],0.005,0.1,-0.006193218895429649,0.009484477579142928,0
7.43973970413208,2.1411791380004326,[2.35254485],0.005,0.1,-0.005889842725231525,0.009486687905877809,0
7.449767589569092,2.1411791380004326,[2.35256023],0.005,0.1,-0.005553176002245815,0.009488639358370524,0
7.458375692367554,2.140983739283696,[2.35257519],0.005,0.1,-0.005203118286602845,0.009516759082416434,0
7.466733694076538,2.140983739283696,[2.35258971],0.005,0.1,-0.004852822217857166,0.009518479810810778,0
7.4757397174835205,2.1411791380004326,[2.35260375],0.005,0.1,-0.004510771785859813,0.009494271452358262,0
7.484769582748413,2.140983739283696,[2.3526173],0.005,0.1,-0.0041822367695445945,0.00952207126529229,0
7.494174957275391,2.140983739283696,[2.35263038],0.005,0.1,-0.0038702885289443783,0.009524065515438029,0
7.503060579299927,2.140983739283696,[2.35264301],0.005,0.1,-0.003576507933491108,0.00952583660373579,0
7.512757301330566,2.140983739283696,[2.35265521],0.005,0.1,-0.0033014775377093737,0.009527378355320928,0
7.521780014038086,2.140788340566959,[2.35266699],0.005,0.1,-0.003045122750967898,0.009555149370922158,0
7.531784296035767,2.140788340566959,[2.35267837],0.005,0.1,-0.2788453071254877,0.009557243839994341,0
7.540818452835083,2.140788340566959,[2.35268934],0.005,0.1,-0.31174915871458797,0.009558529483468201,0
7.552152633666992,2.140788340566959,[2.35269991],0.005,0.1,-0.25644766944027897,0.009560294974292631,0
7.560735702514648,2.140788340566959,[2.35271009],0.005,0.1,-0.1801739713367876,0.009561711375850409,0
7.570764064788818,2.140788340566959,[2.35271992],0.005,0.1,-0.10947713697392147,0.009562875930834021,0
7.583683967590332,2.140788340566959,[2.35272941],0.005,0.1,-0.052694725620794025,0.009564330675123097,0
7.595428705215454,2.1405929418502225,[2.35273861],0.005,0.1,-0.0105490799264473,0.009592111049770367,0
7.603752136230469,2.1405929418502225,[2.35274753],0.005,0.1,0.019002443502963297,0.00959313443579137,0
7.615827560424805,2.1405929418502225,[2.35275619],0.005,0.1,0.03865584078944141,0.009594306419522015,0
7.624833345413208,2.1405929418502225,[2.35276457],0.005,0.1,0.05092402588399086,0.00959551799805102,0
7.634952068328857,2.1405929418502225,[2.3527727],0.005,0.1,0.05787212917416697,0.00959663148877315,0
7.644779682159424,2.140397543133486,[2.35278062],0.005,0.1,0.06109256094811131,0.009624033384621504,0
7.6578590869903564,2.140397543133486,[2.35278833],0.005,0.1,0.06176768972540247,0.009625529935633741,0
7.6668384075164795,2.140397543133486,[2.35279588],0.005,0.1,0.0607537441933812,0.00962635377590277,0
7.675809621810913,2.140397543133486,[2.35280327],0.005,0.1,0.05865952145452451,0.009627291863090689,0
7.685797452926636,2.140397543133486,[2.35281048],0.005,0.1,0.055911437517995606,0.00962822978442623,0
7.695767164230347,2.140202144416749,[2.35281755],0.005,0.1,0.05280400897354058,0.009655895847201197,0
7.703774452209473,2.140202144416749,[2.3528245],0.005,0.1,0.04953763478109726,0.009656757311312087,0
7.715297222137451,2.140202144416749,[2.35283132],0.005,0.1,0.04624623956919319,0.009657801748466565,0
7.7232396602630615,2.140202144416749,[2.35283802],0.005,0.1,0.043017197804453775,0.009658521121834567,0
7.730758190155029,2.140202144416749,[2.35284457],0.005,0.1,0.03990554541134844,0.009659299876511715,0
7.742322683334351,2.140202144416749,[2.35285097],0.005,0.1,0.03694403980566337,0.009660391123321467,0
7.7522149085998535,2.1400067457000125,[2.35285725],0.005,0.1,0.034150239052939686,0.009687673562428037,0
7.762789249420166,2.1400067457000125,[2.35286341],0.005,0.1,0.03153145853725224,0.00968865944937133,0
7.772939205169678,2.1400067457000125,[2.35286944],0.005,0.1,0.029088225333423093,0.009689519172473232,0
7.783485651016235,2.1400067457000125,[2.35287547],0.005,0.1,0.02681667396873934,0.009693271364445283,0
7.793693542480469,2.1400067457000125,[2.3528842],0.005,0.1,0.024710198827925477,0.010210401864621892,0
7.80403733253479,2.139615948266539,[2.3528991],0.005,0.1,0.02276058612201744,0.009794818319486198,0
7.813889741897583,2.139615948266539,[2.35291885],0.005,0.1,0.02095878250080689,0.009750326168177314,0
7.8237974643707275,2.139615948266539,[2.35294041],0.005,0.1,0.01929541070288978,0.009752496676890175,0
7.835859060287476,2.139615948266539,[2.35296251],0.005,0.1,0.01776110966524222,0.009757464487690673,0
7.844842195510864,2.1394205495498024,[2.3529838],0.005,0.1,0.016346753293571784,0.009805411107041452,0
7.8580162525177,2.1394205495498024,[2.35300214],0.005,0.1,0.0150435857754404,0.009900649576490882,0
7.8667542934417725,2.1394205495498024,[2.35301517],0.005,0.1,0.013843299867288168,0.009899709719664024,0
7.8773839473724365,2.1394205495498024,[2.35302055],0.005,0.1,0.012738076561691125,0.01014241046908435,0
7.887594223022461,2.1392251508330657,[2.35301516],0.005,0.1,0.011720598923440052,0.010338097164148031,0
7.897817373275757,2.1392251508330657,[2.35299575],0.005,0.1,0.010784048954260217,0.010553628705877496,0
7.9058005809783936,2.1392251508330657,[2.35296019],0.005,0.1,0.009922093601214925,0.010454457097664824,0
7.916431665420532,2.1392251508330657,[2.35290601],0.005,0.1,0.009128864108428964,0.011365878089016125,0
7.923840045928955,2.1392251508330657,[2.35282993],0.005,0.1,0.008398931576974328,0.011081542828063066,0
7.9340057373046875,2.139029752116329,[2.35272969],0.005,0.1,0.007727280669121326,0.011661989713094921,0
7.9448089599609375,2.139029752116329,[2.3526027],0.005,0.1,0.007109282748530248,0.012333133022091668,0
7.959051847457886,2.1388343533995924,[2.35244379],0.005,0.1,0.00654066930176761,0.014667326366169754,0
7.969972133636475,2.1388343533995924,[2.35224641],0.005,0.1,0.006017506178841829,0.015321180601032793,0
7.980869770050049,2.138638954682856,[2.35200568],0.005,0.1,-0.2705021906992804,0.016175883284748054,0
7.992079973220825,2.138443555966119,[2.35171631],0.005,0.1,-0.3040696430726594,0.02024121071951804,0
8.004363775253296,2.1382481572493823,[2.35136914],0.005,0.1,-0.5254181807263784,0.025089016506813253,0
8.016514539718628,2.137857359815909,[2.35095525],0.005,0.1,-0.758870987517444,0.025312836278865537,0
8.02549695968628,2.1376619610991727,[2.35047031],0.005,0.1,-0.9427588838302234,0.026082391147018918,0
8.034787893295288,2.137271163665699,[2.34991482],0.005,0.1,-1.064435072063604,0.021981630714226097,0
8.04481291770935,2.1368803662322255,[2.34929155],0.005,0.1,-1.1301873936663123,0.024629155877737726,0
8.0537691116333,2.136684967515489,[2.34860004],0.005,0.1,-1.1518770403854341,0.02731951526309855,0
8.06592583656311,2.136294170082016,[2.34783381],0.005,0.1,-0.865396588752101,0.03859822110380951,0
8.074827909469604,2.136098771365279,[2.34698694],0.005,0.1,-0.7997702518732654,0.030839771207781703,0
8.084814071655273,2.135707973931806,[2.34606042],0.005,0.1,-0.5320923412512011,0.03435901735504753,0
8.098780632019043,2.1353171764983325,[2.34505126],0.005,0.1,-0.2438275188069915,0.04895275413463818,0
8.110304832458496,2.1349263790648587,[2.3439461],0.005,0.1,-0.27681645647344594,0.06332701851784771,0
8.117763042449951,2.134535581631386,[2.34273711],0.005,0.1,-0.12762104958254858,0.04722024741293211,0
8.126749515533447,2.134340182914649,[2.34142889],0.005,0.1,0.053422041541536666,0.050170465728666236,0
8.136310815811157,2.1339493854811757,[2.34002525],0.005,0.1,0.2096808351766335,0.05328382634677144,0
8.143722295761108,2.133753986764439,[2.33853004],0.005,0.1,0.3257537442074877,0.04190788423420546,0
8.153951644897461,2.1333631893309657,[2.33694667],0.005,0.1,0.4029239007494243,0.06389212907485108,0
8.167765855789185,2.1327769931807556,[2.3352695],0.005,0.1,0.448069954437967,0.06568802067519121,0
8.179405927658081,2.132581594464019,[2.33348905],0.005,0.1,0.46894965735363997,0.08823379610392494,0
8.188211441040039,2.1321907970305456,[2.33160184],0.005,0.1,0.4724210558782238,0.06451828792217566,0
8.195764541625977,2.1319953983138094,[2.32961477],0.005,0.1,0.46395836199866947,0.06856008665107931,0
8.205628633499146,2.1316046008803355,[2.32753367],0.005,0.1,0.4476933018581138,0.07277371760075392,0
8.21376085281372,2.131409202163599,[2.32536399],0.005,0.1,0.42663392158592717,0.05598605292329253,0
8.221772193908691,2.131213803446862,[2.32311581],0.005,0.1,0.4029124454240395,0.064323121762649,0
8.230735301971436,2.130823006013389,[2.32079799],0.005,0.1,0.3780059055113342,0.0513029298521252,0
8.243782043457031,2.1304322085799154,[2.31841229],0.005,0.1,0.35291394678814536,0.0861728557109412,0
8.253786563873291,2.1300414111464425,[2.31594821],0.005,0.1,0.32829478800392636,0.09075872013803106,0
8.263273239135742,2.1296506137129687,[2.3133964],0.005,0.1,0.3045659735130146,0.09513055528281571,0
8.273877382278442,2.1292598162794953,[2.31075411],0.005,0.1,0.28197753295566286,0.09991012975977219,0
8.283737897872925,2.129064417562759,[2.30801865],0.005,0.1,-0.015373993563330163,0.1039514032842584,0
8.293580532073975,2.1286736201292857,[2.30518779],0.005,0.1,-0.06847959612192771,0.10689084760665206,0
8.302005290985107,2.1282828226958124,[2.30225974],0.005,0.1,-0.032026191525678795,0.11147640857446732,0
8.31145429611206,2.1280874239790757,[2.29923259],0.005,0.1,0.026723380799449702,0.11522890098866603,0
8.318796634674072,2.127892025262339,[2.29611176],0.005,0.1,0.08116921982191178,0.08556333125505636,0
8.330255270004272,2.1275012278288656,[2.29290205],0.005,0.1,0.39894887634746123,0.1317990423303587,0
8.340601444244385,2.127305829112129,[2.28959334],0.005,0.1,0.460318141174303,0.131035365306549,0
8.350479125976562,2.1271104303953923,[2.28617747],0.005,0.1,0.42193928186296925,0.13018228389982517,0
8.35778546333313,2.1269150316786556,[2.28266292],0.005,0.1,0.629708598144622,0.0944088439840128,0
8.369784593582153,2.126719632961919,[2.27905746],0.005,0.1,0.5936665940172896,0.13979600662485567,0
8.380775213241577,2.1263288355284455,[2.27535308],0.005,0.1,0.7548796860529218,0.13577962288030263,0
8.391759872436523,2.125938038094972,[2.27154383],0.005,0.1,0.6638815156549476,0.13201086711160012,0
8.399834871292114,2.1257426393782355,[2.26764107],0.005,0.1,0.5009943929411094,0.09425362710691927,0
8.409691333770752,2.125547240661499,[2.263655],0.005,0.1,0.3398956481818963,0.13716029370021768,0
8.418761014938354,2.1251564432280254,[2.25958723],0.005,0.1,0.20590277485014108,0.09601900831039772,0
8.427890539169312,2.1249610445112888,[2.25544829],0.005,0.1,-0.17241255492582042,0.099997563887995,0
8.438810586929321,2.124570247077816,[2.25124805],0.005,0.1,-0.2794124926815943,0.10247651041835597,0
8.447675228118896,2.124179449644342,[2.24699533],0.005,0.1,-0.27536593612109206,0.07426726032868197,0
8.459829330444336,2.1237886522108687,[2.24270624],0.005,0.1,-0.5090652225824748,0.08120641077830758,0
8.470671892166138,2.1232024560606586,[2.23837961],0.005,0.1,-0.4927686637195653,0.1139511228167358,0
8.485038995742798,2.1226162599104486,[2.23399226],0.005,0.1,-0.6691949245602333,0.13646158131777053,0
8.496541500091553,2.1220300637602385,[2.22951866],0.005,0.1,-0.8661266046910078,0.1492964685829901,0
8.50677490234375,2.1216392663267656,[2.22494708],0.005,0.1,-1.0218504913520563,0.12368309794712645,0
8.520954608917236,2.1210530701765555,[2.22027759],0.005,0.1,-0.8464173644753448,0.13246940895885476,0
8.53175687789917,2.120662272743082,[2.21551265],0.005,0.1,-0.5875269649723509,0.10835809126532764,0
8.542715787887573,2.120271475309609,[2.21066371],0.005,0.1,-0.34390217600959183,0.09120647192147495,0
8.553710699081421,2.1196852791593987,[2.20574923],0.005,0.1,-0.1473547974315943,0.0794101210174856,0
8.562721490859985,2.1192944817259254,[2.20078625],0.005,0.1,-0.00154208935813345,0.06863576269889743,0
8.57281494140625,2.1187082855757153,[2.19579084],0.005,0.1,0.10024814535120372,0.0611036236875367,0
8.583352088928223,2.118317488142242,[2.19077751],0.005,0.1,0.1673200212983098,0.05448282676970014,0
8.591010093688965,2.117731291992032,[2.18575904],0.005,0.1,0.20846108903844485,0.04898285604383467,0
8.598816871643066,2.1173404945585586,[2.18075354],0.005,0.1,-0.04510425908183055,0.03266733340181867,0
8.608311176300049,2.1169496971250856,[2.17578318],0.005,0.1,-0.06880804617864618,0.03214683991794316,0
8.615789651870728,2.116558899691612,[2.17086644],0.005,0.1,-0.2892053542020471,0.02215873850689485,0
8.62930417060852,2.1155819061079284,[2.16601165],0.005,0.1,-0.2515536635102592,0.031843682235419585,0
8.638712406158447,2.1151911086744555,[2.16121173],0.005,0.1,-0.41098373218018114,0.028695477729713207,0
8.650403499603271,2.1146049125242454,[2.15645325],0.005,0.1,-0.32261224985244064,0.03343956537982368,0
8.657767295837402,2.1140187163740354,[2.15173097],0.005,0.1,-0.16736790274749463,0.021063075774723376,0
8.667742729187012,2.1134325202238253,[2.14705332],0.005,0.1,-0.29411686397993864,0.01890880119595143,0
8.67861294746399,2.1126509253568786,[2.14242666],0.005,0.1,-0.20801760581641146,0.016813586147691535,0
8.69123101234436,2.111869330489932,[2.13784191],0.005,0.1,-0.0672438687886689,0.018826675949080253,0
8.702732563018799,2.1112831343397223,[2.13328378],0.005,0.1,-0.21084339285513395,0.014492190742037664,0
8.710753917694092,2.110696938189512,[2.12875243],0.005,0.1,-0.1401587170283512,0.008319642043630173,0
8.718719482421875,2.1103061407560384,[2.12426123],0.005,0.1,-0.2882610723173796,0.00618888219009374,0
8.729196548461914,2.1093291471723554,[2.11981379],0.005,0.1,-0.19917591157429126,0.004204148568442519,0
8.73768138885498,2.1085475523054082,[2.11540563],0.005,0.1,-0.324290799949853,0.0018686832381767245,0
8.749726057052612,2.107765957438462,[2.11103271],0.005,0.1,-0.21467642607216555,-0.0005400163028329613,0
8.761743307113647,2.1069843625715152,[2.10668439],0.005,0.1,-0.3237682033515096,-0.004555849428609569,0
8.770734071731567,2.106398166421305,[2.10235132],0.005,0.1,-0.20263234550145348,-0.004982061978953306,0
8.779742002487183,2.105811970271095,[2.09803942],0.005,0.1,-0.30398577366389223,-0.007521588594344551,0
8.790801525115967,2.1050303754041484,[2.09374713],0.005,0.1,-0.17803741160884867,-0.01372286462662701,0
8.800562143325806,2.1042487805372017,[2.0894598],0.005,0.1,-0.27672997263361654,-0.015355760035513423,0
8.809422016143799,2.103662584386992,[2.08517887],0.005,0.1,-0.14964620494507772,-0.01229618912781299,0
8.819796085357666,2.1028809895200453,[2.08091291],0.005,0.1,0.027787379187655017,-0.020182605144867045,0
8.83125901222229,2.1022947933698353,[2.07665662],0.005,0.1,0.18738777467994316,-0.02139954292123132,0
8.841765403747559,2.1015131985028885,[2.07240605],0.005,0.1,0.30867315499031434,-0.022440069418973193,0
8.850781440734863,2.1009270023526785,[2.06817122],0.005,0.1,0.3908728002932639,-0.017146665660677653,0
8.859108209609985,2.1003408062024684,[2.06396718],0.005,0.1,0.4401784327127386,-0.019863040815107483,0
8.866766214370728,2.099950008768995,[2.05980663],0.005,0.1,0.4642419816314788,-0.015804086954648165,0
8.875810384750366,2.099363812618785,[2.05569401],0.005,0.1,0.7460729612675219,-0.027029312692042385,0
8.88474702835083,2.098777616468575,[2.05162673],0.005,0.1,0.7723659322498027,-0.020545740990407752,0
8.895752906799316,2.098191420318365,[2.04760231],0.005,0.1,0.9781499684506231,-0.03274521486386172,0
8.90670394897461,2.097605224168155,[2.04361228],0.005,0.1,0.9148550014735627,-0.03364627643600843,0
8.916738271713257,2.096628230584472,[2.03964908],0.005,0.1,0.7659643791811941,-0.03448972768820119,0
8.929256439208984,2.095455838284052,[2.03570587],0.005,0.1,0.33257124188398035,-0.047110569947254904,0
8.938596487045288,2.0942834459836317,[2.03177637],0.005,0.1,-0.11407786406091691,-0.03366686891022954,0
8.948630571365356,2.0931110536832116,[2.02786692],0.005,0.1,-1.030839846769479,-0.03555080922456116,0
8.959784984588623,2.091547863949318,[2.02398241],0.005,0.1,-1.9124233209200896,-0.03757782228364131,0
8.971855163574219,2.089398478065215,[2.02012034],0.005,0.1,-3.144306094732735,-0.038945055060452045,0
8.985342502593994,2.0874444908978482,[2.01627801],0.005,0.1,-3.6651191235179956,-0.04036654876756961,0
8.995777368545532,2.085685902447218,[2.01244655],0.005,0.1,-4.090070149131705,-0.05604490005381497,0
9.003791809082031,2.084122712713325,[2.00861819],0.005,0.1,-4.354332073067997,-0.039335619618648544,0
9.015734434127808,2.0819733268292215,[2.00479255],0.005,0.1,-4.464390355839443,-0.055480610221618785,0
9.026873111724854,2.079823940945118,[2.00095723],0.005,0.1,-4.4503113081591525,-0.06888161316850669,0
9.037333488464355,2.077283757627541,[1.99709615],0.005,0.1,-4.069492963756067,-0.06133500332125708,0
9.05067253112793,2.0741573781597546,[1.9932029],0.005,0.1,-4.146182855037131,-0.07181111352247412,0
9.06174087524414,2.071421796125441,[1.98927334],0.005,0.1,-4.029826764925949,-0.06226951409497447,0
9.071714162826538,2.068686214091128,[1.98531106],0.005,0.1,-3.5490212450698175,-0.055609282308487766,0
9.082316398620605,2.0659506320568144,[1.98132621],0.005,0.1,-3.2756661623462917,-0.05078133756623613,0
9.089741945266724,2.063801246172711,[1.97733392],0.005,0.1,-2.529662872791455,-0.03500691412530432,0
9.098738193511963,2.061456461571871,[1.97334783],0.005,0.1,-2.294928250536174,-0.04888152352700234,0
9.109879493713379,2.057939284670611,[1.96936902],0.005,0.1,-1.965844218694761,-0.045042839255164016,0
9.118698835372925,2.0552037026362977,[1.96540436],0.005,0.1,-1.645315512392156,-0.030903976074979828,0
9.129413366317749,2.0520773231685108,[1.96147103],0.005,0.1,-1.3686982889618071,-0.03196079179091594,0
9.138354301452637,2.0495371398509343,[1.95757844],0.005,0.1,-0.8663150963218991,-0.032679695740638344,0
9.148298263549805,2.0462153616664107,[1.95372944],0.005,0.1,-0.6523306467208823,-0.0325799415963214,0
9.159708261489868,2.0426981847651504,[1.94992667],0.005,0.1,-0.5640396700419792,-0.03196969145412186,0
9.168718099594116,2.0397672040141006,[1.94617257],0.005,0.1,-0.25019044149376224,-0.03135194147342046,0
9.17920994758606,2.0362500271128408,[1.94246462],0.005,0.1,0.07965947603010087,-0.04054901210549295,0
9.188287496566772,2.0333190463617905,[1.9388008],0.005,0.1,0.07499585768361197,-0.026937245601623756,0
9.198745489120483,2.0294110720270573,[1.93518881],0.005,0.1,0.5146817373377794,-0.026741772268935243,0
9.206728458404541,2.026480091276007,[1.93163523],0.005,0.1,0.7316932976871774,-0.02584524678163157,0
9.21477746963501,2.0237445092416935,[1.92814572],0.005,0.1,1.1030295708605045,-0.018054761178755718,0
9.22581434249878,2.0196411361902236,[1.92472914],0.005,0.1,1.1642297951311837,-0.019323242698628056,0
9.23769497871399,2.015342364422017,[1.92138363],0.005,0.1,1.0999674115021705,-0.02737518976414694,0
9.249325037002563,2.0114343900872833,[1.91809853],0.005,0.1,1.270354671759684,-0.025310023857581302,0
9.260753631591797,2.0073310170358134,[1.91486462],0.005,0.1,1.1926429221598958,-0.03142757699814059,0
9.27179479598999,2.0032276439843435,[1.91167798],0.005,0.1,1.3115351684227967,-0.020332495704602552,0
9.28115963935852,1.9997104670830832,[1.90853899],0.005,0.1,1.4554059525424443,-0.02724576046203775,0
9.29000997543335,1.9965840876152965,[1.90544734],0.005,0.1,1.562519505438709,-0.01813444442056886,0
9.301741123199463,1.9924807145638264,[1.90240202],0.005,0.1,1.894733780444194,-0.025453476772106777,0
9.311736583709717,1.9887681389458298,[1.89939705],0.005,0.1,1.9375346106737954,-0.02376186943646383,0
9.322962760925293,1.9848601646110962,[1.89642661],0.005,0.1,1.8557617386138752,-0.02255123646205194,0
9.333691120147705,1.9805613928428896,[1.89348925],0.005,0.1,1.7271438392446599,-0.021638713339367448,0
9.343789339065552,1.9766534185081563,[1.89058305],0.005,0.1,1.863191875569822,-0.02111833880256582,0
9.352404356002808,1.9735270390403694,[1.88770569],0.005,0.1,2.0362549137799264,-0.02101536428664231,0
9.359817028045654,1.9705960582893192,[1.88485902],0.005,0.1,1.8878813866930375,-0.014591724736030555,0
9.36884880065918,1.9670788813880593,[1.88204853],0.005,0.1,1.9175800387653994,-0.01618476983772796,0
9.378879308700562,1.9635617044867992,[1.87927386],0.005,0.1,1.6999258684894523,-0.01734739538033861,0
9.388784885406494,1.9598491288688025,[1.87652983],0.005,0.1,1.6996176310265385,-0.01804886304898278,0
9.398831367492676,1.9561365532508057,[1.87381174],0.005,0.1,1.7489579374750561,-0.01839284981257905,0
9.410738229751587,1.9512515853323888,[1.87111114],0.005,0.1,1.783922921588117,-0.024932932245106013,0
9.419979333877563,1.9479298071478657,[1.86842095],0.005,0.1,1.5101702701899984,-0.016343678499606894,0
9.431812047958374,1.9434356366629222,[1.86573996],0.005,0.1,1.4469398603592618,-0.02232154357880039,0
9.439764499664307,1.940504655911872,[1.86306753],0.005,0.1,1.4461481118568376,-0.014703729593501096,0
9.451789855957031,1.9360104854269287,[1.86040365],0.005,0.1,1.4482582671752176,-0.019987850953438552,0
9.461790323257446,1.9322979098089321,[1.85774888],0.005,0.1,1.4335228068073662,-0.012946476178587216,0
9.47375202178955,1.9279991380407253,[1.85510445],0.005,0.1,1.3989605219766705,-0.017407983258869598,0
9.483025789260864,1.9246773598562017,[1.85246841],0.005,0.1,1.3477933075231117,-0.015473703074455369,0
9.49280834197998,1.9211601829549418,[1.84984001],0.005,0.1,1.284827556786924,-0.013775202765737706,0
9.501848697662354,1.9176430060536815,[1.84722684],0.005,0.1,1.214608239326095,-0.008850892917373997,0
9.510778427124023,1.913930430435685,[1.84463954],0.005,0.1,1.1408196448256147,-0.008698969549595443,0
9.51976490020752,1.910413253534425,[1.84208424],0.005,0.1,1.0662117403354991,-0.008396741819294383,0
9.529948949813843,1.9068960766331648,[1.83956314],0.005,0.1,0.9927209789978799,-0.00792948732554884,0
9.539686441421509,1.9035742984486415,[1.83707865],0.005,0.1,1.1976788903401634,-0.007402179919384971,0
9.551942825317383,1.899080127963698,[1.83463048],0.005,0.1,1.1629447647676336,-0.009073180082343474,0
9.55979037284851,1.896149147212648,[1.83221876],0.005,0.1,1.0436739499900964,-0.005636398060605563,0
9.569433450698853,1.8928273690281245,[1.82984954],0.005,0.1,1.1833580483751405,-0.005297062380827097,0
9.577179431915283,1.8898963882770747,[1.82752808],0.005,0.1,1.0896469938459663,-0.004999487340482617,0
9.586769104003906,1.8863792113758147,[1.82525595],0.005,0.1,1.2015503961917382,-0.004665376791803565,0
9.596765756607056,1.8828620344745544,[1.82303431],0.005,0.1,1.3439814024511287,-0.004358335748480643,0
9.608760356903076,1.8787586614230845,[1.82086125],0.005,0.1,1.1770142694733732,-0.005633416114888093,0
9.617605447769165,1.8756322819552977,[1.81873489],0.005,0.1,1.2040588793719,-0.003373307689025828,0
9.629082202911377,1.8719197063373008,[1.81665864],0.005,0.1,1.2739880880435366,-0.003250034675461837,0
9.638800859451294,1.8687933268695143,[1.81463493],0.005,0.1,1.3291517308160277,-0.0031549463932837485,0
9.648733377456665,1.8652761499682542,[1.81266268],0.005,0.1,1.3531299484723052,-0.0030227722891840608,0
9.657448291778564,1.8623451692172042,[1.81074055],0.005,0.1,1.0702346788261785,-0.0029139736238036405,0
9.665700197219849,1.859414188466154,[1.80886922],0.005,0.1,1.0054717910341602,-0.001895095121253236,0
9.678118705749512,1.8553108154146838,[1.80704872],0.005,0.1,1.0111868173872423,-0.0029489540399589755,0
9.68809723854065,1.852184435946897,[1.80527375],0.005,0.1,1.0263756352793305,-0.0027751566485406352,0
9.695726156234741,1.849839651346057,[1.80354158],0.005,0.1,0.7533742713455033,-0.001804215982783447,0
9.707753896713257,1.8459316770113239,[1.80185158],0.005,0.1,0.9824821561123855,-0.0028104496191635785,0
9.717841625213623,1.843391493693747,[1.80019775],0.005,0.1,1.3179489349817637,-0.0027148312772630593,0
9.728759050369263,1.840460512942697,[1.79857424],0.005,0.1,1.8841475622258712,-0.002645833485593487,0
9.740935325622559,1.837529532191647,[1.7969751],0.005,0.1,2.670492694402278,-0.003728221107651603,0
9.750705003738403,1.835184747590807,[1.7953945],0.005,0.1,3.0702351540418373,-0.0024280864830151043,0
9.762101888656616,1.8324491655564934,[1.79382907],0.005,0.1,3.508736023623173,-0.0037343995331751887,0
9.7707679271698,1.8304951783891268,[1.79227503],0.005,0.1,3.834297103701865,-0.0025310713797190407,0
9.783735752105713,1.8277595963548137,[1.79072822],0.005,0.1,4.015623401101303,-0.004090863895571777,0
9.793707847595215,1.8254148117539735,[1.789181],0.005,0.1,4.067866621158908,-0.004122999005939397,0
9.802336931228638,1.82385162202008,[1.78762589],0.005,0.1,3.7437661193689116,-0.004347875953045838,0
9.81270456314087,1.8218976348527132,[1.78605484],0.005,0.1,3.315136841051693,-0.006531788498917893,0
9.821295261383057,1.82033444511882,[1.78446003],0.005,0.1,2.89450721748032,-0.0045318936298568225,0
9.828716516494751,1.8191620528184,[1.78284468],0.005,0.1,2.521639024605941,-0.0034216907178340355,0
9.838757514953613,1.81740346436777,[1.78121434],0.005,0.1,2.2047353007668207,-0.004379724275074167,0
9.848294258117676,1.8158402746338766,[1.77956567],0.005,0.1,1.9396070198773077,-0.0053820459883722775,0
9.861044645309448,1.8140816861832465,[1.77788681],0.005,0.1,1.9942878804266972,-0.009095509771289628,0
9.873106241226196,1.8125184964493533,[1.77615783],0.005,0.1,1.841588106771277,-0.013064598023327682,0
9.880733251571655,1.8113461041489332,[1.77436516],0.005,0.1,1.076948949257801,-0.009162057556280148,0
9.891487121582031,1.8099783131317762,[1.77250997],0.005,0.1,0.7997000820358346,-0.010109142768144945,0
9.90269660949707,1.8084151233978831,[1.77059286],0.005,0.1,0.446433412396845,-0.01109407216631239,0
9.911243200302124,1.8076335285309364,[1.76860948],0.005,0.1,0.1304524766621873,-0.01233111652382499,0
9.920714616775513,1.8064611362305163,[1.766556],0.005,0.1,0.16098685499304877,-0.013483021751649265,0
9.932809352874756,1.8054841426468329,[1.76442922],0.005,0.1,0.2953657903102083,-0.014746166960930632,0
9.942721366882324,1.8041163516296763,[1.7622266],0.005,0.1,0.15806792610435452,-0.015843637653407718,0
9.950731754302979,1.8035301554794665,[1.75994635],0.005,0.1,-0.04252008846215592,-0.017183562582924024,0
9.961615562438965,1.802553161895783,[1.75758753],0.005,0.1,-0.2248655676155038,-0.018370449571025092,0
9.97072434425354,1.801966965745573,[1.75515542],0.005,0.1,-0.08795456283664382,-0.01384163388083435,0
9.978720426559448,1.8013807695953632,[1.75266062],0.005,0.1,-0.4252773257429836,-0.016409852254359453,0
9.993067741394043,1.8004037760116798,[1.75010211],0.005,0.1,-0.29403198962538424,-0.025498316190845322,0
10.001456260681152,1.8000129785782062,[1.74746915],0.005,0.1,-0.30935431528766166,-0.02569514444332899,0
10.011730432510376,1.7994267824279964,[1.74475917],0.005,0.1,-0.3652479343837354,-0.025940288243267832,0
10.019709348678589,1.798840586277786,[1.74198187],0.005,0.1,-0.6952411068033497,-0.019036807295170682,0
10.032518863677979,1.7980589914108396,[1.73914663],0.005,0.1,-0.4903760199943782,-0.02904748216345108,0
10.042664051055908,1.7974727952606295,[1.73625196],0.005,0.1,-0.6984031473249339,-0.02889020273514534,0
10.055509090423584,1.7964958016769463,[1.73329263],0.005,0.1,-0.9914755756477494,-0.03771549690380671,0
10.065743446350098,1.7955188080932627,[1.73027069],0.005,0.1,-1.7964278419582898,-0.026246974750697996,0
10.078718662261963,1.7943464157928428,[1.7271942],0.005,0.1,-2.5917073513984024,-0.03563130346999336,0
10.087934017181396,1.7937602196426328,[1.72406596],0.005,0.1,-3.4777069977945048,-0.03394953900835461,0
10.096094369888306,1.7927832260589496,[1.72088913],0.005,0.1,-3.9068077518229654,-0.03280414544989942,0
10.105562210083008,1.7916108337585295,[1.71767713],0.005,0.1,-4.612452945579129,-0.02350265254324453,0
10.118757009506226,1.790047644024636,[1.71444174],0.005,0.1,-5.0,-0.03449500404136832,0
10.131462097167969,1.7884844542907428,[1.71117785],0.005,0.1,-5.0,-0.04453346953301147,0
10.14171552658081,1.7871166632735858,[1.70787596],0.005,0.1,-5.0,-0.04140035174299178,0
10.150723695755005,1.7859442709731659,[1.70453808],0.005,0.1,-4.9162875971651445,-0.039861520393486616,0
10.159755229949951,1.7845764799560093,[1.70117616],0.005,0.1,-4.945768994625413,-0.028541581076901426,0
10.17304539680481,1.7826224927886425,[1.69779982],0.005,0.1,-4.670709742649086,-0.04297574304400504,0
10.180714130401611,1.781254701771486,[1.69440565],0.005,0.1,-4.293801142517866,-0.043157040932976655,0
10.190306663513184,1.7794961133208558,[1.69098995],0.005,0.1,-3.904184072595495,-0.043880801602206844,0
10.199720621109009,1.7777375248702258,[1.68756015],0.005,0.1,-3.5376519098144987,-0.032173086611210606,0
10.20819354057312,1.7761743351363324,[1.68412762],0.005,0.1,-3.2057423751436245,-0.037119309946073514,0
10.216491222381592,1.7746111454024391,[1.68069524],0.005,0.1,-2.909575229809959,-0.04190542907868583,0
10.228881120681763,1.7722663608015992,[1.6772585],0.005,0.1,-3.1983507080559157,-0.04591690724894857,0
10.239739418029785,1.7701169749174959,[1.67381252],0.005,0.1,-3.0301534423737366,-0.049832621536181905,0
10.248738765716553,1.768162987750129,[1.67035223],0.005,0.1,-2.710406592317825,-0.05368868900129439,0
10.260720252990723,1.7656228044325524,[1.66686577],0.005,0.1,-2.370087798496372,-0.07778950303468214,0
10.27283501625061,1.762887222398239,[1.66333572],0.005,0.1,-2.0593643560265655,-0.07516773027648045,0
10.282764911651611,1.7605424377973988,[1.65975369],0.005,0.1,-1.7924956984889187,-0.0740399727991178,0
10.29093074798584,1.758588450630032,[1.65612623],0.005,0.1,-1.568943378249697,-0.053159939682506874,0
10.300635814666748,1.756243666029192,[1.65245902],0.005,0.1,-1.3829865389270384,-0.0813671426395836,0
10.313705444335938,1.7529218878446686,[1.64873628],0.005,0.1,-1.5039097651423718,-0.10526528090996155,0
10.325711727142334,1.749795508376882,[1.64494528],0.005,0.1,-1.68262604229832,-0.07111590689584811,0
10.338162899017334,1.7464737301923585,[1.64109014],0.005,0.1,-1.5497657170112595,-0.09631898989857918,0
10.347929239273071,1.7435427494413085,[1.63716843],0.005,0.1,-1.5992623586166352,-0.08948240687955204,0
10.358724117279053,1.7404163699735218,[1.63317937],0.005,0.1,-1.6788824333529617,-0.08408201637950502,0
10.36669111251831,1.7380715853726818,[1.62913061],0.005,0.1,-1.4568894904785767,-0.08060794458000267,0
10.374727964401245,1.735531402055105,[1.62503668],0.005,0.1,-1.1624731411939992,-0.05643291986889196,0
10.384669780731201,1.7326004213040551,[1.62091767],0.005,0.1,-1.1627642433937386,-0.05995378809542831,0
10.395783424377441,1.7288878456860584,[1.61677862],0.005,0.1,-1.243942664632761,-0.08313668053937173,0
10.403786897659302,1.7265430610852182,[1.61261829],0.005,0.1,-1.044777230912765,-0.05714115220587251,0
10.412438154220581,1.7238074790509048,[1.60844966],0.005,0.1,-0.5046068218531049,-0.05858860629134816,0
10.421670198440552,1.720681099583118,[1.604285],0.005,0.1,-0.5032866259505502,-0.05871724225108318,0
10.431689500808716,1.7173593213985947,[1.60013531],0.005,0.1,-0.39364923671591523,-0.041430406261542214,0
10.439677953720093,1.714819138081018,[1.59601673],0.005,0.1,0.010797335336240499,-0.04514095053214999,0
10.452014684677124,1.7103249675960746,[1.59193228],0.005,0.1,0.15715968786309953,-0.06249284449096967,0
10.460017442703247,1.707589385561761,[1.58787435],0.005,0.1,0.19072415846831597,-0.05746260178008602,0
10.468320369720459,1.7044630060939745,[1.58384847],0.005,0.1,0.4553401314568172,-0.038945390103574506,0
10.477694988250732,1.7015320253429245,[1.57987093],0.005,0.1,0.4625752120887621,-0.03941363192076359,0
10.48774528503418,1.6980148484416642,[1.57595093],0.005,0.1,0.6560464371954707,-0.03881268776496918,0
10.49618673324585,1.6950838676906144,[1.57209179],0.005,0.1,0.8648536108064473,-0.037651452839062814,0
10.505677938461304,1.6913712920726174,[1.56830141],0.005,0.1,1.028547353519959,-0.025896491122000688,0
10.516693353652954,1.6872679190211477,[1.56458708],0.005,0.1,0.8582318324480722,-0.03644220430389723,0
10.5272855758667,1.6831645459696776,[1.56094654],0.005,0.1,0.8784648551301995,-0.0330829124651538,0
10.536333799362183,1.6800381665018909,[1.55737829],0.005,0.1,1.221707016008646,-0.030237219457640824,0
10.546289682388306,1.6761301921671574,[1.55388586],0.005,0.1,1.313043264948625,-0.027445697748014412,0
10.555701732635498,1.6728084139826338,[1.55047249],0.005,0.1,1.2901554037664844,-0.025114043653240558,0
10.567602157592773,1.6683142434976903,[1.54714098],0.005,0.1,1.219354207904324,-0.022741080358196702,0
10.575711727142334,1.6653832627466405,[1.54389708],0.005,0.1,1.1319448949942452,-0.015387746089520636,0
10.584707736968994,1.6618660858453804,[1.5407487],0.005,0.1,1.3182505587863873,-0.015580210417161872,0
10.596426248550415,1.6575673140771736,[1.53769534],0.005,0.1,1.5414753622506796,-0.02059570829213647,0
10.603803157806396,1.6548317320428605,[1.53473577],0.005,0.1,1.439639352005535,-0.02065569380225861,0
10.614388465881348,1.6509237577081268,[1.53187472],0.005,0.1,1.511245289147115,-0.02401290020966776,0
10.623722553253174,1.6476019795236037,[1.52910899],0.005,0.1,1.606959461820483,-0.020457174407477477,0
10.634943962097168,1.6434986064721333,[1.52642871],0.005,0.1,1.9490056396640776,-0.02322353663096645,0
10.642704486846924,1.6405676257210835,[1.52383082],0.005,0.1,2.005955522027561,-0.02318981170377855,0
10.652678966522217,1.6368550501030865,[1.52132092],0.005,0.1,1.936212453333072,-0.01959566076111064,0
10.664759397506714,1.6325562783348797,[1.51889639],0.005,0.1,1.8156908880098326,-0.022426784159958673,0
10.677687883377075,1.6274759116997264,[1.51653798],0.005,0.1,1.6799294535273455,-0.031214607753972293,0
10.688305616378784,1.622981741214783,[1.51422801],0.005,0.1,1.5448963002849785,-0.019059075849041176,0
10.697498321533203,1.619464564313523,[1.51196304],0.005,0.1,1.4172151971146172,-0.017223127312748172,0
10.708022594451904,1.6157519886955263,[1.50974211],0.005,0.1,1.0231159216257577,-0.016197121358292425,0
10.717687129974365,1.6122348117942664,[1.50755993],0.005,0.1,0.8818698256123605,-0.01567479077623163,0
10.728846788406372,1.6083268374595328,[1.50541088],0.005,0.1,0.838296773725229,-0.015470520676514821,0
10.737505912780762,1.605200457991746,[1.50328905],0.005,0.1,0.8243937606206133,-0.01562339049054423,0
10.751827716827393,1.5995338952063825,[1.50118448],0.005,0.1,0.8127933473664479,-0.021485147811714542,0
10.762273788452148,1.595821319588386,[1.49908384],0.005,0.1,0.7943849296139744,-0.02014024200599709,0
10.769659996032715,1.5930857375540726,[1.49698273],0.005,0.1,0.7677493146306816,-0.013761199322160933,0
10.780061960220337,1.589373161936076,[1.49488041],0.005,0.1,1.0103506768890655,-0.021177338809463677,0
10.788722515106201,1.5864421811850258,[1.49277172],0.005,0.1,1.0053895191886775,-0.014543016689689459,0
10.801599264144897,1.5817526119833456,[1.49065167],0.005,0.1,0.909591175794478,-0.022203836387996122,0
10.812691926956177,1.577453840215139,[1.48850681],0.005,0.1,0.7918298497421625,-0.02913579047190464,0
10.824687242507935,1.5727642710134586,[1.48632547],0.005,0.1,0.6798691370270704,-0.01883239404580422,0
10.83730173110962,1.567879303095042,[1.48410621],0.005,0.1,0.5828903275779905,-0.026126797512723572,0
10.844666004180908,1.565534518494202,[1.48184784],0.005,0.1,0.5021669808451124,-0.017597171700968577,0
10.85682487487793,1.5606495505757851,[1.47954957],0.005,0.1,0.43598932521590017,-0.02516923781389353,0
10.86909031867981,1.5563507788075785,[1.47720639],0.005,0.1,0.38183726478894764,-0.023361740876225723,0
10.879891395568848,1.5524428044728453,[1.47481456],0.005,0.1,0.33726429032086325,-0.022052758761036594,0
10.890458822250366,1.5487302288548483,[1.47237159],0.005,0.1,0.024159115517793622,-0.02838688915623495,0
10.899819374084473,1.5452130519535883,[1.46987615],0.005,0.1,-0.0401749942879453,-0.01834709607786391,0
10.908606052398682,1.5420866724858016,[1.46733706],0.005,0.1,-0.011699240370060995,-0.018225557120400738,0
10.91866946220398,1.538374096867805,[1.4647626],0.005,0.1,0.04139128730689256,-0.017947662833392716,0
10.92860746383667,1.5344661225330716,[1.462156],0.005,0.1,-0.184214483250774,-0.017472797877921442,0
10.93873143196106,1.530558148198338,[1.45952076],0.005,0.1,-0.17844643195622928,-0.016960234197418385,0
10.94977355003357,1.5266501738636047,[1.45685623],0.005,0.1,-0.3731689422664608,-0.022359081452654583,0
10.961678981781006,1.5221560033786614,[1.45415824],0.005,0.1,-0.31493574946873937,-0.019689770037058494,0
10.97072434425354,1.5186388264774013,[1.45143258],0.005,0.1,-0.18253589790802188,-0.012842023502353687,0
10.978676319122314,1.5155124470096146,[1.44869327],0.005,0.1,-0.04921992324736675,-0.013223701428702161,0
10.989725589752197,1.5110182765246711,[1.44594399],0.005,0.1,-0.21638671273375135,-0.01829321935985122,0
11.00074553489685,1.506914903473201,[1.44317955],0.005,0.1,0.1061260976370688,-0.01665327718624091,0
11.012401103973389,1.5026161317049942,[1.44040001],0.005,0.1,0.24772643234118497,-0.015424433412854596,0
11.02091360092163,1.4996851509539442,[1.43760969],0.005,0.1,0.301196169098626,-0.014870253355867382,0
11.030690431594849,1.4963633727694208,[1.43481218],0.005,0.1,0.31251424930429395,-0.01449720770453093,0
11.040276765823364,1.4928461958681607,[1.43201026],0.005,0.1,0.3043588898694488,-0.014262644170784763,0
11.052002668380737,1.4881566266664805,[1.42920596],0.005,0.1,0.5638686541632991,-0.013930726748281035,0
11.059748888015747,1.4854210446321672,[1.42640506],0.005,0.1,0.577454949553325,-0.009659530661325862,0
11.070769309997559,1.481317671580697,[1.42361199],0.005,0.1,0.5023430324375777,-0.015527184761613789,0
11.081439971923828,1.477214298529227,[1.4208209],0.005,0.1,0.4069134387576694,-0.015102548345531236,0
11.094475984573364,1.4727201280442836,[1.4180217],0.005,0.1,0.5942285744369147,-0.020222781677241567,0
11.104732513427734,1.4690075524262869,[1.41521005],0.005,0.1,0.5538285346188017,-0.013170452896208178,0
11.112716674804688,1.4660765716752369,[1.4123914],0.005,0.1,0.4411342734405217,-0.013668671369997616,0
11.124222755432129,1.4615824011902934,[1.40957016],0.005,0.1,0.32127957132691487,-0.013732634893016238,0
11.134946346282959,1.4574790281388232,[1.40674029],0.005,0.1,0.2180362457777019,-0.019164055748466573,0
11.143882513046265,1.4545480473877732,[1.40389657],0.005,0.1,0.4131799400660414,-0.012736752130541856,0
11.154720067977905,1.4508354717697765,[1.40104421],0.005,0.1,0.3863304338676795,-0.013138435556331913,0
11.165679216384888,1.4469274974350432,[1.3981876],0.005,0.1,0.288464558083923,-0.013385155981455866,0
11.17703628540039,1.442824124383573,[1.39532064],0.005,0.1,0.18286435299573595,-0.018660230676464936,0
11.184680223464966,1.4402839410659962,[1.39243817],0.005,0.1,0.09264336060214243,-0.012496344265636878,0
11.194702863693237,1.4365713654479997,[1.38954562],0.005,0.1,0.02340474292385171,-0.01289532363711846,0
11.203728675842285,1.4334449859802127,[1.38664756],0.005,0.1,0.24983529002634405,-0.013374265578767685,0
11.214764595031738,1.4291462142120062,[1.38374283],0.005,0.1,0.2494131210797389,-0.013415302890752129,0
11.223751544952393,1.4260198347442192,[1.38083034],0.005,0.1,0.17303163221227924,-0.013693393246318264,0
11.232745170593262,1.4225026578429594,[1.37790908],0.005,0.1,0.08462734562849122,-0.013798015213077818,0
11.243304252624512,1.4187900822249626,[1.37497816],0.005,0.1,0.00813300448350298,-0.013785620490303314,0
11.254862785339355,1.414491310456756,[1.37203182],0.005,0.1,-0.05009000546644586,-0.018671993601684485,0
11.263675212860107,1.4111695322722326,[1.36906535],0.005,0.1,-0.09076619481559758,-0.012220181189748722,0
11.274683713912964,1.407261557937499,[1.36608509],0.005,0.1,-0.11697463761710682,-0.0123646080952191,0
11.284073114395142,1.4039397797529758,[1.36310165],0.005,0.1,0.14389719343216006,-0.008567220786888992,0
11.293753862380981,1.4006180015684524,[1.36012414],0.005,0.1,0.16987809876211712,-0.009705942402285152,0
11.302692890167236,1.397296223383929,[1.35715053],0.005,0.1,0.11324921681255931,-0.01478008049267627,0
11.311811208724976,1.394169843916142,[1.35417438],0.005,0.1,0.03942048032770257,-0.0098660077083451,0
11.320676326751709,1.3910434644483554,[1.35119575],0.005,0.1,0.24964616452931343,-0.01453091090456155,0
11.329652070999146,1.3879170849805686,[1.34821518],0.005,0.1,0.23236037854067249,-0.009623443607821261,0
11.341991901397705,1.3836183132123618,[1.34523378],0.005,0.1,0.418350233624784,-0.01347440333310285,0
11.355918407440186,1.3785379465772085,[1.34224413],0.005,0.1,0.3533982101861832,-0.01573855038932929,0
11.363687515258789,1.3759977632596319,[1.33923635],0.005,0.1,0.2157430077943825,-0.01367189664936253,0
11.371691942214966,1.372871383791845,[1.33622099],0.005,0.1,0.35428131381927086,-0.013628944072386715,0
11.383780479431152,1.3687680107403752,[1.3332165],0.005,0.1,0.275141915965006,-0.015396342062182706,0
11.394681930541992,1.365250833839115,[1.33022155],0.005,0.1,0.413683439741081,-0.016547426422777727,0
11.406113862991333,1.3613428595043817,[1.3272268],0.005,0.1,0.31499276980916535,-0.013195793548828046,0
11.413684606552124,1.3586072774700682,[1.32424162],0.005,0.1,0.15488464755251688,-0.013254861283695542,0
11.424689531326294,1.3548947018520714,[1.32128654],0.005,0.1,0.279600392784174,-0.011101609469146234,0
11.438690185546875,1.350400531367128,[1.31836611],0.005,0.1,0.1929398673609681,-0.012525478359668064,0
11.448036670684814,1.3470787531826045,[1.31547112],0.005,0.1,0.05236640420898943,-0.010617912291663836,0
11.460795879364014,1.342779981414398,[1.31259312],0.005,0.1,-0.07948646374324186,-0.012183465342043688,0
11.473836421966553,1.3380904122127177,[1.30971971],0.005,0.1,0.09351294211323441,-0.01324934579797524,0
11.487487554550171,1.3334008430110378,[1.30683499],0.005,0.1,0.05464437803947564,-0.013994573301090272,0
11.500710487365723,1.3291020712428308,[1.30392426],0.005,0.1,0.23032198196428766,-0.014721351992490079,0
11.512064456939697,1.3251940969080978,[1.30097874],0.005,0.1,0.16290248377673483,-0.01185415509970256,0
11.521356582641602,1.3220677174403108,[1.29799987],0.005,0.1,0.028060593559297436,-0.010324463459596537,0
11.532444477081299,1.3181597431055774,[1.29499339],0.005,0.1,0.17283028480559492,-0.009122979124542518,0
11.543757915496826,1.3142517687708442,[1.2919641],0.005,0.1,0.10201634085001843,-0.008293430359827035,0
11.55471158027649,1.3105391931528474,[1.28891611],0.005,0.1,0.25005327929943444,-0.007755375635412056,0
11.5637047290802,1.307217414968324,[1.28585295],0.005,0.1,0.1613941845476027,-0.007467496530135847,0
11.573793411254883,1.304091035500537,[1.28277767],0.005,0.1,0.011427464893276465,-0.007317752489220075,0
11.583751916885376,1.3011600547494875,[1.27969299],0.005,0.1,0.14611459685462533,-0.007280325395659272,0
11.596080780029297,1.2972520804147536,[1.27659638],0.005,0.1,0.06907797912262394,-0.00964295961278532,0
11.603729248046875,1.2949072958139138,[1.27348585],0.005,0.1,0.21371269528763848,-0.006480371578268538,0
11.612693309783936,1.2919763150628636,[1.27036961],0.005,0.1,0.12364207287409132,-0.006707213003584864,0
11.622169733047485,1.2886545368783402,[1.26725457],0.005,0.1,-0.0263739551777777,-0.006817441948695229,0
11.634015560150146,1.2849419612603434,[1.26413651],0.005,0.1,0.10916548862556558,-0.009496169502982365,0
11.643035411834717,1.28220637922603,[1.26101165],0.005,0.1,0.309591314180108,-0.006370802483132794,0
11.65169095993042,1.2794707971917167,[1.25788652],0.005,0.1,0.2130761923543058,-0.00681646594893665,0
11.662417888641357,1.2761490190071934,[1.25476624],0.005,0.1,0.312765403989393,-0.007103516570262736,0
11.672590494155884,1.2730226395394069,[1.2516496],0.005,0.1,0.45293827594034836,-0.007419510420153211,0
11.683899164199829,1.2697008613548835,[1.248535],0.005,0.1,0.574078781531076,-0.007658180370235597,0
11.69484567642212,1.2659882857368865,[1.24542052],0.005,0.1,0.3831468640344768,-0.007752518132952577,0
11.703827619552612,1.2630573049858367,[1.24229855],0.005,0.1,0.39944528793840406,-0.011327633231766868,0
11.716348648071289,1.2591493306511032,[1.23915669],0.005,0.1,0.4745818377762664,-0.010356281160352062,0
11.723743438720703,1.256804546050263,[1.23600058],0.005,0.1,0.2726549779636668,-0.010712207887721596,0
11.733671188354492,1.253873565299213,[1.23285125],0.005,0.1,0.01660794387245068,-0.010419196026868673,0
11.744657754898071,1.250747185831426,[1.22971506],0.005,0.1,-0.20841614518559257,-0.010227066527073754,0
11.755486011505127,1.2474254076469027,[1.22658005],0.005,0.1,-0.10215691560105779,-0.013911591382920415,0
11.768714666366577,1.2437128320289061,[1.2234242],0.005,0.1,0.09181217195260377,-0.016755809568092236,0
11.778204679489136,1.2405864525611194,[1.22022865],0.005,0.1,2.960139497518166e-05,-0.014670163018658627,0
11.785815954208374,1.2384370666770161,[1.216989],0.005,0.1,-0.1663266698852932,-0.013899791887127366,0
11.797665357589722,1.234919889775756,[1.21370168],0.005,0.1,-0.3230920612163569,-0.01735864708406727,0
11.806337833404541,1.2321843077414425,[1.21036402],0.005,0.1,-0.44310666011628674,-0.011426191656262213,0
11.81374740600586,1.2298395231406025,[1.20699188],0.005,0.1,-0.5231674501410246,-0.008152335637726773,0
11.824712753295898,1.2263223462393424,[1.20360483],0.005,0.1,-0.5688735542015193,-0.009106899944676486,0
11.834696769714355,1.2233913654882922,[1.20020768],0.005,0.1,-0.5880068069596343,-0.01009590558581302,0
11.843677997589111,1.2204603847372424,[1.19679854],0.005,0.1,-0.5878922018908368,-0.01093255749699031,0
11.854681730270386,1.217138606552719,[1.19337567],0.005,0.1,-0.5745468551421571,-0.011501800708994658,0
11.863669872283936,1.214598423235142,[1.18994355],0.005,0.1,-0.5525822631930934,-0.008385724093276689,0
11.873649835586548,1.2114720437673556,[1.18651184],0.005,0.1,-0.5253845596014695,-0.009852115279521926,0
11.884625434875488,1.2081502655828322,[1.18307625],0.005,0.1,-0.4953647430281968,-0.015692058767316275,0
11.898674488067627,1.2040468925313619,[1.17961436],0.005,0.1,-0.46419559430736185,-0.020473730478734267,0
11.906665563583374,1.2015067092137852,[1.17610687],0.005,0.1,-0.4330081517603471,-0.019241134943352774,0
11.917262315750122,1.1983803297459985,[1.17254985],0.005,0.1,-0.12650597518539797,-0.018292608710415728,0
11.925666570663452,1.1958401464284218,[1.16895277],0.005,0.1,-0.06410815577914288,-0.012807503904235906,0
11.936740636825562,1.1925183682438982,[1.16532367],0.005,0.1,-0.09139822719904253,-0.01969454447494453,0
11.945773601531982,1.1899781849263218,[1.16166306],0.005,0.1,-0.1412859071688044,-0.013884782341163733,0
11.954737663269043,1.1872426028920084,[1.15797785],0.005,0.1,-0.1872759270113418,-0.015489374296807582,0
11.963680505752563,1.1847024195744316,[1.15427374],0.005,0.1,-0.22102548539865596,-0.017125416888306096,0
11.974684715270996,1.1813806413899082,[1.15054207],0.005,0.1,-0.5178072529577449,-0.02537195890098375,0
11.984677076339722,1.1782542619221215,[1.14677539],0.005,0.1,-0.5606448093197255,-0.017452412640659498,0
11.993646144866943,1.1753232811710714,[1.14298076],0.005,0.1,-0.5068454562556142,-0.0190781939148218,0
12.001665830612183,1.1729784965702312,[1.13916396],0.005,0.1,-0.42606874996341493,-0.020983606680927396,0
12.012150287628174,1.1694613196689714,[1.13532289],0.005,0.1,-0.3468400851277533,-0.02213216943655713,0
12.021520614624023,1.166725737634658,[1.13145551],0.005,0.1,-0.5550396146170493,-0.023706789083076864,0
12.031348466873169,1.1635993581668713,[1.12755977],0.005,0.1,-0.5335342770218711,-0.025031520682060143,0
12.038679599761963,1.1612545735660311,[1.12364083],0.005,0.1,-0.43574757504433853,-0.018463540973564844,0
12.046934843063354,1.158909788965191,[1.11971729],0.005,0.1,-0.326748776210907,-0.01451680978088519,0
