t_s,q_rad,q_des_rad,K,B,Kff,jerk,tau_Nm,reward
0.006029367446899414,-0.049045077900904226,[0.00320381],9.825212432529046,0.9781515540661307,1.9737818648793566,0.0,9.9,1.0792684306291314
0.018219470977783203,-0.049045077900904226,[0.01548775],9.650424865058092,0.9563031081322615,1.9475637297587132,0.0,9.999,0.934787796356589
0.027235031127929688,-0.049045077900904226,[0.03851135],9.475637297587138,0.9344546621983922,1.92134559463807,0.0,9.99999,0.7158383003522744
0.03542208671569824,-0.049045077900904226,[0.07033733],9.300849730116184,0.9126062162645229,1.8951274595174268,0.0,9.9999999,0.5578193454601369
0.04342341423034668,-0.049045077900904226,[0.10920169],9.12606216264523,0.8907577703306536,1.8689093243967834,0.0,9.999999999,0.5066815339069496
0.053441524505615234,-0.049045077900904226,[0.15351913],8.951274595174274,0.8689093243967844,1.84269118927614,0.0,9.99999999999,0.5002728873372511
0.06223797798156738,-0.049045077900904226,[0.2018884],8.77648702770332,0.847060878462915,1.8164730541554968,0.0,-9.8000000000001,0.5000033939281501
0.07510900497436523,-0.049045077900904226,[0.25309492],8.601699460232366,0.8252124325290457,1.7902549190348536,0.0,-9.998000000000001,0.5000000117699511
0.08545780181884766,-0.049045077900904226,[0.30610684],8.426911892761412,0.8033639865951765,1.7640367839142101,0.0,-9.99998,0.5000000000110723
0.09618258476257324,-0.0492404766176409,[0.3600324],8.252124325290458,0.7815155406613071,1.7378186487935667,0.0,-9.999999800000001,0.5000000000000028
0.10583877563476562,-0.049045077900904226,[0.4141018],8.077336757819502,0.7596670947274378,1.7116005136729235,0.0,-5.0499999980000005,0.5
0.1148989200592041,-0.049045077900904226,[0.46768768],7.902549190348549,0.7378186487935685,1.6853823785522803,0.0,-5.000499999980001,0.5
0.12527871131896973,-0.049045077900904226,[0.52029238],7.727761622877595,0.7159702028596993,1.659164243431637,0.0,-5.0000049999998,0.5
0.13768982887268066,-0.049045077900904226,[0.57154211],7.55297405540664,0.6941217569258299,1.6329461083109935,0.0,-5.000000049999998,0.5
0.14609980583190918,-0.049045077900904226,[0.62115103],7.378186487935686,0.6722733109919605,1.6067279731903503,0.0,-5.0000000005,0.5
0.1570892333984375,-0.049045077900904226,[0.66889159],7.203398920464732,0.6504248650580913,1.5805098380697071,0.0,-5.0000000000050004,0.5
0.17015981674194336,-0.049045077900904226,[0.71462645],7.028611352993777,0.6285764191242219,1.5542917029490637,0.0,-5.00000000000005,0.5
0.1801908016204834,-0.049045077900904226,[0.75827085],6.853823785522822,0.6067279731903527,1.5280735678284203,0.0,-5.000000000000001,0.5
0.1890702247619629,-0.049045077900904226,[0.79976275],6.679036218051868,0.5848795272564833,1.501855432707777,0.0,-5.0,0.5
0.19855952262878418,-0.049045077900904226,[0.83907911],6.504248650580913,0.563031081322614,1.475637297587134,0.0,-5.0,0.5
0.20709681510925293,-0.049045077900904226,[0.87620582],6.329461083109958,0.5411826353887447,1.4494191624664907,0.0,-5.0,0.5
0.21746015548706055,-0.049045077900904226,[0.91115722],6.154673515639004,0.5193341894548753,1.4232010273458477,0.0,-5.0,0.5
0.2251882553100586,-0.049045077900904226,[0.9439935],5.97988594816805,0.5,1.3969828922252046,0.0,-5.0,0.5
0.23509812355041504,-0.049045077900904226,[0.97476723],5.805098380697095,0.5,1.3707647571045614,0.0,-5.0,0.5
0.24512052536010742,-0.049045077900904226,[1.00354318],5.63031081322614,0.5,1.3445466219839184,0.0,-5.0,0.5
0.2545301914215088,-0.049045077900904226,[1.0304157],5.455523245755186,0.5,1.3183284868632752,0.0,-5.0,0.5
0.26381587982177734,-0.049045077900904226,[1.05547928],5.280735678284231,0.5,1.292110351742632,0.0,-5.0,0.5
0.2714664936065674,-0.049045077900904226,[1.07882556],5.105948110813277,0.5,1.2658922166219888,0.0,-5.0,0.5
0.2790830135345459,-0.049045077900904226,[1.10052788],5.0,0.5,1.2396740815013456,0.0,-5.0,0.5
0.28911542892456055,-0.049045077900904226,[1.12064407],5.0,0.5,1.2134559463807026,0.0,-5.0,0.5
0.2981147766113281,-0.049045077900904226,[1.13924607],5.0,0.5,1.1872378112600595,0.0,-5.0,0.5
0.30811142921447754,-0.049045077900904226,[1.15641514],5.0,0.5,1.1610196761394163,0.0,-5.0,0.5
0.3191854953765869,-0.049045077900904226,[1.17223152],5.0,0.5,1.1348015410187733,0.0,-5.0,0.5
0.329878568649292,-0.049045077900904226,[1.18677337],5.0,0.5,1.10858340589813,0.0,-5.0,0.5
0.339022159576416,-0.049045077900904226,[1.20010304],5.0,0.5,1.082365270777487,0.0,-5.0,0.5
0.34853267669677734,-0.049045077900904226,[1.21227183],5.0,0.5,1.0561471356568437,0.0,-5.0,0.5
0.35862064361572266,-0.049045077900904226,[1.22333065],5.0,0.5,1.0299290005362005,0.0,-5.0,0.5
0.3684368133544922,-0.049045077900904226,[1.23333106],5.0,0.5,1.0037108654155575,0.0,-5.0,0.5
0.3793220520019531,-0.049045077900904226,[1.24232625],5.0,0.5,0.9774927302949143,0.0,-5.0,0.5
0.3879826068878174,-0.049045077900904226,[1.25037164],5.0,0.5,0.9512745951742712,0.0,-5.0,0.5
0.3981363773345947,-0.049045077900904226,[1.25752503],5.0,0.5,0.9250564600536281,0.0,-5.0,0.5
0.40738487243652344,-0.049045077900904226,[1.26384804],5.0,0.5,0.898838324932985,0.0,-5.0,0.5
0.41658973693847656,-0.049045077900904226,[1.26940504],5.0,0.5,0.8726201898123418,0.0,-5.0,0.5
0.4241220951080322,-0.049045077900904226,[1.2742566],5.0,0.5,0.8464020546916986,0.0,-6.910083609891248,0.5
0.43510937690734863,-0.049045077900904226,[1.27845929],5.0,0.5,0.8201839195710555,0.0,-4.208937095637194,0.5
0.44410228729248047,-0.049045077900904226,[1.28207106],5.0,0.5,0.7939657844504124,0.0,-1.8276004248592073,0.5
0.4550752639770508,-0.049045077900904226,[1.28515037],5.0,0.5,0.7677476493297692,0.0,-0.14216418864793293,0.5
0.46436524391174316,-0.049045077900904226,[1.28775391],5.0,0.5,0.741529514209126,0.0,1.395744107771729,0.5
0.4750962257385254,-0.049045077900904226,[1.28993649],5.0,0.5,0.715311379088483,0.0,3.034818871250817,0.5
0.4871985912322998,-0.04787268560048421,[1.29175321],5.0,0.5,0.6890932439678399,0.276038359678681,4.680791662890485,0.49994328199874594
0.49572086334228516,-0.04552790099964417,[1.29325906],5.0,0.5,0.6628751088471967,1.6893547612335271,5.841986692381175,0.4978800477379107
0.5051052570343018,-0.0420107240983841,[1.29450395],5.0,0.5,0.6366569737265535,4.008187397878319,6.696406493778641,0.48818267328789006
0.5145587921142578,-0.03790735104691403,[1.29553285],5.0,0.5,0.6104388386059104,5.0,7.3401569018837876,0.4817320621239355
0.5221023559570312,-0.03497637029586397,[1.29638514],5.0,0.5,0.5842207034852673,5.0,7.413720382319959,0.4817320621239355
0.5317356586456299,-0.03106839596113057,[1.29709819],5.0,0.5,0.5580025683646241,5.0,7.774066967824422,0.4817320621239355
0.5400965213775635,-0.027746617776607176,[1.29770977],5.0,0.5,0.531784433243981,5.0,7.616184094381336,0.4817320621239355
0.5501790046691895,-0.02383864344187377,[1.29825102],5.0,0.5,0.5055662981233379,5.0,7.664889697288952,0.4817320621239355
0.5600976943969727,-0.019735270390403698,[1.29875066],5.0,0.5,0.4793481630026947,5.0,7.764178328941515,0.4817320621239355
0.5697224140167236,-0.01582729605567029,[1.29923813],5.0,0.5,0.4531300278820516,5.0,8.155384838275992,0.4817320621239355
0.5792441368103027,-0.011723923004200214,[1.29973958],5.0,0.5,0.42691189276140845,5.0,7.997126085126919,0.4817320621239355
0.5886075496673584,-0.00781594866946681,[1.30027778],5.0,0.5,0.4006937576407653,4.669271396592554,8.173082297124468,0.4840310780933768
0.5973687171936035,-0.004494170484943416,[1.30087184],5.0,0.5,0.3744756225201221,2.2899881791232857,8.142851398622685,0.4961115285301179
0.6061005592346191,-0.0007815948669466809,[1.30153317],5.0,0.5,0.3482574873994789,-0.04830731122550724,5.031428513986227,0.49999826287267507
0.616070032119751,0.0027355820343133836,[1.30226608],5.0,0.5,0.3220393522788358,-2.204587282219224,5.000314285139862,0.49639511871504177
0.6250898838043213,0.0062527589355734475,[1.30307598],5.0,0.5,0.2958212171581926,-4.14214837378382,5.000003142851399,0.4873897705673398
0.6344325542449951,0.010356131987043523,[1.3039683],5.0,0.5,0.2696030820375494,-5.0,6.714761719305422,0.4817320621239355
0.6440765857696533,0.014264106321776927,[1.30494392],5.0,0.5,0.24338494691690624,-5.0,6.461918911807111,0.4817320621239355
0.6536340713500977,0.018172080656510332,[1.30599982],5.0,0.5,0.21716681179626307,-5.0,6.412012083054436,0.4817320621239355
0.6610655784606934,0.021103061407560384,[1.30712794],5.0,0.5,0.19094867667561988,-5.0,6.174331995080775,0.4817320621239355
0.6701810359954834,0.024815637025557124,[1.30831705],5.0,0.5,0.16473054155497668,-5.0,6.060501138354875,0.4817320621239355
0.68115234375,0.02911440879376387,[1.30956141],5.0,0.5,0.13851240643433352,-5.0,6.14082507261308,0.4817320621239355
0.6890738010406494,0.03263158569502393,[1.31085812],5.0,0.5,0.11229427131369034,-5.0,6.132378374959,0.4817320621239355
0.700312614440918,0.03712575617996735,[1.31220238],5.0,0.5,0.08607613619304716,-5.0,6.284518075837737,0.4817320621239355
0.708198070526123,0.04044753436449074,[1.31359015],5.0,0.5,0.05985800107240398,-5.0,6.35547403176929,0.4817320621239355
0.719567060470581,0.04494170484943416,[1.31501802],5.0,0.5,0.0336398659517608,-5.0,6.459953865437903,0.4817320621239355
0.7278680801391602,0.04826348303395755,[1.31648601],5.0,0.5,0.0074217308311176206,-5.0,6.469562059258235,0.4817320621239355
0.7373781204223633,0.05217145736869095,[1.31799406],5.0,0.5,0.0,-4.832522491348843,6.459924530050843,0.4829145484866787
0.7465262413024902,0.05588403298668769,[1.31953908],5.0,0.5,0.0,-4.267756157325408,6.448655910579803,0.4866238579264052
0.7580623626708984,0.06018280475489443,[1.32111797],5.0,0.5,0.0,-4.183232070466031,6.434316558917667,0.48714164237513957
0.7686278820037842,0.06448157652310119,[1.32272739],5.0,0.5,0.0,-3.667130059493856,6.419596232379746,0.4900889648879409
0.7765452861785889,0.06760795599088791,[1.32436392],5.0,0.5,0.0,-3.3421521380067905,6.4113765257638615,0.49175381681323493
0.7861084938049316,0.07190672775909465,[1.32602448],5.0,0.5,0.0,-3.100356152760382,6.399101728280491,0.49289562247015967
0.7975268363952637,0.07659629696077475,[1.32770997],5.0,0.5,0.0,-2.8940817143471778,6.41094187358557,0.4938038304565429
0.808197021484375,0.08109046744571814,[1.32942553],5.0,0.5,0.0,-2.7037083767405727,6.397663404922192,0.49458790693106325
0.8191020488739014,0.08538923921392488,[1.33117429],5.0,0.5,0.0,-2.5221816272180404,6.389255166397517,0.4952869239995226
0.8291492462158203,0.08949261226539497,[1.3329576],5.0,0.5,0.0,-2.3477273819412865,6.383791939585079,0.4959137840743137
0.8370592594146729,0.09261899173318171,[1.33477785],5.0,0.5,0.0,-2.180524061050984,6.383025144859055,0.49647310759351226
0.8465681076049805,0.0965269660679151,[1.33663754],5.0,0.5,0.0,-2.0212578800495944,6.377040098350112,0.4969679943594019
0.8540873527526855,0.0996533455357018,[1.33853451],5.0,0.5,0.0,-1.8705529379222217,6.3456950452445575,0.49740213849051507
0.8681554794311523,0.10551530703780194,[1.34046637],5.0,0.5,0.0,-1.7287920184613452,6.36285416690572,0.49778013629634166
0.8775215148925781,0.10883708522232532,[1.34243853],5.0,0.5,0.0,-1.596100144775051,6.3553058808023986,0.49810720482911136
0.8870944976806641,0.11235426212358537,[1.34445518],5.0,0.5,0.0,-1.4723867580913348,6.347817067117789,0.49838879869817365
0.8968353271484375,0.1162622364583188,[1.34651579],5.0,0.5,0.0,-1.3574013465952315,6.33998807713955,0.4986302929521913
0.9051036834716797,0.11977941335957885,[1.34861585],5.0,0.5,0.0,-1.250784755134749,6.307110503358165,0.4988367684884424
0.9150707721710205,0.12407818512778561,[1.35074777],5.0,0.5,0.0,-1.1521106590414598,6.308673905875024,0.4990128889474728
0.9240918159484863,0.12779076074578233,[1.35291017],5.0,0.5,0.0,-1.0609167968057533,6.312000128176907,0.4991628457223628
0.9330089092254639,0.1315033363637791,[1.35510727],5.0,0.5,0.0,-0.9767274021352902,6.31429624252435,0.49929034864008426
0.9420633316040039,0.13521591198177582,[1.35734376],5.0,0.5,0.0,-0.8990687021825499,6.315367376775086,0.49939864470660655
0.9510672092437744,0.13873308888303587,[1.35961927],5.0,0.5,0.0,-0.8274792144937434,6.285779702337548,0.49949055240295454
0.9590959548950195,0.1418594683508226,[1.36192876],5.0,0.5,0.0,-0.7615162652408944,6.297048980696841,0.4995685032003101
0.9692213535308838,0.14596284140229268,[1.36427327],5.0,0.5,0.0,-0.9767981862183217,6.299599127655643,0.49929024585158815
0.9790527820587158,0.15006621445376275,[1.36665899],5.0,0.5,0.0,-0.9539774525108067,6.299102151943825,0.4993229999320323
0.989729642868042,0.15456038493870616,[1.36909123],5.0,0.5,0.0,-0.5713375142903653,6.294613121680646,0.49975706693393335
0.9990546703338623,0.1582729605567029,[1.37157444],5.0,0.5,0.0,-0.4147196899858079,6.292803977515996,0.4998719851405628
1.0072834491729736,0.1613993400244896,[1.37411214],5.0,0.5,0.0,-0.3556617367002678,6.292964919278074,0.4999058457190374
1.0151159763336182,0.16452571949227635,[1.3767013],5.0,0.5,0.0,-0.3349711321666605,6.2656205007601695,0.4999164810235577
1.0250563621520996,0.16843369382700976,[1.37933295],5.0,0.5,0.0,-0.3265463752066279,6.268370121791457,0.49992062898442874
1.0340495109558105,0.17214626944500647,[1.38200349],5.0,0.5,0.0,-0.043715008806506556,6.266879772355843,0.49999857745112025
1.042597770690918,0.1754680476295299,[1.38471293],5.0,0.5,0.0,-0.001776453355664634,6.262750607521194,0.4999999976508308
1.0503711700439453,0.17878982581405328,[1.38745786],5.0,0.5,0.0,-0.04535239112595615,6.254006933572564,0.49999846889001315
1.0582635402679443,0.18211160399857668,[1.39022755],5.0,0.5,0.0,-0.10764033884345571,6.2184088722306745,0.4999913751203837
1.0671098232269287,0.18582417961657338,[1.3930019],5.0,0.5,0.0,-0.1628271596316298,6.184175524653971,0.49998026433347326
1.0753142833709717,0.18934135651783346,[1.39576096],5.0,0.5,0.0,-0.2032879956831915,6.176721267186109,0.499969237843087
1.0850505828857422,0.1930539321358302,[1.39849132],5.0,0.5,0.0,-0.22888004985153274,6.158881163561935,0.4999610052968677
1.0970866680145264,0.19793890005424694,[1.40118141],5.0,0.5,0.0,-0.24207530536326693,6.136201684440405,0.499956379694054
1.107053518295288,0.2016514756722437,[1.40381646],5.0,0.5,0.0,-0.24586678949607163,6.092551295866464,0.49995500265671433
1.1171026229858398,0.20575484872371377,[1.40637688],5.0,0.5,0.0,-0.24295947578562216,6.052930167561952,0.49995606048330155
1.1250429153442383,0.20907662690823717,[1.40884113],5.0,0.5,0.0,0.04050633461351372,6.011122651851591,0.4999987786165332
1.1350765228271484,0.21298460124297056,[1.41118701],5.0,0.5,0.0,0.08392904127651889,5.9610328033877895,0.4999947564076348
1.1440656185150146,0.21650177814423063,[1.4133905],5.0,0.5,0.0,0.040800405775230954,5.908575405393744,0.49999876081798433
1.1524417400360107,0.22001895504549068,[1.41542611],5.0,0.5,0.0,-0.02249292602713433,5.853737928225667,0.49999962338429893
1.1600916385650635,0.22314533451327742,[1.41727164],5.0,0.5,0.0,-0.0799836418835946,5.837446752495958,0.49999523780738747
1.1682348251342773,0.2266625114145375,[1.41890906],5.0,0.5,0.0,-0.12372287569017612,5.7794182842452555,0.4999886053303665
1.177581787109375,0.23017968831579752,[1.42031665],5.0,0.5,0.0,-0.1532390033451046,5.727601916405004,0.4999825201492054
1.1850314140319824,0.23350146650032094,[1.42147572],5.0,0.5,0.0,-0.17072835852467944,5.722366252945917,0.49997830255572223
1.194275140762329,0.23740944083505436,[1.42237528],5.0,0.5,0.0,-0.4550117348594481,5.670208098538118,0.4998459062800853
1.2020337581634521,0.24073121901957772,[1.42300688],5.0,0.5,0.0,-0.21365208432691357,5.6656186159494135,0.4999660213448174
1.2123889923095703,0.24483459207104782,[1.42335741],5.0,0.5,0.0,-0.12236824741102918,5.592156900497533,0.4999888534796192
1.2222204208374023,0.2487425664057812,[1.42340253],5.0,0.5,0.0,-0.09528433252477189,5.567586896318605,0.4999932415558029
1.2312121391296387,0.25225974330704126,[1.42313049],5.0,0.5,0.0,-0.09287532437014936,5.557255350847778,0.49999357897185065
1.2400805950164795,0.25577692020830134,[1.42254787],5.0,0.5,0.0,-0.0977548438401197,5.528494738746282,0.4999928865520419
1.2491486072540283,0.2592940971095614,[1.42165496],5.0,0.5,0.0,-0.10288110237972992,5.505397796410468,0.49999212093883866
1.258061408996582,0.26281127401082144,[1.42044689],5.0,0.5,0.0,-0.10587824854871805,5.4847416117555765,0.4999916551881658
1.2661118507385254,0.2659376534786082,[1.41893077],5.0,0.5,0.0,-0.10634982377968691,5.4593026568985215,0.49999158068869115
1.2770977020263672,0.27043182396355164,[1.41711591],5.0,0.5,0.0,-0.1046423679894132,5.449051158076228,0.4999918488618639
1.2860546112060547,0.27433979829828503,[1.4150056],5.0,0.5,0.0,-0.10130197239457503,5.397832302442668,0.4999923609533807
1.2969558238983154,0.2788339687832284,[1.41260754],5.0,0.5,0.0,0.17918353800181497,5.394160767089899,0.4999761002966324
1.3070590496063232,0.2827419431179618,[1.40992649],5.0,0.5,0.0,0.21742896625427208,5.351218558732622,0.49996480943870675
1.316087245941162,0.28645451873595856,[1.40697379],5.0,0.5,0.0,0.16779730909326163,5.307567315451669,0.4999790411448247
1.3240644931793213,0.28958089820374533,[1.40378139],5.0,0.5,0.0,0.09728567758068737,5.265037320118138,0.49999295466851407
1.3332579135894775,0.29368427125521535,[1.40039033],5.0,0.5,0.0,0.032280476183283884,5.228943964324024,0.49999922431355265
1.3425898551940918,0.29759224558994873,[1.39683702],5.0,0.5,0.0,-0.018988032165734154,5.196781838183993,0.4999997316099098
1.3525822162628174,0.30130482120794555,[1.39315515],5.0,0.5,0.0,-0.05586445238083315,5.172026708998858,0.49999767685264157
1.3630774021148682,0.30560359297615225,[1.38938306],5.0,0.5,0.0,-0.3564680866260511,5.154181512878013,0.49990541834569935
1.373295545578003,0.309902364744359,[1.38556233],5.0,0.5,0.0,-0.4045612165642236,5.1430909295016365,0.4998781789728524
1.3823275566101074,0.3134195416456191,[1.38173746],5.0,0.5,0.0,-0.3573535348284941,5.1559146435118315,0.4999049479350231
1.3924181461334229,0.3173275159803524,[1.37795566],5.0,0.5,0.0,-0.2841402088455947,5.167288364670842,0.49993990394477694
1.4014899730682373,0.32104009159834923,[1.37426373],5.0,0.5,0.0,-0.21305391484571712,5.182431541958296,0.49996621133459895
1.4114627838134766,0.32514346464981925,[1.37070601],5.0,0.5,0.0,-0.15360227402622062,5.19564530886348,0.4999824371764359
1.4190797805786133,0.328269844117606,[1.36732133],5.0,0.5,0.0,-0.1073495759981499,5.185318848741241,0.499991421652864
1.4279558658599854,0.3321778184523394,[1.36414217],5.0,0.5,0.0,-0.07284675526229391,5.197192441515313,0.49999604974270123
1.4379022121429443,0.3356949953535995,[1.36119996],5.0,0.5,0.0,-0.3238471295699592,5.207142809645631,0.4999219356272902
1.4490759372711182,0.34018916583854286,[1.35852481],5.0,0.5,0.0,-0.3391649363295127,5.2068251494690205,0.49991437681432405
1.4580416679382324,0.34370634273980294,[1.3561422],5.0,0.5,0.0,-0.27161259381842817,5.205220288741636,0.4999450860566551
1.4676587581634521,0.34780971579127296,[1.35407221],5.0,0.5,0.0,-0.18695165719337667,5.194514676161565,0.49997398319184144
1.4762036800384521,0.35132689269253303,[1.35232884],5.0,0.5,0.0,-0.1106239113361902,5.181163220885731,0.4999908903699843
1.4843542575836182,0.35464867087705654,[1.35091964],5.0,0.5,0.0,-0.050154237682977484,5.164817989560505,0.499998127503004
1.4930365085601807,0.3577750503448432,[1.34984182],5.0,0.5,0.0,-0.005678250421432232,5.118965111061989,0.49999997599864565
1.5044476985931396,0.36266001826325994,[1.34908774],5.0,0.5,0.0,0.025265471247436173,5.127166713626027,0.4999995248165842
1.5120298862457275,0.3655909990143101,[1.34865017],5.0,0.5,0.0,0.32170767030205827,5.081226361102916,0.49992296358783966
1.5225543975830078,0.3696943720657801,[1.34851386],5.0,0.5,0.0,0.367417509532207,5.063263394276224,0.499899519281565
1.5331544876098633,0.37379774511725017,[1.34866044],5.0,0.5,0.0,0.3192976493307006,5.042218186989357,0.4999241133889192
1.5427000522613525,0.3780965168854569,[1.34907255],5.0,0.5,0.0,0.24627582755855573,5.016747064889584,0.49995485281862684
1.5505051612854004,0.381613693786717,[1.34972918],5.0,0.5,0.0,0.1761544103666868,4.991482668468835,0.49997690150490987
1.5604839324951172,0.3855216681214504,[1.35060584],5.0,0.5,0.0,0.11817613979174153,4.96079472770211,0.4999896041079821
1.5700833797454834,0.38962504117292046,[1.35167346],5.0,0.5,0.0,0.07370572015918442,4.913090406629738,0.49999595603575653
1.581031084060669,0.3941192116578639,[1.35290108],5.0,0.5,0.0,-0.23488862006044448,4.8920916487190205,0.49995893112638623
1.5904452800750732,0.3976363885591239,[1.3542599],5.0,0.5,0.0,-0.29104091494782924,4.856752851480184,0.49993694966687013
1.5984253883361816,0.40076276802691063,[1.35571998],5.0,0.5,0.0,-0.25174544423034095,4.82017912264102,0.49995282526960994
1.6074912548065186,0.40447534364490745,[1.35724963],5.0,0.5,0.0,-0.18616098709357898,4.786935854243222,0.49997420278532834
1.6185343265533447,0.40857871669637746,[1.35881855],5.0,0.5,0.0,-0.12233859134075596,4.749387790808439,0.4999888588816456
1.6261944770812988,0.4119004948809009,[1.36039839],5.0,0.5,0.0,-0.34578013112909517,4.723118752959323,0.4999110044909492
1.6341075897216797,0.4154176717821609,[1.36196476],5.0,0.5,0.0,-0.0630406846710387,4.713130684510063,0.49999704166580755
1.6437811851501465,0.4191302474001577,[1.36349654],5.0,0.5,0.0,0.053686673068655884,4.6767483139562485,0.49999785444956824
1.6537606716156006,0.42284282301815435,[1.3649718],5.0,0.5,0.0,-0.1819026594849179,4.639958862495032,0.4999753694519399
1.663076400756836,0.4263599999194144,[1.3663701],5.0,0.5,0.0,-0.2079548015352961,4.622642567775249,0.4999678092867478
1.6726443767547607,0.4306587716876212,[1.36767445],5.0,0.5,0.0,-0.15909060363563665,4.582513062576916,0.4999811597113473
1.683427095413208,0.4351529421725646,[1.3688677],5.0,0.5,0.0,-0.09347845462940932,4.543041529622459,0.49999349530558534
1.6924667358398438,0.439060916507298,[1.36993259],5.0,0.5,0.0,-0.0338180322224608,4.508008102932962,0.4999991486601299
1.7015173435211182,0.44277349212529477,[1.3708538],5.0,0.5,0.0,0.012996270348889151,4.474974678130247,0.4999998742685006
1.711026668548584,0.44648606774329147,[1.37161778],5.0,0.5,0.0,0.046623449600429884,4.442478103680749,0.4999983818648984
1.7205064296722412,0.45019864336128823,[1.37221273],5.0,0.5,0.0,0.06905572968996102,4.410592791749385,0.49999645019439304
1.7280325889587402,0.453325022829075,[1.37263245],5.0,0.5,0.0,0.08279245027603782,4.411234529711034,0.4999948974657193
1.7364985942840576,0.45684219973033496,[1.37287229],5.0,0.5,0.0,0.09012571438735192,4.348109716756446,0.49999395353574483
1.7450404167175293,0.46016397791485847,[1.37292584],5.0,0.5,0.0,0.0929222367599379,4.352233489283131,0.49999357248358445
1.7532458305358887,0.4634857560993818,[1.37279376],5.0,0.5,0.0,0.09261152220075948,4.323358658165972,0.4999936153962664
1.7620956897735596,0.4670029330006419,[1.37247929],5.0,0.5,0.0,0.09024797484943772,4.298386082484728,0.49999393711999834
1.7709951400756836,0.4707155086186386,[1.37198829],5.0,0.5,0.0,0.3626278733161902,4.300432835560562,0.49990212167472137
1.7815299034118652,0.4748188816701087,[1.37133051],5.0,0.5,0.0,0.3913330864692721,4.2531464226318,0.4998860143175537
1.7904062271118164,0.47853145728810537,[1.37051315],5.0,0.5,0.0,0.3314250634146486,4.243844973134831,0.49991823981583566
1.7994391918182373,0.4822440329061022,[1.3695487],5.0,0.5,0.0,0.25038900192054336,4.239937298335038,0.4999533322454467
1.8070225715637207,0.4851750136571522,[1.36845889],5.0,0.5,0.0,0.17494189570980173,4.252747016573579,0.49997721838868747
1.8160340785980225,0.4888875892751489,[1.36726944],5.0,0.5,0.0,0.11353008053176986,4.251084327171522,0.4999904054546424
1.824643611907959,0.49220936745967236,[1.36600668],5.0,0.5,0.0,0.06694351298365538,4.257155853088274,0.49999666402932275
1.8328032493591309,0.49592194307766907,[1.36469704],5.0,0.5,0.0,0.03317880085083544,4.258316266650225,0.4999991805401293
1.8432807922363281,0.5002207148458758,[1.36336922],5.0,0.5,0.0,0.009559875856692827,4.277372795098565,0.499999931968327
1.8550620079040527,0.5051056827642926,[1.36205502],5.0,0.5,0.0,-0.006419228440158905,4.284678132398481,0.49999996932586505
1.8650577068328857,0.5090136570990259,[1.36078657],5.0,0.5,0.0,-0.016825249914785942,4.296548637427013,0.49999978926841615
1.8736999034881592,0.512530834000286,[1.35959442],5.0,0.5,0.0,-0.023257691641539985,4.307873109736679,0.49999959733886173
1.8828134536743164,0.5160480109015461,[1.3585075],5.0,0.5,0.0,-0.026909384461693893,4.3148571180283435,0.49999946096871944
1.8948068618774414,0.5209329788199628,[1.35755575],5.0,0.5,0.0,-0.02864894188452967,4.33876113926673,0.49999938902479907
1.9041571617126465,0.5246455544379596,[1.35676458],5.0,0.5,0.0,-0.02909848849651247,4.295481630941636,0.49999936970006487
1.9132027626037598,0.5283581300559563,[1.35614638],5.0,0.5,0.0,-0.028698055909142418,4.287380259383987,0.49999938692816637
1.92103910446167,0.531484509523743,[1.35570171],5.0,0.5,0.0,-0.027755635540261375,4.269622567256894,0.49999942653254187
1.9290401935577393,0.5346108889915298,[1.35541725],5.0,0.5,0.0,-0.02648468734935469,4.252561309243075,0.4999994778489574
1.9370191097259521,0.5377372684593165,[1.35527571],5.0,0.5,0.0,-0.0250316171078291,4.216068569612344,0.4999995335723508
1.9485986232757568,0.5424268376609965,[1.35527537],5.0,0.5,0.0,-0.023495607506586823,4.231746811528735,0.4999995890586396
1.9584932327270508,0.54633481199573,[1.35542701],5.0,0.5,0.0,-0.29798114564437256,4.211518547948831,0.4999339069884591
1.9675731658935547,0.5500473876137267,[1.35573669],5.0,0.5,0.0,-0.3295792364815004,4.191208072499389,0.49991914791089176
1.9781122207641602,0.5543461593819334,[1.35620267],5.0,0.5,0.0,-0.2730089811910008,4.168034859748098,0.49994452000054335
1.9860389232635498,0.5574725388497203,[1.35681747],5.0,0.5,0.0,-0.19552075917835465,4.128107772503049,0.4999715435928311
1.9966232776641846,0.561771310617927,[1.35757261],5.0,0.5,0.0,-0.12367346495337661,4.139566719108571,0.49998861442973774
2.006577253341675,0.5658746836693971,[1.358466],5.0,0.5,0.0,-0.06580945379938294,4.123441100862753,0.4999967760978803
2.0154953002929688,0.5695872592873937,[1.35949564],5.0,0.5,0.0,0.25338585121075735,4.114202083218927,0.4999522085023458
2.0254459381103516,0.5734952336221272,[1.36065744],5.0,0.5,0.0,0.3170037349975212,4.1096178656274835,0.49992519976774175
2.033024787902832,0.5764262143731771,[1.36194492],5.0,0.5,0.0,0.28243424641084924,4.081350567905017,0.49994062336267725
2.044027328491211,0.5809203848581206,[1.36334979],5.0,0.5,0.0,0.21942741579447506,4.090129960409062,0.4999641595968253
2.0519986152648926,0.584242163042644,[1.36487198],5.0,0.5,0.0,0.15660192987206753,4.104142776177205,0.49998174453219285
2.061002731323242,0.5879547386606407,[1.36651919],5.0,0.5,0.0,0.10389245610798646,4.114135703768571,0.49999196527137635
2.0709450244903564,0.5918627129953741,[1.36830121],5.0,0.5,0.0,0.06320842880075281,4.119709613586995,0.49999702590132333
2.079500675201416,0.5951844911798975,[1.37022921],5.0,0.5,0.0,0.033368059295359395,4.123896397573505,0.4999991711647511
2.0895533561706543,0.5988970667978942,[1.37231485],5.0,0.5,0.0,0.012288601096605636,4.121796035484667,0.4999998875882989
2.0983333587646484,0.6024142436991544,[1.37456953],5.0,0.5,0.0,-0.002112209816726258,4.116877735498401,0.4999999966789089
2.106553554534912,0.6059314206004144,[1.37700365],5.0,0.5,0.0,-0.01160099571281183,4.109156899209113,0.4999998998162775
2.119046926498413,0.6110117872355679,[1.37962621],5.0,0.5,0.0,-0.01756602828464405,4.092023993167738,0.499999770303842
2.129011392593384,0.6151151602870378,[1.38244425],5.0,0.5,0.0,-0.021052263757926223,4.079299367136396,0.4999996700834234
2.1380560398101807,0.6188277359050346,[1.3854625],5.0,0.5,0.0,-0.022825314660466556,4.069657355793043,0.4999996121712027
2.1472837924957275,0.622735710239768,[1.38868291],5.0,0.5,0.0,-0.023435936683766447,4.061212592142737,0.4999995911432898
2.1560113430023193,0.6260574884242914,[1.39210458],5.0,0.5,0.0,-0.023275007183378688,4.058137523995603,0.4999995967390698
2.167259454727173,0.6303562601924982,[1.39572392],5.0,0.5,0.0,-0.022616914611273273,4.05255536031145,0.49999961922079156
2.1763875484466553,0.6342642345272317,[1.39953503],5.0,0.5,0.0,-0.021652370143372922,4.051076392867039,0.4999996510064431
2.1845057010650635,0.6377814114284917,[1.40352987],5.0,0.5,0.0,-0.020512583172243824,4.053935984963759,0.49999968678161255
2.1943726539611816,0.6418847844799619,[1.40769844],5.0,0.5,0.0,-0.01928677664146936,4.0563014127885895,0.49999972309815016
2.203037977218628,0.6452065626644852,[1.41202038],5.0,0.5,0.0,0.25800362594502113,4.088564454384463,0.4999504507854421
2.2114264965057373,0.6483329421322718,[1.41646678],5.0,0.5,0.0,0.29236724877997905,4.092936302928168,0.4999363737271823
2.2194526195526123,0.6516547203167954,[1.42101836],5.0,0.5,0.0,-0.037567406467744785,4.097972677302031,0.4999989494211663
2.22697377204895,0.6543903023511087,[1.42565603],5.0,0.5,0.0,-0.1456293542047219,4.1104387453939655,0.4999842130706158
2.2359814643859863,0.6581028779691054,[1.43035238],5.0,0.5,0.0,-0.15996896780274622,4.1168075593967375,0.49998095110063406
2.244961977005005,0.661815453587102,[1.43508831],5.0,0.5,0.0,0.13655252406790294,4.121947228631887,0.49998611965977324
2.255244255065918,0.6661142253553088,[1.439858],5.0,0.5,0.0,0.19915521847657697,4.1206798663504935,0.4999704758614745
2.264561653137207,0.6698268009733056,[1.44465947],5.0,0.5,0.0,0.17215168554303814,4.129581396725539,0.4999779392815064
2.272002696990967,0.6727577817243556,[1.44947614],5.0,0.5,0.0,0.11935979843627917,4.1303918157237165,0.4999893948156319
2.282520055770874,0.6772519522092991,[1.45428674],5.0,0.5,0.0,0.0668622022546656,4.140983916097447,0.4999966721282276
2.290996789932251,0.6807691291105592,[1.45907969],5.0,0.5,0.0,0.023631564598539354,4.135561221495872,0.49999958428906593
2.302600145339966,0.6850679008787659,[1.46384684],5.0,0.5,0.0,0.26735348964567157,4.14956910201938,0.4999467946527764
2.3110110759735107,0.6883896790632892,[1.46859086],5.0,0.5,0.0,0.2779203725699132,4.156671958361694,0.49994250600704343
2.319457530975342,0.6919068559645494,[1.47331798],5.0,0.5,0.0,0.20806857970415243,4.162107125235385,0.49996777405328097
2.329345941543579,0.6960102290160194,[1.4780318],5.0,0.5,0.0,0.12309699092206568,4.162533562869946,0.4999887203233451
2.338982582092285,0.6999182033507527,[1.48274045],5.0,0.5,0.0,0.04792426583244038,4.160211728399949,0.4999982903119749
2.347635507583618,0.7034353802520129,[1.48745567],5.0,0.5,0.0,-0.2864238582499759,4.15526461917369,0.49993893413200463
2.3559820652008057,0.7069525571532729,[1.4921916],5.0,0.5,0.0,-0.36122487125459557,4.145915672113997,0.4999028775158393
2.365008592605591,0.710469734054533,[1.49695312],5.0,0.5,0.0,-0.33390482356626533,4.182307319583013,0.49991701186259485
2.374980926513672,0.7143777083892665,[1.50173635],5.0,0.5,0.0,-0.2748857455128127,4.167792896570598,0.4999437546418665
2.383892297744751,0.7176994865737898,[1.50655045],5.0,0.5,0.0,-0.21357457556571624,4.147334628188833,0.49996604599308003
2.3929922580718994,0.7218028596252599,[1.51141588],5.0,0.5,0.0,-0.4366499390908326,4.120837180252456,0.4998580903773183
2.4021873474121094,0.7255154352432566,[1.51635227],5.0,0.5,0.0,-0.42763528837632975,4.136443994616068,0.49986388856020236
2.411538600921631,0.7296188082947267,[1.52137833],5.0,0.5,0.0,-0.34046881325197564,4.150008314900969,0.4999137172706685
2.4226651191711426,0.7339175800629335,[1.52651154],5.0,0.5,0.0,-0.24061345518229965,4.162148665035598,0.49995690491140615
2.432239294052124,0.7376301556809302,[1.53176775],5.0,0.5,0.0,-0.15275743337518766,4.176818647627982,0.49998262983927355
2.4420368671417236,0.7413427312989268,[1.53716078],5.0,0.5,0.0,-0.0836247527874735,4.191182634316797,0.4999947943602693
2.451974868774414,0.7454461043503969,[1.54270205],5.0,0.5,0.0,-0.03265270035070817,4.2031889691949225,0.49999920632164513
2.4614508152008057,0.7491586799683937,[1.54840018],5.0,0.5,0.0,0.0031787722627813694,4.216600256735147,0.4999999924781356
2.469970941543579,0.7524804581529171,[1.55424778],5.0,0.5,0.0,-0.2487495065692468,4.195960061482861,0.49995394135816745
2.4797723293304443,0.7563884324876504,[1.56022344],5.0,0.5,0.0,-0.2664466986311521,4.217734105668602,0.4999471549380794
2.4899916648864746,0.7608826029725938,[1.56631951],5.0,0.5,0.0,-0.2021616538777921,4.232970683153334,0.4999695777713191
2.499969482421875,0.764985976024064,[1.57253918],5.0,0.5,0.0,0.15477181215214833,4.246693846528532,0.4999821687139773
2.508866786956787,0.768503152925324,[1.57888085],5.0,0.5,0.0,0.2602250898630566,4.260286394025914,0.49994959389756044
2.5213983058929443,0.7735835195604776,[1.58534826],5.0,0.5,0.0,0.26154292309174065,4.292488744570188,0.4999490820972161
2.5299863815307617,0.7771006964617375,[1.59193779],5.0,0.5,0.0,0.22594023980655434,4.2630981377740245,0.49996200054721057
2.5383121967315674,0.7806178733629977,[1.59861742],5.0,0.5,0.0,0.1825023771505085,4.271251040735613,0.4999752067785851
2.547954559326172,0.784525847697731,[1.60535184],5.0,0.5,0.0,0.14260475211579515,4.279566280564151,0.4999848620140778
2.5572478771209717,0.7884338220324644,[1.61211319],5.0,0.5,0.0,0.10971637532643688,4.330859345658722,0.49999103922264565
2.5678176879882812,0.7927325938006711,[1.61886902],5.0,0.5,0.0,0.08401717155815705,4.3719993984810746,0.49999474538976874
2.5769906044006348,0.7964451694186679,[1.62557789],5.0,0.5,0.0,0.06450752415984987,4.399653480190565,0.4999969023947086
2.587778091430664,0.8007439411868746,[1.63219512],5.0,0.5,0.0,0.04992365662852727,4.409516439572381,0.4999981446807761
2.5960474014282227,0.8038703206546614,[1.63868062],5.0,0.5,0.0,-0.2369406185129404,4.391568459098156,0.4999582104628178
2.6060407161712646,0.8077782949893948,[1.64499024],5.0,0.5,0.0,-0.2780933255271508,4.362645614696251,0.4999424344305883
2.6159729957580566,0.8120770667576015,[1.65107688],5.0,0.5,0.0,-0.22897077336533875,4.312125986770558,0.4999609743784933
2.6240103244781494,0.8152034462253882,[1.65689447],5.0,0.5,0.0,-0.1573652233793008,4.250465373135967,0.49998156614382805
2.6338510513305664,0.818916021843385,[1.66239517],5.0,0.5,0.0,-0.0902368199106012,4.175194705036226,0.4999939386186794
2.6430299282073975,0.8228239961781183,[1.66753038],5.0,0.5,0.0,-0.31225997211926,4.096665987160284,0.4999274215337683
2.6519739627838135,0.8261457743626417,[1.67225847],5.0,0.5,0.0,-0.3054200469923286,4.078770064310147,0.4999305660938457
2.6638827323913574,0.8312261409977952,[1.67653841],5.0,0.5,0.0,-0.2225207561735331,3.9564539868147754,0.4999631420037235
2.672106981277466,0.8345479191823186,[1.68032701],5.0,0.5,0.0,-0.12821096578338598,3.9615239095510146,0.4999877636552505
2.6812846660614014,0.838455893517052,[1.68358542],5.0,0.5,0.0,-0.04660732311609434,3.923360140070916,0.49999838298408955
2.692021131515503,0.8429500640019953,[1.68627962],5.0,0.5,0.0,0.015959535755138903,3.910492277835985,0.4999998103961721
2.7030041217803955,0.8472488357702022,[1.6883933],5.0,0.5,0.0,0.06031733262942866,3.9110056451058455,0.49999729174374574
2.7149837017059326,0.8521338036886189,[1.68990444],5.0,0.5,0.0,0.36569838182170084,3.9861379326333513,0.4999004572766698
2.7250447273254395,0.856237176740089,[1.69077861],5.0,0.5,0.0,0.4166797786532648,3.9672204091993764,0.499870772365098
2.735100746154785,0.8601451510748225,[1.69100482],5.0,0.5,0.0,0.37105786468289437,3.9471229046797456,0.49989751850637326
2.7465405464172363,0.8646393215597659,[1.69058416],5.0,0.5,0.0,0.29854515391246006,3.895818105854481,0.4999336565712211
2.755013942718506,0.8679610997442891,[1.68951931],5.0,0.5,0.0,0.22756847977182487,3.88699353081251,0.49996145090828575
2.762983560562134,0.8714782766455493,[1.68784504],5.0,0.5,0.0,0.16784115575542047,3.8483345099334545,0.49997903019021955
2.77099871635437,0.8749954535468092,[1.6856308],5.0,0.5,0.0,0.12107022017309682,3.761302135477939,0.4999890886973777
2.7815163135528564,0.879294225315016,[1.6829375],5.0,0.5,0.0,0.08590487678514813,3.775350676981407,0.4999945066163814
2.7910752296447754,0.8832021996497494,[1.67980904],5.0,0.5,0.0,0.06012709080605669,3.6847263288583254,0.49999730880052495
2.7999684810638428,0.8869147752677462,[1.67630017],5.0,0.5,0.0,0.3175867122375485,3.6451880578746993,0.49992492441670866
2.810987710952759,0.891213547035953,[1.67246787],5.0,0.5,0.0,0.33748205055783087,3.6011150531499796,0.49991522433335034
2.819819688796997,0.8945353252204764,[1.66836257],5.0,0.5,0.0,0.27305179082878284,3.5629899517542323,0.49994450260087353
2.8280911445617676,0.8982479008384732,[1.66403641],5.0,0.5,0.0,-0.08560454329229894,3.5268420929531303,0.4999945449600503
2.839174270629883,0.9027420713234164,[1.65953935],5.0,0.5,0.0,0.08224700399224713,3.4840397432787604,0.4999949644760928
2.8479623794555664,0.90606384950794,[1.65492252],5.0,0.5,0.0,0.11071697137871825,3.4760823378676795,0.4999908750371077
2.8581809997558594,0.91016722255941,[1.65024403],5.0,0.5,0.0,-0.18847018710047486,3.4597788442949193,0.4999735588393258
2.867603302001953,0.9136843994606699,[1.64556102],5.0,0.5,0.0,-0.2580173780735829,3.4536858042811733,0.4999504455034112
2.8772144317626953,0.9173969750786667,[1.64092557],5.0,0.5,0.0,-0.23731032468804128,3.4518728787783086,0.49995807995539093
2.8859915733337402,0.9213049494134001,[1.6363873],5.0,0.5,0.0,-0.18862802086592764,3.4518530876211093,0.49997351453582195
2.89393949508667,0.9248221263146603,[1.63199141],5.0,0.5,0.0,-0.13792378787900827,3.444961151270618,0.49998583949057873
2.9043750762939453,0.9289254993661303,[1.62777783],5.0,0.5,0.0,-0.09454721251405468,3.443800978781104,0.49999334571735293
2.913360118865967,0.9328334737008638,[1.62378339],5.0,0.5,0.0,-0.06063712567254326,3.4470627509691094,0.4999972629501964
2.92124605178833,0.9359598531686504,[1.62004306],5.0,0.5,0.0,-0.035490519127383525,3.458359379297649,0.4999990623711279
2.9289424419403076,0.9388908339197005,[1.61658587],5.0,0.5,0.0,-0.01751772225171079,3.4376971240575656,0.4999997715654193
2.9375271797180176,0.9424080108209606,[1.61343503],5.0,0.5,0.0,-0.005059510829003477,3.4561824993789863,0.4999999809443518
2.9449825286865234,0.9453389915720106,[1.61061056],5.0,0.5,0.0,0.0033166580375558977,3.432141774242899,0.49999999181143
2.9539475440979004,0.9492469659067441,[1.60812946],5.0,0.5,0.0,0.00874713721988873,3.4534643351404024,0.4999999430441248
2.9632785320281982,0.9529595415247408,[1.60601268],5.0,0.5,0.0,0.012092347632612055,3.4665969791797067,0.49999989115013976
2.972426652908325,0.9568675158594742,[1.60428441],5.0,0.5,0.0,0.013985403351552298,3.4679995784425093,0.4999998544015992
2.980257749557495,0.9597984966105241,[1.60295758],5.0,0.5,0.0,0.290921719510877,3.434307884801825,0.49993700129740937
2.9892258644104004,0.9633156735117843,[1.60203405],5.0,0.5,0.0,0.04823628547043017,3.4380414462441693,0.49999826797707275
2.998802661895752,0.9670282491297811,[1.60152138],5.0,0.5,0.0,-0.04019759541380339,3.4278915578447444,0.4999987971643194
3.0090110301971436,0.9713270208979877,[1.60143227],5.0,0.5,0.0,0.2143606920099668,3.405320075906031,0.4999657955886348
3.0191805362701416,0.9752349952327212,[1.60177605],5.0,0.5,0.0,0.25238569503558184,3.3777554871177577,0.49995258502190326
3.0276248455047607,0.9785567734172447,[1.60255891],5.0,0.5,0.0,0.21043360156967714,3.3481212532914504,0.49996703731837044
3.036968231201172,0.9826601464687146,[1.60378398],5.0,0.5,0.0,0.1481745775732853,3.3119276978481906,0.4999836564282895
3.047825336456299,0.9869589182369213,[1.60545097],5.0,0.5,0.0,0.08942784157442848,3.275831769737812,0.49999404681214016
3.0559442043304443,0.9904760951381815,[1.60754472],5.0,0.5,0.0,0.04190080805167751,3.322960829236201,0.49999869307428113
3.0669503211975098,0.9947748669063883,[1.61003593],5.0,0.5,0.0,0.006513845398935202,3.2941443709282656,0.499999968414951
3.0779507160186768,0.9992690373913317,[1.61290268],5.0,0.5,0.0,-0.018318657674353863,3.2773987981852617,0.49999975019917936
3.089010000228882,1.0035678091595384,[1.6161337],5.0,0.5,0.0,-0.034814625287091755,3.2389077670988664,0.49999909774409335
3.1000711917877197,1.0080619796444819,[1.61971136],5.0,0.5,0.0,-0.045074219131710246,3.2787231651321114,0.4999984876147192
3.1099319458007812,1.012165352695952,[1.6235938],5.0,0.5,0.0,-0.05083548716288285,3.310127765548383,0.4999980762890391
3.118947982788086,1.0154871308804754,[1.62771938],5.0,0.5,0.0,-0.05344362751026194,3.3102666130159855,0.4999978738318469
3.1292922496795654,1.0199813013654186,[1.63201931],5.0,0.5,0.0,-0.05389959054736092,3.270480044137168,0.4999978373976617
3.1369528770446777,1.0231076808332054,[1.63642093],5.0,0.5,0.0,-0.05292912442691596,3.2763946043619336,0.4999979145720531
3.1459479331970215,1.0268202564512021,[1.64085147],5.0,0.5,0.0,0.22498977249121974,3.2032465319637646,0.4999623195688445
3.1560778617858887,1.0307282307859356,[1.64523934],5.0,0.5,0.0,0.260543236763165,3.112353384674953,0.49994947057711187
3.1673240661621094,1.0356131987043522,[1.64950907],5.0,0.5,0.0,-0.06786500500853374,2.9708860313805565,0.49999657155681126
3.1759397983551025,1.0391303756056123,[1.6535878],5.0,0.5,0.0,-0.17421861045087422,2.9430299449352946,0.49997740637303834
3.1882333755493164,1.0444061409575025,[1.65740975],5.0,0.5,0.0,0.08926554504306022,2.816913425879321,0.4999940684004793
3.1978631019592285,1.048118716575499,[1.66090691],5.0,0.5,0.0,0.14466592379543103,2.780931768183632,0.49998442125750453
3.20796799659729,1.051831292193496,[1.66402002],5.0,0.5,0.0,0.12080126338849624,2.7598759252495104,0.49998913712179366
3.216569423675537,1.055348469094756,[1.66670547],5.0,0.5,0.0,0.07449793068883734,2.7500653762055363,0.4999958686375265
3.2261319160461426,1.0592564434294893,[1.66892936],5.0,0.5,0.0,0.02887300355568715,2.7433256247365034,0.499999379430632
3.2368922233581543,1.0633598164809595,[1.6706682],5.0,0.5,0.0,-0.008211216872487107,2.7353434678003565,0.49999994980947954
3.247138023376465,1.067267790815693,[1.67190928],5.0,0.5,0.0,-0.03540079325774274,2.7244408493761956,0.49999906710609054
3.257075071334839,1.0715665625838997,[1.67265055],5.0,0.5,0.0,-0.05381346522892716,2.706218914242455,0.4999978443033025
3.2668397426605225,1.0758653343521063,[1.67290024],5.0,0.5,0.0,0.2107825549571182,2.683024382174166,0.4999669279100287
3.2762656211853027,1.079577909970103,[1.67267617],5.0,0.5,0.0,0.2376663798443308,2.6599275152159256,0.4999579540745031
3.2856314182281494,1.0834858843048365,[1.67200493],5.0,0.5,0.0,0.18004695455861686,2.635864430564448,0.4999758694203176
3.2939364910125732,1.0864168650558865,[1.67092541],5.0,0.5,0.0,0.10400461006678968,2.6308872247044257,0.4999919479148562
3.3024168014526367,1.09032483939062,[1.66948641],5.0,0.5,0.0,0.03523007572326288,2.6140326224130286,0.4999990760820017
3.3115251064300537,1.0942328137253534,[1.66773588],5.0,0.5,0.0,-0.018559823135980064,2.6053565665225147,0.4999997435786215
3.3228600025177,1.09853158549356,[1.66572245],5.0,0.5,0.0,-0.05708187070836905,2.606560375481346,0.4999975744958779
3.33294677734375,1.1026349585450301,[1.6635009],5.0,0.5,0.0,-0.0826834986791135,2.623209191355419,0.4999949108862822
3.3439533710479736,1.106933730313237,[1.66113132],5.0,0.5,0.0,-0.374306599918244,2.653128598064851,0.4998957163192941
3.3539085388183594,1.111037103364707,[1.65867784],5.0,0.5,0.0,-0.4156501874366646,2.693694013422788,0.49987141012183034
3.3631296157836914,1.1145542802659671,[1.65620687],5.0,0.5,0.0,-0.3635606876592301,2.7399582515310383,0.49990161751743206
3.372629165649414,1.1182668558839637,[1.65378517],5.0,0.5,0.0,-0.28692001047838533,2.780812591823641,0.4999387224013902
3.379925489425659,1.1213932353517506,[1.65147151],5.0,0.5,0.0,-0.21349254271220244,2.7650605484093105,0.49996607207029137
3.3903896808624268,1.1256920071199572,[1.64932312],5.0,0.5,0.0,-0.15248903674061226,2.8396748023708343,0.4999826908237543
3.399972438812256,1.1295999814546906,[1.64739938],5.0,0.5,0.0,-0.10524684416056908,2.8027956050012865,0.4999917544190633
3.408937454223633,1.133507955789424,[1.64574651],5.0,0.5,0.0,-0.07014884895294203,2.8084998609672014,0.4999963369218606
3.417933225631714,1.1366343352572106,[1.64440911],5.0,0.5,0.0,-0.32082647787994656,2.7944109377288147,0.4999233849998488
3.4290614128112793,1.1413239044588908,[1.64343762],5.0,0.5,0.0,-0.3360068308688192,2.7456529372405356,0.49991596380322434
3.4390602111816406,1.145427277510361,[1.64289236],5.0,0.5,0.0,-0.2684407119673451,2.6931511647637736,0.4999463610653889
3.447685480117798,1.148944454411621,[1.64282754],5.0,0.5,0.0,-0.18384650316493784,2.6484044107798788,0.49997484023988475
3.4572532176971436,1.1526570300296177,[1.64326454],5.0,0.5,0.0,-0.10763599104876165,2.6550269006193585,0.49999137581711367
3.4669625759124756,1.1567604030810879,[1.64422271],5.0,0.5,0.0,-0.047313394675160214,2.6607924873451814,0.4999983336195181
3.4783167839050293,1.1612545735660311,[1.64574893],5.0,0.5,0.0,-0.003000239745520144,2.711837402732722,0.4999999932993244
3.486288547515869,1.164380953033818,[1.64788215],5.0,0.5,0.0,0.30381273815823867,2.6651137126669338,0.4999312949289399
3.4949569702148438,1.1677027312183414,[1.65060211],5.0,0.5,0.0,0.35717208072126433,2.6330528253965397,0.49990504443089934
3.505462408065796,1.172001502986548,[1.65387128],5.0,0.5,0.0,0.3144950126490005,2.658670644817595,0.4999263789129876
3.513972043991089,1.1755186798878081,[1.65768944],5.0,0.5,0.0,0.24522892313408895,2.6852723602817377,0.4999552358218076
3.5233497619628906,1.1792312555058049,[1.6620711],5.0,0.5,0.0,0.17761897864493556,2.7089833310866536,0.4999765158301395
3.530932664871216,1.1825530336903283,[1.66700558],5.0,0.5,0.0,0.12125677456322957,2.679576347801205,0.4999890550458757
3.540487051010132,1.1866564067417984,[1.6724599],5.0,0.5,0.0,0.07777008037347705,2.714217136333447,0.4999954977478347
3.5518369674682617,1.1913459759434786,[1.6784208],5.0,0.5,0.0,-0.23027982837820163,2.7419399633860437,0.49996052689170817
3.563507556915283,1.1960355451451585,[1.68491153],5.0,0.5,0.0,-0.2861878919367867,2.8216628982139773,0.49993903470095963
3.575942039489746,1.2007251143468387,[1.69196591],5.0,0.5,0.0,-0.24684949456376637,2.8285747105749466,0.4999546422544223
3.5882363319396973,1.2056100822652553,[1.69960493],5.0,0.5,0.0,-0.18135383833694108,2.89154987216287,0.4999755178504617
3.597043514251709,1.2091272591665154,[1.70781761],5.0,0.5,0.0,-0.39374183306081395,2.8404686008439324,0.4998846069443998
3.6098170280456543,1.214598423235142,[1.71656525],5.0,0.5,0.0,-0.3744913827178996,2.908861423661195,0.4998956133418164
3.619908094406128,1.2185063975698756,[1.72582475],5.0,0.5,0.0,-0.2798170420361185,2.917709172558422,0.4999417186389285
3.628948211669922,1.2218281757543992,[1.73556731],5.0,0.5,0.0,-0.17548652889022415,2.934722230639287,0.4999770763226564
3.637946844100952,1.225540751372396,[1.74572199],5.0,0.5,0.0,-0.08576368736193252,2.9046869502736175,0.49999452465880395
3.647200345993042,1.2290579282736558,[1.75620271],5.0,0.5,0.0,-0.016762691736621163,2.943740286022873,0.4999997908325502
3.658346652984619,1.2339428961920726,[1.76696501],5.0,0.5,0.0,0.032656832640007454,3.0211188625688767,0.4999992061207482
3.6674017906188965,1.237850870526806,[1.77799901],5.0,0.5,0.0,0.06598953165136397,3.039761624397851,0.49999675843033403
3.677948474884033,1.241954243578276,[1.78925488],5.0,0.5,0.0,0.08701718570305887,3.0161064296051903,0.49999436343792775
3.6872026920318604,1.2458622179130094,[1.80066551],5.0,0.5,0.0,0.09904315477952069,3.095806823706832,0.49999269782167394
3.6959187984466553,1.2493793948142695,[1.81218429],5.0,0.5,0.0,0.10469712931210542,3.07809810757799,0.4999918403284129
3.70652174949646,1.253873565299213,[1.82375095],5.0,0.5,0.0,0.10596870088857205,3.1105770308589893,0.49999164092416215
3.715529441833496,1.2571953434837364,[1.83530854],5.0,0.5,0.0,0.1043159157029871,3.1467687851540327,0.4999918996402536
3.72446870803833,1.2607125203849965,[1.84681956],5.0,0.5,0.0,0.10078372583686022,3.1803501143814623,0.4999924389134254
3.7333428859710693,1.2644250960029932,[1.85824848],5.0,0.5,0.0,0.09610807902806723,3.2114414826048123,0.49999312419608616
3.742325782775879,1.2681376716209898,[1.86956206],5.0,0.5,0.0,0.36683767470776607,3.2412979128133927,0.49989983614406514
3.7509350776672363,1.2716548485222499,[1.88072954],5.0,0.5,0.0,0.3943687235144802,3.2710408261770656,0.49988423925164177
3.759157180786133,1.2749766267067733,[1.89171163],5.0,0.5,0.0,0.33362651627264384,3.2700854871107303,0.4999171501335284
3.766890048980713,1.27810300617456,[1.90245209],5.0,0.5,0.0,0.25199782176384133,3.3327902582652777,0.4999527306403155
3.7759177684783936,1.28162018307582,[1.91290433],5.0,0.5,0.0,0.17612915645061877,3.3431737774282557,0.4999769081271928
3.7859466075897217,1.2857235561272902,[1.92305247],5.0,0.5,0.0,0.1144167170704412,3.360730409335326,0.49999025500976796
3.7947895526885986,1.289436131745287,[1.93289474],5.0,0.5,0.0,0.06761494531804922,3.3907866109123233,0.4999965967754956
3.804919719696045,1.293539504796757,[1.94242975],5.0,0.5,0.0,0.03369536583098542,3.4272422424503945,0.49999915482496543
3.8132755756378174,1.2970566816980171,[1.95165607],5.0,0.5,0.0,0.009964227965920924,3.470843421149996,0.499999926091574
3.8219149112701416,1.3003784598825405,[1.9605556],5.0,0.5,0.0,-0.006096886238085239,3.4988892167644687,0.4999999723291279
3.829904079437256,1.3038956367838006,[1.96908105],5.0,0.5,0.0,-0.016563478489545858,3.523960587519964,0.49999979577463416
3.837928295135498,1.3070220162515873,[1.97717972],5.0,0.5,0.0,-0.02304122040271129,3.5488241178521718,0.49999960479952293
3.847895622253418,1.3109299905863208,[1.98482902],5.0,0.5,0.0,-0.026727286898605082,3.5842069619004624,0.49999946823935143
3.8569040298461914,1.3146425662043173,[1.99204758],5.0,0.5,0.0,-0.3045317135117874,3.6168451478728216,0.4999309693844058
3.8653271198272705,1.3179643443888407,[1.99887044],5.0,0.5,0.0,-0.3381266707853675,3.6458362320337856,0.49991490019376705
3.87294340133667,1.3210907238566276,[2.0053222],5.0,0.5,0.0,-0.006607257321687848,3.676720572225268,0.49999996750256354
3.8819026947021484,1.3248032994746242,[2.01141905],5.0,0.5,0.0,0.10353122237059073,3.68877408449728,0.4999920210472468
3.891902446746826,1.3287112738093576,[2.01718425],5.0,0.5,0.0,0.12021635557856142,3.6976765908161235,0.4999892420599663
3.900397539138794,1.332033051993881,[2.02264658],5.0,0.5,0.0,-0.17384162003660858,3.7075192127962397,0.49997750404542585
3.9102437496185303,1.3359410263286144,[2.02783214],5.0,0.5,0.0,-0.2339634022068285,3.7124314444067243,0.4999592540136691
3.9208860397338867,1.3402397980968213,[2.03276464],5.0,0.5,0.0,-0.2045270306489341,3.7133338244157037,0.4999688617229569
3.9303386211395264,1.343952373714818,[2.03746287],5.0,0.5,0.0,-0.14939151981884294,3.7073951287621094,0.4999833868742906
3.9391324520111084,1.3476649493328146,[2.04194044],5.0,0.5,0.0,-0.09466393496294903,3.705786347368951,0.4999933292773459
3.9491004943847656,1.3517683223842847,[2.04621402],5.0,0.5,0.0,-0.04932997617385433,3.7129424423211197,0.49999818854437333
3.957935333251953,1.355090100568808,[2.0502995],5.0,0.5,0.0,0.2609961022445324,3.688428168536607,0.4999492947770601
3.9668946266174316,1.358802676186805,[2.05420422],5.0,0.5,0.0,0.31851737537847347,3.6877695699344293,0.4999244837989778
3.97636079788208,1.362710650521538,[2.05793687],5.0,0.5,0.0,0.27988425081087587,3.6817212661304457,0.49994169064019894
3.986891984939575,1.3668140235730084,[2.06150882],5.0,0.5,0.0,0.21427109284148252,3.6693487759262333,0.49996582417542074
3.997938871383667,1.3713081940579517,[2.06493026],5.0,0.5,0.0,0.1498656110167746,3.6646409195152527,0.4999832812658575
4.006896018981934,1.3750207696759482,[2.06820685],5.0,0.5,0.0,0.09628765512516521,3.6200027637205694,0.49999309847764395
4.015450716018677,1.378342547860472,[2.07133449],5.0,0.5,0.0,0.05522052234187738,3.5915450401275466,0.49999773010007587
4.0250303745269775,1.3822505221952053,[2.0743053],5.0,0.5,0.0,0.025321983560261205,3.5524102324229667,0.4999995226884835
4.034373760223389,1.386158496529939,[2.07711061],5.0,0.5,0.0,0.004396590612920633,3.5076382341736894,0.49999998561073117
4.0442304611206055,1.3902618695814086,[2.07973914],5.0,0.5,0.0,-0.009716383803106897,3.4599775643924264,0.4999999297225544
4.052899599075317,1.393779046482669,[2.08217986],5.0,0.5,0.0,-0.01883769770745572,3.429302832501104,0.4999997358429491
4.0637123584747314,1.3978824195341388,[2.0844224],5.0,0.5,0.0,-0.024392594912621673,3.3749805051298343,0.4999995570828568
4.072885990142822,1.401399596435399,[2.08645755],5.0,0.5,0.0,-0.027450964332817678,3.359715410058164,0.49999943905324146
4.082658052444458,1.4053075707701321,[2.08828093],5.0,0.5,0.0,-0.028794950044315717,3.330090029064953,0.4999993827813133
4.093551397323608,1.4098017412550756,[2.0898894],5.0,0.5,0.0,-0.028986007515989842,3.287400888766314,0.499999374563526
4.102996110916138,1.4139051143065458,[2.09127965],5.0,0.5,0.0,-0.028421689084547466,3.2672481351671094,0.4999993986792608
4.110881805419922,1.416836095057596,[2.09245463],5.0,0.5,0.0,-0.02738029984529767,3.267796511540951,0.49999944193750984
4.119908094406128,1.4205486706755925,[2.09342265],5.0,0.5,0.0,-0.02605459416325446,3.2467778432258263,0.4999994946700004
4.128996849060059,1.4240658475768528,[2.09419187],5.0,0.5,0.0,-0.024576567536284226,3.2282182097370953,0.49999955037656935
4.137892961502075,1.4277784231948494,[2.09477186],5.0,0.5,0.0,-0.023035399813669803,3.223400038156177,0.49999960499916585
4.148561000823975,1.4318817962463195,[2.09517347],5.0,0.5,0.0,-0.02149029772786061,3.1864486373421252,0.49999965621146397
4.157886266708374,1.4359851692977899,[2.09540687],5.0,0.5,0.0,-0.01997961460062214,3.1806689547838194,0.49999970284656187
4.168279647827148,1.4404793397827331,[2.09548299],5.0,0.5,0.0,-0.01852728879704795,3.1421168095037344,0.49999974447681816
4.177052974700928,1.4438011179672565,[2.09541301],5.0,0.5,0.0,-0.01714736848880817,3.1386268012318856,0.4999997811222872
4.1862475872039795,1.4473182948685164,[2.09520934],5.0,0.5,0.0,-0.015847179186705977,3.1141371185579625,0.49999981305643026
4.195241928100586,1.4508354717697765,[2.09488319],5.0,0.5,0.0,-0.014629533085779007,3.0878761137378623,0.4999998406810127
4.205888509750366,1.45474344610451,[2.09444294],5.0,0.5,0.0,-0.01349426425776723,3.0593106476354435,0.4999998644482784
4.215532541275024,1.4588468191559802,[2.09389631],5.0,0.5,0.0,0.2635990688608199,3.030684742675802,0.49994827839948014
4.225855588912964,1.4631455909241868,[2.09325092],5.0,0.5,0.0,0.29770161688340113,3.002640319598496,0.4999340309225685
4.234273433685303,1.466662767825447,[2.09251459],5.0,0.5,0.0,0.2435092285781673,2.979493175795126,0.4999558614201973
4.243627309799194,1.4703753434434434,[2.09169526],5.0,0.5,0.0,0.16826031381049328,2.9556734754319156,0.499978925323751
4.252894639968872,1.4740879190614404,[2.09080268],5.0,0.5,0.0,0.09850936756194927,2.9473418376187737,0.4999927763183226
4.261889696121216,1.4779958933961739,[2.08984741],5.0,0.5,0.0,0.3186376942318847,2.914089819273434,0.49992442674053955
4.272863388061523,1.4822946651643805,[2.08883592],5.0,0.5,0.0,0.3104207527046804,2.8762207952473164,0.4999282739328341
4.281893968582153,1.4858118420656405,[2.08777009],5.0,0.5,0.0,0.22651280467575963,2.8390357137742286,0.4999618077184558
4.291208028793335,1.4895244176836373,[2.08664919],5.0,0.5,0.0,-0.14458165065608425,2.79871833769359,0.49998443940229886
4.300391674041748,1.4934323920183705,[2.08547016],5.0,0.5,0.0,-0.2598688753397831,2.7573780052779875,0.49994973179505875
4.310196399688721,1.4971449676363673,[2.0842284],5.0,0.5,0.0,-0.26776317256077564,2.71793597684922,0.49994663147661383
4.3220055103302,1.5022253342715206,[2.08291453],5.0,0.5,0.0,-0.2363638725960955,2.6485006495137964,0.49995841364967747
4.329903602600098,1.5053517137393075,[2.08151999],5.0,0.5,0.0,-0.1954415348597882,2.649155176659962,0.499971566648374
4.3400559425354,1.509259688074041,[2.08004151],5.0,0.5,0.0,-0.15688272471257456,2.587820810834619,0.49998167900882673
4.347874641418457,1.5125814662585644,[2.0784765],5.0,0.5,0.0,-0.12452855168047208,2.586766187768459,0.49998845644607137
4.356918096542358,1.5159032444430878,[2.07682694],5.0,0.5,0.0,-0.09882522205535924,2.5497640088708935,0.4999927299212418
4.369791746139526,1.5213744085117145,[2.07508676],5.0,0.5,0.0,-0.07896119397145077,2.4759536875593744,0.4999953587808764
4.380998373031616,1.5260639777133946,[2.07323621],5.0,0.5,0.0,-0.3398424116707219,2.4364197651164337,0.4999140344408455
4.391987562179565,1.5307535469150746,[2.07125823],5.0,0.5,0.0,-0.3614396985306467,2.397367278705229,0.4999027619715615
4.40286111831665,1.5348569199665447,[2.06913809],5.0,0.5,0.0,-0.29754679877448864,2.3657704112587945,0.4999340995139275
4.413774251937866,1.5391556917347513,[2.06684749],5.0,0.5,0.0,-0.2146951482963514,2.397833526587537,0.4999656887741624
4.422904968261719,1.5428682673527483,[2.06435715],5.0,0.5,0.0,-0.13890425189704664,2.3199769571367614,0.4999856374511995
4.432282447814941,1.5467762416874815,[2.06165799],5.0,0.5,0.0,-0.07812033760414608,2.321009038571478,0.49999545710263343
4.441864013671875,1.5502934185887418,[2.05873926],5.0,0.5,0.0,-0.03278017121396569,2.3351824332243196,0.4999992001127705
4.451873540878296,1.554201392923475,[2.05558073],5.0,0.5,0.0,-0.0006341612080844224,2.3044884953984335,0.4999999997006316
4.461989164352417,1.5583047659749452,[2.05216721],5.0,0.5,0.0,0.02116319847550869,2.260515299609739,0.4999996665972786
4.471295118331909,1.5624081390264153,[2.04849108],5.0,0.5,0.0,0.035232836033726164,2.22065587425224,0.4999990759372165
4.481103420257568,1.5663161133611485,[2.04455458],5.0,0.5,0.0,0.04371812189912007,2.18671189528626,0.4999985772485044
4.490877628326416,1.5704194864126186,[2.04037065],5.0,0.5,0.0,0.04826842474217384,2.1546875163460553,0.49999826566825467
4.500763893127441,1.5745228594640888,[2.03596218],5.0,0.5,0.0,0.050107884414987716,2.0688855815894303,0.4999981309625754
4.511258602142334,1.5788216312322956,[2.03136105],5.0,0.5,0.0,0.05012366063612659,1.9846250816926752,0.4999981297854778
4.51929783821106,1.5821434094168187,[2.02660666],5.0,0.5,0.0,0.32498608905489257,1.920742931548736,0.4999213856053959
4.530076265335083,1.5866375799017622,[2.02174387],5.0,0.5,0.0,0.0801487256556641,1.8702348949075311,0.49999521812915726
4.541422605514526,1.5913271491034424,[2.01682094],5.0,0.5,0.0,-0.01043629669226008,1.8363828428061957,0.49999991892266343
4.549415349960327,1.5946489272879658,[2.0118875],5.0,0.5,0.0,-0.034015675415248206,1.8231225830913178,0.4999991386800662
4.55885124206543,1.5981661041892261,[2.00699392],5.0,0.5,0.0,-0.031130966828702863,1.8252619128381335,0.49999927857435306
4.568901538848877,1.6020740785239593,[2.0021891],5.0,0.5,0.0,-0.2959377048365434,1.8175260463992924,0.49993481030265197
4.578876733779907,1.6059820528586928,[1.9975168],5.0,0.5,0.0,-0.3170381962896781,1.814078057287106,0.4999251835051433
4.588000535964966,1.6094992297599529,[1.9930164],5.0,0.5,0.0,-0.25185172462064587,1.8156492367685002,0.499952785431358
4.5968616008758545,1.6132118053779496,[1.98872453],5.0,0.5,0.0,-0.1682440597478343,1.818267298880725,0.4999789293956901
4.6058573722839355,1.6169243809959462,[1.9846749],5.0,0.5,0.0,-0.09257129827238583,1.8220657735262018,0.49999362094286315
4.616128921508789,1.6210277540474165,[1.98089805],5.0,0.5,0.0,-0.03272054479186172,1.8234258860106947,0.49999920302571566
4.625262975692749,1.6245449309486766,[1.97742112],5.0,0.5,0.0,-0.2649818341882402,1.8264322875664107,0.4999477343865006
4.63541579246521,1.6286483040001465,[1.97426753],5.0,0.5,0.0,-0.26795541471676065,1.8242252896499465,0.4999465548628253
4.643861770629883,1.6321654809014066,[1.97145274],5.0,0.5,0.0,-0.19331790771272742,1.7887394113596928,0.49997218127634296
4.653838396072388,1.6364642526696132,[1.96898447],5.0,0.5,0.0,-0.10555094196147231,1.7892840247121642,0.49999170695034617
4.664393901824951,1.6407630244378202,[1.9668764],5.0,0.5,0.0,-0.0289654026828225,1.819185684292525,0.49999937603124295
4.67685866355896,1.6458433910729737,[1.96514771],5.0,0.5,0.0,0.029816049640925563,1.7999028969085933,0.49999933962478865
4.686244487762451,1.6495559666909703,[1.96380895],5.0,0.5,0.0,0.07133831742801852,1.7882890978336214,0.4999962142882232
4.695230484008789,1.6532685423089668,[1.96286291],5.0,0.5,0.0,0.37459619678429107,1.7772062897597174,0.49989555963561183
4.7038328647613525,1.6565903204934902,[1.96230367],5.0,0.5,0.0,0.42398043194806645,1.7387357686305467,0.49986621252893454
4.714253187179565,1.6606936935449603,[1.96212436],5.0,0.5,0.0,0.37714658381728033,1.7585084471804837,0.49989414083904093
4.723093032836914,1.6642108704462204,[1.96233032],5.0,0.5,0.0,0.3037031850048007,1.7451187522152098,0.4999313635379951
4.730867862701416,1.6673372499140071,[1.96291604],5.0,0.5,0.0,0.23200131842707267,1.719567695499992,0.49995996032345985
4.740276575088501,1.6714406229654772,[1.96386737],5.0,0.5,0.0,0.17169956405758804,1.7170642823785058,0.4999780923622527
4.750959396362305,1.6757393947336838,[1.96518419],5.0,0.5,0.0,0.12446558438062223,1.7013883746975664,0.49998852097481344
4.760953903198242,1.6800381665018909,[1.96686278],5.0,0.5,0.0,0.08892029728072015,1.6871551043211626,0.4999941856867362
4.770547389984131,1.6837507421198874,[1.96888855],5.0,0.5,0.0,0.06282533017226533,1.6775729317328023,0.49999714855176736
4.778840065002441,1.6872679190211477,[1.97123716],5.0,0.5,0.0,0.04397750588965239,1.6745608156381204,0.4999986593593845
4.787864923477173,1.6907850959224076,[1.97387607],5.0,0.5,0.0,0.03051661813991454,1.6717711267045516,0.4999994161840957
4.796719551086426,1.6943022728236676,[1.97678182],5.0,0.5,0.0,0.02098169320850372,1.668190922364286,0.4999997895437751
4.806186676025391,1.6984056458751378,[1.97993869],5.0,0.5,0.0,0.014270783723156802,1.6625132918995134,0.4999999788625388
4.814621925354004,1.7021182214931343,[1.98332948],5.0,0.5,0.0,0.009573030608850596,1.660225813455154,0.5000000670561693
4.822824954986572,1.7050492022441845,[1.9869281],5.0,0.5,0.0,0.006301210570548044,1.6620735677289464,0.5000000959204232
4.833371639251709,1.708957176578918,[1.9907082],5.0,0.5,0.0,0.004034572263142917,1.6602212633434743,0.5000001151817601
4.842134952545166,1.7122789547634414,[1.99465096],5.0,0.5,0.0,0.0024738488842860596,1.66527693774313,0.5000001141297012
4.851330757141113,1.715991530381438,[1.99872917],5.0,0.5,0.0,0.0014072813677864545,1.6675933418542437,0.500000112406484
4.861653804779053,1.720290302149645,[2.00291714],5.0,0.5,0.0,0.0006855924907406619,1.6687120160326407,0.50000011496659
4.872864484786987,1.7251752700680614,[2.00719843],5.0,0.5,0.0,0.00020384831231217188,1.6645536802087322,0.5000001234211602
4.88187050819397,1.7288878456860584,[2.01155394],5.0,0.5,0.0,-0.00011154845902453234,1.665362308868486,0.5000001147964427
4.892364978790283,1.7331866174542652,[2.01596676],5.0,0.5,0.0,-0.00031211739720542095,1.6695082919823856,0.5000001132619656
4.901182651519775,1.736703794355525,[2.02041812],5.0,0.5,0.0,-0.00043385826606931964,1.653477783258205,0.5000001018119052
4.911150217056274,1.7408071674069951,[2.02487733],5.0,0.5,0.0,-0.0005018794323561589,1.6439507530290423,0.500000097726961
4.9209816455841064,1.7447151417417284,[2.02931328],5.0,0.5,0.0,-0.0005336562795971048,1.6302645716586674,0.5000000919958857
4.931842803955078,1.749209312226672,[2.03369946],5.0,0.5,0.0,-0.0005413209797876505,1.608208178733832,0.5000000931301328
4.942843198776245,1.7537034827116156,[2.0380101],5.0,0.5,0.0,-0.0005332694238975951,1.5911008059222125,0.5000000951060078
4.951949119567871,1.7574160583296121,[2.04221888],5.0,0.5,0.0,-0.0005152877959886662,1.5484072644039066,0.5000000898857757
4.963676929473877,1.7619102288145554,[2.04629702],5.0,0.5,0.0,-0.0004913417407137681,1.5176655702832795,0.5000000942727262
4.973044395446777,1.7656228044325524,[2.05021731],5.0,0.5,0.0,-0.0004641287894273702,1.482457398965202,0.5000000920856628
4.985660552978516,1.7707031710677057,[2.0539553],5.0,0.5,0.0,-0.0004354648128432658,1.442388266528495,0.5000001072966737
4.995291709899902,1.7746111454024391,[2.05748929],5.0,0.5,0.0,0.2756318054946897,1.4159110324275224,0.499943561021748
5.003937482833862,1.7779329235869625,[2.06080301],5.0,0.5,0.0,0.3087847843377475,1.4014084458273404,0.4999291400906069
5.013858079910278,1.7820362966384327,[2.06388591],5.0,0.5,0.0,0.25371487793706027,1.3843769208447803,0.4999522102032817
5.02356743812561,1.7859442709731659,[2.06673219],5.0,0.5,0.0,0.17765590616878968,1.3728404832799537,0.49997664793222224
5.033016204833984,1.7902430427413727,[2.06934061],5.0,0.5,0.0,0.10715778911403662,1.363237837828494,0.49999162370682965
5.042433261871338,1.7941510170761064,[2.07171451],5.0,0.5,0.0,0.050559016048120714,1.3580962928358962,0.49999830051436756
5.053896903991699,1.7982543901275763,[2.07386124],5.0,0.5,0.0,0.008582890436560395,1.354077753783972,0.5000001976700467
5.06265926361084,1.8017715670288363,[2.07579162],5.0,0.5,0.0,-0.020812273513773034,1.3543804512885262,0.4999999781886114
5.072846174240112,1.8058749400803065,[2.07751945],5.0,0.5,0.0,-0.04032153937644953,1.3526040806173762,0.4999991793343171
5.08173131942749,1.809587515698303,[2.07906081],5.0,0.5,0.0,-0.052456927068447824,1.3528823915417743,0.4999984444112657
5.091312646865845,1.8133000913163,[2.08043354],5.0,0.5,0.0,-0.05928271920322002,1.353109197584109,0.4999980173237577
5.100823879241943,1.8170126669342965,[2.08165505],5.0,0.5,0.0,-0.06239052843247012,1.3381143969227902,0.4999979280020663
5.111225605010986,1.8211160399857669,[2.08274367],5.0,0.5,0.0,-0.06296197707146485,1.3535478551414626,0.4999981829984848
5.119843244552612,1.8250240143205,[2.08371931],5.0,0.5,0.0,-0.0618525986340542,1.3310173378371972,0.49999869070149366
5.128832101821899,1.8285411912217602,[2.08459903],5.0,0.5,0.0,-0.05967054459760033,1.3274966756515292,0.49999936807955864
5.1370954513549805,1.8318629694062836,[2.08539834],5.0,0.5,0.0,-0.05684163275001959,1.31874836772335,0.5000002051914929
5.144831657409668,1.835184747590807,[2.08613119],5.0,0.5,0.0,-0.05365982634528274,1.2973312171988374,0.5000012461096499
5.15588116645813,1.839874316792487,[2.08680894],5.0,0.5,0.0,-0.05032501319381165,1.2849723817406893,0.5000031686721974
5.166401624679565,1.8441730885606937,[2.08744415],5.0,0.5,0.0,0.22906771346827393,1.275726756528345,0.4999681793582086
5.175116062164307,1.8474948667452171,[2.08804796],5.0,0.5,0.0,0.26547929797467873,1.2471870018184652,0.4999569534102748
5.183412313461304,1.8510120436464772,[2.08862562],5.0,0.5,0.0,0.21354700207498123,1.219744364144722,0.4999785265419562
5.192683935165405,1.8545292205477373,[2.08918032],5.0,0.5,0.0,0.14047254888066488,1.207688660124763,0.5000018100204481
5.202762842178345,1.8584371948824707,[2.0897176],5.0,0.5,0.0,0.07278879655775009,1.193926910737925,0.5000186432818979
5.212466478347778,1.8623451692172042,[2.090244],5.0,0.5,0.0,0.018827297298110737,1.1805129962244771,0.5000305490951239
5.222124099731445,1.8660577448352007,[2.09076579],5.0,0.5,0.0,-0.020688879183429723,1.1684231378399867,0.5000408126585716
5.2330756187438965,1.870161117886671,[2.09128898],5.0,0.5,0.0,-0.04779732164869203,1.154709298502211,0.5000548991085632
5.2421181201934814,1.8742644909381412,[2.09181921],5.0,0.5,0.0,-0.06518630183248851,1.1409635214424085,0.5000742765660448
5.251817226409912,1.8783678639896109,[2.09236177],5.0,0.5,0.0,-0.07535947330477513,1.1273671720983047,0.5001010744946645
5.261195421218872,1.8818850408908712,[2.09292154],5.0,0.5,0.0,-0.08037193811257376,1.1166244818739186,0.5001305909895067
5.270365953445435,1.8855976165088677,[2.09350292],5.0,0.5,0.0,-0.08180582380361469,1.10478897222289,0.5001710365680667
5.278911113739014,1.888919394693391,[2.09410788],5.0,0.5,0.0,-0.08083329885205515,1.0777202061613365,0.5002154487227007
5.2878594398498535,1.8926319703113879,[2.09473617],5.0,0.5,0.0,-0.07830068982815323,1.0699367185237676,0.5002786746019486
5.296821117401123,1.8963445459293846,[2.0953894],5.0,0.5,0.0,-0.0748073211695506,1.0606864603516208,0.5003578689558993
5.306117534637451,1.9002525202641178,[2.09607074],5.0,0.5,0.0,-0.07077064009969425,1.0491202984861696,0.500463377483995
5.3154144287109375,1.903965095882115,[2.09678265],5.0,0.5,0.0,-0.0664767341555039,1.037298833266387,0.500586513413325
5.323798179626465,1.9072868740666384,[2.09752493],5.0,0.5,0.0,-0.06211812312134141,1.0096729625267618,0.5007158012001482
5.333185434341431,1.910804050967898,[2.09829504],5.0,0.5,0.0,-0.057821395667209376,1.0023956580512678,0.5008819350319478
5.341824769973755,1.9145166265858953,[2.09909226],5.0,0.5,0.0,-0.05366711619406905,0.9910420422962123,0.5010965502616013
5.35062575340271,1.9178384047704187,[2.09991927],5.0,0.5,0.0,-0.049704012676472516,0.9984678279377149,0.5013174152814619
5.360368728637695,1.9219417778218884,[2.10077932],5.0,0.5,0.0,-0.045959009332716814,0.974072129236913,0.5016656878851397
5.368858098983765,1.9254589547231487,[2.10166972],5.0,0.5,0.0,-0.3184826364469686,0.9388774781195921,0.5019336435236754
5.380265235900879,1.9303439226415653,[2.10258296],5.0,0.5,0.0,-0.07228676242222447,0.9159643393829019,0.5026459471886506
5.388828992843628,1.9338610995428254,[2.1035111],5.0,0.5,0.0,0.01898865637487529,0.8798809489993568,0.503162761583187
5.397845268249512,1.9371828777273485,[2.10444373],5.0,0.5,0.0,0.042809495140789355,0.848777558325968,0.5037141495523331
5.407492160797119,1.9410908520620822,[2.10536791],5.0,0.5,0.0,-0.23616807384928123,0.8101978256750022,0.5044868669978277
5.416806697845459,1.944803427680079,[2.10626911],5.0,0.5,0.0,-0.280768615463741,0.7684773359974475,0.5053799248605574
5.4259727001190186,1.9485160032980757,[2.10713057],5.0,0.5,0.0,-0.23805642797097848,0.7232686659464654,0.5064854149596123
5.435346841812134,1.952423977632809,[2.10793367],5.0,0.5,0.0,-0.17248818019362694,0.6751370091856784,0.5079114154230642
5.445085287094116,1.9563319519675424,[2.10865845],5.0,0.5,0.0,-0.10994838992006424,0.6264006163251201,0.5096422063432293
5.455464839935303,1.960239926302276,[2.10928418],5.0,0.5,0.0,-0.058946942435604444,0.5782155807875905,0.5117599249965203
5.462916374206543,1.9633663057700625,[2.10979416],5.0,0.5,0.0,-0.020643753042059173,0.5685499220459865,0.5137289789136574
5.476396083831787,1.9686420711219526,[2.11017167],5.0,0.5,0.0,0.006540716297936072,0.4788350491272219,0.5182037569653899
5.486886501312256,1.9729408428901594,[2.11039254],5.0,0.5,0.0,0.02490142001049383,0.4408905944329639,0.5228543413745272
5.495540618896484,1.9762626210746828,[2.11043567],5.0,0.5,0.0,0.03663352044551487,0.41074593882061194,0.5273095705018954
5.50490140914917,1.9801705954094162,[2.11028771],5.0,0.5,0.0,0.043562509297215536,0.3804620884131536,0.5338392344233417
5.514432430267334,1.9842739684608863,[2.1099386],5.0,0.5,0.0,0.04710563822559739,0.35098435036643033,0.5424954348401765
5.523388147354126,1.9879865440788829,[2.10938177],5.0,0.5,0.0,0.04832005810369076,0.3249186614206834,0.5524763177425762
5.532785892486572,1.9918945184136163,[2.1086142],5.0,0.5,0.0,0.04797405319340935,0.29869813598216705,0.5655643562065519
5.544878244400024,1.9965840876152965,[2.1076364],5.0,0.5,0.0,-0.22942271588272276,0.26951449863768157,0.5848402607399387
5.554989576339722,2.0008828593835033,[2.10644769],5.0,0.5,0.0,-0.2645330126265079,0.22847940704159192,0.6076068704047579
5.563112258911133,2.003618441417817,[2.10505197],5.0,0.5,0.0,-0.2117817127464467,0.23157482408584054,0.6277073868306746
5.574139595031738,2.00811261190276,[2.10346642],5.0,0.5,0.0,-0.13822034517779452,0.20163480556931854,0.6622596310793111
5.582322597503662,2.0116297888040204,[2.10171421],5.0,0.5,0.0,-0.07027615150935967,0.20574960961963865,0.697294175161325
5.591881275177002,2.015342364422017,[2.09982092],5.0,0.5,0.0,-0.01620677081559528,0.18578998061322632,0.7399496768086811
5.599824666976929,2.01866414260654,[2.09781366],5.0,0.5,0.0,0.02331621901827377,0.1886751606806127,0.7856664150065318
5.607780694961548,2.0215951233575904,[2.09571893],5.0,0.5,0.0,0.05036610829855227,0.17101695215925394,0.8332462610309699
5.616498231887817,2.0249169015421136,[2.09356058],5.0,0.5,0.0,0.06765578693778569,0.15592038427678453,0.8896915483626632
5.6247851848602295,2.0280432810099005,[2.0913618],5.0,0.5,0.0,-0.19833259031283834,0.1577312270695908,0.9484705523642574
5.633804559707642,2.0321466540613704,[2.0891477],5.0,0.5,0.0,0.04945800055878244,0.140450153309894,1.0221359526292555
5.6423070430755615,2.0356638309626307,[2.08694158],5.0,0.5,0.0,0.13897335121478616,0.13085937979067477,1.0910197752587036
5.651108026504517,2.0391810078638906,[2.08476537],5.0,0.5,0.0,0.15884847768206656,0.12530171253707453,1.1599341384237958
5.661404848098755,2.043870577065571,[2.08264115],5.0,0.5,0.0,0.15061699619965313,0.1150653461981042,1.2403336326285954
5.6711859703063965,2.0475831526835675,[2.08059006],5.0,0.5,0.0,0.13309176448471438,0.10720869300865879,1.3041997961894767
5.681493282318115,2.0514911270183007,[2.0786308],5.0,0.5,0.0,0.11430663804691432,0.09374020894582692,1.363014587803057
5.690811634063721,2.055399101353034,[2.07677858],5.0,0.5,0.0,-0.1787250398037478,0.07504705875219109,1.41261379721124
5.701617956161499,2.059307075687768,[2.07504495],5.0,0.5,0.0,-0.2262050282612877,0.05614716718448092,1.4516327046332247
5.711547613143921,2.0630196513057646,[2.07343841],5.0,0.5,0.0,-0.4589200742669973,0.035369020491251735,1.4783671289356672
5.721291780471802,2.066732226923761,[2.07196504],5.0,0.5,0.0,-0.7015579091707856,0.017819250063667774,1.494172264785284
5.728991746902466,2.069663207674811,[2.07062847],5.0,0.5,0.0,-0.8928709985580554,-0.003078193702320889,1.4992205731876924
5.737847805023193,2.072789587142598,[2.06942937],5.0,0.5,0.0,-1.0205935809227786,-0.023349600158175374,1.4969695641238423
5.7463061809539795,2.075720567893648,[2.06836509],5.0,0.5,0.0,-1.091325606405805,-0.043051366764343575,1.4883519236626563
5.754049777984619,2.078065352494488,[2.06742964],5.0,0.5,0.0,-1.6692483998116259,-0.058920496176376694,1.4755604176836261
5.76478123664856,2.0813871306790115,[2.06661767],5.0,0.5,0.0,-2.2806503089438044,-0.06555272570999794,1.4534536548815096
5.776325225830078,2.0847089088635347,[2.06592996],5.0,0.5,0.0,-2.759298326897401,-0.05671651187436959,1.4262643383704448
5.786230564117432,2.087249092181111,[2.06537114],5.0,0.5,0.0,-3.6232216079148443,-0.06018247019831053,1.3990328874100386
5.795781135559082,2.0895938767819517,[2.06494399],5.0,0.5,0.0,-4.679617800629315,-0.06166265443316308,1.369531743393347
5.8077919483184814,2.092134060099528,[2.06465156],5.0,0.5,0.0,-5.0,-0.044348262770052375,1.3415302794451403
5.818418264389038,2.094088047266895,[2.06449845],5.0,0.5,0.0,-5.0,-0.047671848810777656,1.321097744524883
5.826969146728516,2.0958466357175247,[2.06448602],5.0,0.5,0.0,-5.0,-0.0489639394685881,1.303171012768073
5.837398529052734,2.097605224168155,[2.06461255],5.0,0.5,0.0,-5.0,-0.04940688825575611,1.286096103788116
5.845808029174805,2.098777616468575,[2.06487298],5.0,0.5,0.0,-5.0,-0.06924857669403806,1.2763412038809356
5.854788303375244,2.1001454074857318,[2.06525915],5.0,0.5,0.0,-5.0,-0.06165211732284115,1.2656819722495527
5.8638129234313965,2.101122401069415,[2.06576564],5.0,0.5,0.0,-5.0,-0.05354130566655355,1.2605172311727397
5.876081466674805,2.1024901920865715,[2.06639217],5.0,0.5,0.0,-4.9672225136457,-0.02724375160838527,1.2525451569376629
5.88681697845459,2.1034671856702554,[2.06714005],5.0,0.5,0.0,-4.813171108089377,-0.028254154667462134,1.251074378356759
5.896491050720215,2.1040533818204654,[2.06800616],5.0,0.5,0.0,-4.315542854629957,-0.026957852701425703,1.2574705186701765
5.9044013023376465,2.104639577970675,[2.06898346],5.0,0.5,0.0,-3.750045710047465,-0.02494649750039095,1.265121425011401
5.916153430938721,2.1050303754041484,[2.07006439],5.0,0.5,0.0,-3.2251386914734326,-0.021490953630399625,1.2753938886424434
5.925832509994507,2.1054211728376218,[2.07124098],5.0,0.5,0.0,-3.050370722384229,-0.01772950843747865,1.2847545120069783
5.936841249465942,2.1056165715543584,[2.07250753],5.0,0.5,0.0,-2.7089106330087858,0.006711088266452134,1.2976947790904552
5.94738245010376,2.1056165715543584,[2.07386016],5.0,0.5,0.0,-2.346146170286361,0.006348196156655174,1.3132643123311198
5.957063674926758,2.105811970271095,[2.07529119],5.0,0.5,0.0,-1.7412548335413804,0.006520665299174407,1.327769643091064
5.964776039123535,2.105811970271095,[2.0767875],5.0,0.5,0.0,-0.8763945796615309,-0.010356124203283421,1.3443733686104182
5.974013566970825,2.105811970271095,[2.07833424],5.0,0.5,0.0,0.1944073119331987,-0.0014723474252037677,1.3598151707263917
5.984842300415039,2.106007368987832,[2.07992013],5.0,0.5,0.0,0.8496988040472835,0.005283009009053867,1.3722105175947208
5.9947919845581055,2.105811970271095,[2.08153692],5.0,0.5,0.0,1.5125325380570045,0.013000313057304107,1.3871242895100018
6.006157875061035,2.105811970271095,[2.0831811],5.0,0.5,0.0,2.0337060740386024,0.05452486824684853,1.3995708201938897
6.013754844665527,2.105811970271095,[2.08485114],5.0,0.5,0.0,2.6618759412088595,0.03401784797982991,1.4106319832924548
6.022839784622192,2.105811970271095,[2.08653817],5.0,0.5,0.0,3.173203840965006,0.035710691926955224,1.4209573360514092
6.0336034297943115,2.106007368987832,[2.08823214],5.0,0.5,0.0,3.7877162398472417,0.04485114057346785,1.4281969630837528
6.0445170402526855,2.106007368987832,[2.08992538],5.0,0.5,0.0,3.9972057371035996,0.03409887891720414,1.4378355207117697
6.054799795150757,2.106007368987832,[2.09160655],5.0,0.5,0.0,4.264546746391165,0.022607926827996134,1.4460153672143035
6.0639801025390625,2.1062027677045685,[2.09326186],5.0,0.5,0.0,4.448546589831438,0.010698171531287508,1.4525448122790439
6.073763370513916,2.1062027677045685,[2.09487773],5.0,0.5,0.0,4.7934064082159455,0.0006471686583808844,1.4578602303724848
6.083815574645996,2.1062027677045685,[2.09644125],5.0,0.5,0.0,4.790980536462161,-0.008246351442406933,1.4643250544802837
6.0923473834991455,2.106398166421305,[2.0979405],5.0,0.5,0.0,4.619697821679518,-0.016851240122835974,1.470158448437606
6.105309963226318,2.106398166421305,[2.09936431],5.0,0.5,0.0,4.371150545390133,-0.02738797520746338,1.4761309235183289
6.1131768226623535,2.106398166421305,[2.10070241],5.0,0.5,0.0,4.092494256245876,-0.032349978968290796,1.4812192224364162
6.120784521102905,2.106398166421305,[2.10194711],5.0,0.5,0.0,3.80797762882481,-0.029882867551720566,1.4853668143465748
6.131497621536255,2.1062027677045685,[2.10309305],5.0,0.5,0.0,3.5299364001427245,-0.03603622605480206,1.4888777346959459
6.142501592636108,2.106007368987832,[2.1041353],5.0,0.5,0.0,2.9884104868237866,-0.0378215352903454,1.4926953754949812
6.153414964675903,2.105811970271095,[2.10506944],5.0,0.5,0.0,2.7051098624191763,-0.04418781370926536,1.4944720600959505
6.161403179168701,2.1056165715543584,[2.10589095],5.0,0.5,0.0,2.2502852216541447,-0.0550746602093021,1.4962296335457546
6.1697609424591064,2.1054211728376218,[2.10659628],5.0,0.5,0.0,1.5236047470278806,-0.05078303920509214,1.4979988171347824
6.181758642196655,2.1050303754041484,[2.10718058],5.0,0.5,0.0,1.105211086791639,-0.08884728838110544,1.4981673009012597
6.190850496292114,2.104639577970675,[2.10763457],5.0,0.5,0.0,0.5762796835136853,-0.09876572475457132,1.4979604628037877
6.1997528076171875,2.1042487805372017,[2.10795326],5.0,0.5,0.0,0.38137509707563083,-0.08356517209434366,1.497150872154832
6.211110591888428,2.103662584386992,[2.10813622],5.0,0.5,0.0,0.05044415623967044,-0.11102340264117386,1.4960034216048959
6.21879506111145,2.1030763882367816,[2.1081828],5.0,0.5,0.0,0.01402263785021661,-0.08894941714259659,1.4947983356984569
6.227633953094482,2.1024901920865715,[2.10809729],5.0,0.5,0.0,-0.19685338935035024,-0.08966316273825164,1.4937029632140928
6.236775875091553,2.101903995936362,[2.10788821],5.0,0.5,0.0,-0.14543672286910297,-0.07021136699322113,1.4928476678428657
6.245782375335693,2.1009270023526785,[2.10756732],5.0,0.5,0.0,-0.5696624543366783,-0.05119360305588634,1.490978502772642
6.254894256591797,2.1001454074857318,[2.10714774],5.0,0.5,0.0,-0.7835678398342152,-0.04868561747160573,1.489784567129639
6.26395320892334,2.099363812618785,[2.10664026],5.0,0.5,0.0,-0.8797052366068537,-0.0421273113218973,1.4888907757449759
6.27338171005249,2.098386819035102,[2.10605542],5.0,0.5,0.0,-0.909098772783995,-0.032656208579359254,1.4876925664918295
6.282787322998047,2.097605224168155,[2.10540483],5.0,0.5,0.0,-0.9005068287023243,-0.0232315135797196,1.4873036748757578
6.291021823883057,2.096823629301208,[2.10470062],5.0,0.5,0.0,-0.5944715877297196,-0.013798097922370378,1.4874042886433143
6.3006556034088135,2.0958466357175247,[2.10395503],5.0,0.5,0.0,-0.5197110015689552,-0.0034421341253452783,1.4867358332056217
6.31175684928894,2.094674243417105,[2.10318019],5.0,0.5,0.0,-0.2513504739306387,0.008187186333827123,1.4855869435679971
6.32270073890686,2.0936972498334216,[2.102388],5.0,0.5,0.0,0.03137694029933835,0.018792494842277945,1.4850069751221482
6.332793951034546,2.0929156549664754,[2.10159004],5.0,0.5,0.0,0.2646357600245371,0.028684881195738473,1.4850115510600403
6.3425047397613525,2.0919386613827915,[2.10079752],5.0,0.5,0.0,0.7105092471297939,0.039796058725638114,1.484050997076368
6.353613615036011,2.0913524652325814,[2.10002122],5.0,0.5,0.0,1.4076409432945671,0.048822400367322154,1.4836100946408681
6.363783836364746,2.0907662690823714,[2.09927133],5.0,0.5,0.0,2.3123694288643377,0.05759042226237302,1.481672377272006
6.374778509140015,2.0901800729321613,[2.09855737],5.0,0.5,0.0,3.084297235217882,0.06597688248824186,1.4790307224415917
6.385767936706543,2.0897892754986884,[2.09788805],5.0,0.5,0.0,3.629785372834026,0.07325234497418978,1.4772554569042304
6.394784688949585,2.0895938767819517,[2.09727121],5.0,0.5,0.0,3.9551597664956373,0.07901614283138299,1.4767705941945939
6.403107643127441,2.089398478065215,[2.09671373],5.0,0.5,0.0,4.100374482610245,0.08453676172095635,1.4769941770884216
6.413938045501709,2.089203079348478,[2.09622147],5.0,0.5,0.0,4.386820852380289,0.08937666991353092,1.4760746860885976
6.422890901565552,2.0890076806317412,[2.09579917],5.0,0.5,0.0,4.335638794463849,0.0930356270415232,1.4770184708371614
6.433892488479614,2.0890076806317412,[2.0954502],5.0,0.5,0.0,4.409475667981579,0.09426701824831242,1.4774668848724453
6.442754745483398,2.088812281915005,[2.09517641],5.0,0.5,0.0,4.1805875637582925,0.094993563256424,1.4790899740175882
6.452200889587402,2.088812281915005,[2.09497882],5.0,0.5,0.0,3.847543705739726,0.10021111393125766,1.4815243636323239
6.461215257644653,2.0890076806317412,[2.0948574],5.0,0.5,0.0,3.4980695035537304,0.09345356449113627,1.484153144347309
6.469977617263794,2.0890076806317412,[2.09480877],5.0,0.5,0.0,2.891689635239839,0.08126614027432286,1.4871060809685552
6.478732585906982,2.0890076806317412,[2.09482545],5.0,0.5,0.0,2.5591364014682014,0.06545655995379031,1.488402040507263
6.488982915878296,2.0890076806317412,[2.09489554],5.0,0.5,0.0,2.0711924619394835,0.03382585156175119,1.489907415164816
6.497777223587036,2.0890076806317412,[2.09500363],5.0,0.5,0.0,1.6010677541241636,0.017784914169476203,1.490930942169007
6.508237838745117,2.0890076806317412,[2.09513211],5.0,0.5,0.0,0.9307533606773027,-0.021728231595195224,1.49188188549988
6.517549276351929,2.0890076806317412,[2.09525797],5.0,0.5,0.0,0.3121685828838608,-0.06838526462037799,1.4921446863641634
6.526846170425415,2.0890076806317412,[2.09535166],5.0,0.5,0.0,-0.17597417388303324,-0.11979036321725595,1.4919600477909358
6.536662578582764,2.088812281915005,[2.09537862],5.0,0.5,0.0,-0.5272557860070745,-0.17052616204207133,1.4912068241060448
6.545217037200928,2.0884214844815316,[2.09529953],5.0,0.5,0.0,-0.761397533820461,-0.21392613547714012,1.4901517509578004
6.553861379623413,2.088226085764795,[2.09508027],5.0,0.5,0.0,-1.1802349025141092,-0.21028467075444288,1.4896121896120738
6.562764644622803,2.087639889614585,[2.09469238],5.0,0.5,0.0,-1.84084070192792,-0.24272785854367965,1.48758560936188
6.572004795074463,2.086858294747638,[2.09409427],5.0,0.5,0.0,-2.4316907457218653,-0.23210888471817315,1.485200371793213
6.581970691680908,2.0858813011639548,[2.09323143],5.0,0.5,0.0,-3.4107143582940638,-0.1606212777121584,1.4806682645334845
6.589710235595703,2.0849043075802713,[2.09206238],5.0,0.5,0.0,-4.287786801324611,-0.194189828168674,1.476304454242979
6.598857641220093,2.0837319152798512,[2.09055858],5.0,0.5,0.0,-4.91393376197105,-0.17467635775537813,1.473067034831387
6.60907244682312,2.082168725545958,[2.08867201],5.0,0.5,0.0,-5.0,-0.21652317807912588,1.4733091882291907
6.619831562042236,2.080410137095328,[2.08633604],5.0,0.5,0.0,-5.0,-0.259943953852321,1.474733392509537
6.629747629165649,2.0784561499279612,[2.08348277],5.0,0.5,0.0,-5.0,-0.304896908065901,1.4766914186364342
6.639089584350586,2.0763067640438577,[2.08001686],5.0,0.5,0.0,-5.0,-0.4263080255210697,1.478982888812347
6.648776292800903,2.0743527768764913,[2.07584792],5.0,0.5,0.0,-5.0,-0.3818851063901095,1.4812850691166701
6.658007383346558,2.072007992275651,[2.07094517],5.0,0.5,0.0,-5.0,-0.4404614601619033,1.481506170015145
6.6670074462890625,2.0690770115246013,[2.06527502],5.0,0.5,0.0,-5.0,-0.49805819992244055,1.4788452089856412
6.677765607833862,2.0659506320568144,[2.05877579],5.0,0.5,0.0,-5.0,-0.5558804548118403,1.4714892141051972
6.685747385025024,2.063215050022501,[2.05142681],5.0,0.5,0.0,-5.0,-0.5186493538594656,1.4543221803534236
6.69754433631897,2.058525480820821,[2.04320806],5.0,0.5,0.0,-5.0,-0.6976803812438988,1.4358913183895767
6.705726623535156,2.055399101353034,[2.03406892],5.0,0.5,0.0,-5.0,-0.6456453271696113,1.3947540644400303
6.714772701263428,2.0516865257350374,[2.02400764],5.0,0.5,0.0,-5.0,-0.7264966414956522,1.3396694856955973
6.724766254425049,2.0475831526835675,[2.01302518],5.0,0.5,0.0,-5.0,-0.8016087167687146,1.2692644835810631
6.735601425170898,2.043088982198624,[2.00104819],5.0,0.5,0.0,-5.0,-0.9845027816557043,1.1839681585724824
6.745445966720581,2.038790210430417,[1.98797975],5.0,0.5,0.0,-4.999707661639605,-1.0229777213146751,1.0784342598072623
6.753766059875488,2.0352730335291573,[1.97382917],5.0,0.5,0.0,-4.160715920499662,-0.9581872957670797,0.9572557610025834
6.76407265663147,2.0307788630442136,[1.95865647],5.0,0.5,0.0,-2.3330277323992585,-1.1572843461222677,0.8493033523477652
6.7718751430511475,2.027652483576427,[1.94248322],5.0,0.5,0.0,-0.5062437113278511,-1.097653782781377,0.734201207792671
6.783409118652344,2.0231583130914834,[1.92538252],5.0,0.5,0.0,0.979235128492543,-1.1845553812489196,0.6470681132799603
6.79309606552124,2.01925033875675,[1.90742961],5.0,0.5,0.0,2.336860258521036,-1.2706497059616177,0.5779727688543786
6.80234169960022,2.0155377631387537,[1.88866018],5.0,0.5,0.0,3.6433637558675525,-1.35454455123624,0.5301874270505622
6.810770511627197,2.0120205862374934,[1.86915855],5.0,0.5,0.0,4.641450057924226,-1.3275778892061247,0.5010929428435417
6.82079815864563,2.0077218144692868,[1.84904935],5.0,0.5,0.0,5.0,-1.4383105369023703,0.4882357222971918
6.831990718841553,2.003032245267607,[1.82837199],5.0,0.5,0.0,5.0,-1.642390775949203,0.4839721488158149
6.842067003250122,1.99931966964961,[1.80709559],5.0,0.5,0.0,5.0,-1.7055375369422368,0.4823494463092379
6.849713325500488,1.9961932901818233,[1.78528524],5.0,0.5,0.0,5.0,-1.6752212581859112,0.4818689373584943
6.859137535095215,1.9924807145638264,[1.76308512],5.0,0.5,0.0,5.0,-1.7770871567718818,0.48175893300366823
6.868710994720459,1.9883773415123565,[1.7405921],5.0,0.5,0.0,4.83166797584865,-1.8705940169358686,0.48292513186386143
6.8781211376190186,1.9842739684608863,[1.71786317],5.0,0.5,0.0,4.673998138900069,-1.9586105017804771,0.48399993821998866
6.886996030807495,1.9803659941261529,[1.69495849],5.0,0.5,0.0,4.769669177262913,-2.0437173227455445,0.4833487434186985
6.895787000656128,1.9768488172248928,[1.67197157],5.0,0.5,0.0,4.319425730702464,-2.0417005442335068,0.4863025209060433
6.905918121337891,1.972745444173423,[1.64902182],5.0,0.5,0.0,4.003149325753602,-2.1483955906515746,0.4882120101147409
6.914992332458496,1.9688374698386895,[1.6261854],5.0,0.5,0.0,3.7420650332348093,-2.246089380416054,0.4896840277243551
6.92438268661499,1.9653202929374292,[1.6035021],5.0,0.5,0.0,3.5034538360982888,-2.337662272328411,0.4909460643033224
6.931847810745239,1.9621939134696424,[1.58104005],5.0,0.5,0.0,3.275373657097659,-2.3501183730497535,0.4920774547776978
6.9406418800354,1.958481337851646,[1.55888928],5.0,0.5,0.0,3.054715216061663,-2.4542624632656524,0.49310181365615036
6.9506964683532715,1.9545733635169122,[1.53710152],5.0,0.5,0.0,2.8417150958544264,-2.5465898135814786,0.4940247003504031
6.959507465362549,1.9510561866156522,[1.51569639],5.0,0.5,0.0,2.637550396643141,-2.6320029465465065,0.4948481746256904
6.968065977096558,1.9475390097143923,[1.49469432],5.0,0.5,0.0,2.4433713910829606,-2.710589615748021,0.49557557316510154
6.976738214492798,1.9440218328131322,[1.47413831],5.0,0.5,0.0,2.259981333241922,-2.7223311046038474,0.4962123815632385
6.987775802612305,1.9391368648947156,[1.45406737],5.0,0.5,0.0,2.0877896515573378,-2.8635252560090225,0.49676576371525843
6.9991044998168945,1.9348380931265086,[1.43447165],5.0,0.5,0.0,1.6508284310179122,-2.9199264391409625,0.49797544390502557
7.008835792541504,1.9309301187917753,[1.41534452],5.0,0.5,0.0,1.4678624693760374,-2.976091237702717,0.49839866930153254
7.018778562545776,1.9266313470235685,[1.39670421],5.0,0.5,0.0,1.383832164178691,-3.0288503206862267,0.4985765095170664
7.027098894119263,1.9229187714055718,[1.37856709],5.0,0.5,0.0,1.3310189123738503,-3.0828327969971268,0.49868294924548456
7.038755178451538,1.9178384047704187,[1.36094747],5.0,0.5,0.0,1.006281482977097,-3.1282268835681113,0.49924678611829204
7.0497307777404785,1.9137350317189483,[1.34385741],5.0,0.5,0.0,0.9196475618640714,-3.1765473632245413,0.4993708182320644
7.059727430343628,1.9096316586674782,[1.32730665],5.0,0.5,0.0,1.1911460043662772,-3.2230024383618754,0.49894493780708893
7.069758653640747,1.905528285616008,[1.31130253],5.0,0.5,0.0,1.2360462521460178,-3.2674449873529547,0.49886398964824413
7.079729318618774,1.9014249125645382,[1.29584993],5.0,0.5,0.0,0.9085799194425472,-3.309803241992521,0.4993858618302364
7.088699579238892,1.8977123369465414,[1.28095136],5.0,0.5,0.0,1.06460391136125,-3.3520663990718047,0.4991570216285639
7.098462820053101,1.8934135651783346,[1.26660697],5.0,0.5,0.0,1.0578536227286643,-3.389338090566307,0.4991676689371269
7.107954502105713,1.889700989560338,[1.25281466],5.0,0.5,0.0,0.987278327126105,-3.4273273481518647,0.4992749452459222
7.11710524559021,1.8857930152256044,[1.23957023],5.0,0.5,0.0,0.8977133455180564,-3.4622932398921984,0.4994004553537052
7.126567125320435,1.8820804396076078,[1.22686745],5.0,0.5,0.0,0.8082784713756032,-3.496107671716079,0.49951390908291454
7.134720325469971,1.8787586614230845,[1.21470877],5.0,0.5,0.0,0.726178776267664,-3.500842128405571,0.4996076051414409
7.1431214809417725,1.8752414845218242,[1.20310321],5.0,0.5,0.0,0.6533258055641042,-3.540936648164887,0.4996823650249182
7.151730060577393,1.871333510187091,[1.19205344],5.0,0.5,0.0,0.5894524348856661,-3.6216656575746473,0.49974142181421144
7.164209604263306,1.8660577448352007,[1.18154718],5.0,0.5,0.0,0.2574946469468985,-3.6047699152185744,0.49995064608029494
7.17315149307251,1.8627359666506773,[1.1715509],5.0,0.5,0.0,0.17523408027398096,-3.6300131732743557,0.49997714222806755
7.180738687515259,1.8598049858996273,[1.1620415],5.0,0.5,0.0,0.4629410772320339,-3.7268468835490904,0.4998404896648832
7.189694881439209,1.8562878089983674,[1.15301431],5.0,0.5,0.0,0.5335196476516517,-3.753905180146403,0.49978815632991735
7.199705362319946,1.8519890372301604,[1.14445277],5.0,0.5,0.0,0.5143707005743325,-3.777242295979369,0.49980308736299295
7.208711624145508,1.848667259045637,[1.13633072],5.0,0.5,0.0,0.46379534440080866,-3.8048669124043046,0.4998399005258526
7.21725058555603,1.8451500821443771,[1.12862309],5.0,0.5,0.0,0.4071444580385063,-3.8299215967258604,0.49987661847290266
7.225742816925049,1.8418283039598535,[1.12131299],5.0,0.5,0.0,0.3544151858677763,-3.856570837991041,0.4999065044992771
7.234731435775757,1.8377249309083836,[1.11439024],5.0,0.5,0.0,0.30871425294874133,-3.8714211689928075,0.4999290603197918
7.243787527084351,1.834012355290387,[1.1078359],5.0,0.5,0.0,0.27025505148799367,-3.885598228771747,0.4999456335839998
7.253084421157837,1.8297135835221803,[1.10162405],5.0,0.5,0.0,0.23819187521655755,-3.8947212013757095,0.49995776794441804
7.264727592468262,1.8252194130372366,[1.09573052],5.0,0.5,0.0,0.21142192004494054,-3.9006983187650404,0.49996672697779543
7.277394533157349,1.8197482489686099,[1.09012698],5.0,0.5,0.0,0.18890561050958304,-3.9032833779333425,0.4999734365272117
7.286952018737793,1.8158402746338766,[1.08478215],5.0,0.5,0.0,0.1697702063547608,-3.910035732489471,0.4999785454054984
7.296654224395752,1.81212769901588,[1.07967428],5.0,0.5,0.0,0.1533219380456068,-3.913611616230654,0.4999825012238264
7.306158542633057,1.8082197246811464,[1.07478969],5.0,0.5,0.0,0.13902423520090318,-3.9134677694210014,0.4999856126285538
7.3162171840667725,1.8039209529129396,[1.07011562],5.0,0.5,0.0,0.12646728715385547,-3.9094593554313657,0.49998809421844537
7.3236916065216064,1.8009899721618894,[1.0656449],5.0,0.5,0.0,0.11533907483470907,-3.8892453195895174,0.49999009726171095
7.331930637359619,1.797668193977366,[1.06137494],5.0,0.5,0.0,0.10540120686264157,-3.8936836127569743,0.4999917302143847
7.339725732803345,1.7947372132263162,[1.05730178],5.0,0.5,0.0,0.09647001020264115,-3.871266018596411,0.49999307231207474
7.3497045040130615,1.7906338401748463,[1.05342033],5.0,0.5,0.0,0.08840224894807819,-3.875728489889859,0.4999941825752266
7.359707355499268,1.7861396696899028,[1.04972035],5.0,0.5,0.0,0.08108456154507936,-3.873679829482111,0.49999510580921325
7.370916366577148,1.7814501004882224,[1.04618352],5.0,0.5,0.0,0.0744257437902864,-3.88978085227165,0.4999958766400179
7.379364967346191,1.7777375248702258,[1.04279353],5.0,0.5,0.0,0.06835114851022621,-3.855857980597707,0.49999652226250335
7.388970136642456,1.7742203479689658,[1.03954393],5.0,0.5,0.0,0.33883699186661526,-3.8529525803871514,0.4999145423012166
7.3983917236328125,1.7703123736342323,[1.03642864],5.0,0.5,0.0,0.3668785826452678,-3.8461789109504076,0.4998998138054945
7.408092975616455,1.7662090005827624,[1.03343794],5.0,0.5,0.0,0.30712267885422534,-3.836743297264445,0.49992978984106745
7.417697429656982,1.762301026248029,[1.03056311],5.0,0.5,0.0,0.2267641313857584,-3.826944697420775,0.4999617229223844
7.427014589309692,1.7589792480635058,[1.02779634],5.0,0.5,0.0,0.15231848709557716,-3.8190486489035713,0.4999827295199401
7.436709880828857,1.7548758750120355,[1.02513065],5.0,0.5,0.0,0.09209364819873136,-3.806506396187712,0.49999368660025517
7.446121454238892,1.7507725019605653,[1.02255983],5.0,0.5,0.0,0.046785504250628815,-3.7932323506047116,0.4999983705966796
7.454699516296387,1.7470599263425688,[1.0200812],5.0,0.5,0.0,0.014327657375083541,-3.759164758439266,0.4999998471881675
7.465726375579834,1.742761154574362,[1.01769503],5.0,0.5,0.0,-0.007997334825192305,-3.7510419911285364,0.4999999523901062
7.4746997356414795,1.739048578956365,[1.01539814],5.0,0.5,0.0,-0.022721831284153365,-3.7434385137968884,0.499999615679837
7.484701871871948,1.7347498071881584,[1.01318453],5.0,0.5,0.0,-0.03192865181169533,-3.731033717702664,0.49999924112978505
7.49471378326416,1.730646434136688,[1.0110489],5.0,0.5,0.0,-0.037226340967470295,-3.718109373345588,0.49999896841046193
7.50512433052063,1.7261522636517448,[1.0089842],5.0,0.5,0.0,-0.03981201279025279,-3.720930546263968,0.4999988201292553
7.513706207275391,1.7226350867504847,[1.00698431],5.0,0.5,0.0,-0.04055539323195001,-3.6849722763100647,0.49999877565622597
7.521894454956055,1.7191179098492249,[1.00504857],5.0,0.5,0.0,-0.04007764884631185,-3.675053142858227,0.4999988043319414
7.530926942825317,1.7152099355144914,[1.0031759],5.0,0.5,0.0,-0.03881654191337054,-3.6637562545681055,0.4999988783951645
7.539417266845703,1.711888157329968,[1.00136456],5.0,0.5,0.0,-0.037077004054462695,-3.6360896257960045,0.4999989766704861
7.5482258796691895,1.708370980428708,[0.99961444],5.0,0.5,0.0,-0.03506899958200587,-3.6332816371851187,0.4999990845112085
7.557701110839844,1.7048538035274479,[0.99792212],5.0,0.5,0.0,-0.03293524171470241,-3.6288923411757197,0.4999991925269527
7.567689657211304,1.7005550317592413,[0.99628153],5.0,0.5,0.0,-0.0307711823484562,-3.61840402585876,0.49999929515319264
7.578253269195557,1.695865462557561,[0.99468706],5.0,0.5,0.0,-0.028639282991042334,-3.603748644323106,0.4999993894367058
7.587632656097412,1.6921528869395643,[0.99313389],5.0,0.5,0.0,-0.026579128638415342,-3.5921368208639337,0.4999994741184612
7.5988194942474365,1.6876587164546208,[0.99161801],5.0,0.5,0.0,-0.024614555960721162,-3.5753553165388277,0.49999954898551435
7.608687400817871,1.6835553434031507,[0.99013622],5.0,0.5,0.0,-0.022758654719508633,-3.559318023710735,0.4999996144331548
7.617823839187622,1.6798427677851542,[0.98868609],5.0,0.5,0.0,-0.021017263060096103,-3.544391714042315,0.49999967117952476
7.627686977386475,1.6755439960169474,[0.98726588],5.0,0.5,0.0,-0.01939140074455044,-3.525872381943416,0.49999972008580884
7.6381516456604,1.671049825532004,[0.98587448],5.0,0.5,0.0,-0.017878955908832254,-3.5057490290918283,0.49999976204716756
7.64573860168457,1.6677280473474807,[0.98451302],5.0,0.5,0.0,-0.016475848549435686,-3.476664033295687,0.49999979792984717
7.65470290184021,1.6640154717294837,[0.98318595],5.0,0.5,0.0,-0.015176828073136778,-3.450461676865238,0.4999998285377061
7.662674188613892,1.6606936935449603,[0.98190018],5.0,0.5,0.0,-0.01397601552678782,-3.440121434021368,0.499999854597002
7.67069673538208,1.65776271279391,[0.98066434],5.0,0.5,0.0,-0.012867268131340955,-3.431627090507434,0.499999876752158
7.681483745574951,1.6534639410257037,[0.97948208],5.0,0.5,0.0,-0.011844420502066686,-3.4328233005360036,0.499999895567839
7.6909613609313965,1.6495559666909703,[0.97834828],5.0,0.5,0.0,-0.010901440601063947,-3.4151097547912106,0.499999911534401
7.7003865242004395,1.6454525936395,[0.97725706],5.0,0.5,0.0,-0.010032527002555717,-3.395634683647182,0.4999999250749024
7.708678245544434,1.6421308154549765,[0.97620644],5.0,0.5,0.0,-0.009232166013043362,-3.3685490338916027,0.49999993655259584
7.718194961547852,1.6382228411202433,[0.97519605],5.0,0.5,0.0,-0.00849516155957842,-3.3532836327933215,0.4999999462782765
7.726942539215088,1.6345102655022465,[0.97422434],5.0,0.5,0.0,-0.007816646818114188,-3.3376937947834993,0.49999995451715373
7.736037015914917,1.6304068924507764,[0.97328878],5.0,0.5,0.0,0.26884627587570475,-3.3193337286024587,0.499946198874806
7.745292901992798,1.6264989181160432,[0.97238735],5.0,0.5,0.0,0.30254570762915806,-3.301182852886739,0.4999318667547496
7.755232572555542,1.6220047476310997,[0.97151763],5.0,0.5,0.0,-0.028060904903588785,-3.287456159157182,0.49999941384865654
7.766249418258667,1.6180967732963663,[0.97067686],5.0,0.5,0.0,0.13925464290092576,-3.2657826003949424,0.49998556490075663
7.774988889694214,1.6147749951118429,[0.96986382],5.0,0.5,0.0,0.15740175685771324,-3.247624865942461,0.49998155758388546
7.783689737319946,1.6108670207771094,[0.96907924],5.0,0.5,0.0,0.1221798623814669,-3.2206953631981716,0.49998888777279504
7.792680025100708,1.6069590464423762,[0.96832446],5.0,0.5,0.0,0.07499914879169298,-3.2028946764533197,0.4999958128595802
7.8023810386657715,1.6032464708243792,[0.9675998],5.0,0.5,0.0,-0.24400631843480314,-3.1856289889834435,0.49995568103884924
7.810591220855713,1.599924692639856,[0.96690474],5.0,0.5,0.0,-0.03492352238067249,-3.170233033998522,0.4999990920909163
7.818684101104736,1.5966029144553326,[0.96623938],5.0,0.5,0.0,0.028858685789436865,-3.1494371844618962,0.4999993800459444
7.827761888504028,1.5930857375540726,[0.96560426],5.0,0.5,0.0,0.033389180879034044,-3.134538607916847,0.49999917011513423
7.839060544967651,1.5883961683523924,[0.96499861],5.0,0.5,0.0,0.017579160119147702,-3.117776381910581,0.49999976996028583
7.851244926452637,1.5831204030005024,[0.96442015],5.0,0.5,0.0,-0.001987552721297005,-3.095636123992349,0.49999999705934556
7.85966157913208,1.5796032260992423,[0.96386741],5.0,0.5,0.0,-0.01902239433934481,-3.0728607051540577,0.49999973063763326
7.8701112270355225,1.5751090556142986,[0.96334007],5.0,0.5,0.0,-0.03177708478422627,-3.054837233917577,0.49999924831747433
7.878138542175293,1.5717872774297754,[0.96283771],5.0,0.5,0.0,-0.040348850349506596,-3.0341437155978945,0.4999987880952742
7.887427568435669,1.5682701005285153,[0.96236023],5.0,0.5,0.0,-0.32149925212066777,-3.0175068935494966,0.499923063363845
7.895657300949097,1.5647529236272555,[0.96190771],5.0,0.5,0.0,-0.3571050477093409,-2.9976516092178285,0.49990508006613893
7.903662919998169,1.5614311454427319,[0.96147999],5.0,0.5,0.0,-0.026556758694236432,-2.9831749990737952,0.49999947500328956
7.913693904876709,1.557132373674525,[0.96107637],5.0,0.5,0.0,-0.19266906760273406,-2.9632948255815243,0.4999723675962582
7.925902843475342,1.5522474057561084,[0.96069541],5.0,0.5,0.0,-0.20879436186004446,-2.9430440382770633,0.49996754884821243
7.934956789016724,1.5485348301381114,[0.96033542],5.0,0.5,0.0,-0.1710544991483765,-2.9246285499871774,0.4999782195815427
7.945650100708008,1.5442360583699049,[0.95999514],5.0,0.5,0.0,-0.12108797581822384,-2.903510946270999,0.4999890854967672
7.9546637535095215,1.5403280840351714,[0.95967369],5.0,0.5,0.0,-0.07522505149177612,-2.884386425286298,0.49999578759777685
7.964651107788086,1.5362247109837017,[0.95937014],5.0,0.5,0.0,-0.3145331007273149,-2.8642556316218393,0.49992636108091454
7.973667860031128,1.5327075340824412,[0.95908359],5.0,0.5,0.0,-0.3203849172076867,-2.847116164522578,0.49992359573250067
7.9832985401153564,1.5289949584644444,[0.95881311],5.0,0.5,0.0,-0.24610736260320842,-2.8290811044763537,0.49995491456056734
7.992804527282715,1.5248915854129745,[0.95855778],5.0,0.5,0.0,-0.15718759753290432,-2.8091371318167915,0.49998160773397227
8.001750230789185,1.5207882123615046,[0.95831672],5.0,0.5,0.0,-0.07856154488566044,-2.789155257315038,0.4999954056432997
8.01264214515686,1.5160986431598242,[0.95808905],5.0,0.5,0.0,-0.01724627910287719,-2.7662678592032957,0.49999977858991457
8.021950721740723,1.5125814662585644,[0.95787391],5.0,0.5,0.0,0.027051968159958962,-2.7491729751146083,0.49999945524130107
8.031034708023071,1.508673491923831,[0.95767047],5.0,0.5,0.0,0.05712944486157695,-2.730153317759404,0.4999975704511923
8.039440631866455,1.505547112456044,[0.95747793],5.0,0.5,0.0,0.0762275595307697,-2.7149606949918024,0.49999567457457766
8.048131942749023,1.5018345368380475,[0.95729553],5.0,0.5,0.0,0.08724694712405248,-2.696890494364215,0.49999433363308154
8.05564022064209,1.4987081573702605,[0.95712272],5.0,0.5,0.0,0.09252433759066983,-2.6799520830040646,0.49999362741148046
8.06467056274414,1.4948001830355275,[0.95695916],5.0,0.5,0.0,0.09383980874275552,-2.6614349403660524,0.49999344491909264
8.074664831161499,1.4906968099840574,[0.95680426],5.0,0.5,0.0,0.09250352465177268,-2.641695784708666,0.4999936302781107
8.083040714263916,1.4875704305162705,[0.9566573],5.0,0.5,0.0,0.08945722705394729,-2.6266376603253043,0.4999940428991534
8.090649127960205,1.484248652331747,[0.95651776],5.0,0.5,0.0,0.08536561492586797,-2.609058000434997,0.4999945753681988
8.100945472717285,1.4803406779970136,[0.95638514],5.0,0.5,0.0,0.08069043044424831,-2.5919260563123414,0.49999515327214256
8.108678102493286,1.4768235010957538,[0.95625883],5.0,0.5,0.0,0.07574733555099872,-2.573196772379864,0.4999957289019421
8.117713451385498,1.473110925477757,[0.95613837],5.0,0.5,0.0,0.07074819350833297,-2.5553373651682323,0.49999627406077046
8.126700162887573,1.4693983498597603,[0.95602338],5.0,0.5,0.0,0.06583186294948185,-2.5373312745716055,0.4999967739019352
8.135648488998413,1.4658811729585002,[0.95591347],5.0,0.5,0.0,-0.21495204153937295,-2.518752703512644,0.4999656066177449
8.145529508590698,1.4617777999070298,[0.95580842],5.0,0.5,0.0,-0.25259857880372744,-2.498960465795908,0.4999525050042414
8.154656171798706,1.45767442685556,[0.95570787],5.0,0.5,0.0,-0.20177085879591405,-2.479010940442266,0.4999696952714098
8.162916898727417,1.4543526486710365,[0.95561137],5.0,0.5,0.0,-0.1296904444423498,-2.4628156205454115,0.4999874796290884
8.170923709869385,1.4510308704865131,[0.9555185],5.0,0.5,0.0,-0.06290565590336583,-2.446583538313243,0.4999970543252905
8.180385112762451,1.447513693585253,[0.9554289],5.0,0.5,0.0,-0.009760300828253396,-2.4292963455751275,0.4999999290858255
8.190307855606079,1.4436057192505198,[0.95534226],5.0,0.5,0.0,0.029012662817193384,-2.410051844124929,0.49999937341270506
8.20012640953064,1.4396977449157864,[0.95525824],5.0,0.5,0.0,0.3314810610545498,-2.3914923334879443,0.49991821218733
8.207669496536255,1.4361805680145263,[0.95517649],5.0,0.5,0.0,0.3813742611540356,-2.37392209428644,0.49989174139823955
8.216655015945435,1.432663391113266,[0.95509636],5.0,0.5,0.0,0.05984368862164999,-2.360203687255782,0.4999973341099933
8.224694967269897,1.4291462142120062,[0.95501671],5.0,0.5,0.0,0.231164065177008,-2.3439483860717125,0.499960223181252
8.232657194137573,1.4258244360274828,[0.95493574],5.0,0.5,0.0,0.24981924733218766,-2.335354758721224,0.4999535443768239
8.240680694580078,1.4226980565596958,[0.95485103],5.0,0.5,0.0,0.21277392131304618,-2.321650739987113,0.4999663000827701
8.251976013183594,1.4178130886412792,[0.95475819],5.0,0.5,0.0,-0.11376000312911277,-2.3213180510710405,0.49999036655366885
8.260629415512085,1.414491310456756,[0.95464932],5.0,0.5,0.0,-0.19406433090311742,-2.319681255614442,0.4999719659438735
8.268631219863892,1.410778734838759,[0.95451718],5.0,0.5,0.0,-0.17749613430209477,-2.3005863641343094,0.49997654830225685
8.276657342910767,1.4074569566542359,[0.95435639],5.0,0.5,0.0,0.1452853710837473,-2.3047013736285162,0.49998428756024843
8.287448167800903,1.4029627861692924,[0.95415878],5.0,0.5,0.0,0.2275572917433898,-2.3027145080776887,0.49996145469845127
8.295739650726318,1.3996410079847688,[0.95391391],5.0,0.5,0.0,0.21402277369486328,-2.30498129924688,0.4999659033396679
8.303643226623535,1.3967100272337187,[0.95361436],5.0,0.5,0.0,-0.10639649215150168,-2.282822835562819,0.49999157329801697
8.315737962722778,1.3918250593153023,[0.95325302],5.0,0.5,0.0,0.08860049098523957,-2.3046350189860942,0.49999415645497525
8.323650598526001,1.3885032811307787,[0.95282082],5.0,0.5,0.0,0.13541051392812414,-2.273921888141192,0.4999863508527108
8.331952095031738,1.3851815029462553,[0.95231327],5.0,0.5,0.0,0.12398550516221804,-2.274269413787673,0.4999885569041078
8.341142654418945,1.3812735286115219,[0.95172678],5.0,0.5,0.0,0.09449174178972686,-2.2684931315531665,0.4999933535231283
8.349721431732178,1.377756351710262,[0.95105916],5.0,0.5,0.0,0.06364975357310194,-2.236233911501165,0.4999969842258191
8.358050107955933,1.3744345735257386,[0.95031275],5.0,0.5,0.0,0.037469817675000766,-2.235561082606565,0.49999895487224544
8.366215705871582,1.3705265991910052,[0.94948769],5.0,0.5,0.0,0.017315612632043405,-2.227646544053179,0.4999997768061103
8.378674983978271,1.3656416312725883,[0.9485825],5.0,0.5,0.0,0.0027232045310164373,-2.2114601130838842,0.4999999944796434
8.388972997665405,1.3615382582211184,[0.94759509],5.0,0.5,0.0,-0.007338425869909372,-2.2168130022410995,0.49999995991217755
8.396629095077515,1.3586072774700682,[0.94652585],5.0,0.5,0.0,-0.01394137496477111,-2.1780508760982884,0.49999985531689406
8.404640436172485,1.3552854992855448,[0.94538534],5.0,0.5,0.0,-0.018008771851519216,-2.1438063770450526,0.4999997585791591
8.413375616073608,1.351572923667548,[0.94418742],5.0,0.5,0.0,-0.02027081025655102,-2.1314402179830845,0.49999969412163925
8.422726154327393,1.347469550616078,[0.94294123],5.0,0.5,0.0,-0.021278486210422196,-2.1124963934324086,0.49999966295493115
8.43121862411499,1.343952373714818,[0.94165491],5.0,0.5,0.0,-0.02143545718919578,-2.092772528693591,0.49999965796384366
8.438716411590576,1.3410213929637678,[0.94033951],5.0,0.5,0.0,-0.02103145119385719,-2.0624503064031665,0.49999967073543244
8.449658393859863,1.3367226211955612,[0.93900812],5.0,0.5,0.0,-0.020271194337559265,-2.040060119359152,0.49999969411006234
8.457649230957031,1.3334008430110378,[0.93767255],5.0,0.5,0.0,-0.019297419174714954,-2.0196207522500247,0.49999972279249943
8.466474771499634,1.3298836661097777,[0.93634364],5.0,0.5,0.0,-0.01820833936799323,-1.9960964650059716,0.49999975319884693
8.477264642715454,1.3251940969080978,[0.9350327],5.0,0.5,0.0,-0.017070556556800866,-1.9655118315575146,0.4999997830788877
8.486119985580444,1.3216769200068375,[0.93375123],5.0,0.5,0.0,0.2601099362449726,-1.940117764642017,0.49994963849648494
8.494956493377686,1.3177689456721042,[0.93251055],5.0,0.5,0.0,0.2943522091178301,-1.9125444332932626,0.4999355068984649
8.50393557548523,1.3142517687708442,[0.93132113],5.0,0.5,0.0,0.24033011681831304,-1.8906822249623754,0.49995700634214235
8.511703729629517,1.3109299905863208,[0.93019229],5.0,0.5,0.0,0.16526713506838653,-1.8670058120972635,0.49997966843370034
8.519627571105957,1.3079990098352705,[0.92913202],5.0,0.5,0.0,0.09570774782715358,-1.851578554929828,0.49999318135805687
8.53015422821045,1.303700238067064,[0.92814784],5.0,0.5,0.0,0.039988308619521865,-1.8155420570925611,0.4999988096572698
8.540194511413574,1.2992060675821204,[0.92724778],5.0,0.5,0.0,-0.0011678335751780337,-1.7874645959494042,0.4999999989857215
8.548653602600098,1.2956888906808604,[0.92643755],5.0,0.5,0.0,-0.30583927279054174,-1.7743631016520882,0.4999303753649459
8.557638168334961,1.2921717137796,[0.92571995],5.0,0.5,0.0,-0.35776663324347724,-1.7500014785055862,0.499904728071955
8.565652132034302,1.2886545368783402,[0.92509664],5.0,0.5,0.0,-0.3141510022498947,-1.737542325834537,0.4999265398772469
8.574188470840454,1.2855281574105535,[0.92456822],5.0,0.5,0.0,0.03175067380631119,-1.7145200160962237,0.4999992495712694
8.582110404968262,1.281815581792557,[0.9241357],5.0,0.5,0.0,0.1328477701576638,-1.6897442620314413,0.49998686260515285
8.592193603515625,1.2777122087410866,[0.92380035],5.0,0.5,0.0,-0.1417231893832717,-1.664069407586977,0.49998504860782966
8.600644826889038,1.2743904305565632,[0.92356098],5.0,0.5,0.0,-0.20735174265747058,-1.6556841981883157,0.49996799573347683
8.611500024795532,1.26989626007162,[0.92341566],5.0,0.5,0.0,-0.1907431950797462,-1.613785934705666,0.4999729172712598
8.620659589767456,1.2661836844536232,[0.9233631],5.0,0.5,0.0,0.1275173529520467,-1.6059522513717202,0.4999878957530747
8.628820419311523,1.2624711088356266,[0.92339967],5.0,0.5,0.0,0.20487177309002452,-1.5822298183837795,0.4999687567701944
8.636695146560669,1.2591493306511032,[0.9235212],5.0,0.5,0.0,-0.0885397407357719,-1.5612485574310464,0.499994164629922
8.646995544433594,1.2550459575996329,[0.92372447],5.0,0.5,0.0,-0.16848886110361322,-1.5373670141222044,0.4999788683266358
8.654632329940796,1.2523103755653198,[0.9240042],5.0,0.5,0.0,0.1135474681038833,-1.533305796295481,0.4999904029499906
8.664637327194214,1.2480116037971127,[0.92435342],5.0,0.5,0.0,0.18115528022924457,-1.5059558593092448,0.4999755722255359
8.673648595809937,1.2441036294623793,[0.92476658],5.0,0.5,0.0,0.1646977621876753,-1.4817992486029363,0.49997980966882394
8.6819326877594,1.240781851277856,[0.92523935],5.0,0.5,0.0,-0.1537165965646493,-1.4614640905737997,0.4999824132715535
8.690098524093628,1.237264674376596,[0.92576702],5.0,0.5,0.0,-0.23097937102552318,-1.4410222296447135,0.49996029044726314
8.698086738586426,1.2339428961920726,[0.92634337],5.0,0.5,0.0,0.06289870393391556,-1.433134930394026,0.49999706102460184
8.705631494522095,1.2304257192908123,[0.92695976],5.0,0.5,0.0,0.14365415403864806,-1.4209742636656197,0.49998464842615425
8.714035034179688,1.2267131436728156,[0.92760817],5.0,0.5,0.0,0.13871673357175562,-1.3947075765619634,0.4999856931569298
8.721674919128418,1.2239775616385025,[0.92828363],5.0,0.5,0.0,0.10545971786666505,-1.3751806344387578,0.4999917464694214
8.72965145111084,1.2208511821707155,[0.9289814],5.0,0.5,0.0,0.06813710886443196,-1.3650160062639916,0.499996583881116
8.738349914550781,1.217138606552719,[0.92969575],5.0,0.5,0.0,0.03577902922459335,-1.3398700842668974,0.4999991136569279
8.745760917663574,1.214207625801669,[0.93042139],5.0,0.5,0.0,0.01073821482027336,-1.329385984348473,0.5000000152869785
8.75463056564331,1.210495050183672,[0.93115351],5.0,0.5,0.0,-0.007317544019202124,-1.3040120185658044,0.5000001269617796
8.764304637908936,1.2061962784154654,[0.93188868],5.0,0.5,0.0,-0.019605710259056938,-1.2773866309578064,0.5000000051589222
8.772919178009033,1.202874500230942,[0.93262469],5.0,0.5,0.0,-0.027466691573152784,-1.2568690338196924,0.499999891583315
8.780705690383911,1.1997481207631555,[0.93335926],5.0,0.5,0.0,-0.03207893259258486,-1.2382381856297773,0.4999999198206637
8.788626194000244,1.1966217412953686,[0.9340893],5.0,0.5,0.0,-0.034383806252365395,-1.227623658318895,0.500000151271504
8.798646211624146,1.1927137669606351,[0.93481113],5.0,0.5,0.0,-0.03509517595198481,-1.2036907192434814,0.5000007530322935
8.806609869003296,1.1891965900593753,[0.93552153],5.0,0.5,0.0,-0.034737135022017515,-1.1894633895638245,0.500001675350613
8.815950393676758,1.1850932170079052,[0.93621847],5.0,0.5,0.0,-0.03368592602572622,-1.157512428907835,0.5000033247401449
8.824988842010498,1.1815760401066449,[0.93690157],5.0,0.5,0.0,-0.03220701550918514,-1.1382631616498957,0.5000055394542527
8.834181785583496,1.1774726670551747,[0.93757042],5.0,0.5,0.0,-0.03048489391503964,-1.1164619487526526,0.5000093313090498
8.841628074645996,1.1743462875873882,[0.93822315],5.0,0.5,0.0,-0.028645842729826027,-1.1050772376160833,0.5000137525521617
8.851031064987183,1.1702429145359179,[0.93885754],5.0,0.5,0.0,-0.026774809828814396,-1.081587370606985,0.5000218352696291
8.858640193939209,1.1675073325016045,[0.93947182],5.0,0.5,0.0,-0.02492767734848897,-1.070501755656886,0.500029968734715
8.86817455291748,1.1635993581668713,[0.94006457],5.0,0.5,0.0,-0.023140063846661157,-1.0473690944433138,0.5000452946327242
8.876920938491821,1.1600821812656115,[0.94063525],5.0,0.5,0.0,-0.021433581255160206,-1.026867943672763,0.500065293705267
8.885945081710815,1.1565650043643512,[0.94118405],5.0,0.5,0.0,-0.01982025153410112,-1.0070883048084958,0.500093184924624
8.893630504608154,1.1534386248965642,[0.94171071],5.0,0.5,0.0,-0.018305606665942963,-0.9938194075259399,0.5001274613697987
8.902575254440308,1.149530650561831,[0.94221466],5.0,0.5,0.0,-0.016890853565350993,-0.9714254216791451,0.5001846342689458
8.912186622619629,1.1460134736605712,[0.94269602],5.0,0.5,0.0,-0.015574378460253597,-0.9515311322021844,0.5002565207256782
8.92107081413269,1.1421054993258377,[0.94315547],5.0,0.5,0.0,-0.014352786598090953,-0.9302487767115798,0.50036462423961
8.930994987487793,1.1376113288408942,[0.94359369],5.0,0.5,0.0,-0.28925997583350016,-0.9062117184706693,0.500475226007077
8.939603805541992,1.1346803480898442,[0.94401101],5.0,0.5,0.0,-0.321338787238918,-0.8934788969802749,0.5006185845159787
8.950845003128052,1.1297953801714273,[0.9444078],5.0,0.5,0.0,-0.2652758213692256,-0.8638586424050332,0.5009822486506521
8.959636688232422,1.1262782032701673,[0.9447849],5.0,0.5,0.0,-0.18829985687565853,-0.8485323376364534,0.5013504475575776
8.968886852264404,1.1219794315019607,[0.94514284],5.0,0.5,0.0,-0.39299410147524994,-0.8253087024048394,0.5018073381710761
8.978206872940063,1.1180714571672272,[0.94548215],5.0,0.5,0.0,-0.36873995803251336,-0.8043752776396037,0.5024853871310558
8.986359119415283,1.1147496789827036,[0.94580377],5.0,0.5,0.0,-0.27094784139791706,-0.7866171323333458,0.5032628530231235
8.995768070220947,1.1108417046479702,[0.94610859],5.0,0.5,0.0,0.11123273421947294,-0.7663370154482569,0.5043852976643691
9.004352331161499,1.107519926463447,[0.94639722],5.0,0.5,0.0,0.23499893177254844,-0.7513977019801044,0.5055191826454813
9.015639305114746,1.1032211546952402,[0.94667004],5.0,0.5,0.0,-0.02681822480603005,-0.7283493659002469,0.5074337670117381
9.024612426757812,1.0995085790772434,[0.94692773],5.0,0.5,0.0,-0.08668778328876256,-0.708564177381689,0.5094970703592109
9.03288984298706,1.0957960034592467,[0.94717122],5.0,0.5,0.0,0.2069236140053215,-0.6897027419691316,0.512028076234037
9.042177200317383,1.0918880291245132,[0.94740106],5.0,0.5,0.0,0.28004827052682757,-0.6715711224888796,0.5153122522866369
9.052082061767578,1.0875892573563064,[0.94761705],5.0,0.5,0.0,0.26492193253418206,-0.6541665529993531,0.5198197564215543
9.06214189529419,1.0838766817383099,[0.94781775],5.0,0.5,0.0,0.22107371533616227,-0.6427983279489239,0.5246277133746782
9.06961703300476,1.0809457009872598,[0.94800087],5.0,0.5,0.0,0.17365532971757508,-0.631915551195432,0.5291402313839703
9.078612565994263,1.0772331253692629,[0.94816349],5.0,0.5,0.0,0.13201297917857915,-0.6249144163627603,0.5357159657818438
9.088229656219482,1.073129752317793,[0.94830096],5.0,0.5,0.0,0.09855840278738462,-0.6175064558647582,0.5443071818928151
9.098572492599487,1.0684401831161128,[0.94840714],5.0,0.5,0.0,-0.20312440132602266,-0.6074961563203843,0.5560150843751557
9.107611656188965,1.064727607498116,[0.94847533],5.0,0.5,0.0,-0.25538110948976633,-0.6017878390621234,0.5669611082928316
9.116961479187012,1.0612104305968562,[0.94849879],5.0,0.5,0.0,-0.21432926689278978,-0.5960523661022881,0.5787705022058326
9.127551794052124,1.0569116588286493,[0.9484712],5.0,0.5,0.0,-0.1484599698414968,-0.5853807520989667,0.595174893722629
9.137598752975464,1.0528082857771792,[0.94838681],5.0,0.5,0.0,-0.08533309925764164,-0.5746034329076966,0.6129492393387966
9.147223949432373,1.0489003114424458,[0.94824068],5.0,0.5,0.0,-0.03405939821615546,-0.5636913879674642,0.6317988157205168
9.15693187713623,1.0449923371077126,[0.94802885],5.0,0.5,0.0,0.004064291813485891,-0.551037054316626,0.6525315794555882
9.166592597961426,1.0414751602064523,[0.94774871],5.0,0.5,0.0,0.30669976536853943,-0.5379019607247587,0.6725039191370468
9.17638373374939,1.0367855910047723,[0.94739942],5.0,0.5,0.0,0.3572885363802432,-0.5161577356379576,0.7022102680516551
9.1846342086792,1.0336592115369856,[0.94698369],5.0,0.5,0.0,0.03678058056550859,-0.48579247257324315,0.7225655496266642
9.193648338317871,1.0297512372022521,[0.94650727],5.0,0.5,0.0,-0.06672701697069253,-0.4691254209287603,0.7500924168929635
9.202593326568604,1.0260386615842554,[0.94597524],5.0,0.5,0.0,0.1961450282731237,-0.4507225419993205,0.7774446935289465
9.210995197296143,1.0225214846829955,[0.94539225],5.0,0.5,0.0,0.2486535298777099,-0.43095415505189233,0.8042410494826078
9.218610525131226,1.0191997064984721,[0.94476533],5.0,0.5,0.0,0.22046451276709678,-0.40208860525991524,0.8301511114279845
9.226956129074097,1.0158779283139485,[0.94410321],5.0,0.5,0.0,0.16900123372801412,-0.3845626149500748,0.8568707599926348
9.234943151473999,1.0125561501294251,[0.94341393],5.0,0.5,0.0,0.11779365056060048,-0.3651180052966696,0.8843674405470417
9.244773626327515,1.0084527770779552,[0.94270498],5.0,0.5,0.0,0.07498431845899235,-0.3404359582305325,0.9212350150383286
9.253598928451538,1.0049356001766951,[0.94198474],5.0,0.5,0.0,0.04211318447837452,-0.3150016471498656,0.9526821750095846
9.261584281921387,1.001418423275435,[0.94126216],5.0,0.5,0.0,0.0181823075352725,-0.29216646008925645,0.9849276071542655
9.270214080810547,0.9980966450909117,[0.94054557],5.0,0.5,0.0,0.0014588722870000174,-0.2738604857405893,1.0155993461292765
9.278771162033081,0.9945794681896515,[0.93984191],5.0,0.5,0.0,-0.009783820505752942,-0.2552085959997792,1.049228740169265
9.288119077682495,0.9910622912883915,[0.93915679],5.0,0.5,0.0,-0.017008196751206517,-0.2395113436071771,1.0834265877861555
9.296640396118164,0.9873497156703948,[0.93849451],5.0,0.5,0.0,-0.021361945220712372,-0.22262615424941384,1.120414987265419
9.30565857887268,0.9836371400523979,[0.93785733],5.0,0.5,0.0,-0.023707795994531728,-0.21568136878241145,1.1575997223621224
9.31659722328186,0.9789475708507178,[0.93724361],5.0,0.5,0.0,-0.024676898511356654,-0.21204122422220775,1.2062084845165502
9.32662296295166,0.9748441977992479,[0.93664675],5.0,0.5,0.0,0.25131592384944357,-0.2202177325543142,1.2468642047150216
9.337960004806519,0.9701546285975677,[0.9360513],5.0,0.5,0.0,0.2849976990075037,-0.26489411161486887,1.2924041694700235
9.345658302307129,0.9670282491297811,[0.93543717],5.0,0.5,0.0,0.23083580729821362,-0.25063730461346306,1.3190192949229775
9.353617906570435,0.9639018696619943,[0.93478753],5.0,0.5,0.0,0.1559089845947665,-0.281750056060245,1.344044194783322
9.364644289016724,0.9594076991770509,[0.93408106],5.0,0.5,0.0,0.08666104260975199,-0.3032128169961974,1.3795946959183536
9.374641180038452,0.9554997248423175,[0.93328981],5.0,0.5,0.0,0.03135887668190499,-0.3204581843133633,1.4060535576914692
9.382805347442627,0.9519825479410575,[0.93238515],5.0,0.5,0.0,-0.009321644349452478,-0.3309922701308286,1.4260642097138927
9.390612125396729,0.9488561684732707,[0.93134712],5.0,0.5,0.0,-0.03745283699592569,-0.30645624479890254,1.4405274431886699
