t_s,q_rad,q_des_rad,K,B,Kff,jerk,tau_Nm,reward
0.005251646041870117,-0.04826348303395755,[0.00722324],9.825212432529046,0.9790254919034855,1.9737818648793566,0.0,9.998999999999999,1.0402326554277148
0.01777338981628418,-0.04826348303395755,[0.03490771],9.650424865058092,0.9580509838069711,1.9475637297587132,0.0,10.098989999999999,0.7507022129140858
0.027027130126953125,-0.04826348303395755,[0.08675972],9.475637297587138,0.9370764757104565,1.92134559463807,0.0,10.099989899999999,0.5260886985464417
0.0386960506439209,-0.04826348303395755,[0.15837719],9.300849730116184,0.9161019676139419,1.8951274595174268,0.0,10.099999898999998,0.5001954758358721
0.048349857330322266,-0.04826348303395755,[0.24578148],9.12606216264523,0.8951274595174274,1.8689093243967834,0.0,10.099999998989999,0.5000000309006791
0.05770540237426758,-0.048458881750694224,[0.34540353],8.951274595174274,0.8741529514209129,1.84269118927614,0.0,10.0999999999899,0.5000000000000335
0.06806778907775879,-0.04826348303395755,[0.45406695],8.77648702770332,0.8531784433243983,1.8164730541554968,0.0,-9.8980000000001,0.5
0.07762956619262695,-0.04826348303395755,[0.56896848],8.601699460232366,0.8322039352278838,1.7902549190348536,0.0,-10.09798,0.5
0.08891034126281738,-0.04826348303395755,[0.68765676],8.426911892761412,0.8112294271313693,1.7640367839142101,0.0,-10.099979799999998,0.5
0.0990898609161377,-0.04826348303395755,[0.80800976],8.252124325290458,0.7902549190348547,1.7378186487935667,0.0,-10.099999797999999,0.5
0.11030459403991699,-0.04826348303395755,[0.92821141],8.077336757819502,0.7692804109383402,1.7116005136729235,0.0,-5.100499997979999,0.5
0.1219022274017334,-0.04826348303395755,[1.04672793],7.902549190348549,0.7483059028418256,1.6853823785522803,0.0,-5.0505049999797995,0.5
0.12990021705627441,-0.04826348303395755,[1.16228413],7.727761622877595,0.727331394745311,1.659164243431637,0.0,-5.050005049999798,0.5
0.13898468017578125,-0.048458881750694224,[1.27383997],7.55297405540664,0.7063568866487966,1.6329461083109935,0.0,-5.050000050499998,0.5
0.14658641815185547,-0.04826348303395755,[1.38056779],7.378186487935686,0.685382378552282,1.6067279731903503,0.0,-5.050000000504999,0.5
0.15624523162841797,-0.04826348303395755,[1.48183023],7.203398920464732,0.6644078704557674,1.5805098380697071,0.0,-5.050000000005049,0.5
0.16560864448547363,-0.04826348303395755,[1.57715909],7.028611352993777,0.643433362359253,1.5542917029490637,0.0,-5.05000000000005,0.5
0.17602992057800293,-0.048458881750694224,[1.66623532],6.853823785522822,0.6224588542627384,1.5280735678284203,0.0,-5.05,0.5
0.18509316444396973,-0.04826348303395755,[1.74887011],6.679036218051868,0.6014843461662238,1.501855432707777,0.0,-5.05,0.5
0.19372987747192383,-0.04826348303395755,[1.82498724],6.504248650580913,0.6,1.475637297587134,0.0,-5.05,0.5
0.20367121696472168,-0.04826348303395755,[1.8946067],6.329461083109958,0.6,1.4494191624664907,0.0,-5.05,0.5
0.2159132957458496,-0.04826348303395755,[1.95782954],6.154673515639004,0.6,1.4232010273458477,0.0,-5.05,0.5
0.22463345527648926,-0.04826348303395755,[2.01482411],5.97988594816805,0.6,1.3969828922252046,0.0,-5.05,0.5
0.23369669914245605,-0.04826348303395755,[2.06581343],5.805098380697095,0.6,1.3707647571045614,0.0,-5.05,0.5
0.24261045455932617,-0.048458881750694224,[2.1110639],5.63031081322614,0.6,1.3445466219839184,0.0,-5.05,0.5
0.2516648769378662,-0.04826348303395755,[2.15087515],5.455523245755186,0.6,1.3183284868632752,0.0,-5.05,0.5
0.2599053382873535,-0.04826348303395755,[2.18557101],5.280735678284231,0.6,1.292110351742632,0.0,-5.05,0.5
0.26756787300109863,-0.04826348303395755,[2.21549161],5.105948110813277,0.6,1.2658922166219888,0.0,-2.9970478761736628,0.5
0.27634763717651367,-0.04826348303395755,[2.24098643],5.0,0.6,1.2396740815013456,0.0,0.9890688581831387,0.5
0.2849447727203369,-0.04826348303395755,[2.26240832],5.0,0.6,1.2134559463807026,0.0,4.074049023502163,0.5
0.2953777313232422,-0.04748188816701086,[2.28010847],5.0,0.6,1.1872378112600595,0.0,6.301725813283147,0.5
0.3044445514678955,-0.04513710356617083,[2.29443205],5.0,0.6,1.1610196761394163,1.3801917983934047,7.897816121209951,0.4985839784500818
0.31763362884521484,-0.040252135647754074,[2.30571468],5.0,0.6,1.1348015410187733,5.0,9.026615634395933,0.4817320621239355
0.3267498016357422,-0.036734958746494004,[2.31427959],5.0,0.6,1.10858340589813,5.0,9.833268936880597,0.4817320621239355
0.3358473777770996,-0.03302238312849727,[2.32043533],5.0,0.6,1.082365270777487,5.0,10.097332689368805,0.4817320621239355
0.3453636169433594,-0.02911440879376387,[2.32447402],5.0,0.6,1.0561471356568437,5.0,10.099973326893688,0.4817320621239355
0.35600781440734863,-0.02501103574229379,[2.32667011],5.0,0.6,1.0299290005362005,5.0,10.099999733268936,0.4817320621239355
0.3657064437866211,-0.021103061407560384,[2.32727956],5.0,0.6,1.0037108654155575,5.0,10.099999997332688,0.4817320621239355
0.3760836124420166,-0.016999688356090312,[2.3265394],5.0,0.6,0.9774927302949143,5.0,10.099999999973326,0.4817320621239355
0.3857719898223877,-0.013287112738093578,[2.32466752],5.0,0.6,0.9512745951742712,5.0,10.099999999999731,0.4817320621239355
0.39527463912963867,-0.009183739686623501,[2.32186286],5.0,0.6,0.9250564600536281,5.0,10.099999999999996,0.4817320621239355
0.4063878059387207,-0.004689569201680086,[2.31830573],5.0,0.6,0.898838324932985,3.768262326570513,5.100499999999999,0.4895406094521128
0.4162285327911377,-0.0007815948669466809,[2.31415836],5.0,0.6,0.8726201898123418,1.5206760907045913,5.050504999999999,0.4982815664877321
0.42561841011047363,0.0029309807510500534,[2.30956558],5.0,0.6,0.8464020546916986,-1.1972968298971631,5.050005049999999,0.49893402509237195
0.4339761734008789,0.006838955085783458,[2.30465565],5.0,0.6,0.8201839195710555,-3.535951846110734,5.0500000505,0.49077888239748785
0.44388365745544434,0.010551530703780192,[2.29954111],5.0,0.6,0.7939657844504124,-4.989652262198765,5.050000000504999,0.4818062053414239
0.4515669345855713,0.013873308888303588,[2.29431981],5.0,0.6,0.7677476493297692,-5.0,5.050000000005049,0.4817320621239355
0.4626884460449219,0.018172080656510332,[2.28907586],5.0,0.6,0.741529514209126,-5.0,5.05000000000005,0.4817320621239355
0.47173261642456055,0.0216892575577704,[2.2838807],5.0,0.6,0.715311379088483,-5.0,5.05,0.4817320621239355
0.480912446975708,0.025401833175767132,[2.27879409],5.0,0.6,0.6890932439678399,-5.0,5.05,0.4817320621239355
0.4916188716888428,0.029700604943973877,[2.27386517],5.0,0.6,0.6628751088471967,-5.0,5.05,0.4817320621239355
0.5040154457092285,0.0347809715791273,[2.26913346],5.0,0.6,0.6366569737265535,-5.0,5.05,0.4817320621239355
0.5127441883087158,0.0381027497636507,[2.26462981],5.0,0.6,0.6104388386059104,-5.0,5.05,0.4817320621239355
0.521611213684082,0.04161992666491077,[2.2603774],5.0,0.6,0.5842207034852673,-5.0,5.05,0.4817320621239355
0.5306034088134766,0.04533250228290749,[2.25639261],5.0,0.6,0.5580025683646241,-5.0,5.05,0.4817320621239355
0.5405511856079102,0.049045077900904226,[2.25268598],5.0,0.6,0.531784433243981,-5.0,5.05,0.4817320621239355
0.550621747970581,0.05314845095237431,[2.24926299],5.0,0.6,0.5055662981233379,-4.891850802033407,5.05,0.48249993439108374
0.5606508255004883,0.05705642528710771,[2.24612481],5.0,0.6,0.4793481630026947,-4.659074891116828,5.05,0.48409962639280907
0.5696535110473633,0.060769000905104446,[2.24326907],5.0,0.6,0.4531300278820516,-4.374487703011068,5.05,0.4859560505429119
0.5794069766998291,0.06467697523983784,[2.2406904],5.0,0.6,0.42691189276140845,-4.074794996954366,5.05,0.4877915259297857
0.5916342735290527,0.0695619431582546,[2.23838109],5.0,0.6,0.4006937576407653,-3.7782823883048424,5.05,0.48948550083712855
0.6036062240600586,0.07444691107667137,[2.23633194],5.0,0.6,0.3744756225201221,-3.4937917780040815,5.05,0.4909954827438487
0.6160919666290283,0.0793318789950881,[2.23453324],5.0,0.6,0.3482574873994789,-3.2252999657927837,5.05,0.492315984963776
0.6271026134490967,0.08421684691350488,[2.23297506],5.0,0.6,0.3220393522788358,-2.9742696112969735,5.05,0.4934579994459343
0.6383993625640869,0.08851561868171162,[2.23164662],5.0,0.6,0.2958212171581926,-2.4648280185255156,5.05,0.4954978776096074
0.6470355987548828,0.09203279558297167,[2.23053578],5.0,0.6,0.2696030820375494,-2.2154323331121684,5.05,0.49635969415481784
0.6576812267303467,0.09613616863444177,[2.22962979],5.0,0.6,0.24338494691690624,-2.0705714220993165,5.05,0.49681872056763376
0.6655271053314209,0.09945794681896515,[2.2289162],5.0,0.6,0.21716681179626307,-1.9620474244707258,5.05,0.49714252968463424
0.679307222366333,0.10492911088759192,[2.22838568],5.0,0.6,0.19094867667561988,-1.862298903407607,5.05,0.4974249556361053
0.6885566711425781,0.10864168650558867,[2.22803199],5.0,0.6,0.16473054155497668,-1.7619807179596971,5.05,0.4976942846575425
0.6970798969268799,0.11176806597337538,[2.22784665],5.0,0.6,0.13851240643433352,-1.6593957871994487,5.05,0.49795441872783536
0.7045795917510986,0.11469904672442544,[2.22781725],5.0,0.6,0.11229427131369034,-1.555659351846734,5.05,0.4982017356510202
0.7129654884338379,0.1182162236256855,[2.22793025],5.0,0.6,0.08607613619304716,-1.4525941425100695,5.05,0.49843175727494415
0.7221150398254395,0.1221241979604189,[2.22817466],5.0,0.6,0.05985800107240398,-1.351896328014382,5.05,0.4986413651966443
0.7295818328857422,0.12505517871146896,[2.22853982],5.0,0.6,0.0336398659517608,-1.2548706434755834,5.05,0.49882916523171383
0.7399985790252686,0.12954934919641237,[2.2290137],5.0,0.6,0.0074217308311176206,-1.1624038171235065,5.05,0.49899518992517655
0.7488718032836914,0.13287112738093576,[2.22958689],5.0,0.6,0.0,-1.0750247943089484,5.05,0.4991404521217879
0.7582616806030273,0.1365837029989325,[2.2302523],5.0,0.6,0.0,-0.9929857610365299,5.05,0.4992665441335702
0.7655735015869141,0.13971008246671923,[2.23100087],5.0,0.6,0.0,-0.6402994319073325,5.05,0.49969490128958877
0.7774205207824707,0.14459505038513598,[2.23182393],5.0,0.6,0.0,-0.5358298425426438,5.05,0.4997863181411055
0.7855358123779297,0.14791682856965938,[2.23271514],5.0,0.6,0.0,-0.8007436669295401,5.05,0.49952292525477043
0.7948427200317383,0.1516294041876561,[2.23366617],5.0,0.6,0.0,-0.8486180402291216,5.05,0.4994642053182205
0.8046414852142334,0.15573277723912618,[2.23466907],5.0,0.6,0.0,-0.5312878031902379,5.05,0.49978992463993005
0.8135161399841309,0.15905455542364957,[2.23571628],5.0,0.6,0.0,-0.4263173327001471,5.05,0.4998647261345716
0.8225862979888916,0.16257173232490962,[2.23679876],5.0,0.6,0.0,-0.6805936481181597,5.05,0.4996553067990049
0.8316349983215332,0.1660889092261697,[2.23791018],5.0,0.6,0.0,-0.7180294452130845,5.05,0.49961635943871974
0.844592809677124,0.17136467457805982,[2.23904831],5.0,0.6,0.0,-0.6699134406173688,5.05,0.49966603651920605
0.8526186943054199,0.17449105404584653,[2.24021074],5.0,0.6,0.0,-0.5953528354630315,5.05,0.4997362205581699
0.864145040512085,0.1791806232475266,[2.24139317],5.0,0.6,0.0,-0.5192993498825688,5.05,0.49979929645006593
0.8720440864562988,0.1823070027153133,[2.24259334],5.0,0.6,0.0,-0.45098372686658417,5.05,0.4998486220335127
0.879786491394043,0.18543338218310007,[2.24380733],5.0,0.6,0.0,-0.3927278592470662,5.05,0.4998852004371564
0.8884282112121582,0.1891459578010968,[2.24502803],5.0,0.6,0.0,-0.34406711340191753,5.05,0.4999118840085627
0.8980443477630615,0.1930539321358302,[2.24625116],5.0,0.6,0.0,-0.303612733117841,5.05,0.49993138535236925
0.905540943145752,0.19578951417014356,[2.2474731],5.0,0.6,0.0,-0.26984378200101666,5.05,0.4999457989168875
0.9161949157714844,0.20028368465508697,[2.24868902],5.0,0.6,0.0,-0.24140551440420221,5.05,0.4999566207331118
0.9267046451568604,0.2043870577065571,[2.24989855],5.0,0.6,0.0,0.058848228107238054,5.05,0.499997422062775
0.9357900619506836,0.20790423460781715,[2.2511033],5.0,0.6,0.0,0.11283380404812075,5.05,0.4999905227787496
0.9437952041625977,0.21142141150907717,[2.25230108],5.0,0.6,0.0,0.0759097652759187,5.05,0.49999571056481834
0.9523537158966064,0.21493858841033725,[2.25348835],5.0,0.6,0.0,0.015817480749507465,5.05,0.4999998137564575
0.9606659412384033,0.21826036659486067,[2.25466227],5.0,0.6,0.0,-0.04050725461878496,5.05,0.49999877856105096
0.9691152572631836,0.22158214477938404,[2.25582247],5.0,0.6,0.0,-0.08443105238273894,5.05,0.49999469349258024
0.9775209426879883,0.22509932168064412,[2.25696888],5.0,0.6,0.0,-0.11500305403432842,5.05,0.4999901548769857
0.986567497253418,0.22842109986516748,[2.2580998],5.0,0.6,0.0,-0.13408706037549273,5.05,0.49998661634902697
0.997251033782959,0.23271987163337426,[2.25921775],5.0,0.6,0.0,-0.14423692629748952,5.05,0.4999845135145982
1.0068938732147217,0.237018643401581,[2.26032875],5.0,0.6,0.0,-0.4238890410423315,5.05,0.4998662625725503
1.0174627304077148,0.24151281388652443,[2.26143614],5.0,0.6,0.0,-0.45606194993546856,5.05,0.4998451942403133
1.0255649089813232,0.24463919335431117,[2.26254095],5.0,0.6,0.0,-0.39696095845543844,5.05,0.4998827126094239
1.035783290863037,0.24854716768904456,[2.26364219],5.0,0.6,0.0,-0.3149354279350089,5.05,0.49992617258755645
1.0447347164154053,0.2520643445903046,[2.26473721],5.0,0.6,0.0,-0.23733382150719223,5.05,0.4999580716540651
1.0530409812927246,0.255386122774828,[2.26582562],5.0,0.6,0.0,-0.17305301800033918,5.05,0.49997770767586824
1.0629940032958984,0.2594894958262981,[2.26690897],5.0,0.6,0.0,-0.12319822948441769,5.05,0.499988701762454
1.0715093612670898,0.2626158752940848,[2.26798673],5.0,0.6,0.0,-0.3620210085384414,5.05,0.4999024489712141
1.0846683979034424,0.2678916406459749,[2.26905844],5.0,0.6,0.0,-0.3680390245485751,5.05,0.499899179086602
1.0925302505493164,0.27121341883049827,[2.27012559],5.0,0.6,0.0,-0.2935340155220813,5.05,0.49993586491246783
1.1030027866363525,0.2757075893154417,[2.27118937],5.0,0.6,0.0,0.07230422371608408,5.05,0.499996108363028
1.1112520694732666,0.2788339687832284,[2.27225083],5.0,0.6,0.0,0.18553648726388025,5.05,0.49997437557042373
1.1214535236358643,0.28293734183469854,[2.273309],5.0,0.6,0.0,0.19368905871816966,5.05,0.49997207425781265
1.1315302848815918,0.2870407148861686,[2.27436299],5.0,0.6,0.0,0.16413271203740354,5.05,0.49997994658888795
1.1403346061706543,0.2905578917874287,[2.27541369],5.0,0.6,0.0,0.12608020704205958,5.05,0.49998816698641996
1.1505520343780518,0.2948566635556354,[2.27646169],5.0,0.6,0.0,0.0910089525340855,5.05,0.49999383444424456
1.1615703105926514,0.29954623275731546,[2.27750738],5.0,0.6,0.0,0.0624690916091006,5.05,0.4999970950691738
1.1695470809936523,0.3028680109418389,[2.27855102],5.0,0.6,0.0,-0.23533307578437365,5.05,0.49995877556489365
1.178830862045288,0.3065805865598356,[2.27959279],5.0,0.6,0.0,-0.28439293746791905,5.05,0.4999397969987521
1.1865386962890625,0.3097069660276223,[2.28063273],5.0,0.6,0.0,-0.24062368774330212,5.05,0.49995690124607917
1.1979565620422363,0.3140057377958291,[2.28167073],5.0,0.6,0.0,-0.17239213734010772,5.05,0.49997787761348966
1.2064552307128906,0.31713211726361584,[2.28270498],5.0,0.6,0.0,-0.10717901504684377,5.05,0.49999144889016217
1.2163877487182617,0.32123549031508586,[2.28373223],5.0,0.6,0.0,-0.05404217166021875,5.05,0.4999978259410473
1.2260444164276123,0.3255342620832926,[2.28475117],5.0,0.6,0.0,-0.01424138426497101,5.05,0.4999998490229207
1.2355360984802246,0.3292468377012893,[2.28576213],5.0,0.6,0.0,0.013873940107085916,5.05,0.4999998567131802
1.244513750076294,0.3327640146025494,[2.28676509],5.0,0.6,0.0,0.0327181464736495,5.05,0.4999992031369049
1.2549254894256592,0.3366719889372828,[2.28775976],5.0,0.6,0.0,0.044604035875140086,5.05,0.49999851900243303
1.264528512954712,0.34077536198875297,[2.28874564],5.0,0.6,0.0,0.05145577979714555,5.05,0.49999802905662255
1.272627830505371,0.34429253889001293,[2.28972076],5.0,0.6,0.0,0.054767228171976656,5.05,0.49999776721334177
1.28163480758667,0.3482005132247464,[2.29068201],5.0,0.6,0.0,0.05565231945134273,5.05,0.49999769446238157
1.2900748252868652,0.35171769012600645,[2.29162798],5.0,0.6,0.0,0.05492012856940676,5.05,0.4999977547288773
1.2994563579559326,0.3552348670272665,[2.29255874],5.0,0.6,0.0,0.05314724755632975,5.05,0.49999789734840144
1.3076212406158447,0.3585566452117899,[2.29347434],5.0,0.6,0.0,0.05073834474288062,5.05,0.4999980836341061
1.3155298233032227,0.36187842339631326,[2.29437249],5.0,0.6,0.0,0.0479734743072692,5.05,0.4999982867991746
1.3265316486358643,0.36637259388125676,[2.29524899],5.0,0.6,0.0,0.04504362598846372,5.05,0.49999848966701643
1.335498332977295,0.3698897707825168,[2.29610292],5.0,0.6,0.0,0.04207680245993126,5.05,0.49999868207237547
1.345858097076416,0.37379774511725017,[2.29693725],5.0,0.6,0.0,0.039156847754748744,5.05,0.49999885864268995
1.353994369506836,0.37711952330177356,[2.29775593],5.0,0.6,0.0,0.03633689403163591,5.05,0.49999901711693284
1.361530065536499,0.3800505040528236,[2.2985602],5.0,0.6,0.0,0.03364888910381794,5.05,0.4999991571548909
1.371544599533081,0.38434927582103035,[2.29934901],5.0,0.6,0.0,0.031110305955101204,5.05,0.4999992795316172
1.3828368186950684,0.3892342437394471,[2.30012424],5.0,0.6,0.0,0.02872884374601673,5.05,0.4999993856120306
1.3905439376831055,0.3923606232072338,[2.30088901],5.0,0.6,0.0,0.02650570617426102,5.05,0.49999947701984804
1.3995089530944824,0.3958778001084939,[2.30164373],5.0,0.6,0.0,0.024437876800257646,5.05,0.4999995554368875
1.4075524806976318,0.3991995782930173,[2.30238771],5.0,0.6,0.0,0.022519689725421364,5.05,0.4999996224875173
1.4169127941131592,0.40271675519427735,[2.30312049],5.0,0.6,0.0,0.02074390673842074,5.05,0.49999967967735737
1.4266374111175537,0.4066247295290108,[2.30384303],5.0,0.6,0.0,0.019102449754452203,5.05,0.49999972836564943
1.4364221096038818,0.41072810258048087,[2.30455746],5.0,0.6,0.0,0.017586893173247353,5.05,0.49999976975785293
1.445960283279419,0.41463607691521426,[2.30526559],5.0,0.6,0.0,0.01618878955414231,5.05,0.4999998049098487
1.4560902118682861,0.41873944996668433,[2.30596902],5.0,0.6,0.0,0.014899880001753709,5.05,0.49999983473832693
1.466200828552246,0.42245202558468103,[2.30666919],5.0,0.6,0.0,0.013712225193807236,5.05,0.49999986003402025
1.4749109745025635,0.4259692024859411,[2.30736734],5.0,0.6,0.0,0.012618282124778578,5.05,0.4999998814757842
1.4834482669830322,0.4290955819537278,[2.30806459],5.0,0.6,0.0,0.011610944033316216,5.05,0.49999989964438074
1.4915122985839844,0.4328081575717246,[2.30876062],5.0,0.6,0.0,0.010683555653598267,5.05,0.4999999150353502
1.5015122890472412,0.437302328056668,[2.30945392],5.0,0.6,0.0,0.2858682718839251,5.05,0.49993917079103856
1.5096662044525146,0.4406241062411914,[2.31014443],5.0,0.6,0.0,0.3182072107737473,5.05,0.4999246307880326
1.5185725688934326,0.4441412831424515,[2.31083207],5.0,0.6,0.0,-0.013651435237020643,5.05,0.49999986127228235
1.5297670364379883,0.4486354536273949,[2.31151671],5.0,0.6,0.0,-0.12352638394233194,5.05,0.49998864149433725
1.5375261306762695,0.45176183309518164,[2.31219942],5.0,0.6,0.0,-0.13956402525393577,5.05,0.49998550068945175
1.546501874923706,0.4552790099964417,[2.31287992],5.0,0.6,0.0,-0.12066413343249718,5.05,0.49998916176995284
1.5563099384307861,0.4591869843311751,[2.313558],5.0,0.6,0.0,-0.09265736578714893,5.05,0.499993609073863
1.566523790359497,0.46368115481611855,[2.31423597],5.0,0.6,0.0,-0.06592758158958889,5.05,0.49999676451373926
1.575639009475708,0.4673937304341152,[2.31491594],5.0,0.6,0.0,-0.04389651408073794,5.05,0.49999856561373146
1.5844876766204834,0.4707155086186386,[2.31559739],5.0,0.6,0.0,-0.02703757800335082,5.05,0.49999945582070987
1.5927376747131348,0.47384188808642536,[2.31628012],5.0,0.6,0.0,-0.014722815165605009,5.05,0.49999983864280895
1.600499153137207,0.4771636662709487,[2.31696408],5.0,0.6,0.0,-0.0060344072681148934,5.05,0.4999999728933468
1.6103391647338867,0.48107164060568214,[2.31764943],5.0,0.6,0.0,-9.207027481942989e-05,5.05,0.49999999999368977
1.619570255279541,0.4847842162236789,[2.31833777],5.0,0.6,0.0,0.0038380927020436042,5.05,0.49999998903426895
1.6293771266937256,0.4884967918416756,[2.3190292],5.0,0.6,0.0,0.28236590724612676,5.05,0.499940652091616
1.6374752521514893,0.4916231713094623,[2.31972254],5.0,0.6,0.0,0.31696713026585244,5.05,0.4999252170399647
1.647803783416748,0.49611734179440575,[2.32041826],5.0,0.6,0.0,0.26264615287785675,5.05,0.4999486516536663
1.6555025577545166,0.4992437212621924,[2.32111822],5.0,0.6,0.0,0.18686145882780636,5.05,0.49997400828973604
1.6654784679412842,0.5035424930303992,[2.32182263],5.0,0.6,0.0,0.11632220237610692,5.05,0.4999899277259542
1.6747658252716064,0.507255068648396,[2.32253171],5.0,0.6,0.0,0.05947856912838611,5.05,0.49999736654103183
1.6840054988861084,0.5109676442663927,[2.32324708],5.0,0.6,0.0,0.017131474039849423,5.05,0.4999997815278687
1.691502332687378,0.5137032263007061,[2.32396858],5.0,0.6,0.0,-0.012707365383082755,5.05,0.49999987979634913
1.7004895210266113,0.5172204032019662,[2.32469457],5.0,0.6,0.0,-0.032696678606713006,5.05,0.49999920418227733
1.7118821144104004,0.5221053711203829,[2.32542639],5.0,0.6,0.0,0.23071424494036208,5.05,0.49996037782727265
1.7196142673492432,0.5252317505881696,[2.32616648],5.0,0.6,0.0,0.2565250386356092,5.05,0.49995101705136885
1.7275865077972412,0.5283581300559563,[2.32691382],5.0,0.6,0.0,0.19784623925279016,5.05,0.4999708626789205
1.7360913753509521,0.5318753069572164,[2.327666],5.0,0.6,0.0,0.12073660791057939,5.05,0.4999891487466556
1.7450377941131592,0.5353924838584764,[2.3284209],5.0,0.6,0.0,0.05089423933759401,5.05,0.49999807183989137
1.7542710304260254,0.5393004581932099,[2.32917799],5.0,0.6,0.0,-0.003948751466961085,5.05,0.499999988392832
1.7627906799316406,0.5426222363777332,[2.32993792],5.0,0.6,0.0,-0.043494389359572734,5.05,0.4999985917734124
1.7705609798431396,0.5461394132789933,[2.33069957],5.0,0.6,0.0,-0.07007867574263763,5.05,0.4999963442468687
1.7809038162231445,0.5502427863304634,[2.33146074],5.0,0.6,0.0,-0.08659744841794101,5.05,0.4999944176836732
1.7905242443084717,0.5543461593819334,[2.33222109],5.0,0.6,0.0,-0.09569738949002907,5.05,0.49999318283357364
1.7989683151245117,0.5576679375664568,[2.33298166],5.0,0.6,0.0,-0.09953110930828794,5.05,0.4999926256938855
1.8085098266601562,0.5613805131844536,[2.3337432],5.0,0.6,0.0,-0.09974632580565518,5.05,0.49999259376866245
1.8174927234649658,0.5648976900857137,[2.33450491],5.0,0.6,0.0,-0.0975585371895143,5.05,0.4999929150929325
1.826906681060791,0.5686102657037104,[2.33526592],5.0,0.6,0.0,-0.09384195831759984,5.05,0.4999934446187786
1.8355801105499268,0.5723228413217071,[2.33602668],5.0,0.6,0.0,-0.08921315546918213,5.05,0.49999407536085666
1.846630573272705,0.5766216130899139,[2.33678731],5.0,0.6,0.0,-0.08409953117591618,5.05,0.499994735082887
1.8547067642211914,0.5795525938409639,[2.33754774],5.0,0.6,0.0,-0.07879218861904197,5.05,0.4999953786272788
1.8634917736053467,0.5830697707422241,[2.33830531],5.0,0.6,0.0,-0.07348535760368011,5.05,0.4999959801804924
1.8715119361877441,0.5865869476434841,[2.33905644],5.0,0.6,0.0,-0.06830516490633992,5.05,0.49999652694024643
1.879760980606079,0.5901041245447443,[2.33980032],5.0,0.6,0.0,-0.06333032438093127,5.05,0.4999970144193748
1.8880634307861328,0.5936213014460042,[2.34053726],5.0,0.6,0.0,-0.05860686306227096,5.05,0.49999744316608924
1.8980145454406738,0.597333877064001,[2.34126736],5.0,0.6,0.0,-0.05415852114186527,5.05,0.49999781656975945
1.9055640697479248,0.6004602565317877,[2.34198953],5.0,0.6,0.0,-0.04999405037897548,5.05,0.4999981394449932
1.9134812355041504,0.6035866359995743,[2.34270173],5.0,0.6,0.0,-0.046112306969140586,5.05,0.499998417150263
1.9232831001281738,0.6076900090510444,[2.34340321],5.0,0.6,0.0,-0.04250578533126491,5.05,0.4999986550622601
1.9320199489593506,0.6114025846690411,[2.34409428],5.0,0.6,0.0,-0.03916305479114136,5.05,0.49999885828081203
1.9395315647125244,0.6143335654200912,[2.34477517],5.0,0.6,0.0,-0.03607042712966373,5.05,0.4999990314794837
1.9475033283233643,0.6176553436046146,[2.34544427],5.0,0.6,0.0,-0.033213086725241536,5.05,0.4999991788456502
1.957594871520996,0.6217587166560847,[2.3460984],5.0,0.6,0.0,-0.030575846453708526,5.05,0.4999993040735377
1.9657456874847412,0.6248850961238713,[2.3467369],5.0,0.6,0.0,-0.028143643919105957,5.05,0.49999941038696805
1.9755761623382568,0.6287930704586048,[2.34736118],5.0,0.6,0.0,-0.02590185829033019,5.05,0.49999950057726983
1.986527681350708,0.6330918422268116,[2.34797257],5.0,0.6,0.0,-0.023836503875277377,5.05,0.4999995770474903
1.9974393844604492,0.6375860127117551,[2.34857326],5.0,0.6,0.0,-0.021934339603353434,5.05,0.4999996418576769
2.007403612136841,0.6418847844799619,[2.34916615],5.0,0.6,0.0,-0.020182921693885678,5.05,0.49999969676829065
2.018563747406006,0.6465743536816418,[2.34975294],5.0,0.6,0.0,-0.01857061845565435,5.05,0.49999974328023983
2.026524543762207,0.6493099357159552,[2.35033336],5.0,0.6,0.0,-0.017086600335390556,5.05,0.49999978267088907
2.037412166595459,0.6538041062008986,[2.35090731],5.0,0.6,0.0,-0.29175917394059087,5.05,0.4999366380991523
2.04691743850708,0.6577120805356321,[2.35147663],5.0,0.6,0.0,-0.32362691133046567,5.05,0.49992204175152155
2.055417776107788,0.6610338587201554,[2.35204207],5.0,0.6,0.0,-0.2673730984189372,5.05,0.49994678684831995
2.0637428760528564,0.6645510356214154,[2.35260246],5.0,0.6,0.0,-0.19022389358253,5.05,0.49997306449572404
2.072450876235962,0.6678728138059389,[2.35315692],5.0,0.6,0.0,-0.11872203474221893,5.05,0.49998950784298657
2.0815963745117188,0.6715853894239355,[2.3537048],5.0,0.6,0.0,-0.06119931007537334,5.05,0.49999721196310315
2.0943310260772705,0.6766657560590891,[2.35424749],5.0,0.6,0.0,-0.018372792578199692,5.05,0.49999974872058617
2.1045525074005127,0.6805737303938224,[2.35478905],5.0,0.6,0.0,0.01180498139678487,5.05,0.49999989626214963
2.1125473976135254,0.6838955085783458,[2.35533104],5.0,0.6,0.0,0.03203442312562949,5.05,0.4999992360935818
2.121453285217285,0.6874126854796059,[2.35587099],5.0,0.6,0.0,0.04483249486526561,5.05,0.49999850379245525
2.1304850578308105,0.6911252610976026,[2.35640761],5.0,0.6,0.0,0.05226804189941589,5.05,0.4999979663404369
2.1395087242126465,0.6950332354323361,[2.35694149],5.0,0.6,0.0,0.05593688553912827,5.05,0.49999767082442176
2.1492748260498047,0.6991366084838061,[2.35747285],5.0,0.6,0.0,0.05702452776777005,5.05,0.4999975793666132
2.1579012870788574,0.702849184101803,[2.35800161],5.0,0.6,0.0,0.056390076785481864,5.05,0.4999976329304469
2.165470600128174,0.7057801648528529,[2.35852674],5.0,0.6,0.0,0.05464497655443991,5.05,0.49999777717026417
2.1759033203125,0.7100789366210597,[2.35904717],5.0,0.6,0.0,0.05221807659057059,5.05,0.499997970226699
2.1849489212036133,0.7134007148055831,[2.35956336],5.0,0.6,0.0,0.0494061311866959,5.05,0.4999981829470603
2.1956393718719482,0.7175040878570531,[2.36007494],5.0,0.6,0.0,-0.22962676247494118,5.05,0.4999607504542961
2.2044641971588135,0.7210212647583132,[2.36058013],5.0,0.6,0.0,-0.26579267085150093,5.05,0.49994741403608856
2.212444305419922,0.7243430429428366,[2.36107821],5.0,0.6,0.0,-0.21369437532449154,5.05,0.4999660078922494
2.222491502761841,0.7284464159943067,[2.36156871],5.0,0.6,0.0,-0.14050934978686394,5.05,0.4999853036075477
2.23047137260437,0.73176819417883,[2.36205067],5.0,0.6,0.0,-0.07275343984044769,5.05,0.4999960598566006
2.239262104034424,0.7350899723633534,[2.36252416],5.0,0.6,0.0,-0.018746286726138303,5.05,0.49999973840040196
2.2489993572235107,0.7386071492646135,[2.36299013],5.0,0.6,0.0,0.020797363037217333,5.05,0.49999967802431095
2.25911808013916,0.7432967184662935,[2.36344956],5.0,0.6,0.0,0.04792090291004526,5.05,0.49999829055190914
2.2664968967437744,0.7462276992173437,[2.36390338],5.0,0.6,0.0,0.0653166439874186,5.05,0.4999968242009043
2.2749993801116943,0.7497448761186037,[2.36435176],5.0,0.6,0.0,0.07549104332002901,5.05,0.4999957577555704
2.284379243850708,0.7538482491700736,[2.36479417],5.0,0.6,0.0,0.08050114221784936,5.05,0.499995175984824
2.292478322982788,0.7567792299211239,[2.36523023],5.0,0.6,0.0,0.08193040387850725,5.05,0.49999500316859175
2.3004589080810547,0.7601010081056472,[2.36565899],5.0,0.6,0.0,0.08095191138662844,5.05,0.49999512180932393
2.3107197284698486,0.7645951785905907,[2.36608047],5.0,0.6,0.0,0.07841261269450686,5.05,0.49999542304611183
2.320120334625244,0.7683077542085874,[2.36649703],5.0,0.6,0.0,0.07491224980511277,5.05,0.4999958225569155
2.3278391361236572,0.7712387349596374,[2.36691074],5.0,0.6,0.0,0.07086854619544726,5.05,0.49999626137333586
2.3360676765441895,0.7743651144274242,[2.36732196],5.0,0.6,0.0,0.06656776800539865,5.05,0.49999670137281604
2.3467912673950195,0.7790546836291042,[2.36773104],5.0,0.6,0.0,0.0622025464404512,5.05,0.499997119805924
2.3554916381835938,0.7823764618136277,[2.36813908],5.0,0.6,0.0,0.057899535648904224,5.05,0.4999975045104647
2.3645238876342773,0.7858936387148877,[2.36854623],5.0,0.6,0.0,0.05373933434898927,5.05,0.4999978502383703
2.373871088027954,0.7899970117663577,[2.36895188],5.0,0.6,0.0,0.049770683940115815,5.05,0.4999981560332228
2.3819668292999268,0.7929279925174079,[2.36935555],5.0,0.6,0.0,0.046020508288675585,5.05,0.4999984234461378
2.391456365585327,0.7968359668521413,[2.36975768],5.0,0.6,0.0,0.04250096878333178,5.05,0.49999865536704596
2.399773359298706,0.8003531437534013,[2.37015865],5.0,0.6,0.0,0.3152527546763095,5.05,0.4999260237476436
2.410820722579956,0.8046519155216081,[2.37055814],5.0,0.6,0.0,0.3453196752931654,5.05,0.4999112413326787
2.4184389114379883,0.8077782949893948,[2.37095596],5.0,0.6,0.0,0.28738551827033615,5.05,0.4999385234150279
2.4265730381011963,0.8112954718906548,[2.37135205],5.0,0.6,0.0,0.2086738778626319,5.05,0.4999675862878221
2.4357995986938477,0.8152034462253882,[2.37174727],5.0,0.6,0.0,0.1357230129481833,5.05,0.4999862877821524
2.4441945552825928,0.8187206231266484,[2.37214327],5.0,0.6,0.0,0.0768591059208202,5.05,0.4999956026055712
2.454385995864868,0.8226285974613817,[2.37254151],5.0,0.6,0.0,0.03279303239731104,5.05,0.49999919948498206
2.466430187225342,0.8273181666630619,[2.37294415],5.0,0.6,0.0,-0.27456746083582473,5.05,0.4999438848098923
2.4760091304779053,0.8312261409977952,[2.37335392],5.0,0.6,0.0,-0.32897709429261457,5.05,0.4999194430512205
2.4855270385742188,0.834938716615792,[2.37377225],5.0,0.6,0.0,-0.011612635734443155,5.05,0.49999989961513525
2.4950318336486816,0.8388466909505254,[2.37419856],5.0,0.6,0.0,0.08926482527666668,5.05,0.4999940684961337
2.503119945526123,0.8419730704183122,[2.37463141],5.0,0.6,0.0,0.10019557758216187,5.05,0.49999252690443385
2.5135436058044434,0.8462718421865187,[2.37507127],5.0,0.6,0.0,-0.19715405986313408,5.05,0.4999710661944446
2.5234389305114746,0.8499844178045155,[2.37551926],5.0,0.6,0.0,-0.2588693432966411,5.05,0.49995011772470915
2.5343430042266846,0.854478588289459,[2.37597533],5.0,0.6,0.0,-0.22987802876641936,5.05,0.4999606645140053
2.5425148010253906,0.8576049677572457,[2.37643924],5.0,0.6,0.0,-0.1744290031073888,5.05,0.49997735177157265
2.5514638423919678,0.8613175433752424,[2.37690982],5.0,0.6,0.0,-0.11890276130285554,5.05,0.4999894758752941
2.563695192337036,0.8662025112936592,[2.37738671],5.0,0.6,0.0,-0.0724748087067341,5.05,0.4999960899786147
2.5743019580841064,0.8705012830618659,[2.37787113],5.0,0.6,0.0,-0.036928118524420274,5.05,0.4999989848724917
2.5845751762390137,0.874604656113336,[2.37836304],5.0,0.6,0.0,-0.011195928551732421,5.05,0.49999990669028316
2.593233346939087,0.878121833014596,[2.37886135],5.0,0.6,0.0,0.006621227401275992,5.05,0.49999996736499613
2.6024367809295654,0.8820298073493293,[2.37936495],5.0,0.6,0.0,0.018425028040047406,5.05,0.49999974728973656
2.611457586288452,0.8855469842505895,[2.37987192],5.0,0.6,0.0,0.3018670654884138,5.05,0.4999321720514298
2.62011981010437,0.8890641611518495,[2.38037973],5.0,0.6,0.0,0.33926186360976274,5.05,0.4999143278723707
2.62945294380188,0.8927767367698464,[2.38088687],5.0,0.6,0.0,0.28625329666147525,5.05,0.499939006833736
2.637465238571167,0.8960985149543697,[2.381392],5.0,0.6,0.0,0.21077143432101175,5.05,0.4999669313995093
2.6491923332214355,0.9009834828727865,[2.38189315],5.0,0.6,0.0,0.13986546749706352,5.05,0.4999854379890376
2.6581718921661377,0.9046960584907832,[2.38238932],5.0,0.6,0.0,0.08222668711611528,5.05,0.49999496696355034
2.668440341949463,0.9084086341087799,[2.38288033],5.0,0.6,0.0,0.03882458879667323,5.05,0.49999887793008707
2.6788341999053955,0.9127074058769867,[2.38336658],5.0,0.6,0.0,0.007787205716263294,5.05,0.4999999548591273
2.6887340545654297,0.9162245827782467,[2.38384895],5.0,0.6,0.0,-0.01346508274057216,5.05,0.49999986503390903
2.6975114345550537,0.9201325571129801,[2.38432741],5.0,0.6,0.0,0.24867130474984198,5.05,0.4999539703120954
2.705759286880493,0.9234543352975034,[2.38480066],5.0,0.6,0.0,0.273230516936364,5.05,0.4999444299294664
2.7137935161590576,0.9269715121987636,[2.38526697],5.0,0.6,0.0,0.21334486215631382,5.05,0.49996611899083276
2.7214605808258057,0.9299024929498136,[2.3857249],5.0,0.6,0.0,-0.14095226340329853,5.05,0.4999852108109456
2.7314677238464355,0.9342012647180205,[2.38617329],5.0,0.6,0.0,-0.24500364185801096,5.05,0.49995531802621107
2.742853879928589,0.9385000364862272,[2.38661234],5.0,0.6,0.0,-0.24576608413633738,5.05,0.499955039508718
2.750821828842163,0.941626415954014,[2.38704335],5.0,0.6,0.0,-0.21017543192331611,5.05,0.4999671181463744
2.7594480514526367,0.9451435928552739,[2.38746638],5.0,0.6,0.0,-0.16711920202147848,5.05,0.4999792101980169
2.768486261367798,0.9490515671900073,[2.38788036],5.0,0.6,0.0,-0.1278343093609001,5.05,0.499987835444303
2.7795708179473877,0.9535457376749508,[2.388285],5.0,0.6,0.0,-0.09569390518520957,5.05,0.499993183329982
2.7926833629608154,0.9588215030268408,[2.3886811],5.0,0.6,0.0,-0.07081237623290156,5.05,0.49999626729738894
2.8015074729919434,0.9621432812113643,[2.38906938],5.0,0.6,0.0,-0.05214594708853319,5.05,0.4999979758303188
2.8131425380706787,0.966442052979571,[2.38944993],5.0,0.6,0.0,-0.038401650254795576,5.05,0.49999890224360827
2.8204686641693115,0.9695684324473578,[2.38982333],5.0,0.6,0.0,-0.028392876620317073,5.05,0.49999939989781894
2.8284544944763184,0.9728902106318811,[2.39018964],5.0,0.6,0.0,0.25489046575151936,5.05,0.49995163926937924
2.8385677337646484,0.9767981849666146,[2.390548],5.0,0.6,0.0,0.29324733893843147,7.03589897574281,0.49993599011685436
2.847247362136841,0.980706159301348,[2.39089822],5.0,0.6,0.0,0.24193111507501003,7.03842460754648,0.49995643164051207
2.857764959335327,0.9850049310695548,[2.39124068],5.0,0.6,0.0,0.16858706311455463,7.018950026368278,0.49997884339502996
2.866448402404785,0.9883267092540782,[2.39157536],5.0,0.6,0.0,0.10006237562190283,6.9991124792204475,0.499992546760837
2.8775041103363037,0.9928208797390216,[2.39190184],5.0,0.6,0.0,0.04490846560415129,6.979763995236812,0.49999849871738056
2.8865015506744385,0.9963380566402815,[2.39222035],5.0,0.6,0.0,0.004000287249317374,6.964756965799966,0.49999998808788093
2.8954272270202637,1.0000506322582783,[2.39253159],5.0,0.6,0.0,-0.024596215069587056,6.948365694021772,0.49999954965738685
2.9045634269714355,1.0035678091595384,[2.39283622],5.0,0.6,0.0,-0.0434998676834953,6.932657259736292,0.49999859141864494
2.912451982498169,1.0066941886273253,[2.39313444],5.0,0.6,0.0,-0.055168730283566905,6.913941393429401,0.49999773435600775
2.922429323196411,1.0109929603955317,[2.39342606],5.0,0.6,0.0,-0.06162888184170684,6.895664960035478,0.4999971726861288
2.9324607849121094,1.0150963334470018,[2.39371146],5.0,0.6,0.0,-0.06444485306621096,6.8776948741537245,0.4999969084106087
2.9432454109191895,1.0193951052152086,[2.3939919],5.0,0.6,0.0,-0.06477902545388069,6.86321007458967,0.4999968762653215
2.9514527320861816,1.0225214846829955,[2.39426849],5.0,0.6,0.0,-0.06347321755698596,6.8431001250110555,0.4999970009313936
2.960742712020874,1.026234060300992,[2.39454132],5.0,0.6,0.0,-0.061125760898144296,6.826477367631794,0.4999972186603692
2.9700708389282227,1.0301420346357255,[2.39481045],5.0,0.6,0.0,-0.058155400972407845,6.808628940786889,0.4999974824060231
2.980534076690674,1.0342454076871956,[2.39507639],5.0,0.6,0.0,-0.33088932944762206,6.789737860087262,0.4999185039041253
2.9915215969085693,1.0389349768888756,[2.39533958],5.0,0.6,0.0,-0.36057156074560387,6.767717174466466,0.4999032284752039
3.0034587383270264,1.0440153435240291,[2.39560078],5.0,0.6,0.0,-0.30202466287690305,6.747901752595388,0.49993210121513715
3.014894723892212,1.048314115292236,[2.395861],5.0,0.6,0.0,-0.22256760005708076,6.726031529915064,0.49996312648436453
3.024670124053955,1.0520266909102327,[2.39612062],5.0,0.6,0.0,-0.14880349485809852,6.707462903453096,0.4999835173977098
3.033620595932007,1.0557392665282292,[2.39637954],5.0,0.6,0.0,-0.08910206006253966,6.689120477852602,0.4999940901072577
3.041472911834717,1.058865645996016,[2.39663725],5.0,0.6,0.0,-0.0442028530272954,6.669769147355039,0.4999985455237089
3.050536632537842,1.0621874241805394,[2.39689293],5.0,0.6,0.0,-0.012070378431171404,6.655093328765116,0.4999998915452941
3.0604476928710938,1.0662907972320095,[2.3971463],5.0,0.6,0.0,-0.26604747699120673,6.636639278767036,0.49994731316842517
3.069577693939209,1.0700033728500062,[2.39739753],5.0,0.6,0.0,-0.2846652799786643,6.6198119908102635,0.49993968164639674
3.0795271396636963,1.074302144618213,[2.39764684],5.0,0.6,0.0,0.05549433581436211,6.599865224740693,0.4999977075335131
3.089492082595825,1.078405517669683,[2.39789443],5.0,0.6,0.0,0.16984566174554055,6.580723657541372,0.49997852633042233
3.100450277328491,1.0827042894378898,[2.39814051],5.0,0.6,0.0,0.18772181847334024,6.560627501133502,0.49997376839958857
3.109370470046997,1.0864168650558865,[2.39838528],5.0,0.6,0.0,0.16888383911774324,6.543444517978166,0.4999787688440459
3.119891405105591,1.0907156368240933,[2.39862893],5.0,0.6,0.0,0.13977651795136975,6.5232805738965896,0.4999854565047381
3.128920316696167,1.09442821244209,[2.39887164],5.0,0.6,0.0,0.11121554152821403,6.5059782138171025,0.4999907926714981
3.136409282684326,1.0975545919098768,[2.39911318],5.0,0.6,0.0,0.0869224871343888,6.487226486278607,0.49999437569943467
3.1450953483581543,1.1010717688111367,[2.39935296],5.0,0.6,0.0,0.0675763141231888,6.472116965999215,0.49999660066317536
3.1538121700286865,1.1047843444291336,[2.39959091],5.0,0.6,0.0,0.05268789401985388,6.455643346368099,0.49999793353783817
3.1613826751708984,1.1077153251801837,[2.39982698],5.0,0.6,0.0,-0.23460694423439288,6.438630131273224,0.4999590295619686
3.170506000518799,1.1114279007981802,[2.40006073],5.0,0.6,0.0,-0.27617698685538405,6.42289856237652,0.49994322501982325
3.1797595024108887,1.1149450776994405,[2.40029219],5.0,0.6,0.0,-0.22741121334229705,6.407501911208691,0.49996150416829704
3.1885080337524414,1.1182668558839637,[2.40052175],5.0,0.6,0.0,-0.15609386944144604,6.392452803036399,0.4999818627895826
3.1974403858184814,1.1217840327852238,[2.40074966],5.0,0.6,0.0,-0.08919208878353925,6.3762446626629,0.4999940781585838
3.2054076194763184,1.125301209686484,[2.40097577],5.0,0.6,0.0,-0.035353152749516954,6.355704199933169,0.4999990696152769
3.214512348175049,1.128818386587744,[2.40119952],5.0,0.6,0.0,0.004474387302181106,6.340142893054104,0.49999998509699606
3.223870038986206,1.1327263609224774,[2.40142078],5.0,0.6,0.0,0.03216933259014531,6.322255488774556,0.4999992296458219
3.231424570083618,1.1354619429567907,[2.40163942],5.0,0.6,0.0,-0.22572884891036754,6.306400610259126,0.4999620716162341
3.2404122352600098,1.1391745185747875,[2.40185504],5.0,0.6,0.0,-0.24784025688599176,6.290319233408831,0.499954277442088
3.2504286766052246,1.1432778916262578,[2.40206765],5.0,0.6,0.0,-0.18685307318861782,6.271937961068075,0.4999740106224434
3.258392572402954,1.146599669810781,[2.40227766],5.0,0.6,0.0,-0.10845347099680952,6.25700991302544,0.4999912443219366
3.2665188312530518,1.1501168467120408,[2.40248509],5.0,0.6,0.0,-0.0380415528142153,6.237244107987686,0.4999989227346785
3.2753608226776123,1.1538294223300378,[2.40268967],5.0,0.6,0.0,0.016876565296466306,6.221149380819924,0.4999997879810344
3.285055160522461,1.1577373966647713,[2.40289153],5.0,0.6,0.0,0.056168718559395,6.203490736704496,0.4999976514777056
3.292743682861328,1.160863776132558,[2.40309112],5.0,0.6,0.0,0.08228977739868143,6.189376769240272,0.49999495923720455
3.302861213684082,1.164967149184028,[2.40328881],5.0,0.6,0.0,0.09821926532527984,6.170108821727292,0.49999281880170343
3.3105130195617676,1.1678981299350781,[2.40348457],5.0,0.6,0.0,0.38270019320679866,6.15274501859637,0.4998909874018702
3.318577527999878,1.1710245094028648,[2.40367774],5.0,0.6,0.0,0.41897254645910526,6.1355689933015976,0.4998693464965266
3.3285627365112305,1.1747370850208614,[2.40386806],5.0,0.6,0.0,0.08736396132666822,6.123146945996652,0.49999431842369507
3.338419198989868,1.1788404580723315,[2.40405631],5.0,0.6,0.0,-0.024706662647793386,6.103921550628475,0.4999995456038442
3.3476927280426025,1.182748432407065,[2.40424316],5.0,0.6,0.0,0.23154219505630738,6.0854743871491035,0.4999600929490334
3.356102705001831,1.186265609308325,[2.40442862],5.0,0.6,0.0,0.27888577687775057,6.065386473239855,0.49994210590587884
3.363497495651245,1.1891965900593753,[2.40461239],5.0,0.6,0.0,0.24661994999637085,6.052631198965919,0.4999547265674331
3.3730275630950928,1.1932999631108452,[2.40479424],5.0,0.6,0.0,0.19189096122015786,6.030581478370633,0.4999725903299367
3.381392478942871,1.1968171400121053,[2.40497371],5.0,0.6,0.0,0.13802465064671043,6.011966192501395,0.499985818772323
3.391425609588623,1.2007251143468387,[2.40515045],5.0,0.6,0.0,0.09301442565563142,5.995674993906814,0.4999935597237591
3.3994367122650146,1.2040468925313619,[2.40532489],5.0,0.6,0.0,0.058291629862605714,5.9816056745966115,0.4999974705973222
3.410855531692505,1.2085410630163056,[2.40549806],5.0,0.6,0.0,0.03277921791368346,5.965056568486211,0.49999920015929383
3.4205727577209473,1.2126444360677755,[2.40567124],5.0,0.6,0.0,0.014686557217853603,5.945309591330184,0.49999983943658044
3.431497097015381,1.217138606552719,[2.40584522],5.0,0.6,0.0,0.0022444232710962303,5.923782859007112,0.4999999962501301
3.4428725242614746,1.2214373783209256,[2.40602069],5.0,0.6,0.0,-0.006041168691782412,5.907080710735236,0.4999999728325679
3.4505016803741455,1.2241729603552391,[2.40619826],5.0,0.6,0.0,-0.011341597638600437,5.889458430186193,0.4999999042464012
3.46193790435791,1.2286671308401824,[2.40637812],5.0,0.6,0.0,-0.0145376234226983,5.872561432452594,0.499999842676559
3.4700376987457275,1.2321843077414425,[2.40656046],5.0,0.6,0.0,-0.01627433500837261,5.851266866263495,0.49999980284259504
3.479909658432007,1.2362876807929126,[2.40674509],5.0,0.6,0.0,-0.017015880200789264,5.832537649531657,0.49999978446618293
3.4884040355682373,1.2398048576941727,[2.40693183],5.0,0.6,0.0,-0.01709189766556502,5.816498723012641,0.4999997825361119
3.4977831840515137,1.2439082307456428,[2.4071209],5.0,0.6,0.0,-0.0167340691117962,5.797542360045072,0.49999979154625523
3.50789213180542,1.2480116037971127,[2.40731251],5.0,0.6,0.0,-0.016103720735897255,5.778607918985501,0.4999998069547799
3.5161373615264893,1.2513333819816361,[2.40750685],5.0,0.6,0.0,-0.015312142519899066,5.763438585679399,0.4999998254666097
3.5253989696502686,1.2550459575996329,[2.40770371],5.0,0.6,0.0,-0.014435302446146495,5.7420862350242245,0.499999844883362
3.5374062061309814,1.2597355268013128,[2.40790252],5.0,0.6,0.0,-0.01352438403882293,5.721354614384354,0.49999986384248857
3.5468709468841553,1.263838899852783,[2.40810362],5.0,0.6,0.0,-0.012613274297098374,5.707702735991347,0.49999988156984315
3.555622100830078,1.2671606780373064,[2.4083077],5.0,0.6,0.0,-0.011723854504962598,5.687345916813839,0.49999989768307695
3.5654327869415283,1.2712640510887767,[2.40851455],5.0,0.6,0.0,-0.010869722383090606,5.669117926940343,0.49999991204844113
3.574444532394409,1.2747812279900368,[2.40872396],5.0,0.6,0.0,-0.010058801325672098,5.653437979044032,0.49999992468194376
3.5840885639190674,1.2786892023247702,[2.40893616],5.0,0.6,0.0,-0.009295163615962429,5.635685074186272,0.4999999356837485
3.5942258834838867,1.2825971766595035,[2.40915132],5.0,0.6,0.0,0.26745805933297484,5.617546069140093,0.49994675302655134
3.603455066680908,1.2863097522775002,[2.40936956],5.0,0.6,0.0,0.30124895997803647,5.600383872439691,0.49993244951844407
3.6113967895507812,1.2896315304620236,[2.40959052],5.0,0.6,0.0,0.246770734198942,5.580401560140154,0.4999546711923853
3.6210615634918213,1.2933441060800202,[2.40981343],5.0,0.6,0.0,0.17125946379895987,5.564335082119152,0.49997816735499545
3.630044937133789,1.2972520804147536,[2.41003801],5.0,0.6,0.0,0.10126758084136767,5.546922269087276,0.499992366139303
3.6397368907928467,1.3015508521829606,[2.41026438],5.0,0.6,0.0,0.045136187432124435,5.527210348286719,0.4999984834533947
3.6473898887634277,1.3044818329340107,[2.41049223],5.0,0.6,0.0,0.0035912021559837,5.509512094118788,0.49999999039966525
3.6573846340179443,1.308389807268744,[2.41072119],5.0,0.6,0.0,-0.025406506924626412,5.49679943626321,0.49999951949668864
3.6681039333343506,1.3126885790369507,[2.41095167],5.0,0.6,0.0,-0.044549550261927646,5.475849714064986,0.49999852261841327
3.679631471633911,1.3169873508051573,[2.41118389],5.0,0.6,0.0,-0.0563476183927062,5.454768267947393,0.4999976364936233
3.688807487487793,1.320895325139891,[2.41141753],5.0,0.6,0.0,-0.06286280014133419,5.435526772863728,0.49999705833751357
3.697411060333252,1.324412502041151,[2.41165216],5.0,0.6,0.0,-0.06568465434099444,5.418104870248359,0.4999967883137073
3.7053704261779785,1.3275388815089375,[2.41188699],5.0,0.6,0.0,-0.06599288891982624,5.399249528949346,0.499996758100492
3.7143633365631104,1.3312514571269343,[2.41212095],5.0,0.6,0.0,-0.06464125874376878,5.382201953703275,0.49999688953775645
3.724388599395752,1.3353548301784044,[2.41235371],5.0,0.6,0.0,-0.062236266745199206,5.366227126545812,0.49999711668235197
3.7327721118927,1.3386766083629278,[2.41258525],5.0,0.6,0.0,-0.059202205518546595,5.3461987555894925,0.4999973909565321
3.7407665252685547,1.3418029878307145,[2.41281461],5.0,0.6,0.0,-0.055831629167306045,5.32855070681146,0.4999976795817682
3.7499756813049316,1.3459063608821848,[2.41304069],5.0,0.6,0.0,-0.05232312490261954,5.310237888297902,0.49999796205181735
3.7577764987945557,1.3490327403499716,[2.41326316],5.0,0.6,0.0,-0.04880894616132243,5.296147655675952,0.49999822660791043
3.765364170074463,1.3525499172512316,[2.41348176],5.0,0.6,0.0,-0.045374926845447264,5.276808191453754,0.49999846736801246
3.7751576900482178,1.3562624928692282,[2.41369597],5.0,0.6,0.0,0.23396367626634076,5.260272961458518,0.49995925391821505
3.7839832305908203,1.3597796697704883,[2.41390572],5.0,0.6,0.0,0.2702232969752206,5.244316420560619,0.4999456463584792
3.7938215732574463,1.3636876441052217,[2.41411123],5.0,0.6,0.0,0.21807947785195755,5.2262191347533715,0.4999645985624711
3.8021461963653564,1.3668140235730084,[2.41431275],5.0,0.6,0.0,0.144760123001891,5.211790196293293,0.49998440096302155
3.8105993270874023,1.3701358017575318,[2.41451022],5.0,0.6,0.0,0.07681580159338355,5.193335320911583,0.49999560755935574
3.8202292919158936,1.3740437760922652,[2.41470338],5.0,0.6,0.0,0.022589872401530646,5.175673008912394,0.4999996201308141
3.8287928104400635,1.3771701555600517,[2.41489233],5.0,0.6,0.0,-0.017186886418999164,5.161645552045238,0.49999978011227114
3.8364148139953613,1.3804919337445751,[2.41507718],5.0,0.6,0.0,-0.04454718556696755,5.143390397220699,0.49999852277524803
3.847572088241577,1.3849861042295188,[2.41525808],5.0,0.6,0.0,-0.06217636163543358,5.126110354315832,0.49999712223030157
3.8554587364196777,1.3885032811307787,[2.4154355],5.0,0.6,0.0,-0.07257645627973945,5.106319307618217,0.49999607900317805
3.8643300533294678,1.3922158567487755,[2.41560958],5.0,0.6,0.0,0.19823650843106908,5.089285310341689,0.49997074761703236
3.8743717670440674,1.396123831083509,[2.41578048],5.0,0.6,0.0,0.22972841717929815,5.071058229141865,0.4999607156967853
3.8829548358917236,1.3994456092680323,[2.41594837],5.0,0.6,0.0,0.17541874223925483,5.052605316721863,0.49997709402867196
3.8916404247283936,1.4031581848860288,[2.41611316],5.0,0.6,0.0,-0.17434358899535146,5.036222083610442,0.4999773739463359
3.8998470306396484,1.4064799630705522,[2.4162751],5.0,0.6,0.0,0.001382009803028758,5.021229948373947,0.4999999985782314
3.9084465503692627,1.4099971399718125,[2.41643472],5.0,0.6,0.0,0.03687191450409867,5.00503135928122,0.4999989879601536
3.9164373874664307,1.413318918156336,[2.41659224],5.0,0.6,0.0,0.020020380838522485,4.986596495190614,0.4999997016327064
3.9252264499664307,1.416836095057596,[2.41674758],5.0,0.6,0.0,-0.28676190883344643,4.971139006947393,0.49993878991028956
3.9353432655334473,1.420939468109066,[2.41690097],5.0,0.6,0.0,-0.349133764317022,4.952221755606629,0.4999092699874943
3.9441580772399902,1.4242612462935895,[2.4170529],5.0,0.6,0.0,-0.3167652022783278,4.936938248199933,0.49992531228539283
3.9552836418151855,1.4285600180617963,[2.41720375],5.0,0.6,0.0,-0.25623907015736147,4.916560766762403,0.4999511261953919
3.9640979766845703,1.4320771949630564,[2.41735389],5.0,0.6,0.0,-0.1950712967310821,4.8998419131216195,0.4999716742697339
3.9713900089263916,1.4353989731475796,[2.41750332],5.0,0.6,0.0,-0.14297793619473864,4.8811587136127095,0.49998478268206437
3.982123851776123,1.439893143632523,[2.41765204],5.0,0.6,0.0,-0.10198853987650629,4.86307096440764,0.49999225705702
3.9903852939605713,1.4432149218170465,[2.41780027],5.0,0.6,0.0,-0.07113874285837518,4.844034288022144,0.49999623281097955
4.002368927001953,1.4479044910187262,[2.41794819],5.0,0.6,0.0,-0.32460005301281075,4.82471396377235,0.4999215722446856
4.011362791061401,1.4514216679199867,[2.41809592],5.0,0.6,0.0,-0.3415183304325599,4.804659572581099,0.49991318455283784
4.022594690322876,1.45591583840493,[2.41824351],5.0,0.6,0.0,-0.27495705863683706,4.785886428308952,0.4999437254564555
4.030467987060547,1.4592376165894534,[2.41839098],5.0,0.6,0.0,-0.19086252893127412,4.766764519991472,0.4999728833368431
4.040114641189575,1.4631455909241868,[2.41853808],5.0,0.6,0.0,-0.11480990047557424,4.74818110820199,0.49999018791967287
4.0504491329193115,1.4674443626923934,[2.41868457],5.0,0.6,0.0,-0.05441904482321319,4.7274856821504105,0.49999779551297374
4.060379266738892,1.4713523370271269,[2.41883046],5.0,0.6,0.0,-0.009892514049677191,4.708626736824924,0.49999992715160374
4.069370985031128,1.4750649126451236,[2.41897573],5.0,0.6,0.0,0.2972227331133011,4.690528416320078,0.4999342429740578
4.078448295593262,1.4783866908296472,[2.41912037],5.0,0.6,0.0,0.3509346175165647,4.674478341786826,0.499908331677745
4.086385488510132,1.4819038677309073,[2.41926412],5.0,0.6,0.0,0.30863414566448777,4.655019296694935,0.49992909712823114
4.094341278076172,1.485030247198694,[2.41940656],5.0,0.6,0.0,0.23975117500197884,4.6406920488823795,0.4999572132222514
4.103396415710449,1.488547424099954,[2.41954756],5.0,0.6,0.0,0.17251939004849692,4.6242363770722354,0.4999778449425076
4.113460540771484,1.492650797151424,[2.41968702],5.0,0.6,0.0,0.11652309335379804,4.6024019937505845,0.49998989290619106
4.121461629867554,1.496167974052684,[2.41982467],5.0,0.6,0.0,0.07338564313023786,4.586403511566082,0.4999959910822731
4.133150100708008,1.5010529419711007,[2.41996073],5.0,0.6,0.0,0.04170422929526792,4.565722833934921,0.4999987053084529
4.141558647155762,1.504374720155624,[2.42009586],5.0,0.6,0.0,-0.2568076826241513,4.54969019797035,0.49995090905658446
4.150442600250244,1.5078918970568842,[2.42023017],5.0,0.6,0.0,-0.3054016997919107,4.530324459819577,0.4999305744350865
4.16167140007019,1.5123860675418277,[2.42036357],5.0,0.6,0.0,-0.2606244711903116,4.511551554608848,0.4999494390647909
4.169445514678955,1.5153170482928777,[2.4204962],5.0,0.6,0.0,-0.1911618812308727,4.494853871117348,0.4999727982119073
4.178705453872681,1.5190296239108745,[2.42062798],5.0,0.6,0.0,-0.40069291411042873,4.477623612822922,0.4998804971960194
4.188161611557007,1.5227421995288712,[2.42075882],5.0,0.6,0.0,-0.379402322649117,4.459859411405031,0.49989285791082305
4.198461294174194,1.5272363700138143,[2.42088876],5.0,0.6,0.0,-0.28327955265579596,4.437706362079444,0.4999402674316946
4.211286544799805,1.5323167366489678,[2.42101778],5.0,0.6,0.0,-0.17792479284210252,4.41282489662119,0.4999764348950298
4.220360040664673,1.535833913550228,[2.42114586],5.0,0.6,0.0,-0.08747963915677562,4.396072707780737,0.49999430336797235
4.230428695678711,1.539546489168225,[2.42127311],5.0,0.6,0.0,-0.017970202175053657,4.378542021988361,0.49999975961215876
4.238563299179077,1.5428682673527483,[2.42139969],5.0,0.6,0.0,0.031806783427717644,4.362750265324017,0.49999924691178427
4.2463953495025635,1.5465808429707448,[2.42152534],5.0,0.6,0.0,0.06539061102071098,4.344838468727325,0.49999681700406495
4.256387233734131,1.5506842160222152,[2.4216494],5.0,0.6,0.0,0.08659462715968849,4.325091858373643,0.4999944180473978
4.2643938064575195,1.5540059942067386,[2.42177182],5.0,0.6,0.0,0.09874444541816432,4.309480148583626,0.4999927418009672
4.276941299438477,1.559086360841892,[2.42189349],5.0,0.6,0.0,0.10448541314498362,4.290100237020114,0.49999187329538514
4.285076379776001,1.5622127403096786,[2.42201542],5.0,0.6,0.0,0.10581812217473408,4.271165315954669,0.4999916646631361
4.293452024459839,1.5657299172109387,[2.42213779],5.0,0.6,0.0,0.1042083397222889,4.254082573364055,0.4999919163385259
4.301803827285767,1.569051695395462,[2.4222603],5.0,0.6,0.0,0.10070643360192716,4.235538126480824,0.49999245050626473
4.309760332107544,1.5721780748632488,[2.42238273],5.0,0.6,0.0,0.0960521486200453,4.221326513124225,0.4999931321964953
4.317385673522949,1.5751090556142986,[2.4225049],5.0,0.6,0.0,0.09075848600794416,4.205217651107519,0.499993868333897
4.326649904251099,1.5790170299490323,[2.42262665],5.0,0.6,0.0,0.08517563786311644,4.1875070387840525,0.49999459948571573
4.334628105163574,1.5823388081335557,[2.42274807],5.0,0.6,0.0,0.3555766651485203,4.171939433964766,0.49990589075137154
4.344374418258667,1.586246782468289,[2.42286946],5.0,0.6,0.0,0.3831630254777934,4.153347638182881,0.4998907235946313
4.3547046184539795,1.590350155519759,[2.42299102],5.0,0.6,0.0,0.322723698278937,4.1337010556412634,0.49992247625925695
4.364444017410278,1.5942581298544924,[2.42311292],5.0,0.6,0.0,0.24155088748446496,4.114929585159241,0.4999565684741362
4.372462034225464,1.5975799080390158,[2.4232353],5.0,0.6,0.0,0.1662261183733208,4.098940311352769,0.4999794318008018
4.383106231689453,1.6018786798072226,[2.42335825],5.0,0.6,0.0,0.10510141139486576,4.078145565434804,0.49999177719103843
4.3937036991119385,1.6059820528586928,[2.42348183],5.0,0.6,0.0,0.05890160181228805,4.058238028556782,0.4999974173844318
4.402454853057861,1.609890027193426,[2.42360607],5.0,0.6,0.0,0.02557875379013511,4.039157174347683,0.49999951295933126
4.410606145858765,1.6132118053779496,[2.42373095],5.0,0.6,0.0,0.00242668346914306,4.023035382400802,0.4999999956163796
4.41894006729126,1.6167289822792097,[2.42385622],5.0,0.6,0.0,-0.013080623272686415,4.003662584784028,0.4999998726310713
4.427367925643921,1.620050760463733,[2.42398145],5.0,0.6,0.0,-0.02302296038182567,3.9882641760187245,0.49999960542566224
4.436834812164307,1.623567937364993,[2.42410627],5.0,0.6,0.0,-0.029008057693883673,3.9694715661902364,0.49999937361160307
4.445533514022827,1.627085114266253,[2.4242304],5.0,0.6,0.0,-0.3082720182883537,3.9537475998738367,0.4999292634027214
4.456386566162109,1.6315792847511963,[2.4243538],5.0,0.6,0.0,-0.34273399644866764,3.932666546754512,0.49991256545177143
4.468432903289795,1.6366596513863498,[2.42447687],5.0,0.6,0.0,-0.2877091524573697,3.910626312025409,0.49993838488403436
4.476367473602295,1.6395906321374,[2.4245999],5.0,0.6,0.0,-0.21087176226209092,3.8938699641966643,0.4999668999115196
4.484339714050293,1.6427170116051868,[2.42472277],5.0,0.6,0.0,-0.1390793751791481,3.8792983762313393,0.49998560121377783
4.495352268218994,1.6470157833733936,[2.42484554],5.0,0.6,0.0,-0.08088308014188028,3.860989416599404,0.49999513010134683
4.505656719207764,1.6511191564248633,[2.42496867],5.0,0.6,0.0,-0.03715142583881137,3.84038378093025,0.49999897255826803
4.513420820236206,1.6544409346093867,[2.42509191],5.0,0.6,0.0,-0.0059405830596052644,3.8243463048995925,0.4999999737297135
4.522339820861816,1.65776271279391,[2.42521424],5.0,0.6,0.0,0.015379785277616437,3.8057339793722145,0.4999998239211702
4.534698009490967,1.6628430794290636,[2.42533517],5.0,0.6,0.0,0.02927999343702233,3.783369630290982,0.49999936181241955
4.54285740852356,1.666164857613587,[2.42545509],5.0,0.6,0.0,0.03779851054769352,3.766668621593161,0.4999989364556935
4.550381183624268,1.6694866357981104,[2.42557411],5.0,0.6,0.0,0.3185503824417387,3.7479452536036177,0.49992446814828445
4.560967922210693,1.6737854075663172,[2.42569207],5.0,0.6,0.0,0.35375757464812774,3.7289643763070117,0.4999068511036528
4.569459676742554,1.6771071857508406,[2.42580901],5.0,0.6,0.0,0.29896492258018337,3.7103889894804705,0.499933469888459
4.579447031021118,1.681210558802311,[2.42592478],5.0,0.6,0.0,0.22201534547779428,3.6905450078905746,0.49996330923834725
4.5894458293914795,1.6853139318537809,[2.42603923],5.0,0.6,0.0,0.14988747401807434,3.6705088706363553,0.4999832763875902
4.601657152175903,1.6901988997721975,[2.42615255],5.0,0.6,0.0,0.09121783766443704,3.6484037248883534,0.4999938061093854
4.610415697097778,1.693520677956721,[2.42626507],5.0,0.6,0.0,0.04693436987013624,3.631593204399113,0.4999983602110851
4.620397329330444,1.697624051008191,[2.42637685],5.0,0.6,0.0,0.015133894794507285,3.6110897038980903,0.499999829506423
4.6323583126068115,1.702509018926608,[2.42648779],5.0,0.6,0.0,-0.00678657309900055,3.586747519764026,0.4999999657147182
4.640701055526733,1.7058307971111315,[2.42659762],5.0,0.6,0.0,-0.021279350902877532,3.568609769806043,0.4999996629275315
4.650330543518066,1.709543372729128,[2.42670599],5.0,0.6,0.0,-0.030371432504275635,3.5509513771816175,0.4999993133476196
4.660990953445435,1.7138421444973346,[2.4268129],5.0,0.6,0.0,-0.03563253723417521,3.531580954772095,0.4999990548521296
4.669325828552246,1.7167731252483849,[2.42691849],5.0,0.6,0.0,-0.038232867065941284,3.515446169194086,0.4999989118721239
4.67875337600708,1.720876498299855,[2.4270226],5.0,0.6,0.0,-0.03902357030771478,3.4955569391983694,0.4999988663990925
4.6871337890625,1.7243936752011149,[2.42712511],5.0,0.6,0.0,-0.038613057327917776,3.478554359947054,0.49999889012371207
4.697767019271851,1.7286924469693217,[2.42722619],5.0,0.6,0.0,-0.037430393502924916,3.459231340427979,0.4999989570703652
4.705294609069824,1.7318188264371084,[2.42732604],5.0,0.6,0.0,-0.035774638510565795,3.44209061547489,0.4999990472986739
4.714494228363037,1.735531402055105,[2.42742455],5.0,0.6,0.0,-0.03385184594864291,3.4242265427609513,0.4999991469568173
4.723420858383179,1.7388531802396283,[2.42752166],5.0,0.6,0.0,-0.03180217572472877,3.4082746630041836,0.4999992471299612
4.7313995361328125,1.742174958424152,[2.42761718],5.0,0.6,0.0,-0.029719462127567015,3.392145184036649,0.4999993425113198
4.741332054138184,1.7460829327588854,[2.42771071],5.0,0.6,0.0,-0.027665190602116155,3.37314954222377,0.49999943026387
4.75135350227356,1.7503817045270922,[2.42780217],5.0,0.6,0.0,-0.025678406726323162,3.3520898873429283,0.49999950915699176
4.7613396644592285,1.754485077578562,[2.42789182],5.0,0.6,0.0,-0.023782701929448077,3.332151019470682,0.49999957895464725
4.769378185272217,1.7576114570463488,[2.42797993],5.0,0.6,0.0,-0.0219911160842175,3.3169674355496745,0.49999964000119335
4.782373428344727,1.7626918236815023,[2.42806689],5.0,0.6,0.0,-0.020309564459086226,3.29361663156554,0.49999969295094715
4.7918994426727295,1.7664043992994989,[2.42815315],5.0,0.6,0.0,-0.01873922388799292,3.2749309367771273,0.4999997385974849
4.803372621536255,1.771289367217916,[2.42823895],5.0,0.6,0.0,0.2587601723805481,3.250270465212515,0.49995015978665414
4.812317848205566,1.7748065441191758,[2.4283243],5.0,0.6,0.0,0.29324035754534816,3.232534078487846,0.499935993164413
4.821302175521851,1.778323721020436,[2.4284092],5.0,0.6,0.0,0.2393982372628475,3.2149559326899655,0.4999573390970021
4.832324743270874,1.7828178915053792,[2.42849376],5.0,0.6,0.0,0.16447355863290694,3.1939745375124144,0.49997986321615695
4.841863393783569,1.7867258658401126,[2.42857816],5.0,0.6,0.0,0.09502230245119443,3.1741204448496254,0.4999932786756253
4.850194692611694,1.7902430427413727,[2.42866231],5.0,0.6,0.0,0.03938895934286582,3.1551271321877143,0.4999988450712632
4.86142635345459,1.7949326119430529,[2.42874584],5.0,0.6,0.0,0.27434101160139135,3.13182078026873,0.4999439773284306
4.8694071769714355,1.797668193977366,[2.42882847],5.0,0.6,0.0,0.0028518597421978986,3.1171809625563056,0.49999999394571304
4.879342794418335,1.8015761683120999,[2.4289099],5.0,0.6,0.0,-0.10412428362778438,3.098434122433685,0.49999192937397957
4.889421224594116,1.8058749400803065,[2.42899004],5.0,0.6,0.0,-0.1365522796204206,3.077560690497743,0.4999861197094679
4.9014928340911865,1.8109553067154598,[2.42906903],5.0,0.6,0.0,-0.1371758255634255,3.0537231764061263,0.49998599265720256
4.913361310958862,1.81564487591714,[2.42914706],5.0,0.6,0.0,-0.12579375495460696,3.0304248271419434,0.4999882206935179
4.923480272293091,1.8199436476853468,[2.42922432],5.0,0.6,0.0,-0.11119894417232154,3.0101177446694436,0.4999907954193964
4.931756258010864,1.8230700271531333,[2.42930086],5.0,0.6,0.0,-0.09700825777274955,2.9931141469378364,0.4999929947918732
4.941433668136597,1.8269780014878667,[2.42937651],5.0,0.6,0.0,-0.0844798307470136,2.973980141310679,0.49999468735938307
4.953399658203125,1.8318629694062836,[2.42945122],5.0,0.6,0.0,-0.07385329440558189,2.9508069387228,0.49999593982588864
4.962773323059082,1.8357709437410168,[2.42952513],5.0,0.6,0.0,-0.34101032891529753,2.9313526719801577,0.49991344261080717
4.97032904624939,1.8388973232088037,[2.42959817],5.0,0.6,0.0,-0.36672335305643333,2.9147338025136333,0.4998998985584122
4.980454206466675,1.8430006962602736,[2.42967009],5.0,0.6,0.0,-0.3054052510354268,2.8947915201726024,0.4999305728206135
4.993058443069458,1.848081062895427,[2.42974091],5.0,0.6,0.0,-0.2240487027618232,2.8709238113148143,0.4999626341114215
5.005875587463379,1.8531614295305805,[2.42981091],5.0,0.6,0.0,-0.14900893453362615,2.8466103594778582,0.4999834718549359
5.015463829040527,1.8568740051485775,[2.42988025],5.0,0.6,0.0,-0.08847261822911724,2.8268414324943305,0.49999417331011065
5.028477668762207,1.8621497705004673,[2.42994891],5.0,0.6,0.0,-0.04304664212304993,2.8018979748438153,0.49999862061774175
5.037308216094971,1.8654715486849907,[2.43001686],5.0,0.6,0.0,-0.010600571315650276,2.78421296449821,0.4999999163501468
5.045413494110107,1.8687933268695143,[2.43008403],5.0,0.6,0.0,0.011628423388000209,2.7680664832367805,0.4999998993419985
5.054839134216309,1.8727013012042475,[2.43015035],5.0,0.6,0.0,0.02620446951190384,2.7489701904826016,0.4999994888396042
5.065390348434448,1.8771954716891908,[2.43021598],5.0,0.6,0.0,0.03523236379548786,2.7278841381584713,0.4999990759619874
5.074344158172607,1.880908047307188,[2.43028102],5.0,0.6,0.0,0.3163740245857085,2.70803976765255,0.4999254966235238
5.086001873016357,1.8855976165088677,[2.43034546],5.0,0.6,0.0,0.351884554667236,2.685865992676701,0.49990783478197137
5.097094774246216,1.8900917869938112,[2.43040936],5.0,0.6,0.0,0.2973322452890039,2.6632694715996497,0.49993419451176446
5.105303049087524,1.8934135651783346,[2.43047268],5.0,0.6,0.0,0.22057665344319857,2.6456589393087704,0.4999637832034959
5.114343643188477,1.8971261407963316,[2.4305352],5.0,0.6,0.0,0.148608247252136,2.6274504412591626,0.49998356062282956
5.1224188804626465,1.900447918980855,[2.43059673],5.0,0.6,0.0,-0.18596634662748954,2.6103926250054315,0.4999742567002525
5.131288528442383,1.9043558933155882,[2.43065712],5.0,0.6,0.0,-0.2632610042674639,2.591451837336866,0.49994841097299836
5.1412951946258545,1.908068468933585,[2.43071632],5.0,0.6,0.0,-0.5159047651140458,2.5735422026152133,0.49980191129593954
5.151572942733765,1.9123672407017918,[2.43077444],5.0,0.6,0.0,-0.49477940577238627,2.5533154517189978,0.4998177989968351
5.159693717956543,1.9152982214528416,[2.4308316],5.0,0.6,0.0,-0.3835768551357563,2.537894621531593,0.4998904874482412
5.16859769821167,1.9188153983541019,[2.43088772],5.0,0.6,0.0,-0.25989501126143333,2.5207015763986145,0.4999497216837604
5.177697420120239,1.922332575255362,[2.43094277],5.0,0.6,0.0,-0.4286140048443102,2.503614458058797,0.49986326490394334
5.185796499252319,1.9258497521566218,[2.43099671],5.0,0.6,0.0,-0.37824773157078084,2.4855862933272146,0.49989350895542406
5.196035861968994,1.9301485239248286,[2.43104954],5.0,0.6,0.0,0.013671738166149805,2.4652466315827604,0.49999986085933334
5.204667329788208,1.9332749033926153,[2.4311013],5.0,0.6,0.0,0.16490421737744543,2.4488512012253087,0.49997975762763724
5.212268590927124,1.9364012828604023,[2.43115192],5.0,0.6,0.0,-0.06811589569779886,2.4329731503972822,0.49999654616076294
5.224365234375,1.941286250778819,[2.43120134],5.0,0.6,0.0,-0.1037357715779392,2.410216876202756,0.4999919894879236
5.234724998474121,1.9455850225470255,[2.43124978],5.0,0.6,0.0,-0.06778016540510388,2.3890230092258156,0.49999658012337533
5.2443931102752686,1.9496883955984958,[2.43129742],5.0,0.6,0.0,-0.014795457199241281,2.3687111926548012,0.4999998370466157
5.257255792617798,1.9549641609503858,[2.43134442],5.0,0.6,0.0,0.0337830727885963,2.343489587349516,0.499999150419366
5.265557527542114,1.958481337851646,[2.43139091],5.0,0.6,0.0,0.0713074958190909,2.3249006144795015,0.49999621491704754
5.275299310684204,1.9621939134696424,[2.43143688],5.0,0.6,0.0,0.09728716608359136,2.306783027774203,0.4999929544529222
5.28348708152771,1.9657110903709027,[2.43148232],5.0,0.6,0.0,0.38948420229301983,2.2893131451538964,0.4998870887206481
5.293660879135132,1.969619064705636,[2.43152733],5.0,0.6,0.0,0.4311736233506111,2.2699696742060795,0.499861627131294
5.303327322006226,1.973136241606896,[2.43157198],5.0,0.6,0.0,0.10306615916951138,2.25268247707899,0.4999920925687388
5.311913013458252,1.9766534185081563,[2.43161624],5.0,0.6,0.0,-0.006973918095442233,2.234628565709541,0.4999999637956842
5.321354389190674,1.9805613928428896,[2.43166002],5.0,0.6,0.0,0.25023336460289275,2.2152996879794125,0.49995339024039287
5.330383539199829,1.984469367177623,[2.43170333],5.0,0.6,0.0,0.2977837534427119,2.1962106758069124,0.4999339945179102
5.340373992919922,1.9885727402290931,[2.43174626],5.0,0.6,0.0,0.2652166435392541,2.175928487666789,0.4999476417063526
5.3503289222717285,1.992676113280563,[2.43178889],5.0,0.6,0.0,0.20985685019963035,2.155739460746186,0.4999672177514993
5.36037015914917,1.9967794863320332,[2.43183129],5.0,0.6,0.0,0.15515789132574076,2.135442821158365,0.4999820796441267
5.3703179359436035,2.0008828593835033,[2.43187351],5.0,0.6,0.0,0.10920262863984112,2.1151948661493427,0.49999112294307096
5.379441738128662,2.004400036284763,[2.43191561],5.0,0.6,0.0,0.07348390449317704,2.0977640015120596,0.49999598033946735
5.387338161468506,2.00752641575255,[2.43195762],5.0,0.6,0.0,0.04696609649015815,2.082354813171093,0.49999835799341596
5.395824432373047,2.0112389913705466,[2.43199952],5.0,0.6,0.0,0.027885773847974797,2.0632123447110358,0.49999942114228557
5.4052040576934814,2.0149515669885436,[2.43204119],5.0,0.6,0.0,0.014490953507849583,2.045067691054526,0.49999984368504446
5.414676666259766,2.0188595413232773,[2.43208261],5.0,0.6,0.0,0.005297989331569997,2.025890783392646,0.4999999791056534
5.423633813858032,2.0221813195078004,[2.43212383],5.0,0.6,0.0,-0.0008588898384736723,2.009569601013022,0.49999999945086443
5.433871269226074,2.0260892938425337,[2.4321649],5.0,0.6,0.0,-0.004858035916126073,1.990231251613235,0.4999999824317707
5.442376136779785,2.0292156733103206,[2.43220585],5.0,0.6,0.0,-0.007344257752320975,1.974851724605038,0.49999995984844275
5.450907230377197,2.032928248928317,[2.43224664],5.0,0.6,0.0,-0.008782804740855014,1.9557841841302157,0.49999994257870284
5.4586005210876465,2.0362500271128408,[2.43228716],5.0,0.6,0.0,-0.009505282843710551,1.9395485163089379,0.499999932743141
5.466269493103027,2.039571805297364,[2.43232734],5.0,0.6,0.0,-0.009745852531710524,1.9226087132568959,0.4999999292956604
5.4762632846832275,2.043675178348834,[2.4323671],5.0,0.6,0.0,-0.009668589239029825,1.9025885315049644,0.49999993041231405
5.48724365234375,2.0483647475505142,[2.43240652],5.0,0.6,0.0,-0.009387640681304252,1.8803540876211868,0.4999999343977795
5.495581388473511,2.0514911270183007,[2.43244574],5.0,0.6,0.0,-0.008981834005993134,1.864085407141809,0.4999999399469728
5.504993438720703,2.0552037026362977,[2.43248476],5.0,0.6,0.0,-0.008505144277086651,1.8459002653903334,0.4999999461523778
5.5122950077056885,2.058134683387348,[2.4325235],5.0,0.6,0.0,-0.007994139522082982,1.8308689342647233,0.499999952428812
5.521292686462402,2.062042657722081,[2.43256193],5.0,0.6,0.0,-0.007473246557871715,1.8119309168640982,0.4999999584268583
5.531625747680664,2.066146030773551,[2.43260016],5.0,0.6,0.0,-0.006958460294821264,1.7925472367578876,0.4999999639581681
5.539260149002075,2.0694678089580743,[2.43263832],5.0,0.6,0.0,-0.006459948256009646,1.7752785202556354,0.49999996893897225
5.547269344329834,2.072594188425861,[2.43267642],5.0,0.6,0.0,0.27005448525301806,1.7598894814412651,0.4999457142497893
5.556294679641724,2.075915966610385,[2.43271446],5.0,0.6,0.0,0.30362928960701074,1.7435051841824454,0.49993137787810343
5.566840648651123,2.0802147383785914,[2.43275244],5.0,0.6,0.0,0.24895476907055938,1.7215532878950466,0.4999538653332318
5.5763444900512695,2.084122712713325,[2.4327903],5.0,0.6,0.0,0.17326466759241416,1.7024538227396628,0.49997765314281906
5.587537050247192,2.0886168831982683,[2.43282812],5.0,0.6,0.0,0.1031094923207922,1.681184298412867,0.4999920859693396
5.597548723220825,2.0927202562497382,[2.43286611],5.0,0.6,0.0,0.046828732681475825,1.6606351997718765,0.49999836767347866
5.607083320617676,2.096628230584472,[2.43290434],5.0,0.6,0.0,0.005146934415014404,1.6411436319716546,0.49999998043074556
5.616244792938232,2.1003408062024684,[2.4329428],5.0,0.6,0.0,-0.02397621983170358,1.6226707824739264,0.49999957232096454
5.625107049942017,2.1042487805372017,[2.43298147],5.0,0.6,0.0,-0.04323437675918729,1.6032355188983747,0.49999860897077336
5.633518218994141,2.1073751600049886,[2.43302026],5.0,0.6,0.0,-0.05513814221262208,1.5869924248328566,0.4999977374829375
5.6433210372924805,2.1112831343397223,[2.43305903],5.0,0.6,0.0,-0.061750420468665676,1.567753932947261,0.4999971625390833
5.651324033737183,2.114214115090772,[2.43309757],5.0,0.6,0.0,-0.0646615019328505,1.5532439070117583,0.4999968890602872
5.664289712905884,2.119489880442662,[2.43313573],5.0,0.6,0.0,-0.0650517545286607,1.5278553405165753,0.49999685276071715
5.67483115196228,2.1237886522108687,[2.43317357],5.0,0.6,0.0,-0.06377553118135647,1.5068857790372645,0.49999697714753577
5.682255268096924,2.126719632961919,[2.43321123],5.0,0.6,0.0,-0.061439878642167545,1.4913760808429546,0.49999719693098355
5.692506790161133,2.1310184047301255,[2.43324867],5.0,0.6,0.0,-0.05846958534191167,1.4705564284510535,0.49999746677225637
5.701268434524536,2.134535581631386,[2.43328585],5.0,0.6,0.0,-0.05515765841954455,1.452172927658207,0.4999977529539167
5.713280200958252,2.1394205495498024,[2.43332271],5.0,0.6,0.0,-0.05170309968509616,1.4284060238989778,0.49999804148857013
5.722262620925903,2.1429377264510627,[2.43335923],5.0,0.6,0.0,-0.04823854247049161,1.4107196131549031,0.499998315012263
5.731273174285889,2.146845700785796,[2.43339536],5.0,0.6,0.0,-0.04485016910638241,1.3907049778326381,0.4999985763952245
5.740285158157349,2.150362877687056,[2.43343097],5.0,0.6,0.0,-0.04159191585207022,1.3732170899659764,0.49999882197329926
5.750280380249023,2.1546616494552624,[2.43346598],5.0,0.6,0.0,-0.038495526401140526,1.351873264480563,0.4999990740019578
5.759739637374878,2.158569623789996,[2.43350034],5.0,0.6,0.0,-0.03557762477375295,1.332424151665076,0.49999932978582334
5.768814325332642,2.1620868006912564,[2.43353403],5.0,0.6,0.0,0.2431936936411253,1.3146877091659677,0.49995637376634106
5.778302431106567,2.165799376309253,[2.43356703],5.0,0.6,0.0,0.27886657776042545,1.2961554656609133,0.4999427057912694
5.789116859436035,2.17009814807746,[2.43359929],5.0,0.6,0.0,0.22613751912077054,1.2747353666336574,0.49996286556846264
5.798280715942383,2.17361532497872,[2.43363083],5.0,0.6,0.0,0.15224790582479725,1.2572458676775773,0.4999840871691823
5.808499097824097,2.177523299313453,[2.43366163],5.0,0.6,0.0,0.08375664558587358,1.2378173003472335,0.49999677991661945
5.818938255310059,2.18182207108166,[2.43369172],5.0,0.6,0.0,0.029011914729618143,1.216468976985708,0.5000024624433831
5.827678918838501,2.1855346466996566,[2.4337211],5.0,0.6,0.0,-0.011253077779468285,1.197999426118657,0.5000043704596826
5.835262298583984,2.1886610261674435,[2.43374977],5.0,0.6,0.0,-0.03907020903070629,1.1821076292477508,0.5000049243086183
5.844271183013916,2.1925690005021767,[2.43377769],5.0,0.6,0.0,0.21891332816793305,1.1627015179004818,0.49997316642070666
5.8541953563690186,2.1966723735536466,[2.43380491],5.0,0.6,0.0,0.24124248892294653,1.1424295944567366,0.4999697339286665
5.862256765365601,2.199603354304697,[2.43383146],5.0,0.6,0.0,-0.09548486962605862,1.1276738004168545,0.5000103793999131
5.8749473094940186,2.20468372093985,[2.43385741],5.0,0.6,0.0,-0.2066660511525343,1.1032759746464056,0.4999956303623325
5.883672475814819,2.208396296557847,[2.43388292],5.0,0.6,0.0,-0.22161694657384806,1.0848815665303344,0.5000017874544498
5.891237020492554,2.2117180747423704,[2.43390806],5.0,0.6,0.0,-0.20008161638030383,1.0679077971944395,0.5000217134729402
5.900255441665649,2.2152352516436307,[2.43393285],5.0,0.6,0.0,-0.16848845487903183,1.0506954641946828,0.5000489583439386
5.911065340042114,2.2193386246951006,[2.43395738],5.0,0.6,0.0,-0.13763751092336474,1.0310638289308314,0.5000857082504016
5.920272588729858,2.223246599029834,[2.4339818],5.0,0.6,0.0,-0.11123559023794544,1.0110071474819986,0.5001296742006096
5.929254531860352,2.226763775931094,[2.43400615],5.0,0.6,0.0,-0.0899477928928536,0.9936659091357943,0.5001799557413457
5.9394965171813965,2.2306717502658273,[2.43403043],5.0,0.6,0.0,-0.07327205124415712,0.9743552203553371,0.5002518454282778
5.948789358139038,2.234579724600561,[2.43405472],5.0,0.6,0.0,-0.06037051782807569,0.9549221461608831,0.5003471200117865
5.956794023513794,2.2377061040683475,[2.43407905],5.0,0.6,0.0,-0.05041112459806484,0.9395061702688162,0.5004453250274308
5.9662744998931885,2.2420048758365545,[2.4341035],5.0,0.6,0.0,-0.04268645172640739,0.9182280004241463,0.5006220097781107
5.974263668060303,2.2451312553043414,[2.43412807],5.0,0.6,0.0,-0.03663680923505109,0.902285463620989,0.5007886203929511
5.984068155288696,2.2488438309223375,[2.43415273],5.0,0.6,0.0,-0.03183631688874214,0.884049810043426,0.5010399287321677
5.994268417358398,2.2529472039738083,[2.43417751],5.0,0.6,0.0,-0.30400646831090866,0.8640424718550097,0.5013345686980668
6.003516912460327,2.2566597795918044,[2.43420243],5.0,0.6,0.0,-0.3339624009579386,0.8452311510468795,0.5017454484261826
6.015989303588867,2.261740146226958,[2.4342275],5.0,0.6,0.0,-0.276226179144947,0.8208826391303516,0.5025480623759125
6.024677753448486,2.2654527218449547,[2.43425284],5.0,0.6,0.0,-0.19790825159052083,0.8024136006450427,0.5033211765825658
6.032240390777588,2.268383702596005,[2.43427849],5.0,0.6,0.0,-0.12546852200355416,0.7872836092135871,0.5040578600445067
6.040639638900757,2.271900879497265,[2.43430437],5.0,0.6,0.0,-0.06717949851972706,0.7700060487406682,0.5051147065740889
6.04825758934021,2.274831860248315,[2.43433041],5.0,0.6,0.0,-0.023715762880661427,0.7549752060182765,0.5061701920208959
6.058625936508179,2.278935233299785,[2.43435653],5.0,0.6,0.0,0.28303906913416627,0.734578138976254,0.5079176632413048
6.067002058029175,2.282257011484308,[2.4343827],5.0,0.6,0.0,0.33685538759089234,0.7181602438285654,0.5096854780254203
6.075258016586304,2.2857741883855685,[2.43440889],5.0,0.6,0.0,0.2949581395239611,0.7001731809008428,0.5119880798213754
6.086047649383545,2.290072960153775,[2.43443507],5.0,0.6,0.0,0.2266621024949515,0.679390660051932,0.5154436590207886
6.096143484115601,2.2943717319219816,[2.43446126],5.0,0.6,0.0,0.16012195722563516,0.6580465216275816,0.5197227484153326
6.106470823287964,2.298475104973452,[2.43448752],5.0,0.6,0.0,0.10486837321744251,0.6375690390725213,0.5247184170949183
6.11483359336853,2.3019922818747123,[2.43451384],5.0,0.6,0.0,0.062488822418262306,0.6201639435152597,0.529822558904792
6.123189210891724,2.3057048574927084,[2.43454023],5.0,0.6,0.0,-0.2444814005835039,0.6019701904221495,0.5361188062502967
6.133409738540649,2.309417433110706,[2.43456671],5.0,0.6,0.0,-0.29935334117841206,0.5837010442531751,0.5435433191613402
6.14124321937561,2.312739211295229,[2.43459332],5.0,0.6,0.0,-0.2590317260311318,0.567378086225923,0.5512695465027342
6.150266885757446,2.3158655907630155,[2.43462005],5.0,0.6,0.0,-0.19261051210053987,0.5514386701075894,0.5595470959089738
6.158277273178101,2.319187368947539,[2.43464684],5.0,0.6,0.0,-0.4041322915419373,0.5353766555972229,0.5693958486846337
6.1662867069244385,2.322313748415326,[2.43467366],5.0,0.6,0.0,-0.38407462957806004,0.5195442167969776,0.5799525062821539
6.175112962722778,2.3260263240333225,[2.43470047],5.0,0.6,0.0,-0.28865044770000103,0.5014963867431464,0.5941682318786351
6.184335231781006,2.329738899651319,[2.43472728],5.0,0.6,0.0,-0.1836250355938568,0.48331085917285643,0.6102792250102727
6.19272518157959,2.332865279119106,[2.43475418],5.0,0.6,0.0,-0.09325935522740345,0.46791564085656107,0.6253906665143608
6.2024195194244385,2.3367732534538397,[2.4347812],5.0,0.6,0.0,-0.2997028351667876,0.4487928773745268,0.6463772443217531
6.212367534637451,2.3406812277885725,[2.43480834],5.0,0.6,0.0,-0.2828598098353338,0.4289900473938855,0.66993605727552
6.224247932434082,2.3455661957069895,[2.43483553],5.0,0.6,0.0,-0.19392438690170932,0.4049063447257824,0.7031236031297755
6.234233856201172,2.3500603661919333,[2.43486274],5.0,0.6,0.0,0.17969251002401915,0.38243565833934523,0.737309577550068
6.243244647979736,2.3537729418099302,[2.43488998],5.0,0.6,0.0,0.2957949613602654,0.36394941010598597,0.7681422775792137
6.252255439758301,2.3572901187111897,[2.43491725],5.0,0.6,0.0,0.3033687559264949,0.3464485190250202,0.7995652449769671
6.262250900268555,2.36139349176266,[2.43494457],5.0,0.6,0.0,0.27091687697411776,0.32610974714455954,0.8388786032647537
6.270796537399292,2.3649106686639203,[2.43497192],5.0,0.6,0.0,0.22849158562597807,0.30853383274341,0.8746288849875752
6.279529571533203,2.3684278455651797,[2.43499927],5.0,0.6,0.0,0.18817376181502096,0.29098281148095395,0.9121306299326177
6.288715362548828,2.3721404211831767,[2.4350266],5.0,0.6,0.0,0.15393684393333495,0.27254682122889407,0.95340327660108
6.297939300537109,2.375657598084437,[2.43505388],5.0,0.6,0.0,0.12631575003119122,0.2549644519562722,0.9938083743313457
6.305263996124268,2.3787839775522235,[2.43508103],5.0,0.6,0.0,0.10455717029157635,0.23897055747713383,1.0305257091239983
6.315851449966431,2.38308274932043,[2.43510793],5.0,0.6,0.0,0.08756576421922047,0.21768815790919463,1.0819716210873276
6.324661016464233,2.3864045275049537,[2.43513451],5.0,0.6,0.0,0.07428696605092219,0.20106999676591938,1.121929328301454
6.333272695541382,2.3901171031229502,[2.43516072],5.0,0.6,0.0,0.06383515568701285,0.1824459547818447,1.1664501159433682
6.345937252044678,2.3951974697581035,[2.43518647],5.0,0.6,0.0,0.055513457497115226,0.15706665041865434,1.2262745434398012
6.354613304138184,2.398714646659364,[2.43521168],5.0,0.6,0.0,0.04879261659326463,0.13933872013398468,1.2661257521987384
6.363832950592041,2.4024272222773604,[2.43523624],5.0,0.6,0.0,0.31931705978679675,0.12044980554197926,1.3062346003726208
6.373695373535156,2.4063351966120936,[2.43526006],5.0,0.6,0.0,0.3478446758569136,0.10065579787825729,1.345830781032054
6.384273290634155,2.410633968380301,[2.435283],5.0,0.6,0.0,0.012816570750985745,0.07931742975535379,1.3855776718484285
6.395630598068237,2.4155189362987173,[2.435305],5.0,0.6,0.0,-0.09973657577383088,0.054862684838782864,1.424681747982406
6.40323281288147,2.4186453157665038,[2.43532595],5.0,0.6,0.0,-0.11807084888661185,0.03927830760813458,1.4458609571964645
6.415593385696411,2.423334884968184,[2.4353458],5.0,0.6,0.0,-0.10116628268262295,0.016080700115956092,1.471552238873643
6.424116849899292,2.4262658657192344,[2.43536453],5.0,0.6,0.0,-0.35095104208385364,0.001550069032495307,1.4834875106365524
6.434345483779907,2.4303692387707043,[2.43538217],5.0,0.6,0.0,-0.3589008878600386,-0.01877347507746127,1.4948908356524724
6.4441094398498535,2.4338864156719646,[2.43539876],5.0,0.6,0.0,-0.5592009697759297,-0.03602593342376176,1.4993099438321138
6.4548094272613525,2.4375989912899616,[2.43541436],5.0,0.6,0.0,-1.0527087602060887,-0.05393691685780163,1.498221671905661
6.462804555892944,2.4403345733242747,[2.43542907],5.0,0.6,0.0,-1.5342304474736055,-0.06691404899330146,1.493449612266271
6.471227407455444,2.442874756641851,[2.43544297],5.0,0.6,0.0,-2.178031083250939,-0.07878253967422436,1.485495622481454
6.480212926864624,2.4456103386761643,[2.43545615],5.0,0.6,0.0,-3.0016654063304697,-0.09111257926839876,1.4729273969619936
6.490203142166138,2.448150521993741,[2.43546874],5.0,0.6,0.0,-3.690695670460181,-0.10227631653945433,1.4583087604162228
6.49919867515564,2.4502999078778447,[2.4354809],5.0,0.6,0.0,-4.437217689056569,-0.11126018770343589,1.4425862318289213
6.50822901725769,2.452449293761948,[2.43549278],5.0,0.6,0.0,-5.0,-0.1202514151612031,1.4258495227371801
6.518168210983276,2.454403280929315,[2.43550448],5.0,0.6,0.0,-5.0,-0.12836169451146456,1.4127907725926048
6.529217004776001,2.4565526668134186,[2.43551607],5.0,0.6,0.0,-5.0,-0.13664374588706107,1.3970281603149632
6.53873610496521,2.4581158565473116,[2.43552767],5.0,0.6,0.0,-5.0,-0.14195702353764836,1.3847207572370115
6.549232482910156,2.459679046281205,[2.43553941],5.0,0.6,0.0,-5.0,-0.14729767812217556,1.3717226665222828
6.5592896938323975,2.4608514385816247,[2.43555144],5.0,0.6,0.0,-5.0,-0.1507735751953221,1.3615695797287737
6.568297386169434,2.4620238308820452,[2.43556384],5.0,0.6,0.0,-5.0,-0.1540562689080827,1.351067504352656
6.577688932418823,2.4628054257489915,[2.43557673],5.0,0.6,0.0,-5.0,-0.15557274321048659,1.3439213607637162
6.586268424987793,2.463391621899202,[2.43559014],5.0,0.6,0.0,-5.0,-0.1564994887294655,1.3385031619030348
6.594978094100952,2.463782419332675,[2.43560407],5.0,0.6,0.0,-5.0,-0.15585677228149517,1.334895775928882
6.604249477386475,2.4641732167661488,[2.43561855],5.0,0.6,0.0,-4.698386596293211,-0.15565010730836018,1.3333630462371726
6.613282680511475,2.464368615482885,[2.4356336],5.0,0.6,0.0,-4.326366339645142,-0.1543662599812932,1.3340338869109334
6.622248888015747,2.464368615482885,[2.43564927],5.0,0.6,0.0,-3.950442529037348,-0.1521363280944204,1.3364442872909472
6.631719589233398,2.4641732167661488,[2.43566563],5.0,0.6,0.0,-3.597281987721541,-0.14855264943813226,1.3404443821717877
6.640201091766357,2.4641732167661488,[2.43568272],5.0,0.6,0.0,-2.999345978436444,-0.14707802108464255,1.3434986734687013
6.650389671325684,2.4635870206159383,[2.43570049],5.0,0.6,0.0,-2.6762463181667933,-0.1421704608988917,1.3506566839621121
6.6592795848846436,2.4631962231824653,[2.43571887],5.0,0.6,0.0,-1.9188412225560483,-0.13841378369571275,1.3571134647521428
6.667303562164307,2.4628054257489915,[2.4357378],5.0,0.6,0.0,-1.4185090099395243,-0.13471747326376832,1.3622030846292232
6.676257610321045,2.462219229598782,[2.43575721],5.0,0.6,0.0,-0.8029569182462596,-0.13055231181880625,1.368837058514556
6.68635368347168,2.4614376347318347,[2.43577699],5.0,0.6,0.0,-0.25762343989308617,-0.12497525570287218,1.3765600617870708
6.695240259170532,2.4606560398648885,[2.43579712],5.0,0.6,0.0,0.1645777653561877,-0.11913615809940749,1.3837191553903352
6.705206871032715,2.459874444997942,[2.4358176],5.0,0.6,0.0,0.46493721648438413,-0.11417448607172032,1.3905401965551765
6.713293790817261,2.4590928501309945,[2.4358383],5.0,0.6,0.0,1.2154927998307583,-0.10948701852701632,1.3963900624459455
6.72224235534668,2.4581158565473116,[2.43585907],5.0,0.6,0.0,1.4017433439602627,-0.1034819948136014,1.4042161373165147
6.732876777648926,2.4569434642468915,[2.43587982],5.0,0.6,0.0,1.6301175016284821,-0.09592687749461662,1.4131134665163212
6.743233680725098,2.4559664706632085,[2.43590057],5.0,0.6,0.0,2.0851413225583544,-0.08998699115701696,1.419402961789465
6.751203775405884,2.454989477079525,[2.43592131],5.0,0.6,0.0,2.225631753532412,-0.08444151031690371,1.4261883133616555
6.760197639465332,2.4538170847791045,[2.43594194],5.0,0.6,0.0,2.7635183893705966,-0.07770259426144806,1.4324421182015328
6.768227577209473,2.4530354899121583,[2.43596243],5.0,0.6,0.0,3.0179675620146598,-0.07304498572135804,1.4366345432251366
6.776237487792969,2.451863097611738,[2.43598271],5.0,0.6,0.0,3.0965889179636568,-0.06663948668613422,1.4437262771835022
6.785236358642578,2.4506907053113185,[2.43600275],5.0,0.6,0.0,3.0664965922909717,-0.05993536027323777,1.4508192360182743
6.793246030807495,2.449713711727635,[2.43602249],5.0,0.6,0.0,3.2463564035851062,-0.054417186423573974,1.4554202619147896
6.8032286167144775,2.4483459207104783,[2.43604195],5.0,0.6,0.0,3.4206911619936564,-0.04707283834838758,1.4615413194591702
6.81395697593689,2.447173528410058,[2.43606111],5.0,0.6,0.0,3.5190749553314893,-0.04063503616600467,1.4664711802633585
6.822484016418457,2.446001136109638,[2.43607996],5.0,0.6,0.0,3.5320807177183875,-0.03452549386353556,1.4713054475716656
6.832969665527344,2.4446333450924813,[2.43609848],5.0,0.6,0.0,3.4727386906729603,-0.02734899480901568,1.476639546405633
6.8422815799713135,2.443460952792061,[2.43611659],5.0,0.6,0.0,3.3597027962808665,-0.021378547099321934,1.4809377729621573
6.851355314254761,2.442288560491641,[2.43613421],5.0,0.6,0.0,3.486576222660967,-0.015442742921495311,1.4834857041213299
6.8595263957977295,2.4413115669079577,[2.43615121],5.0,0.6,0.0,3.624755584645552,-0.010711804478586573,1.485002766992666
6.86824107170105,2.440139174607538,[2.43616749],5.0,0.6,0.0,3.6968243121019686,-0.004929492000727558,1.486779563976834
6.877510070800781,2.4391621810238546,[2.43618296],5.0,0.6,0.0,3.689550465278373,-0.0001229019978340275,1.4881950593121474
6.88520884513855,2.438185187440171,[2.43619754],5.0,0.6,0.0,3.8898740945284387,0.004594544040017185,1.4880724721947693
6.893763065338135,2.437208193856488,[2.43621117],5.0,0.6,0.0,3.796265772703688,0.009257099454202812,1.489187451414026
6.903207778930664,2.4362312002728044,[2.43622377],5.0,0.6,0.0,3.8562801141857976,0.013726724670043636,1.4890517291928391
6.912184715270996,2.4356450041225943,[2.43623528],5.0,0.6,0.0,4.184121226679551,0.016242214017903763,1.4870665649470598
6.921286344528198,2.434863409255648,[2.4362449],5.0,0.6,0.0,4.209664933666399,0.011424789675679992,1.4865991420388855
6.929730415344238,2.434277213105438,[2.43624015],5.0,0.6,0.0,4.358537952227221,-0.10345824668375142,1.4852865085911708
6.937866926193237,2.4338864156719646,[2.43618002],5.0,0.6,0.0,4.466534680161574,-0.25167873994865575,1.4843160635625066
6.945319414138794,2.4333002195217546,[2.43601114],5.0,0.6,0.0,4.487251448044731,-0.2675378169026038,1.4837648804056895
6.955207824707031,2.4327140233715445,[2.43569926],5.0,0.6,0.0,4.698119225195766,-0.2763414880873073,1.48205563915332
6.965749979019165,2.431737029787861,[2.43520567],5.0,0.6,0.0,4.597734959291316,-0.29200934184961824,1.4821056401593191
6.9736833572387695,2.4307600362041777,[2.43447913],5.0,0.6,0.0,3.8089510071759998,-0.3095863043458148,1.486553442948628
6.982259511947632,2.429587643903758,[2.43349065],5.0,0.6,0.0,2.902663894916557,-0.2880129101486935,1.4907251990723929
6.990281820297241,2.428415251603338,[2.43223037],5.0,0.6,0.0,1.819864990002353,-0.3089466890248901,1.4946338893819613
7.000826120376587,2.426656663152708,[2.43068498],5.0,0.6,0.0,0.31204598054960375,-0.21834810117108724,1.4966873087673889
7.009734630584717,2.4250934734188143,[2.42883019],5.0,0.6,0.0,-1.3259268022138142,-0.22666286994206572,1.4959042868503722
7.018737077713013,2.423334884968184,[2.42665392],5.0,0.6,0.0,-2.9547215093103216,-0.24549529276945123,1.4913423777986643
7.028627634048462,2.4215762965175545,[2.42416525],5.0,0.6,0.0,-4.235633223582022,-0.26931588258556155,1.4854821519173174
7.03957986831665,2.4190361131999776,[2.42138098],5.0,0.6,0.0,-5.0,-0.2888770886503509,1.4806329829448994
7.049201011657715,2.416886727315874,[2.41832416],5.0,0.6,0.0,-5.0,-0.3073638701352534,1.4813189074494786
7.058543920516968,2.414541942715034,[2.41502268],5.0,0.6,0.0,-5.0,-0.3197967342108766,1.481685840893827
7.0692150592803955,2.4114155632472474,[2.4115081],5.0,0.6,0.0,-5.0,-0.32273012185299704,1.4817303496530414
7.080438852310181,2.408289183779461,[2.40780983],5.0,0.6,0.0,-5.0,-0.3245584128108806,1.4816861080363253
7.091195106506348,2.4047720068782006,[2.40395556],5.0,0.6,0.0,-5.0,-0.3182143325362222,1.4815987523707617
7.100282669067383,2.401645627410414,[2.39998053],5.0,0.6,0.0,-5.0,-0.30415059073363593,1.4811777073606194
7.10923957824707,2.3989100453761005,[2.39592519],5.0,0.6,0.0,-4.920769980033893,-0.286886394739955,1.4805158432525556
7.117610216140747,2.3957836659083136,[2.39182805],5.0,0.6,0.0,-4.379286160181458,-0.26702879610111674,1.482801181111099
7.125268220901489,2.392852685157264,[2.38772734],5.0,0.6,0.0,-3.739287108615434,-0.2277515224056153,1.484459120203176
7.13439416885376,2.389335508256004,[2.38365923],5.0,0.6,0.0,-3.9724096059678047,-0.21962552231500182,1.4819669391278099
7.14477014541626,2.3854275339212703,[2.37965081],5.0,0.6,0.0,-3.5665999732673574,-0.21589968251653685,1.4839679718846144
7.154696702957153,2.3817149583032733,[2.37571992],5.0,0.6,0.0,-3.265397184902379,-0.21849799004128476,1.4849629435901894
7.162202835083008,2.378588578835487,[2.37188225],5.0,0.6,0.0,-2.739883204305318,-0.19454880531731392,1.4854882925393278
7.17228102684021,2.374485205784017,[2.36815136],5.0,0.6,0.0,-2.20911007767129,-0.2109056846373855,1.4883889415563718
7.181196212768555,2.3709680288827566,[2.3645316],5.0,0.6,0.0,-1.474942719463116,-0.22805196997450936,1.4901319093113763
7.189227104187012,2.36784164941497,[2.36102408],5.0,0.6,0.0,-0.5210365444352955,-0.2060553560403207,1.4905451607265356
7.203795671463013,2.361784289196133,[2.35762294],5.0,0.6,0.0,0.052597435207634435,-0.2776064318621316,1.4965405666292473
7.211165189743042,2.35904870716182,[2.35431281],5.0,0.6,0.0,0.9462388619393631,-0.24599690298651208,1.4948582296743358
7.2201783657073975,2.35553153026056,[2.35108711],5.0,0.6,0.0,1.7617759492113858,-0.25450202362399704,1.4937520357731247
7.2285425662994385,2.351818954642563,[2.34794126],5.0,0.6,0.0,2.3760700812051727,-0.26423594355912344,1.4928121629837254
7.2361555099487305,2.34849717645804,[2.34486861],5.0,0.6,0.0,3.05637361522475,-0.2372846820356735,1.4904645400643
7.247168302536011,2.344003005973096,[2.34186014],5.0,0.6,0.0,3.59199802185024,-0.28609067758619205,1.4895691204394022
7.258235454559326,2.339313436771416,[2.33889551],5.0,0.6,0.0,3.660124776255075,-0.27980564560586596,1.4900914868354866
7.267971754074097,2.3356008611534196,[2.33596282],5.0,0.6,0.0,3.7968900656715796,-0.24455506506641617,1.4893565871577428
7.27729058265686,2.3318882855354226,[2.33306397],5.0,0.6,0.0,3.8842088775846513,-0.2461449233696444,1.4886179566109532
7.287183523178101,2.3281757099174256,[2.3301971],5.0,0.6,0.0,3.8924048429471068,-0.24143750965581562,1.4880311033731364
7.298208475112915,2.3236815394324823,[2.32735772],5.0,0.6,0.0,3.8268571601859818,-0.22831279103542337,1.48651715656352
7.3074951171875,2.319773565097749,[2.32454079],5.0,0.6,0.0,3.70409579653149,-0.23805683328411623,1.485355220925248
7.316262483596802,2.316451786913226,[2.32174451],5.0,0.6,0.0,3.541787137165393,-0.1926762594485023,1.4851617776350352
7.327780246734619,2.3119576164282822,[2.31897413],5.0,0.6,0.0,3.3550814482136317,-0.19551248982213232,1.4818924397027489
7.338407039642334,2.3076588446600756,[2.31623374],5.0,0.6,0.0,3.155733019257573,-0.16590474229020394,1.4780432864355673
7.346181869506836,2.3047278639090254,[2.31353132],5.0,0.6,0.0,2.9523210332907084,-0.12161659773316112,1.4781729026411572
7.354262113571167,2.301210687007765,[2.31088094],5.0,0.6,0.0,2.7508210069005488,-0.10379064393697264,1.475869758126655
7.36519193649292,2.2965211178060856,[2.3082932],5.0,0.6,0.0,2.5552117844254507,-0.07864015570996513,1.46782747837025
7.374507188796997,2.292613143471352,[2.30577572],5.0,0.6,0.0,2.3680026116680972,-0.05634364016932336,1.4617859877983612
7.382411003112793,2.289486764003565,[2.30333596],5.0,0.6,0.0,2.190651966403791,-0.037658413454708446,1.4588067862099625
7.39017653465271,2.2865557832525156,[2.30098367],5.0,0.6,0.0,2.0238845659956297,-0.03460701104106598,1.4561820900417175
7.398175239562988,2.2834294037847283,[2.29872987],5.0,0.6,0.0,1.8679241617167959,-0.016104453587374,1.4516677570811622
7.409766674041748,2.2791306320165217,[2.29657916],5.0,0.6,0.0,1.998699356742565,-0.0052700396209050164,1.4379616283047998
7.418260097503662,2.276199651265472,[2.29453197],5.0,0.6,0.0,2.449010095087316,0.026050135018526637,1.4305495452472947
7.4262614250183105,2.2734640692311583,[2.29259053],5.0,0.6,0.0,2.611225757275636,0.03818286399445253,1.4243981044429428
7.434430837631226,2.2705330884801085,[2.29075601],5.0,0.6,0.0,2.89455747971704,0.05112662547523117,1.415264182517831
7.4425132274627686,2.2681883038792683,[2.28902767],5.0,0.6,0.0,3.128320856539606,0.062098745792238896,1.409577114375003
7.45118522644043,2.2654527218449547,[2.28740445],5.0,0.6,0.0,3.2641683341980463,0.07586958102395323,1.4002539256631241
7.459258079528809,2.263303335960851,[2.28588642],5.0,0.6,0.0,3.855582570917461,0.07813405540643699,1.3920859566405894
7.469188928604126,2.260567753926538,[2.28447426],5.0,0.6,0.0,4.43505360822698,0.09227010217967364,1.3775567378849334
7.478525161743164,2.258027570608961,[2.28316637],5.0,0.6,0.0,4.847358794938922,0.10583220494068939,1.3640807923151326
7.487224578857422,2.256073583441595,[2.28195942],5.0,0.6,0.0,5.0,0.11623650605924882,1.3563087582227746
7.496208429336548,2.254314994990964,[2.28085007],5.0,0.6,0.0,5.0,0.12540405364185184,1.3503759321315716
7.504236698150635,2.2525564065403345,[2.27983517],5.0,0.6,0.0,5.0,0.13713125407343732,1.3434509017983596
7.516176700592041,2.250602419372968,[2.27891146],5.0,0.6,0.0,5.0,0.14309467990738425,1.3336369542740703
7.525452136993408,2.249039229639074,[2.27807506],5.0,0.6,0.0,5.0,0.15068868255616985,1.3265654085336305
7.5345892906188965,2.248257634772128,[2.27732205],5.0,0.6,0.0,5.0,0.15427399040242298,1.3262848689013897
7.544214963912964,2.2472806411884445,[2.27664869],5.0,0.6,0.0,5.0,0.1581590118300717,1.323293282923848
7.554196357727051,2.2463036476047615,[2.27605118],5.0,0.6,0.0,5.0,0.16204373642777425,1.319526003547188
7.562177658081055,2.245717451454551,[2.27552554],5.0,0.6,0.0,5.0,0.1633850662730893,1.3189219329550972
7.5712151527404785,2.2453266540210777,[2.27506762],5.0,0.6,0.0,5.0,0.1630855613201327,1.3195914364875894
7.581524848937988,2.2449358565876043,[2.27467324],5.0,0.6,0.0,5.0,0.1642648366380596,1.3196270916763249
7.589182376861572,2.2447404578708676,[2.27433829],5.0,0.6,0.0,4.9886955673575795,0.1624814703880762,1.3210969220572388
7.599451065063477,2.2447404578708676,[2.27405862],5.0,0.6,0.0,4.663769537977629,0.162072724915489,1.3261222352766386
7.607143402099609,2.2449358565876043,[2.27383011],5.0,0.6,0.0,3.967589705895971,0.1575252493308571,1.3346383779404243
7.615187883377075,2.2451312553043414,[2.27364825],5.0,0.6,0.0,3.236529240969145,0.15298776956865925,1.3421566486636012
7.624064207077026,2.2455220527378144,[2.2735083],5.0,0.6,0.0,2.594300349710594,0.14762923951030527,1.3500215774655469
7.632200717926025,2.245717451454551,[2.2734056],5.0,0.6,0.0,2.3476054699945488,0.1437423832218169,1.3537636452773116
7.643689155578613,2.2463036476047615,[2.27333574],5.0,0.6,0.0,1.970934943822654,0.1385025389979958,1.361147498227219
7.651146650314331,2.246889843754971,[2.27329463],5.0,0.6,0.0,1.048251720781345,0.1337158776517968,1.3690257202520795
7.659828186035156,2.247476039905181,[2.27327841],5.0,0.6,0.0,0.11248320107657939,0.1294098980724579,1.375322188920039
7.669309854507446,2.248257634772128,[2.27328353],5.0,0.6,0.0,-0.09897584446547386,0.12401149832085627,1.3822609848301006
7.678685903549194,2.2488438309223375,[2.2733067],5.0,0.6,0.0,-0.5879190298979307,0.11991819967022004,1.3869413707300131
7.6891374588012695,2.249820824506021,[2.27334491],5.0,0.6,0.0,-0.7902195151054552,0.11379186094575401,1.3947636864140762
7.698916673660278,2.2507978180897044,[2.27339539],5.0,0.6,0.0,-0.8523013244698643,0.1078003373258771,1.4023716743014234
7.708148717880249,2.251774811673388,[2.27345565],5.0,0.6,0.0,-1.1232479202186019,0.10198259397913487,1.4093337166598647
7.720002174377441,2.2533380014072812,[2.27352347],5.0,0.6,0.0,-1.3964901489482129,0.09339197810003055,1.4202917292564095
7.728492259979248,2.254314994990964,[2.27359685],5.0,0.6,0.0,-1.8778360259303228,0.08792086101477467,1.4257212193467266
7.739184379577637,2.255682786008121,[2.27367403],5.0,0.6,0.0,-2.0361631690333053,0.08042021397536203,1.4342372058882729
7.747187852859497,2.256855178308541,[2.27375347],5.0,0.6,0.0,-2.3120005242879182,0.07414703009844116,1.4405264510675333
7.755202770233154,2.2578321718922245,[2.27383383],5.0,0.6,0.0,-2.5455230640655313,0.06878946208792365,1.4452782642359057
7.763282775878906,2.2590045641926446,[2.27391396],5.0,0.6,0.0,-2.690504673933012,0.06258093702804475,1.4511561347482518
7.774180173873901,2.260567753926538,[2.27399288],5.0,0.6,0.0,-2.7471435424074087,0.054492388952349265,1.4590087521971526
7.782770395278931,2.261740146226958,[2.2740698],5.0,0.6,0.0,-3.007647300312901,0.04838917724707554,1.4633648334170908
7.79016900062561,2.2629125385273783,[2.27414404],5.0,0.6,0.0,-2.9721697113307197,0.04223511571820718,1.4685534355180947
7.802036762237549,2.264671126978008,[2.27421508],5.0,0.6,0.0,-3.088499193700029,0.033318274732916174,1.474896998635898
7.812222480773926,2.2660389179951648,[2.2742825],5.0,0.6,0.0,-3.1945459610699585,0.026381492149036328,1.478961331944365
7.82120418548584,2.267211310295585,[2.27434601],5.0,0.6,0.0,-3.5148366165556375,0.020625449443051155,1.4807585359165267
7.833270788192749,2.268969898746215,[2.27440541],5.0,0.6,0.0,-3.5250421803949656,0.011803390749076093,1.48494364778472
7.842193126678467,2.2701422910466347,[2.27446054],5.0,0.6,0.0,-3.667199141108629,0.005889851685713772,1.4863660776879974
7.852471828460693,2.2713146833470548,[2.27451114],5.0,0.6,0.0,-3.780828239386932,-0.0020765430742446045,1.487430097501934
7.86033034324646,2.272487075647475,[2.27455659],5.0,0.6,0.0,-4.094350258094202,-0.009299967102559361,1.4868193155708247
7.870213985443115,2.273659467947895,[2.27459618],5.0,0.6,0.0,-4.087498050849416,-0.016697151388331933,1.4875407607280997
7.879406452178955,2.274831860248315,[2.27462891],5.0,0.6,0.0,-3.929737285614391,-0.02772956880980174,1.4886272504687237
7.887615919113159,2.2758088538319985,[2.27465304],5.0,0.6,0.0,-3.982240022352461,-0.037809158956679446,1.4880662393737265
7.896985292434692,2.2763950499822085,[2.27466641],5.0,0.6,0.0,-4.320723566156092,-0.04556468396975285,1.485696935587761
7.905998468399048,2.277176644849155,[2.27466744],5.0,0.6,0.0,-4.635132373718256,-0.04696240915711143,1.4830016094244658
7.916806936264038,2.277762840999365,[2.27465781],5.0,0.6,0.0,-4.826429854289284,-0.026261516570931502,1.4810304801626908
7.92424464225769,2.278349037149575,[2.27464238],5.0,0.6,0.0,-4.883821808009142,-0.024940967933189558,1.4798122370278157
7.9341747760772705,2.2787398345830487,[2.27462502],5.0,0.6,0.0,-5.0,-0.023285091817787297,1.4783514550883956
7.943275690078735,2.2791306320165217,[2.27460805],5.0,0.6,0.0,-5.0,-0.020942910456401582,1.4776496711314513
7.951243162155151,2.2793260307332583,[2.27459357],5.0,0.6,0.0,-5.0,-0.020206026345025403,1.4772628436391746
7.959139347076416,2.279521429449995,[2.27458383],5.0,0.6,0.0,-5.0,-0.012291961397796326,1.4768679443629036
7.969975709915161,2.2797168281667317,[2.27458208],5.0,0.6,0.0,-5.0,-0.0036738280989656647,1.476472809693458
7.979245901107788,2.2799122268834684,[2.27459237],5.0,0.6,0.0,-5.0,0.004754368635677962,1.4760878768021013
7.989166021347046,2.2799122268834684,[2.27461885],5.0,0.6,0.0,-4.854460822555602,0.013845695698382558,1.4771734786973882
7.997186183929443,2.2799122268834684,[2.27466559],5.0,0.6,0.0,-4.2706693292663,0.022526508824124228,1.4811155260094275
8.006932735443115,2.280107625600205,[2.27473651],5.0,0.6,0.0,-3.605432942048699,0.02964033450761464,1.4846633102647022
8.016218900680542,2.2799122268834684,[2.27483413],5.0,0.6,0.0,-3.2731393769316366,0.026316149090609475,1.4869440430342051
8.026193380355835,2.280107625600205,[2.27495964],5.0,0.6,0.0,-2.5198347860226336,0.03565895691080732,1.4900093273775497
8.035130262374878,2.280107625600205,[2.27511528],5.0,0.6,0.0,-1.7438544996490801,0.04478111153573317,1.4927690679653702
8.045147180557251,2.2803030243169418,[2.27530545],5.0,0.6,0.0,-1.0870826397511228,0.06610193487365174,1.4941383783902729
8.057110786437988,2.2803030243169418,[2.27553528],5.0,0.6,0.0,-0.3043991952032218,0.06967635128916001,1.4953950765001516
8.067182779312134,2.2804984230336784,[2.27580637],5.0,0.6,0.0,0.373770715480289,0.057351814523183435,1.4955026225138437
8.076143741607666,2.280693821750415,[2.27611569],5.0,0.6,0.0,0.8849497366438428,0.04903897784504878,1.4952342957591829
8.085685729980469,2.2810846191838885,[2.27646179],5.0,0.6,0.0,1.5106526401998641,0.07311889891827551,1.4940391121516798
8.096653938293457,2.281280017900625,[2.27684732],5.0,0.6,0.0,2.0362208505281965,0.07654044447849813,1.4930010239683957
8.105867385864258,2.2816708153340985,[2.27727419],5.0,0.6,0.0,2.405253079468498,0.07846638884932376,1.4918533546721946
8.117966175079346,2.282061612767572,[2.27774363],5.0,0.6,0.0,2.9009399216282583,0.09530109039021893,1.490052557216935
8.12879729270935,2.2828432076345186,[2.27825763],5.0,0.6,0.0,3.032379410496106,0.09008660134755772,1.48900496559156
8.13774585723877,2.2830386063512553,[2.27881581],5.0,0.6,0.0,3.261207555471798,0.08846011401634228,1.4885852440894891
8.146698474884033,2.283624802501465,[2.27941569],5.0,0.6,0.0,3.1627446498244893,0.0858283694753401,1.4890719178854068
8.154145956039429,2.2842109986516754,[2.28005314],5.0,0.6,0.0,2.9396490421516734,0.06881431270585689,1.490156857701263
8.163731575012207,2.284797194801885,[2.28072264],5.0,0.6,0.0,2.9595724410573343,0.07138468694662035,1.490207175597111
8.172735929489136,2.2855787896688318,[2.28142039],5.0,0.6,0.0,2.7424092853178217,0.0722402435234034,1.4909802417109805
8.1801118850708,2.285969587102305,[2.28214276],5.0,0.6,0.0,2.733294706827935,0.05968314963922797,1.4915448312805477
8.189261674880981,2.286751181969252,[2.2828849],5.0,0.6,0.0,2.4840656439649,0.06387961186680712,1.4924424931780962
8.19864821434021,2.2875327768361986,[2.28364381],5.0,0.6,0.0,2.451102811028778,0.06681152499761757,1.4925274162963522
8.207305908203125,2.2881189729864087,[2.28441811],5.0,0.6,0.0,2.188589048975959,0.06997579049336777,1.493711539238028
8.216378450393677,2.2887051691366187,[2.28520512],5.0,0.6,0.0,1.8757744339498938,0.05784016358021542,1.4949405782862377
8.224676847457886,2.289682162720302,[2.28600111],5.0,0.6,0.0,1.583688427913998,0.06306522722134973,1.4954301166014117
8.232552528381348,2.2902683588705117,[2.28680443],5.0,0.6,0.0,1.334769113984796,0.06894091849542817,1.4962786490162592
8.240966796875,2.291049953737459,[2.28761369],5.0,0.6,0.0,1.1310269151926649,0.057061082463017915,1.4966898560634143
8.24922251701355,2.2918315486044056,[2.28842633],5.0,0.6,0.0,0.9669704422628724,0.06483742012942985,1.4969880286389003
8.258543014526367,2.2928085421880886,[2.28924182],5.0,0.6,0.0,0.8352598576102537,0.06998878162032679,1.4969398700461722
8.268276691436768,2.293785535771772,[2.29006137],5.0,0.6,0.0,0.7289665417755591,0.07374376780285057,1.4968345496661855
8.276254177093506,2.2945671306387183,[2.29088455],5.0,0.6,0.0,0.36626735832884694,0.06097468121876316,1.4971915380437966
8.285375356674194,2.2955441242224017,[2.29171118],5.0,0.6,0.0,0.2615614817446733,0.0850810092579014,1.4970150903121429
8.294221639633179,2.2965211178060856,[2.29254284],5.0,0.6,0.0,0.25668482874029014,0.06858379331594619,1.4967906178776793
8.303393602371216,2.2973027126730323,[2.2933794],5.0,0.6,0.0,0.28179953185455053,0.07522581310985321,1.4968671438102703
8.31119441986084,2.298475104973452,[2.29421927],5.0,0.6,0.0,0.032379703986369246,0.060922433285084183,1.4963833402921514
8.321191310882568,2.2994520985571354,[2.29506122],5.0,0.6,0.0,0.017599327667649156,0.0696228051954948,1.4961512302415125
8.330150127410889,2.300429092140819,[2.29590612],5.0,0.6,0.0,0.08096993431639343,0.07626268142795213,1.4959120269111619
8.339112043380737,2.301406085724502,[2.29675659],5.0,0.6,0.0,-0.11954525667308169,0.08113062096522239,1.4956751276718694
8.347908973693848,2.302773876741659,[2.29761312],5.0,0.6,0.0,-0.08946088545529901,0.06377149130157309,1.4946815293941045
8.359103679656982,2.303946269042079,[2.2984744],5.0,0.6,0.0,-0.26580431479138544,0.07072513045645112,1.4939770271812403
8.368202924728394,2.3051186613424988,[2.29934106],5.0,0.6,0.0,-0.19588423287577633,0.0751065871774054,1.4933175450511615
8.378661870956421,2.306291053642919,[2.30021539],5.0,0.6,0.0,-0.05760150510657361,0.07753745505425341,1.4926419876309232
8.389179229736328,2.3076588446600756,[2.30109915],5.0,0.6,0.0,0.07711149441262032,0.07728357030979126,1.4914265775643636
8.400930643081665,2.3088312369604957,[2.30199527],5.0,0.6,0.0,0.18415423359369426,0.09444421835605227,1.4906722046791359
8.412105560302734,2.3103944266943888,[2.30290755],5.0,0.6,0.0,0.25973917769838273,0.08549302770570869,1.4888017227393224
8.421157121658325,2.311566818994809,[2.30383693],5.0,0.6,0.0,0.031678342597510956,0.07942103726118371,1.4881201400175015
8.431127786636353,2.3129346100119657,[2.30478192],5.0,0.6,0.0,0.02483334482914104,0.07269551621090321,1.486794221403608
8.440111637115479,2.313911603595649,[2.30574065],5.0,0.6,0.0,0.09022239611984563,0.06808545022744215,1.486729804308116
8.449182510375977,2.315083995896069,[2.30671096],5.0,0.6,0.0,-0.11067413696975476,0.0628024364383875,1.4860671897538424
8.457209825515747,2.316256388196489,[2.307689],5.0,0.6,0.0,-0.08177783762045879,0.042564205856003505,1.4854222116296578
8.467594385147095,2.3176241792136456,[2.3086696],5.0,0.6,0.0,-0.25943556872946727,0.04144222495704445,1.484040898189839
8.477278470993042,2.318991970230803,[2.30964945],5.0,0.6,0.0,-0.19069714223190554,0.03877049689496745,1.4826678843073529
8.485100030899048,2.319968963814486,[2.3106268],5.0,0.6,0.0,-0.3294294479914379,0.03719932652686337,1.4826154626263284
8.4943368434906,2.321141356114906,[2.31159974],5.0,0.6,0.0,-0.5046550380675692,0.03403578301500686,1.4817667427289245
8.504204511642456,2.3225091471320622,[2.31256636],5.0,0.6,0.0,-0.6522827431223536,0.02966807666108955,1.4801057460972906
8.515790224075317,2.3242677355826924,[2.3135259],5.0,0.6,0.0,-0.7551472723223998,0.035362150757460305,1.476762541670083
8.5232253074646,2.325244729166376,[2.31447641],5.0,0.6,0.0,-0.8149920310813387,0.03528085227307838,1.4765813341632223
8.531246900558472,2.3262217227500592,[2.31541159],5.0,0.6,0.0,-0.8398340152210717,0.01693798725031443,1.4763744458007972
8.539232969284058,2.3271987163337426,[2.31632618],5.0,0.6,0.0,-0.8386071207641903,0.015272180454033562,1.4761116526790534
8.549140691757202,2.328566507350899,[2.31721927],5.0,0.6,0.0,-0.8191558718968757,0.01160328434170576,1.4740775452864772
8.559130191802979,2.329738899651319,[2.31809131],5.0,0.6,0.0,-1.0637406074100795,0.008839060950543933,1.4723899303725274
8.569190263748169,2.330911291951739,[2.31894278],5.0,0.6,0.0,-1.0580705831787114,0.005879638840335457,1.4709247680553328
8.580872297286987,2.3320836842521597,[2.3197752],5.0,0.6,0.0,-1.2362373435940817,0.013889406079027842,1.4690182992718879
8.589157342910767,2.332865279119106,[2.32058996],5.0,0.6,0.0,-1.4249130160636598,-0.0009787156801989204,1.468803746080913
8.59813928604126,2.333842272702789,[2.32138634],5.0,0.6,0.0,-1.564025224252704,-0.0018347186264409986,1.4676288202799315
8.609264612197876,2.3348192662864724,[2.32216488],5.0,0.6,0.0,-1.6419783746964849,0.007981068917427267,1.46647779492516
8.619443893432617,2.3356008611534196,[2.32292822],5.0,0.6,0.0,-1.9417618291442609,0.005001486460081218,1.4655923346084032
8.627260208129883,2.336187057303629,[2.32367774],5.0,0.6,0.0,-1.9566762835078362,0.0036876425203792914,1.4663461917311889
8.636080741882324,2.3367732534538397,[2.3244128],5.0,0.6,0.0,-2.129587417791846,-0.007422189301556653,1.4665413539076728
8.64471173286438,2.3371640508873126,[2.32513204],5.0,0.6,0.0,-2.2949653184827374,-0.003230010002039693,1.4675559718802362
8.653339147567749,2.3375548483207864,[2.32583557],5.0,0.6,0.0,-2.6749944926822957,0.000852624611664399,1.4676071838243223
8.661773681640625,2.337750247037523,[2.3265237],5.0,0.6,0.0,-3.0198358999415094,-0.005487740390683788,1.468365375591406
8.671086311340332,2.33794564575426,[2.32719591],5.0,0.6,0.0,-3.25158894806738,0.00185527591365232,1.4693448669005507
8.68111801147461,2.33794564575426,[2.32785297],5.0,0.6,0.0,-3.639913757710295,0.009310286741399217,1.4700678030439631
8.689097166061401,2.33794564575426,[2.32849675],5.0,0.6,0.0,-3.6851556359583286,0.015559758749990995,1.4722944407471505
8.701107025146484,2.338141044470996,[2.32912896],5.0,0.6,0.0,-3.843145345477268,0.020126742768480168,1.4730130471884308
8.709147214889526,2.338141044470996,[2.3297511],5.0,0.6,0.0,-3.409227348353742,0.02476046058776845,1.4774427906744063
8.721131324768066,2.338141044470996,[2.33036452],5.0,0.6,0.0,-3.1022871206432674,0.02897598978865296,1.480864808040036
8.729256629943848,2.338141044470996,[2.33097023],5.0,0.6,0.0,-2.5812865728223677,0.031368159604699145,1.4848331384899534
8.738741636276245,2.3383364431877327,[2.3315689],5.0,0.6,0.0,-1.7833349074593363,0.03304582442649878,1.488520099701684
8.74613070487976,2.3383364431877327,[2.3321611],5.0,0.6,0.0,-1.026415779777211,0.03621548430902657,1.4916184017031298
8.754521369934082,2.3383364431877327,[2.33274746],5.0,0.6,0.0,-0.13816841445193018,0.03918716119238484,1.493757905721161
8.762393474578857,2.3383364431877327,[2.3333277],5.0,0.6,0.0,0.349219305277389,0.0321671062617456,1.4949042847565965
8.770172595977783,2.3383364431877327,[2.3338998],5.0,0.6,0.0,0.886774280391587,0.027838142354606805,1.4954859509800233
8.779518604278564,2.3385318419044694,[2.33446209],5.0,0.6,0.0,1.3277063751033258,0.03399567615933436,1.4953823853371302
8.789128065109253,2.3385318419044694,[2.33501495],5.0,0.6,0.0,1.6378163278289999,0.039684730191806884,1.495536528779003
8.798120975494385,2.338727240621206,[2.33555881],5.0,0.6,0.0,1.8272268638833324,0.033765511468316134,1.495515023481355
8.807098388671875,2.338727240621206,[2.33609316],5.0,0.6,0.0,1.9198574635525723,0.04011698550646302,1.4958770547562459
8.81736946105957,2.338727240621206,[2.33661927],5.0,0.6,0.0,1.940686820206023,0.05388160682258584,1.496315926169753
8.825231552124023,2.3389226393379428,[2.33713981],5.0,0.6,0.0,2.187188716680447,0.05329245972605151,1.4958160998044712
8.833433151245117,2.3389226393379428,[2.33765522],5.0,0.6,0.0,2.1572371863682367,0.04515602812845835,1.4962265588599633
8.841174602508545,2.3389226393379428,[2.338164],5.0,0.6,0.0,2.018071597153626,0.047135013586940534,1.4968624167436317
8.85010552406311,2.339118038054679,[2.33866468],5.0,0.6,0.0,2.1220020434360567,0.040164395868563525,1.496618149092458
8.859167098999023,2.339313436771416,[2.33915579],5.0,0.6,0.0,1.9829602441549639,0.04089201047428537,1.497076499818169
8.867145538330078,2.339508835488153,[2.33963628],5.0,0.6,0.0,2.0443421604146446,0.040156404749771446,1.4968953113362269
8.876142501831055,2.3397042342048895,[2.34010507],5.0,0.6,0.0,1.8580274833854578,0.034009383288244516,1.4974045912320226
8.887455224990845,2.339899632921626,[2.34056083],5.0,0.6,0.0,1.8810963218308503,0.03745205951806509,1.4972854152278563
8.896132230758667,2.340095031638363,[2.34100298],5.0,0.6,0.0,1.6685920574137874,0.03508408371206275,1.4977668686406962
8.90408968925476,2.340290430355099,[2.34143031],5.0,0.6,0.0,1.6766243191039762,0.03598157834584375,1.4976519807414583
8.912090063095093,2.3404858290718358,[2.34184081],5.0,0.6,0.0,1.4579853609716293,0.03406703142858604,1.4980529860665848
8.920451402664185,2.3406812277885725,[2.34223358],5.0,0.6,0.0,1.4664422074485917,0.03268226658337987,1.4979199213258665
8.928112983703613,2.3410720252220463,[2.34260835],5.0,0.6,0.0,1.2527814360110678,0.02767872321963063,1.49836110948215
8.939309120178223,2.341267423938783,[2.34296479],5.0,0.6,0.0,0.9931609609460746,0.027868234009775627,1.4986902380259182
8.947431087493896,2.341462822655519,[2.34330302],5.0,0.6,0.0,1.032189779722718,0.027323278307422167,1.4985304961550718
8.95609712600708,2.341853620088993,[2.34362343],5.0,0.6,0.0,0.8715435585134476,0.025511975743738834,1.498808632663205
8.966131448745728,2.3420490188057297,[2.34392617],5.0,0.6,0.0,0.6666662337563156,0.02235084243829464,1.4989647716436587
8.97456955909729,2.3422444175224664,[2.34421135],5.0,0.6,0.0,0.4784731905555473,0.023282789036715112,1.4990561465308323
8.98351764678955,2.342439816239203,[2.34447935],5.0,0.6,0.0,0.32566748593740946,0.021634137131137446,1.4990894582179428
8.991166591644287,2.3426352149559393,[2.34473046],5.0,0.6,0.0,0.20938157838907917,0.018827292071253377,1.4990897383490747
9.001657247543335,2.343026012389413,[2.34496468],5.0,0.6,0.0,0.40047514866941436,0.016701794293965733,1.4991292192170225
9.009176254272461,2.34322141110615,[2.34518209],5.0,0.6,0.0,0.3733930709946087,0.016702504098875477,1.4991276712473842
9.019171237945557,2.3438076072563594,[2.34538267],5.0,0.6,0.0,0.2767233125845215,0.012119701903582872,1.4994469596928268
9.02817678451538,2.344003005973096,[2.34556636],5.0,0.6,0.0,0.17269289532458085,0.00847022970277885,1.499489102274136
9.038084506988525,2.3441984046898328,[2.34573289],5.0,0.6,0.0,0.08398581045047582,0.003977569830473747,1.499523932716797
9.04882550239563,2.3443938034065694,[2.34587224],5.0,0.6,0.0,0.016059355005290148,-0.10207519673821581,1.4995627458189487
9.059744834899902,2.3447846008400433,[2.34594863],5.0,0.6,0.0,-0.3085007831679437,-0.24692338421445906,1.4996582007538821
9.068104267120361,2.3447846008400433,[2.34590178],5.0,0.6,0.0,-0.374290171850002,-0.3263215226642925,1.4996461370296557
9.078486680984497,2.3445892021233066,[2.34566244],5.0,0.6,0.0,-0.6158022729627914,-0.3164361142895068,1.4994874542038232
9.087605953216553,2.3443938034065694,[2.3451611],5.0,0.6,0.0,-0.8606201609912931,-0.21910733794521653,1.4993312081945038
9.0970938205719,2.344003005973096,[2.34432963],5.0,0.6,0.0,-1.601736391106704,-0.2599428685261766,1.4980725024230157
9.106568336486816,2.343026012389413,[2.34310213],5.0,0.6,0.0,-2.342627766958893,-0.29874715261634155,1.4959302853820735
9.115706443786621,2.3420490188057297,[2.34143555],5.0,0.6,0.0,-2.9145658451228975,-0.2741774084224575,1.4936410968488405
9.12515139579773,2.3410720252220463,[2.33930903],5.0,0.6,0.0,-4.116573015474716,-0.32593417274013325,1.4869216254761346
9.1350736618042,2.3397042342048895,[2.33668511],5.0,0.6,0.0,-5.0,-0.3714802142294806,1.4799106991424333
9.143382787704468,2.3385318419044694,[2.33351274],5.0,0.6,0.0,-5.0,-0.41437452114512074,1.4767064477797924
9.152533054351807,2.336968652170576,[2.32974908],5.0,0.6,0.0,-5.0,-0.453026935798174,1.4713617683393199
9.163902521133423,2.334623867569736,[2.32535984],5.0,0.6,0.0,-5.0,-0.4863505934950916,1.4647140818484914
9.173744916915894,2.3326698804023693,[2.32031921],5.0,0.6,0.0,-5.0,-0.5210695316117071,1.45168489823946
9.182077407836914,2.330325095801529,[2.3146332],5.0,0.6,0.0,-5.0,-0.4764098019053742,1.4336779163890938
9.191556692123413,2.327589513767216,[2.3083359],5.0,0.6,0.0,-5.0,-0.5283341959960195,1.4102734129278576
9.203556060791016,2.323486140715746,[2.30141577],5.0,0.6,0.0,-5.0,-0.6446224682704621,1.3889067538738837
9.212957859039307,2.319968963814486,[2.29382388],5.0,0.6,0.0,-5.0,-0.6589493720575087,1.3539525314051128
9.223130702972412,2.3158655907630155,[2.28555171],5.0,0.6,0.0,-5.0,-0.6726647046302967,1.3138457008708984
9.233240365982056,2.312153015145019,[2.27662622],5.0,0.6,0.0,-5.0,-0.6913960044931294,1.258642178322158
9.241211891174316,2.309026635677232,[2.26710362],5.0,0.6,0.0,-5.0,-0.6415873372857712,1.1853584107007467
9.249252080917358,2.3059002562094455,[2.25706412],5.0,0.6,0.0,-5.0,-0.6904956807818317,1.1023785550606222
9.25905990600586,2.301601484441239,[2.24656247],5.0,0.6,0.0,-4.797867200894199,-0.7288053320384673,1.0287603505052711
9.27016830444336,2.297107313956295,[2.23563241],5.0,0.6,0.0,-4.365188893391741,-0.7611930235112125,0.9556342478494748
9.278746604919434,2.2935901370550353,[2.22431375],5.0,0.6,0.0,-2.7839481051756234,-0.7938372530591343,0.8772166078241039
9.288735628128052,2.2892913652868283,[2.21265293],5.0,0.6,0.0,-0.823860210989928,-0.8180666772144977,0.8084097775087087
9.298089742660522,2.2855787896688318,[2.20070277],5.0,0.6,0.0,0.895686073954536,-0.8428437958446514,0.7361443487217803
9.306712627410889,2.282257011484308,[2.18852115],5.0,0.6,0.0,2.476354293375093,-0.8672917315239953,0.6679689214926738
9.315113544464111,2.2787398345830487,[2.17618478],5.0,0.6,0.0,3.682260562486572,-0.8397340668737105,0.6120354333254576
9.32412838935852,2.2752226576817884,[2.16379869],5.0,0.6,0.0,4.770222525396172,-0.8309906895460228,0.5668322125822964
9.33326244354248,2.271705480780528,[2.15145875],5.0,0.6,0.0,5.0,-0.8793029570413874,0.5372052616891733
9.343108177185059,2.2677975064457945,[2.13922405],5.0,0.6,0.0,5.0,-0.9144413517697485,0.5183862869427677
9.352110147476196,2.2640849308277984,[2.1271395],5.0,0.6,0.0,5.0,-0.94218181972193,0.5052307657282961
9.361073970794678,2.260567753926538,[2.11525231],5.0,0.6,0.0,5.0,-0.9659294034495269,0.496382048544155
9.369067668914795,2.2574413744587516,[2.10360941],5.0,0.6,0.0,5.0,-0.9898374880527471,0.49053337376975803
9.378889083862305,2.2531426026905446,[2.09225438],5.0,0.6,0.0,5.0,-1.0159428115036728,0.48737695656120616
9.389057636260986,2.2488438309223375,[2.08122438],5.0,0.6,0.0,4.890441187464187,-1.0851631353196833,0.48613717964373376
9.398092031478882,2.2455220527378144,[2.07054798],5.0,0.6,0.0,4.78038764163871,-1.1401827697472284,0.485466468349747
9.40746259689331,2.2418094771198174,[2.06024403],5.0,0.6,0.0,4.633720313701131,-1.1807216506812994,0.48563911736407944
9.416094779968262,2.237901502785084,[2.05033052],5.0,0.6,0.0,4.447525496467221,-1.2429396612319767,0.48636923152987227
9.428327322006226,2.2330165348666675,[2.04081599],5.0,0.6,0.0,3.954571177318001,-1.219643359605187,0.48911157195762467
9.437770128250122,2.2289131618151976,[2.0316851],5.0,0.6,0.0,3.685085124741308,-1.253820314083669,0.49041075779112886
9.447157859802246,2.2253959849139373,[2.02292218],5.0,0.6,0.0,3.77057554217234,-1.2940139688117864,0.4898027927232695
9.4564368724823,2.2218788080126775,[2.0145233],5.0,0.6,0.0,3.6328399374491704,-1.3344796042909481,0.4904558832068473
9.464160919189453,2.2187524285448905,[2.00649386],5.0,0.6,0.0,3.4058012392403985,-1.3635075010361049,0.49156156084067176
9.47226595878601,2.2154306503603673,[1.99885184],5.0,0.6,0.0,2.8762363230392447,-1.356043389247674,0.4939638274810264
9.480189323425293,2.2121088721758437,[1.99161722],5.0,0.6,0.0,2.8674371822038003,-1.3364597996007244,0.49397657362580955
9.489094495773315,2.208396296557847,[1.98480175],5.0,0.6,0.0,2.71754885192967,-1.333858632523797,0.4945781098586965
9.499646663665771,2.2040975247896406,[1.9784086],5.0,0.6,0.0,2.518097999185243,-1.3139705704002727,0.49533975453233065
9.507079839706421,2.2011665440385904,[1.97244106],5.0,0.6,0.0,2.3103665002365785,-1.266494289488541,0.4960708627965712
9.515029907226562,2.1980401645708034,[1.96690727],5.0,0.6,0.0,2.1117132200075237,-1.2228067008488452,0.4967143627786443
9.52303171157837,2.1949137851030165,[1.96181676],5.0,0.6,0.0,1.9283866908096479,-1.161481912409742,0.49725854538185815
9.531845331192017,2.19120120948502,[1.95718088],5.0,0.6,0.0,1.7616867757017114,-1.0845407423388105,0.49771255574549955
9.541705131530762,2.18709783643355,[1.95301166],5.0,0.6,0.0,1.6108733728927482,-1.0296777218418702,0.49808946790609326
9.550039291381836,2.1833852608155535,[1.94931147],5.0,0.6,0.0,1.4744994931030622,-1.0380361091218735,0.4984015952574181
9.560432434082031,2.17889109033061,[1.94607019],5.0,0.6,0.0,1.0749538232897105,-1.0081363280791453,0.49916014331408887
9.57004690170288,2.1755693121460866,[1.94327201],5.0,0.6,0.0,0.9297194281525554,-1.0160202658869915,0.49937752521236983
9.579049348831177,2.1720521352448263,[1.94089805],5.0,0.6,0.0,1.1588495250780078,-0.9907210259172692,0.49902417191529785
9.589094877243042,2.1679487621933564,[1.9389302],5.0,0.6,0.0,1.1750457160521344,-0.9600303338853146,0.4990010536839585
