t_s,q_rad,q_des_rad,jerk
0.005336761474609375,-0.07171132904235797,0.0004352070945108325,0.0
0.014967679977416992,-0.07171132904235797,0.0021027969296431247,0.0
0.02535080909729004,-0.07132053160888463,0.005223352714948608,0.0
0.0364682674407959,-0.0709297341754113,0.009525176146929902,0.276038359678681
0.04689836502075195,-0.06995274059172794,0.014761637835684838,0.8612396821974845
0.05492067337036133,-0.06917114572478127,0.020714965244395565,1.976545070643227
0.06547904014587402,-0.06780335470762457,0.027194572070818816,3.3029557633437165
0.07643914222717285,-0.06584936754025787,0.03403349243630535,4.957765582598376
0.0876624584197998,-0.06369998165615451,0.04108730975113146,5.0
0.10048127174377441,-0.06057360218836778,0.048233741609791894,5.0
0.10965275764465332,-0.0578380201540544,0.055369974280609066,5.0
0.1200258731842041,-0.05451624196953099,0.06240966717488996,5.0
0.1314551830291748,-0.050608267634797595,0.06928391749843801,5.0
0.14038729667663574,-0.04709109073353753,0.07594024501635535,5.0
0.14922118186950684,-0.04396471126575081,0.08233633545394628,5.0
0.15987634658813477,-0.039470540780807396,0.08843859669411723,5.0
0.1703498363494873,-0.03497637029586397,0.09422726789173962,5.0
0.18148446083068848,-0.030482199810920558,0.09969495803157133,5.0
0.19032597541809082,-0.026769624192923825,0.10483715057458169,5.0
0.20038914680480957,-0.02247085242471708,0.10965137656448956,3.7005683300158942
0.21042490005493164,-0.018758276806720344,0.11414612755180012,1.6079484981697245
0.22176551818847656,-0.014068707605040257,0.11833938846208662,-0.36177553572322774
0.23272323608398438,-0.009769935836833513,0.12224928158719806,-2.189376609485593
0.2413649559020996,-0.005861961502100107,0.1258902798987095,-3.8737357264359003
0.2546818256378174,-0.0005861961502100108,0.1292794143610752,-4.869419512676321
0.26540470123291016,0.0035171769012600643,0.13244583439400148,-5.0
0.2747058868408203,0.007034353802520129,0.1354220701967717,-5.0
0.28235578536987305,0.010160733270306851,0.13822476017905763,-5.0
0.29338693618774414,0.014654903755250269,0.1408637233994839,-5.0
0.30434417724609375,0.019149074240193686,0.1433660075062502,-5.0
0.313154935836792,0.022666251141453746,0.14576103262997647,-5.0
0.32236242294311523,0.026574225476187156,0.14805941986698,-5.0
0.3334822654724121,0.03106839596113057,0.15027223491409925,-5.0
0.3449442386627197,0.035757965162810657,0.15242813907710384,-4.942798143996205
0.35724401473999023,0.04044753436449074,0.15455749429054835,-4.740528719353469
0.36755919456481934,0.044550907415960815,0.15667822597177505,-4.4730923836589405
0.3753690719604492,0.04787268560048421,0.1587969213443358,-4.181808097783724
0.3869307041168213,0.052562254802164296,0.160919698198004,-3.6119687294145777
0.39769458770751953,0.05705642528710771,0.16306166558092708,-3.5694371990768525
0.4058074951171875,0.06037820347163111,0.1652357794109503,-3.385908177281849
0.41592955589294434,0.06448157652310119,0.16744318339699535,-3.151217579251181
0.42599940299987793,0.06838955085783459,0.16968450109523053,-2.9068295563475486
0.4378793239593506,0.07307912005951467,0.17196979651886493,-2.670870732310286
0.4454057216644287,0.0762054995273014,0.17430224739276448,-2.450407838087417
0.45533299446105957,0.08050427129550815,0.17667414456287703,-2.2474176891100286
0.46616029739379883,0.08499844178045156,0.1790883674485153,-2.0616528801380065
0.4773077964782715,0.08949261226539497,0.18155662137833503,-1.8919901097908696
0.4884762763977051,0.09398678275033838,0.18408297205337784,-1.737044240929353
0.49829530715942383,0.09789475708507178,0.18666491726766685,-1.5954323985387346
0.5073115825653076,0.10160733270306853,0.18929935059781522,-1.465875173943494
0.5181398391723633,0.10571070575453859,0.19198266469853464,-1.34722490686408
0.5263261795043945,0.10903248393906198,0.19470610601966262,-1.2384635319676107
0.5363342761993408,0.11313585699053208,0.19746136670007206,-1.1386894792006719
0.5464749336242676,0.11743462875873882,0.2002500911717498,-1.0471021404347518
0.5553860664367676,0.12114720437673555,0.20306830737031115,-0.9629872922574914
0.5653262138366699,0.12505517871146896,0.2059026351958254,-0.885704559696388
0.5733158588409424,0.128572355612729,0.20874131435312773,-0.8146770328339439
0.5843212604522705,0.13287112738093576,0.21157862187725687,-0.7493827879163085
0.5945796966552734,0.13716989914914252,0.21441846810170528,-0.6893479728642766
0.6053998470306396,0.1418594683508226,0.21726381827887206,-0.6341411334144468
0.6143298149108887,0.14557204396881931,0.22011227282603668,-0.5833685080030675
0.6259346008300781,0.1502616131704994,0.22296582076305788,-0.8127084359228307
0.6377127170562744,0.15475578365544285,0.22583016530722558,-0.802879158800773
0.6463203430175781,0.15788216312322959,0.22870111293984102,-0.7082704104027041
0.6570413112640381,0.16237633360817297,0.23157043667654703,-0.5958390895247201
0.6653492450714111,0.16569811179269636,0.234435303609596,-0.767919141879194
0.6780683994293213,0.17097387714458645,0.23729319342001381,-0.7136632570861421
0.6883819103240967,0.1752726489127932,0.24014606682660675,-0.5882718595571297
0.6973543167114258,0.17878982581405328,0.242995467363579,-0.4567399301429882
0.7093992233276367,0.18347939501573338,0.24584245516984515,-0.34274093688881624
0.7193765640258789,0.18797356550067676,0.24869183782750046,-0.25193446655377466
0.7273187637329102,0.1910999449684635,0.25153511948766916,-0.18282600436368568
0.7393395900726318,0.1961803116036169,0.2543568588478643,-0.13164099656008738
0.7483634948730469,0.19989288722161366,0.25715235005598985,-0.0943728005928351
0.7623918056488037,0.2055594500069771,0.2599256488350545,-0.06753430166357346
0.7753715515136719,0.2108352153588672,0.2626918790522865,-0.048343068357148314
0.7847785949707031,0.21435239226012726,0.26545959905689315,-0.034680472089218164
0.7948343753814697,0.21845576531159733,0.26821990202542767,-0.024977824573512858
0.8053264617919922,0.22275453707980408,0.27096500649278027,-0.018094049689159113
0.816317081451416,0.2272487075647475,0.27369578925272453,-0.01320874042379459
0.8250739574432373,0.23076588446600757,0.2764128172795214,-0.009736640963111626
0.8353266716003418,0.23506465623421427,0.27910895893584814,-0.007262454265521871
0.8453755378723145,0.23936342800242105,0.2817816863389761,-0.005492541498983937
0.858320951461792,0.24444379463757446,0.2844360951931738,0.27181858181280066
0.8663110733032227,0.2475701741053612,0.2870692425634463,0.3058646788303989
0.878211498260498,0.25245514202377795,0.28967498779194123,0.2514403028020707
0.8873565196990967,0.256558515075248,0.29225179626525316,0.17585178226465506
0.8994145393371582,0.26144348299366477,0.2948019028779718,0.10570000471023633
0.911968469619751,0.2661330521953449,0.29733408892053603,0.049359296075209294
0.9219238758087158,0.2700410265300783,0.2998523723267792,0.0075781747199457
0.9335062503814697,0.27473059573175834,0.30235330174169867,-0.021667284570409912
0.9440953731536865,0.2792247662167018,0.3048340740951997,-0.04105961599579277
0.9543194770812988,0.28352353798490854,0.30729252316114697,-0.053101981885878766
0.9653186798095703,0.288017708469852,0.30972707711690567,-0.05985238557190898
0.9763307571411133,0.29251187895479536,0.3121399903837473,-0.06289797210100123
0.9845583438873291,0.29602905585605543,0.3145333974323343,-0.06341717039978326
0.9953153133392334,0.3001324289075255,0.31690269642014907,-0.062263217966846085
1.0040876865386963,0.3038450045255222,0.319244355998645,-0.060042603345001194
1.0139994621276855,0.3079483775769923,0.32155913669337294,-0.3332182887149484
1.02132248878479,0.3106839596113057,0.32384809412020665,-0.3631312233187235
1.034304141998291,0.31576432624645917,0.3261159417061661,-0.3046725199212492
1.0452613830566406,0.32006309801466587,0.3283704615136188,-0.5012475921726074
1.0549633502960205,0.32358027491592595,0.3306117386424496,-0.7365793053490372
1.0652971267700195,0.32729285053392265,0.33283332405956645,-0.9308386797355064
1.0763366222381592,0.33081002743518273,0.3350370519415463,-1.3398317754201496
1.087315559387207,0.3343272043364428,0.3372318033808535,-1.7241824598776543
1.098900556564331,0.33803977995443946,0.3394219673220509,-2.834996547390535
1.107332706451416,0.3403845645552796,0.3416045024537114,-3.3825804961338295
1.119724988937378,0.3435109440230663,0.34377713938414567,-4.708325862693252
1.130321979522705,0.3462465260573797,0.3459454239466829,-5.0
1.1394059658050537,0.3482005132247464,0.348114334747252,-5.0
1.15201997756958,0.3505452978255864,0.3502884315038185,-5.0
1.161301612854004,0.35210848755947977,0.35247173496895706,-5.0
1.1710705757141113,0.3536716772933732,0.35466041360504164,-5.0
1.1833417415618896,0.35543026574400316,0.35685526584389476,-5.0
1.1956737041473389,0.3569934554778965,0.35906861787422567,-5.0
1.203385591506958,0.3579704490615799,0.3613033881487444,-5.0
1.214942216873169,0.35894744264526324,0.3635506384805431,-5.0
1.2253196239471436,0.3599244362289466,0.3658108764226004,-4.406171479402041
1.2362141609191895,0.3607060310958933,0.36809273895098077,-3.7959270221238173
1.2443642616271973,0.36109682852936664,0.37039970291288915,-3.250791955851864
1.2543447017669678,0.3616830246795766,0.3727266004997983,-2.7911882726054227
1.2653427124023438,0.36207382211305,0.37506918498139213,-1.8608794158813757
1.277379035949707,0.36266001826325994,0.37743235720928114,-1.485508342441887
1.286874771118164,0.36324621441346994,0.379820354296646,-1.0662832793855763
1.2983131408691406,0.36383241056368,0.38223256390662574,-0.14771787494330635
1.3087620735168457,0.36441860671389,0.3846727632883227,1.0349186667591896
1.3182907104492188,0.36500480286410003,0.387143992928879,2.065466147734891
1.3270392417907715,0.3655909990143101,0.38963994061317747,3.1024896956770385
1.336277723312378,0.36637259388125676,0.392150723264925,4.183372546403931
1.3472766876220703,0.3671541887482034,0.39467671246659874,5.0
1.3582732677459717,0.3681311823318867,0.3972269491087245,5.0
1.3671925067901611,0.3691081759155701,0.39980003153169247,5.0
1.3790340423583984,0.3702805682159901,0.40239018304401675,5.0
1.3892126083374023,0.37145296051641014,0.4050012894830381,5.0
1.4002902507781982,0.37301615025030344,0.40763645596440073,5.0
1.4082739353179932,0.37399314383398685,0.41028916968687057,5.0
1.4181451797485352,0.37555633356788015,0.4129538112511356,5.0
1.427293300628662,0.3769241245850368,0.41563459061780306,5.0
1.4382836818695068,0.37887811175240366,0.41833499862297624,5.0
1.4509458541870117,0.381027497636507,0.4210580136727753,5.0
1.4588627815246582,0.38278608608713705,0.42380605963647355,5.0
1.4698450565338135,0.3847400732545037,0.42657175147341986,5.0
1.481302261352539,0.3872802565720805,0.42935328943988577,5.0
1.4923112392425537,0.3902112373231304,0.4321583264984375,5.0
1.5012998580932617,0.3923606232072338,0.43498394141714924,4.85274606544805
1.510425329208374,0.3947054078080739,0.4378182277127507,4.77722189615058
1.5202710628509521,0.3974409898423873,0.44065571928711883,4.681817640677751
1.5303568840026855,0.40017657187670064,0.44349647601405995,4.541956994308173
1.53855299949646,0.4025213564775407,0.4463405681919324,4.083813069269684
1.5482659339904785,0.4052569385118541,0.4491880292396081,3.8372618771045266
1.56026291847229,0.4087741154131142,0.4520388123110665,3.65964112891073
1.5702714920043945,0.4119004948809009,0.45489279499097446,3.770086591964317
1.5802898406982422,0.41522227306542425,0.4577497728553301,3.3549869785984012
1.5885488986968994,0.4179578550997376,0.46060943539878085,2.809270933421784
1.5963444709777832,0.42030263970057774,0.4634667528017074,2.291471194584617
1.6051228046417236,0.42342901916836445,0.46631275930542443,1.8535448024327112
1.6143522262573242,0.4267507973528878,0.46914447774314144,1.5023011047932497
1.6249144077301025,0.4310495691210946,0.4719639978361814,1.5037162837594114
1.6344020366668701,0.43476214473909125,0.47477303397514176,1.3243357819051873
1.6433169841766357,0.4382793216403513,0.47757292388213546,1.1049293367962472
1.6529607772827148,0.44199189725834814,0.48036462965653937,0.9010626104884354
1.662959337234497,0.44589987159308153,0.4831487645661898,0.7301216003072379
1.6712899208068848,0.4494170484943415,0.4859212703551808,0.3174616437708807
1.6826677322387695,0.45430201641275836,0.48867852357401975,0.17760239820348173
1.6935317516326904,0.45879618689770174,0.4914260290374021,-0.1260113502312358
1.7035844326019287,0.4627041612324352,0.49416824229878104,-0.42315530018387465
1.7137336730957031,0.46661213556716846,0.4969042724820876,-0.9327191206107863
1.7233049869537354,0.47012931246842854,0.499633058897474,-1.402672384001871
1.7312896251678467,0.47345109065295204,0.502349358980616,-1.75374785937515
1.7399184703826904,0.4771636662709487,0.5050445101504629,-2.254833732051984
1.751300573348999,0.48204863418936544,0.5077192524075,-2.681958632067276
1.761960506439209,0.48654280467430894,0.5103821844106208,-2.9719308642978497
1.7712481021881104,0.49025538029230564,0.5130324060987322,-3.126982043006379
1.7801742553710938,0.4935771584768291,0.5156610940044616,-3.171605134010187
1.7903306484222412,0.49768053152829916,0.518268580248037,-3.1341327318741485
1.8032286167144775,0.5031516955969259,0.5208628776964043,-3.0397357445703586
1.8128511905670166,0.5068642712149226,0.5234467752574016,-2.908467639495565
1.8204286098480225,0.5097952519659726,0.5260149323068906,-2.7553663627886964
1.831265926361084,0.5140940237341795,0.5285628548329078,-2.591259651037186
1.843057632446289,0.5191743903693328,0.5310943602472668,-2.4236943486216074
1.852998971939087,0.5226915672705928,0.5336127448170015,-2.257768455287745
1.8604493141174316,0.5256225480216429,0.5361133951269991,-2.37284150962683
1.871093511581421,0.5299213197898497,0.5385925448201829,-2.252019886997937
1.8802542686462402,0.5332430979743731,0.5410509163002317,-2.327210407719538
1.8929691314697266,0.5383234646095265,0.5434893118405644,-2.4233041147703887
1.9003190994262695,0.5408636479271033,0.5459085839138171,-2.47879119410228
1.90903902053833,0.5441854261116267,0.548305987521548,-2.756953259584992
1.9172964096069336,0.5471164068626767,0.5506757876412661,-3.020882439051583
1.9252469539642334,0.54985198889699,0.5530134710234053,-3.469869855532359
1.9393560886383057,0.5539553619484602,0.5553229232457783,-4.1275383366127185
1.9493422508239746,0.5566909439827735,0.5576150922116601,-4.677914649049491
1.9602715969085693,0.5596219247338236,0.559895824804019,-5.0
1.9696204662322998,0.5619667093346636,0.5621665900905858,-5.0
1.9812607765197754,0.5645068926522403,0.5644324532408495,-5.0
1.989264965057373,0.566460879819607,0.5666977989314791,-5.0
1.9973571300506592,0.5680240695535003,0.5689590421017855,-5.0
2.008265972137451,0.5701734554376038,0.5712132520801879,-5.0
2.0199713706970215,0.5719320438882337,0.5734617701534866,-5.0
2.0318546295166016,0.5736906323388637,0.5757095654179937,-5.0
2.0422496795654297,0.5752538220727572,0.5779646164229355,-5.0
2.050259828567505,0.5758400182229672,0.5802262122714005,-5.0
2.0622472763061523,0.5772078092401239,0.5824899717292694,-4.831166637307058
2.0732381343841553,0.5781848028238072,0.5847595600847662,-4.415754400098914
2.082280397415161,0.5787709989740173,0.5870379787770029,-3.946883037565179
2.091275215148926,0.5793571951242272,0.5893202229737512,-3.2264824394286267
2.0999622344970703,0.5797479925577007,0.5915982749840709,-2.523247751800685
2.108718156814575,0.5803341887079105,0.5938690417308637,-1.9288761049842513
2.1192729473114014,0.5811157835748574,0.5961336254174527,-1.4593424569444156
2.1282947063446045,0.5815065810083306,0.5983929538583076,-0.5496292087975823
2.139008045196533,0.5820927771585406,0.6006477810928312,0.05953354426273738
2.1490166187286377,0.5828743720254873,0.602898691699845,0.7315020719712472
2.1631760597229004,0.5838513656091707,0.6051496737484818,1.83931873334558
2.1749677658081055,0.584828359192854,0.6074075101329454,3.130959862977753
2.182241678237915,0.5856099540598008,0.6096740687294432,3.9227707787244257
2.193331003189087,0.5867823463602206,0.6119470426455536,4.908195761620731
2.203301191329956,0.5879547386606407,0.6142242172801553,5.0
2.212233066558838,0.5889317322443242,0.6165000060699438,5.0
2.2254767417907715,0.5906903206949541,0.6187695251231664,5.0
2.234827995300293,0.5918627129953741,0.6210354996293999,5.0
2.243833541870117,0.5932305040125309,0.6233000966663076,5.0
2.253092050552368,0.5945982950296876,0.6255615188614574,5.0
2.263157367706299,0.5963568834803176,0.6278181399239829,5.0
2.271226167678833,0.5977246744974742,0.6300651474327194,5.0
2.2802681922912598,0.5990924655146309,0.6322951120288521,5.0
2.294095754623413,0.6016326488322077,0.6345085459144982,5.0
2.305264949798584,0.6037820347163111,0.6367126673125791,5.0
2.3166329860687256,0.6061268193171511,0.6389135789194558,5.0
2.328328847885132,0.6084716039179912,0.6411163643163482,5.0
2.33620548248291,0.6102301923686212,0.6433186113791958,4.95719103946908
2.347224473953247,0.612770375686198,0.6455116358482529,4.714487013629457
2.3582403659820557,0.6153105590037747,0.6476947459141271,4.396956697506416
2.3709347248077393,0.6184369384715612,0.6498772744071667,4.338937955284089
2.379329204559326,0.6205863243556646,0.6520637908742923,4.047399885737931
2.3902251720428467,0.6233219063899781,0.6542482570641688,3.4114536676997416
2.3982412815093994,0.6256666909908181,0.6564255742067844,2.7445003632619747
2.4062271118164062,0.6278160768749216,0.6585915171781846,2.1613499004875796
2.4150497913360596,0.6301608614757614,0.6607393887978751,1.9660847015287444
2.429018020629883,0.6342642345272317,0.6628703005518933,1.909225928902379
2.4389216899871826,0.6371952152782816,0.664991974896816,1.608788121528531
2.4462203979492188,0.6393446011623851,0.6671045545306414,1.2676955909087042
2.459409475326538,0.6436433729305918,0.6692050720046058,1.515184192487852
2.4692399501800537,0.6465743536816418,0.6712978263714013,1.334914154667894
2.48024320602417,0.6498961318661652,0.6733866594552929,0.7590998126124768
2.492230176925659,0.6539995049176353,0.6754717106874787,0.7082924511897697
2.5011978149414062,0.6571258843854221,0.6775533463748643,0.27561450742953153
2.5098087787628174,0.6598614664197354,0.6796321722481503,-0.20112432861815288
2.519294500350952,0.662987845887522,0.6817089581591464,-0.32301854151123904
2.5278072357177734,0.6657234279218355,0.6837846442776335,-0.5796550224793559
2.5352284908294678,0.6680682125226756,0.6858568246980584,-0.8239617221140181
2.54402494430542,0.6708037945569889,0.6879202574466938,-1.28403077824197
2.5522241592407227,0.6735393765913023,0.6899708191176543,-1.4347154634788843
2.564440965652466,0.6776427496427724,0.6920090710711169,-1.439931705532115
2.5732264518737793,0.6805737303938224,0.6940432752904034,-1.656075202102405
2.581260919570923,0.6831139137113991,0.6960771406676175,-1.879197107853579
2.59021258354187,0.6858494957457124,0.6981068282142515,-2.039622533974016
2.6016647815704346,0.6897574700804461,0.7001371402029954,-2.124903392282842
2.6142590045928955,0.6934700456984426,0.7021802453653506,-2.1442854959702338
2.627462387084961,0.6977688174666494,0.704247010241701,-2.1130341750172317
2.6373698711395264,0.7006997982176995,0.7063470605690889,-2.3220985918896657
2.648646354675293,0.7038261776854862,0.7084846499682829,-2.540957254033355
2.6562139987945557,0.7059755635695895,0.7106551610126326,-2.9669333899774166
2.6670775413513184,0.7085157468871662,0.7128546908622697,-3.343062685976088
2.676197052001953,0.7108605314880063,0.715084074614939,-3.867598340719547
2.685194730758667,0.712814518655373,0.7173396717927839,-4.569886248167647
2.6989855766296387,0.7153547019729498,0.7196227949894025,-5.0
2.7092127799987793,0.7173086891403164,0.721943178597251,-5.0
2.722066879272461,0.7192626763076831,0.7243090043672364,-5.0
2.7332184314727783,0.7210212647583132,0.7267225211289836,-5.0
2.7472639083862305,0.7227798532089431,0.7291853148873104,-5.0
2.7560181617736816,0.7237568467926265,0.7317027553172274,-5.0
2.769240140914917,0.7251246378097833,0.7342743488349112,-5.0
2.777207612991333,0.7257108339599934,0.7368946455728074,-5.0
2.788424491882324,0.7264924288269399,0.739558528724697,-4.734364624385304
2.797729730606079,0.7274694224106234,0.7422658061052833,-4.189852386724819
2.80730938911438,0.7282510172775699,0.7450112846565126,-3.332682536321727
2.8172953128814697,0.7290326121445166,0.747785680665313,-2.4977070157562387
2.8302342891693115,0.7302050044449367,0.7505901373963715,-1.522512574438153
2.8430635929107666,0.7315727954620934,0.753430090936499,-0.3931460739162074
2.8512308597564697,0.73235439032904,0.7563052641065862,0.8520403071358645
2.859273910522461,0.7333313839127235,0.7592057991885287,2.1637491533117696
2.8702075481414795,0.7345037762131434,0.7621232307124438,3.2216885626444327
2.882615327835083,0.7360669659470368,0.7650598285483846,3.9582454627886348
2.892806053161621,0.7376301556809302,0.7680222428837234,4.679910798071946
2.901195764541626,0.7386071492646135,0.7710063870434518,5.0
2.910179615020752,0.7401703389985068,0.7739990828544872,5.0
2.919797897338867,0.7417335287324003,0.776993977615662,5.0
2.9312033653259277,0.7434921171830302,0.7799905674453749,5.0
2.9392337799072266,0.7450553069169236,0.7829884650860987,5.0
2.950364828109741,0.747204692801027,0.7859873542965762,5.0
2.9595131874084473,0.748963281251657,0.788986963490244,5.0
2.969045877456665,0.7509172684190237,0.7919869915167095,5.0
2.980217218399048,0.7534574517366005,0.7949870589877144,5.0
2.9912586212158203,0.7558022363374406,0.7979915287691642,5.0
3.0032150745391846,0.7587332170884905,0.8010086628450371,5.0
3.0112037658691406,0.7608826029725938,0.804035532666333,5.0
3.021343231201172,0.7640089824403806,0.8070597994554651,5.0
3.031280517578125,0.766744564474694,0.8100755893900666,4.640210807944831
3.0411887168884277,0.7698709439424808,0.8130825306828433,4.435091331203724
3.0512256622314453,0.7728019246935308,0.8160801380626553,4.541565467078757
3.063633918762207,0.7769052977450008,0.819072351297135,4.397605515116288
3.073233127593994,0.7800316772127877,0.8220667441848021,3.8715485518829476
3.0837347507476807,0.7837442528307843,0.8250647524882864,3.828025310769437
3.093921661376953,0.7872614297320444,0.8280626512207738,3.0740959612249057
3.1030638217926025,0.7903878091998312,0.8310570002997025,2.749849989001644
3.112309694290161,0.7942957835345645,0.8340403228718687,2.592570599130219
3.127272844314575,0.799962346319928,0.8370105240344003,2.763865045340803
3.1393895149230957,0.8044565168048715,0.8399788116868083,2.4231712220883472
3.14888596534729,0.8077782949893948,0.8429501877055091,1.6772325881429617
3.1571669578552246,0.8111000731739182,0.8459157760805626,1.1984450342250756
3.1691906452178955,0.815985041092335,0.8488681128211789,1.158306782588472
3.181598424911499,0.8214562051609617,0.8518139725667363,0.9771018330276117
3.19339919090271,0.8261457743626417,0.8547635655193997,0.2211004057979949
3.205233573913574,0.8310307422810586,0.8577214004209227,-0.3029600612582378
3.215301036834717,0.8351341153325286,0.8606870812894706,-0.6491285296628226
3.225165367126465,0.8388466909505254,0.8636516817208695,-1.4165309425061274
3.239671468734741,0.8447086524526255,0.866612467551047,-2.1567658557083895
3.251157760620117,0.8492028229375689,0.8695764545175847,-2.721727010249321
3.263007879257202,0.8542831895727223,0.8725502049701988,-2.814208311336886
3.273167371749878,0.858581961340929,0.8755351541177617,-2.9792475123483766
3.2812440395355225,0.8619037395254524,0.8785235465166994,-3.376580298473772
3.2912657260894775,0.8658117138601857,0.8815092758872812,-3.4566610663816126
3.3042349815368652,0.8706966817786026,0.884497260103218,-3.3778914057243323
3.315293550491333,0.8753862509802827,0.8874970657758625,-3.2224034457252833
3.3282954692840576,0.8806620163321728,0.8905173443445855,-3.3091244240679956
3.3371760845184326,0.8841791932334329,0.8935607353929234,-3.417650201582801
3.3471736907958984,0.8880871675681662,0.8966194974858757,-3.195527064605572
3.357844352722168,0.8919951419028997,0.8996923616080542,-3.422868767769681
3.3678929805755615,0.8953169200874231,0.9027885595697412,-3.4346304409660693
3.378159523010254,0.8990294957054198,0.90591075054331,-3.6095634209928242
3.387169122695923,0.9021558751732064,0.909050713690505,-3.4844471748831305
3.3972580432891846,0.9054776533577299,0.9122014315285666,-3.7967505179771606
3.4101755619049072,0.9093856276924633,0.9153673862070528,-4.145004327391181
3.420168876647949,0.9123166084435134,0.9185522864724072,-4.6649642709216135
3.4340298175811768,0.9160291840615101,0.9217591723968342,-5.0
3.442556381225586,0.9181785699456134,0.9249956488985651,-5.0
3.4501826763153076,0.9201325571129801,0.9282572542696671,-5.0
3.4597747325897217,0.9222819429970835,0.9315292990527343,-5.0
3.468851089477539,0.9240405314477135,0.9348042776837917,-5.0
3.4771969318389893,0.9254083224648704,0.938075618831283,-5.0
3.486236333847046,0.9271669109155003,0.9413323161010536,-5.0
3.4949612617492676,0.928534701932657,0.9445699225743981,-5.0
3.5061655044555664,0.9304886891000236,0.9477942560055646,-5.0
3.516235828399658,0.9324426762673904,0.9510096398140341,-4.642190122903442
3.5248074531555176,0.9342012647180205,0.9542093168833089,-3.535755900685238
3.5331571102142334,0.9357644544519137,0.9573823076652189,-2.356058070751157
3.5464229583740234,0.9383046377694905,0.9605278780435292,-1.348639249971002
3.558652400970459,0.9406494223703306,0.9636580261837571,-0.019843455729648962
3.5690481662750244,0.9427988082544339,0.9667774988714658,1.4362410042078344
3.583343505859375,0.9459251877222207,0.9698844057080658,2.3633831153821316
3.5911545753479004,0.9476837761728507,0.9729763717510173,3.191726551425699
3.6037492752075195,0.9504193582071641,0.9760465829510407,3.792570842611753
3.6112639904022217,0.9517871492243207,0.9790923879912058,4.160489143717011
3.621147871017456,0.953936535108424,0.98210761031824,4.609613288760295
3.630138635635376,0.9560859209925274,0.9850795208287682,4.668198408849678
3.640272378921509,0.9582353068766308,0.9880010890288552,4.809918768859333
3.6491456031799316,0.9603846927607341,0.9908701802187985,4.617724422816526
3.657142400741577,0.9623386799281008,0.9936818994065869,4.575152133777812
3.668184280395508,0.9648788632456776,0.9964325940335176,4.257906696727767
3.6773393154144287,0.9676144452799911,0.9991265974162962,4.137436618375547
3.6881203651428223,0.9705454260310411,1.0017682107297927,4.053568280990427
3.697152614593506,0.9728902106318811,1.0043549396249092,3.9487778689279938
3.7086238861083984,0.9762119888164045,1.0068854297740422,3.8097753926842026
3.7171642780303955,0.9785567734172447,1.0093627197753388,3.6404497975481744
3.7262680530548096,0.9810969567348212,1.0117902425000562,3.449846623634011
3.735758066177368,0.9840279374858714,1.0141717537381758,3.5232468725921304
3.745177745819092,0.9867635195201847,1.0165077918734589,3.0733544945845677
3.753143310546875,0.989499101554498,1.0187961659860962,2.779599548259183
3.764838457107544,0.9934070758892316,1.021039466761987,2.5585791001582088
3.774245500564575,0.9963380566402815,1.023251724042006,2.3722700964226946
3.786539077758789,1.000246030975015,1.0254494429253664,2.2040696473255954
3.7950990200042725,1.003177011726065,1.0276362827374301,2.0472094023826237
3.805094003677368,1.0064987899105884,1.0298084493130149,1.8992376368877917
3.8152387142181396,1.009625169378375,1.0319711668421239,1.4834133858979448
3.823773145675659,1.0125561501294251,1.0341333169173121,1.042546281636063
3.8313703536987305,1.0150963334470018,1.0362909180436686,0.6648695730506826
3.8421146869659424,1.0182227129147887,1.0384412173879214,0.3713203116277164
3.8519444465637207,1.0217398898160488,1.0405947123253463,0.15617860412193207
3.8611645698547363,1.025061668000572,1.0427565063636288,0.005286910154106705
3.8736982345581055,1.0293604397687788,1.0449272759691743,-0.3723486602011715
3.8811683654785156,1.031705224369619,1.0471166399391945,-0.7467768164632709
3.8898367881774902,1.0348316038374055,1.0493285485388817,-0.7640311542213576
3.897203207015991,1.0371763884382457,1.0515577269253218,-0.9298671840750928
3.907776117324829,1.0406935653395057,1.0538044050352957,-1.1008792669025398
3.916722297668457,1.0436245460905555,1.0560735178104295,-1.2278551918475094
3.9251558780670166,1.0463601281248691,1.0583647203514028,-1.3017917859125494
3.933955430984497,1.0492911088759191,1.0606731282088866,-1.6050186208096442
3.9441285133361816,1.0524174883437059,1.0629994590343894,-1.6291652314958114
3.9545748233795166,1.055934665244966,1.0653491801936028,-1.815348530856405
3.964137315750122,1.0590610447127526,1.06772700476603,-1.7205102750427126
3.973162889480591,1.0617966267470662,1.0701319689121582,-1.808594583445676
3.981184244155884,1.0639460126311695,1.0725582418592887,-1.9171408039285416
3.9921841621398926,1.0668769933822195,1.0750107770404678,-1.9886462885621738
4.002817153930664,1.0698079741332696,1.0775036095870327,-2.2868132183879295
4.010188341140747,1.0711757651504263,1.080038296601438,-2.573871658277966
4.0207908153533936,1.073715948468003,1.0826057357746406,-3.047963960608951
4.029200553894043,1.0758653343521063,1.0852029471953253,-3.7316664213544595
4.038914680480957,1.0782101189529465,1.0878321715656347,-4.584218248190153
4.048981666564941,1.0805549035537865,1.0904949909391304,-4.998105745151182
4.061141490936279,1.0830950868713631,1.0931923902020033,-5.0
4.072042465209961,1.08563527018894,1.095924804446045,-4.746880606724373
4.082164287567139,1.0877846560730433,1.098692175031286,-4.317686868358116
4.092046737670898,1.0899340419571466,1.101494040840042,-3.585493399063383
4.1053550243377686,1.09266962399146,1.1043346789674016,-2.2997481354295326
4.11566686630249,1.0948190098755635,1.1072222801141602,-1.328492176162428
4.125073194503784,1.09677299704293,1.1101580735231358,-0.35106013936952785
4.137338638305664,1.0993131803605067,1.1131425276735223,0.17082286938970126
4.14617133140564,1.1010717688111367,1.1161754492850804,0.7208498047038983
4.156158208847046,1.1032211546952402,1.1192458779221577,0.8907454093240004
4.16815710067749,1.1059567367295535,1.1223493270060545,1.1713079753495557
4.177779674530029,1.1079107238969204,1.1254920252896066,1.4201427196985887
4.1861796379089355,1.1096693123475503,1.1286685825928724,1.594440791405109
4.19615364074707,1.1118186982316538,1.131863844571608,1.692488131399624
4.206633806228638,1.1143588815492305,1.1350754587049703,2.0030822432858084
4.220240354537964,1.1168990648668071,1.138317360004068,2.0230281878646226
4.2313501834869385,1.1194392481843838,1.1416014038667626,1.921319354846089
4.240636825561523,1.121588634068487,1.1449214292976873,2.05274488913534
4.25088357925415,1.1239334186693273,1.1482612960789755,2.2096358995130387
4.26521372795105,1.1272551968538507,1.1516182341210492,2.042363510746627
4.273099422454834,1.1290137853044806,1.1549953360949852,2.0540222588711843
4.284381628036499,1.1317493673387942,1.1583897607287008,2.3724717635031753
4.294550180435181,1.1340941519396341,1.1618046715942503,2.4246944650097433
4.303098440170288,1.1362435378237374,1.1652426700562915,2.352173489043568
4.311756610870361,1.1385883224245774,1.168694710191072,2.2250379524962547
4.322842121124268,1.1415193031756277,1.1721531121790951,2.0777718239558363
4.332202434539795,1.1438640877764674,1.175616986806626,2.2031093070075185
4.340183734893799,1.1464042710940443,1.1790799757269712,2.08993535984925
4.350614786148071,1.149530650561831,1.1825368119553834,1.8963845578052432
4.363326787948608,1.1526570300296177,1.1859944269109675,2.243047165540136
4.375338554382324,1.1561742069308776,1.18946434187384,2.3948376700890535
4.386105060577393,1.1591051876819278,1.1929505122729722,2.4263011095066522
4.3971240520477295,1.162622364583188,1.1964560843874292,2.3839255671486193
4.4071807861328125,1.1657487440509746,1.1999834763956088,2.573256478579717
4.421121835708618,1.1702429145359179,1.203534473333413,2.494306557537392
4.429818868637085,1.1727830978534948,1.207115946063119,2.0380006550675023
4.437301158905029,1.1753232811710714,1.2107220387463102,1.7984665998651372
4.446621894836426,1.1786450593555948,1.214341927617532,1.6526629507729278
4.456752777099609,1.1819668375401182,1.2179720294914231,1.5449112303664505
4.464126110076904,1.1847024195744316,1.2216035522664836,1.175307763430943
4.4736411571502686,1.1878287990422185,1.2252234271262366,1.0535473593483276
4.4821388721466064,1.191150577226742,1.2288208286616265,0.7460459702892134
4.4921956062316895,1.1950585515614751,1.2323869769350817,0.9802854157027625
4.5001256465911865,1.1979895323125254,1.2359206983799662,0.7806197708421218
4.50811767578125,1.2007251143468387,1.2394215160050401,0.7458440818653373
4.518000841140747,1.2046330886815722,1.2428896600147175,0.761820210606273
4.5298144817352295,1.2087364617330423,1.2463375536402674,0.7819611176643675
4.543146133422852,1.2138168283681954,1.249782085638761,1.0662711372662017
4.556666851043701,1.2190925937200856,1.2532439497066687,1.0927910940569114
4.564162254333496,1.2216327770376625,1.256728927500104,1.0181503657034827
4.578961133956909,1.2278855359732357,1.2602301575603618,0.9128998307324181
4.589008092880249,1.2321843077414425,1.26375994376139,0.8068357417061808
4.600079536437988,1.2368738769431225,1.2673286200953446,0.710979836288606
4.6111977100372314,1.2411726487113293,1.2709327399069892,0.35205347030831413
4.623913764953613,1.2462530153464826,1.2745754069055149,-0.027610216080701966
4.634097099304199,1.250356388397953,1.2782652331448083,-0.617522256313082
4.645285367965698,1.2550459575996329,1.2820030333588959,-0.8796023520844392
4.65607476234436,1.2593447293678397,1.2857830214341996,-1.2518084749964344
4.665114164352417,1.2630573049858367,1.2896000493354294,-1.5737343135944961
4.674029350280762,1.2665744818870965,1.2934495625646711,-1.7994191795467558
4.685086250305176,1.2708732536553033,1.297327585306286,-1.9296412976215143
4.6931445598602295,1.2738042344063532,1.3012306814507764,-1.981226512874012
4.701070547103882,1.2773214113076135,1.3051494259404626,-1.973914736365395
4.710113286972046,1.28103398692561,1.309069419629233,-1.925340389209859
4.719333648681641,1.2849419612603434,1.31298517466522,-1.8496045355950854
4.731454133987427,1.2900223278954968,1.3169054393163822,-1.7573172346601114
4.740863800048828,1.2933441060800202,1.3208378391750208,-1.9321855077284402
4.752101182937622,1.2980336752817005,1.3247757541966299,-1.8606283179714163
4.762084722518921,1.3021370483331705,1.3287204450936947,-1.7009904554228252
4.771564722061157,1.306045022667904,1.3326864115846866,-1.522909924654505
4.7801313400268555,1.3095621995691638,1.3366725024383403,-1.3544512364695467
4.790619850158691,1.3134701739038972,1.3406642774621866,-1.2048445175139104
4.798690319061279,1.3167919520884206,1.3446562979434178,-1.0752752750415366
4.806070804595947,1.3197229328394708,1.3486440510482618,-0.6878345930873702
4.815185546875,1.323240109740731,1.3526171384605647,-0.558757381752902
4.824156999588013,1.3269526853587275,1.356573818138935,-0.5306927895306182
4.8321099281311035,1.3300790648265144,1.3605128789036678,-0.8101565793889766
4.840198516845703,1.3334008430110378,1.3644268009485165,-0.8497861495728197
4.848264455795288,1.3367226211955612,1.3683095983277715,-0.7944620488916654
4.856074094772339,1.3400443993800844,1.3721566396665321,-0.7095409007347042
4.867793321609497,1.3449293672985012,1.3759781397494828,-0.6227100306315627
4.878883600234985,1.3498143352169178,1.3797967502924326,-0.5442895750137526
4.887162923812866,1.352745315967968,1.3836180457633371,-0.4769456845275047
4.896148443222046,1.3564578915859649,1.3874398754139392,-0.4202404389915737
4.90714955329895,1.3607566633541714,1.3912672466323255,-0.37269194851363596
4.9191718101501465,1.365250833839115,1.3951043819466549,-0.33265384297302014
4.929297685623169,1.3697450043240584,1.3989614606467962,-0.2986494753191827
4.9395835399627686,1.3740437760922652,1.4028465907671526,-0.26946500741535007
4.948113918304443,1.3771701555600517,1.4067525896316002,-0.24414401604375957
4.958818197250366,1.3814689273282585,1.4106730542178663,-0.49798668396225126
4.966163158416748,1.3842045093625719,1.4146090275063061,-0.5114757433814826
4.975088834762573,1.3881124836973056,1.4185543111753667,-0.4388703106536537
4.984119176864624,1.3918250593153023,1.422503403660537,-0.347071039944965
4.994261264801025,1.3959284323667722,1.4264582691575651,0.013669997316809096
5.005087852478027,1.4006180015684524,1.4304203919707819,-0.15977127299596844
5.016339063644409,1.4051121720533957,1.4343975107803075,-0.194309790033899
5.026105880737305,1.4092155451048658,1.4383959318752364,-0.17522758479962533
5.034594774246216,1.412537323289389,1.4424073656917589,-0.14040239497061505
5.044105291366577,1.4164452976241229,1.4464246973278663,-0.1054399214299475
5.057462453842163,1.4217210629760126,1.4504553840320222,-0.07581083344975373
5.068147897720337,1.4262152334609561,1.454512537612678,-0.05261889233480234
5.076081275939941,1.4291462142120062,1.4585936524038154,-0.035274754614375396
5.084136724472046,1.4324679923965296,1.4626830332962508,-0.02268569869846729
5.096172571182251,1.437548359031683,1.466781349850142,-0.013747471363158596
5.105234146118164,1.4408701372162065,1.4708962442586262,-0.007518104368263565
5.113142251968384,1.4441919154007297,1.4750205499126636,-0.003254352879575979
5.121074676513672,1.4473182948685164,1.4791415004226023,-0.00039459013213962
5.1367881298065186,1.4537664525208267,1.4832630519632473,0.0014744684001632914
5.144925355911255,1.4568928319886134,1.487403323401023,0.0026517054332104236
5.1575963497161865,1.4625593947739768,1.491570938866586,0.003350680442119636
5.168087720870972,1.4664673691087102,1.4957738177123263,0.0037226416622049615
5.177510976791382,1.4701799447267068,1.5000188463697266,0.0038739601105263217
5.187065124511719,1.4740879190614404,1.5043046456483526,0.0038789935597856855
5.195231914520264,1.477214298529227,1.5086224617665107,0.0037894189613270008
5.2052881717681885,1.481317671580697,1.5129573535792924,0.0036409267176676654
5.213665723800659,1.4846394497652204,1.5173046350142778,0.0034579853978870248
5.2211012840271,1.4877658292330072,1.5216683984158819,0.0032572145016422846
5.231151103973389,1.491478404851004,1.5260524654166159,0.0030497623780828638
5.239732265472412,1.494995581752264,1.5304523906254022,0.002842977654177482
5.247043609619141,1.497926562503314,1.534856692572911,0.0026415811986859015
5.257864236831665,1.5022253342715206,1.5392639050730013,0.0024484861177660813
5.269082069396973,1.5067195047564643,1.5436810989564933,0.0022653703113966264
5.279941082000732,1.5112136752414076,1.5481145212176377,0.27813143506958565
5.290226459503174,1.5153170482928777,1.5525695632645153,0.31109484676601834
5.302051544189453,1.5202020162112944,1.5570590287026496,0.25584741779310766
5.310043811798096,1.5235237943958178,1.5615935236013714,0.17962294061597095
5.320432186126709,1.527627167447288,1.566165094289005,0.10897102929329769
5.329153537750244,1.5311443443485482,1.5707666526224688,0.05222969497559675
5.3407111167907715,1.5356385148334912,1.5754084391519751,0.010121663634129544
5.352272272109985,1.5405234827519083,1.580106923655163,-0.019395378157744426
5.360080242156982,1.543649862219695,1.5848587425615457,-0.03901713883626713
5.369083881378174,1.5473624378376918,1.589643766830781,-0.05125627880134618
5.378911256790161,1.5510750134556883,1.594452747908334,-0.05817770295773854
5.387825965881348,1.5543967916402117,1.5992857094372372,-0.061373619598496416
5.398232698440552,1.5586955634084183,1.6041422229310573,-0.062026215222280606
5.40815544128418,1.5626035377431517,1.6090214665118616,-0.0609915537274097
5.418748378753662,1.5670977082280952,1.6139222395264377,-0.05887828247966169
5.433062314987183,1.5729596697301953,1.6188510819085642,-0.05611268103878674
5.441079139709473,1.576281447914719,1.6238209155183627,-0.05298914137699244
5.4500696659088135,1.579798624815979,1.6288256224445923,-0.049707948447339056
5.462151288986206,1.585074390167869,1.6338510501804613,-0.04640292244067115
5.4711012840271,1.588200769635656,1.6388926381700086,-0.04316134205522003
5.479820489883423,1.5919133452536525,1.6439380457841808,-0.040038155328373806
5.490777254104614,1.596407515738596,1.6489763151940808,-0.03706603897368539
5.498342990875244,1.5997292939231191,1.6540056907958665,-0.034262476918594985
5.506065845489502,1.6024648759574327,1.6590166412488054,-0.03163471641538587
5.516642808914185,1.6065682490089026,1.6640009011229704,-0.029183221910574236
5.525135278701782,1.6096946284766893,1.6689591325720303,-0.02690407035018396
5.5339035987854,1.6132118053779496,1.6738842329396517,-0.024790603170105997
5.543128252029419,1.6171197797126828,1.6787701405709008,-0.022834557886802047
5.552149295806885,1.620636956613943,1.683612004758718,-0.02102683636334554
5.560277462005615,1.6239587347984663,1.6883985267102353,-0.019358020143679808
5.571315765380859,1.6282575065666731,1.693127985033819,-0.017818710271863686
5.583499193191528,1.6331424744850898,1.6978140440432499,-0.01639974579638788
5.594613552093506,1.63783204368677,1.7024757290917032,-0.015092338839344053
5.602052450180054,1.6405676257210835,1.7071145843562916,-0.013888152659034824
5.611742734909058,1.6444756000558167,1.7117174553729952,-0.012779341111197802
5.623148441314697,1.649165169257497,1.716287883605796,-0.011758562295668226
5.63167667388916,1.6524869474420203,1.7208363160598414,-0.010818975247477484
5.63907790184021,1.6556133269098068,1.7253573620303564,-0.009954225784413146
5.648785352706909,1.6595213012445402,1.7298466601510547,-0.009158425712432017
5.656059980392456,1.6624522819955905,1.734300860559597,-0.008426128249503582
5.664017915725708,1.6651878640299036,1.7387103806510964,-0.007752301605609182
5.6740617752075195,1.669682034514847,1.743074726107644,-0.007132302008576312
5.682075023651123,1.6726130152658973,1.7473940220404294,-0.00656184701992955
5.693552017211914,1.677302584467577,1.7516689084219237,-0.2820753493573667
5.703538656234741,1.681601356235784,1.7559146373612167,-0.3147170566388582
5.712361097335815,1.6853139318537809,1.7601444512498066,-0.2591755168491522
5.721113920211792,1.6886357100383043,1.7643555761517287,-0.18268175786032828
5.731639623641968,1.6925436843730375,1.7685388375069926,-0.11178301740301758
5.741118907928467,1.6962562599910345,1.7726939029541142,-0.05481523739080708
5.750818729400635,1.7001642343257677,1.7768277279939855,-0.2885376816743455
5.761042356491089,1.7042676073772378,1.780953502348425,-0.29195430190845406
5.770620584487915,1.707784784278498,1.78508281307005,-0.21705983733122436
5.7795867919921875,1.7114973598964947,1.7892112633669024,-0.12857443366641924
5.787018299102783,1.7142329419308078,1.7933278765329916,-0.05098208110779755
5.800347089767456,1.7198995047161716,1.7974375761246517,0.008971946981901964
5.811015367507935,1.7241982764843784,1.8015586702169437,0.32778586557041905
5.824330568313599,1.7294740418362682,1.8056993834490191,0.38940623430213916
5.8377532958984375,1.7347498071881584,1.8098732888666922,0.35182953510938153
5.847174644470215,1.7388531802396283,1.8140982783574018,0.28522899847025
5.856260061264038,1.742565755857625,1.818367651666593,-0.057524219525564885
5.868062496185303,1.747450723776042,1.8226610530165823,-0.1473468391860339
5.881549835205078,1.7527264891279322,1.8269815496467825,-0.4129297060554463
5.891110420227051,1.7564390647459287,1.831345016919608,-0.4036531116695584
5.903146982192993,1.7609332352308722,1.8357501724267435,-0.3027904863528613
5.912030458450317,1.7642550134153956,1.8401881976037833,-0.18796757205025813
5.9230499267578125,1.768749183900339,1.8446509069710462,-0.08821018754718489
5.932045936584473,1.7724617595183356,1.8491307691924523,-0.011199284444528002
5.943947076797485,1.7769559300032791,1.8536208747141059,0.04398957147104112
5.953564405441284,1.7808639043380126,1.8581215102723838,0.08113797071079719
5.9630560874938965,1.7847718786727458,1.8626324587924017,0.10444549139677825
5.975298881530762,1.7896568465911629,1.86714634417718,0.11761447436134624
5.989043951034546,1.7951280106597896,1.8716628625718221,0.1236053677240816
6.00106406211853,1.8002083772949429,1.8761938945881569,-0.15137497759530816
6.009073257446289,1.8033347567627296,1.880742220761965,-0.1867269367498082
6.017014503479004,1.8064611362305163,1.8852902953624582,-0.13596096007889735
6.025031805038452,1.809587515698303,1.8898165167353467,-0.06547901211873411
6.034131050109863,1.813104692599563,1.8943024886979523,-0.0012543433703844364
6.045733451843262,1.81740346436777,1.8987387458626033,0.048767846530002754
6.055239915847778,1.82150683741924,1.903123377677821,0.08412740800187246
6.067984580993652,1.8263918053376569,1.9074603423080292,0.1070377575441352
6.079272985458374,1.8310813745393368,1.9117583485029237,0.12030204134145814
6.09025764465332,1.8353801463075436,1.9160184706028742,0.12649645355131506
6.103711843490601,1.8408513103761703,1.920240632319861,0.12771947134752945
6.112050294876099,1.8439776898439573,1.9244242497744473,0.12557669310510972
6.12101149559021,1.8474948667452171,1.9285577301714398,0.12125033608708488
6.131298780441284,1.8514028410799506,1.932630822397504,-0.1604504891751115
6.142879962921143,1.8562878089983674,1.936644447772499,-0.19997897086321936
6.153081655502319,1.8603911820498373,1.9405989635755796,0.12442056092930479
6.161093711853027,1.8633221628008876,1.9444848388483875,0.22683759561218814
6.170030832290649,1.8664485422686738,1.9482936629155698,-0.04044338119005336
6.179005146026611,1.8699657191699341,1.952022740529476,-0.09946005184513208
6.189032077789307,1.8736782947879311,1.9556695399164528,-0.07900892787417782
6.198656320571899,1.8779770665561377,1.959231685670797,-0.03590678045362883
6.206000804901123,1.880908047307188,1.9627069128849062,0.006730469873225557
6.218366384506226,1.8857930152256044,1.9660931392750014,0.04103618013533249
6.228927850723267,1.8898963882770747,1.9693884902199164,0.06564861538509989
6.2391722202301025,1.8939997613285446,1.9725910682288066,0.08167566999891031
6.249406576156616,1.8979077356632779,1.9756987938074098,0.09091298363129492
6.261201858520508,1.9024019061482214,1.9787093770982913,0.09511795527394512
6.270995140075684,1.9063098804829548,1.9816202962376066,0.09576215272051672
6.281014919281006,1.9102178548176882,1.984428593269166,0.09398823752841617
6.289444923400879,1.9135396330022116,1.987130861637995,0.09064487510283795
6.297780275344849,1.9166660124699986,1.9897238653171039,0.08634365102768908
6.310258388519287,1.9213555816716783,1.99220462467153,0.08151510426332781
6.3190600872039795,1.9246773598562017,1.9945697715152924,-0.19958235745153757
6.329993009567261,1.9291715303411452,1.9968152952167195,0.038241815592160416
6.341199636459351,1.9332749033926153,1.9989369161953916,0.12147490068394423
6.3510026931762695,1.9369874790106119,2.0009300261300362,-0.13838068919906776
6.361055850982666,1.9408954533453457,2.0027893266199532,-0.1816393423971297
6.372035980224609,1.9451942251135523,2.0045092769060173,-0.42079332544484027
6.38439154624939,1.9498837943152325,2.0060830000584455,-0.39649846834119146
6.394017696380615,1.953010173783019,2.0075018254680903,-0.5632694856170636
6.407068729400635,1.9575043442679625,2.008755346010229,-1.0291563470119476
6.418878793716431,1.9616077173194326,2.009831645625395,-1.4904901303840083
6.431007146835327,1.9655156916541656,2.0107209272795585,-1.8448185222274076
6.4413251876831055,1.9688374698386895,2.0114117910539164,-2.07523096128158
6.449033737182617,1.970986855722793,2.0118935835303415,-2.1970613285820075
6.459220886230469,1.9741132351905792,2.012164213040339,-2.7864924824049653
6.4688475131988525,1.9768488172248928,2.0122210519401,-3.1050229007942924
6.478425741195679,1.9791936018257328,2.0120568996376513,-3.238542228070535
6.488985538482666,1.9817337851433097,2.0116647034414687,-3.8003335244463257
6.499999761581421,1.9842739684608863,2.011038202727332,-4.071645686588798
6.509650707244873,1.9862279556282532,2.0101718429975053,-4.4250528681406385
6.519463539123535,1.9881819427956196,2.0090603384860253,-4.6846466470297585
6.528971433639526,1.989745132529513,2.0076988991376976,-4.808493932508208
6.539139032363892,1.9913083222634063,2.0060833918077075,-5.0
6.5496296882629395,1.9924807145638264,2.004210288160154,-5.0
6.558640956878662,1.9936531068642462,2.0020767455823205,-5.0
6.57008171081543,1.9942393030144565,1.9996712755384423,-5.0
6.579022645950317,1.9950208978814032,1.9969846961089897,-5.0
6.586986780166626,1.9950208978814032,1.994038681159236,-5.0
6.596606254577637,1.9950208978814032,1.9908623969733839,-5.0
6.604759216308594,1.9950208978814032,1.9874621658455232,-5.0
6.617040634155273,1.9944347017311932,1.9838231408870641,-5.0
6.6250810623168945,1.9942393030144565,1.9799333138000967,-4.88779658678726
6.636937141418457,1.9938485055809834,1.9758050962863345,-4.959357063242274
6.649975776672363,1.993262309430773,1.9714379901093841,-4.188865657848977
6.661244630813599,1.99228531584709,1.9667973818190703,-3.2433605256309805
6.668968677520752,1.991503720980143,1.9618788240256493,-2.106188262510662
6.6779632568359375,1.9905267273964597,1.9567283286999604,-1.0980876540824946
6.688958168029785,1.9889635376625665,1.9513614207404784,-0.585948541896249
6.698866128921509,1.9872049492119364,1.9457551246961102,-0.5998224399912191
6.708878517150879,1.9854463607613064,1.9399035724463607,-0.7732386174787682
6.717031955718994,1.983883171027413,1.9338157733485213,-0.6797611121197209
6.725959539413452,1.9819291838600464,1.9275143454357442,-0.785985793235514
6.736001014709473,1.9791936018257328,1.9210333704824143,-1.2029384191440466
6.748985767364502,1.9754810262077362,1.9143755088430925,-2.7304426220382183
6.759977579116821,1.971963849306476,1.9075165189123735,-3.4644382436713905
6.770036697387695,1.9684466724052159,1.9004506869396147,-3.761891675104142
6.782625436782837,1.9637571032035361,1.8931738773849378,-4.645234748254932
6.7919347286224365,1.9598491288688025,1.8856696064666656,-4.941579565803865
6.799961566925049,1.956527350684279,1.8779545723519075,-4.381229755567689
6.812197685241699,1.9512515853323888,1.8700589061672215,-4.427031061098804
6.822849273681641,1.947148212280919,1.8619802979696924,-4.054109685765548
6.831003427505493,1.9436310353796589,1.853733379036643,-2.4644119135633735
6.838988304138184,1.9401138584783988,1.845346768733702,-1.0314201350037266
6.850698471069336,1.9348380931265086,1.8368162197799214,0.3672592769754168
6.859570503234863,1.9313209162252487,1.8281547244814953,2.0368106266732404
6.867011547088623,1.9283899354741985,1.8194047394987565,3.72796461603255
6.8760106563568115,1.9244819611394652,1.8106032962982979,5.0
6.88550877571106,1.920378588087995,1.8017824781318086,5.0
6.895052671432495,1.9166660124699986,1.792954886300208,5.0
6.903849840164185,1.9129534368520016,1.7841165994748884,5.0
6.911984920501709,1.9096316586674782,1.7752796996233986,5.0
6.924353837966919,1.903965095882115,1.7664550653246107,5.0
6.933279991149902,1.900447918980855,1.7576231129969782,5.0
6.943909168243408,1.8959537484959115,1.7487683047908873,5.0
6.952968120574951,1.892045774161178,1.7399076792090746,5.0
6.962957859039307,1.887942401109708,1.7310709653332306,5.0
6.974097013473511,1.8830574331912913,1.722255863264628,5.0
6.9825592041015625,1.8793448575732945,1.7134333632716234,5.0
6.990668773651123,1.8758276806720344,1.7046082718386242,5.0
7.000360727310181,1.871333510187091,1.6958003125872938,4.858909114739848
7.00994610786438,1.8674255358523575,1.687013610876676,4.570933386346184
7.0230348110198975,1.8623451692172042,1.6782530315325448,4.235524926222093
7.030941724777222,1.8592187897494172,1.669523991648535,3.897744434789781
7.040681600570679,1.8551154166979473,1.6608447652356124,3.576605509430914
7.050993919372559,1.8506212462130038,1.6522317146471104,3.278922298052639
7.0594799518585205,1.8469086705950069,1.6436863584467136,3.0060045691613633
7.068932056427002,1.8430006962602736,1.6352104114841075,2.7568436392903766
7.079972505569458,1.838311127058594,1.626805557106039,2.5295908517078205
7.089529275894165,1.8344031527238602,1.6184732533914565,2.3222154253624536
7.096969127655029,1.8310813745393368,1.610214551751568,2.132775255236666
7.108937501907349,1.8258056091874466,1.6020180230510448,1.9595105668746076
7.11972713470459,1.8209206412690302,1.5938616101041079,1.8008605476268058
7.129503011703491,1.8168172682175598,1.5857499485444635,1.6554496289193557
7.137085437774658,1.8138862874665098,1.5777218988639419,1.522064379593245
7.144942998886108,1.8105645092819864,1.5698090748786104,1.3996298206248112
7.153995752334595,1.8068519336639899,1.5620126448878324,1.287188392308047
7.164952516555786,1.8021623644623095,1.5543196965360395,1.1838823627335833
7.176857233047485,1.7970819978271562,1.546705079466031,1.0889394888205255
7.190300464630127,1.791220036325056,1.539120959291595,1.0016614232080945
7.198602676391602,1.787702859423796,1.531537613504197,0.9214143212562531
7.206195116043091,1.7841856825225362,1.5239785087825464,0.8476211671189435
7.217989683151245,1.779300714604119,1.5164620787584533,0.7797554294585479
7.22998309135437,1.7742203479689658,1.5089645000598555,0.7173357449057477
7.241109609603882,1.7697261774840223,1.5014641917091176,0.6599214005796834
7.25095272064209,1.7652320069990788,1.4939543731041973,0.6071084444216671
7.261934995651245,1.7605424377973988,1.486428202663964,0.5585262955907255
7.269947290420532,1.7572206596128757,1.4788787905474434,0.5138347594499388
7.283766746520996,1.751554096827512,1.4712854585562043,0.4727213753486722
7.296548128128052,1.7464737301923585,1.4636020373611978,0.43489904267917745
7.305438995361328,1.7423703571408884,1.4558029305212945,0.12406552358714763
7.315231800079346,1.7382669840894187,1.4479084800188793,0.058930344490114354
7.325335502624512,1.7335774148877383,1.439921440470825,0.360616910444668
7.3339691162109375,1.7300602379864782,1.431830141109805,0.4427338681705649
7.345157861709595,1.7253706687847985,1.4236538928029767,0.1571960239821408
7.355481863021851,1.7210718970165915,1.4154090274007363,0.3577158910426532
7.3649773597717285,1.7169685239651216,1.4070946945658451,0.3963166160126107
7.373990535736084,1.7128651509136512,1.3987100226932196,0.37068944009306637
7.383774757385254,1.708761777862181,1.3902541585784922,0.048763410551972614
7.3929479122161865,1.7050492022441845,1.3817263524587509,-0.031951705490389545
7.405786514282227,1.6995780381755579,1.3731105706722826,-0.01927761487221668
7.4153664112091064,1.6954746651240877,1.364393543969812,0.021291054451589183
7.426985740661621,1.690589697205671,1.355579764462454,0.06287823829377631
7.4359495639801025,1.6870725203044108,1.3466735082551202,-0.17990107965745164
7.446827411651611,1.6823829511027306,1.3376789172468755,-0.18992116814083676
7.460355281829834,1.676325590883894,1.3285680025633808,-0.12080991390603624
7.472073078155518,1.6712452242487406,1.319301833818415,-0.03789978665364342
7.483036994934082,1.6665556550470606,1.3098804684961902,0.03415545097222016
7.490920066833496,1.663429275579274,1.300337467187226,0.08861505357780382
7.5045576095581055,1.65776271279391,1.290702243157032,0.12599815656888275
7.514916896820068,1.6530731435922303,1.280968035862686,0.1492678592368829
7.523946523666382,1.6495559666909703,1.2711298808615799,0.1617805891831125
7.531920671463013,1.6460387897897102,1.261216986721405,0.16651078815301754
7.544792890548706,1.6405676257210835,1.251254578911091,0.16583814488638132
7.5535266399383545,1.63724584753656,1.2412314092055028,0.16156353090160644
7.565798759460449,1.6317746834679334,1.2311218103696746,0.15500249663185556
7.573928594589233,1.62845290528341,1.2209378374583664,0.1470918015820594
7.582922458648682,1.6245449309486766,1.2107401113329128,0.1384844462015386
7.590943336486816,1.6212231527641532,1.2005632605005856,0.12962635036239498
7.599248886108398,1.6179013745796298,1.1904028035727234,0.12081503810061342
7.611206769943237,1.6126256092277396,1.1802544068748189,0.11224315902336016
7.620450973510742,1.6083268374595328,1.1701139895956394,0.10403011654791611
7.6304168701171875,1.6044188631247993,1.159977741095761,-0.17979362354875578
7.639652252197266,1.6007062875068025,1.149842120076318,0.055796745178999324
7.647638320922852,1.5975799080390158,1.1397038700765576,0.13716836626901865
7.654930353164673,1.594453528571229,1.129576928008614,0.15177492221739847
7.6656506061553955,1.5895685606528125,1.11948963259119,-0.13575177718540693
7.6738646030426025,1.5860513837515526,1.109448424618368,-0.18826793091974645
7.681931018829346,1.5825342068502923,1.0994580340004732,0.12316495511037144
7.689943790435791,1.579212428665769,1.0895385585285857,0.21510084445895453
7.70296311378479,1.573741264597142,1.079672072287644,0.21630967176630186
7.714134693145752,1.5688562966787254,1.069808665044682,-0.09055936783196662
7.7245073318481445,1.564362126193782,1.0599228412278243,-0.1611992909574458
7.7319629192352295,1.5610403480092587,1.0500101509914597,0.13562089798533333
7.744035959243774,1.5559599813741052,1.040067052558106,-0.05933676301821997
7.756756782531738,1.5508796147389516,1.0300737454702422,-0.098854535278972
7.765954256057739,1.5469716404042184,1.0200140122490962,-0.07962603221156833
7.774521589279175,1.5434544635029583,1.009908997392712,-0.044179131684772825
7.782405853271484,1.5399372866016983,0.9997770487567439,-0.00971466869598378
7.792665004730225,1.535833913550228,0.9896168651378977,0.01800177746210565
7.802005290985107,1.5317305404987582,0.9794447197454115,0.3141015757797474
7.810547351837158,1.528213363597498,0.9692744217670615,0.36055427322440964
7.821211814880371,1.5233283956790813,0.95908329836986,0.3134679403948004
7.830909490585327,1.5192250226276112,0.9488695062683827,0.24144682776979054
7.838879108428955,1.5160986431598242,0.9386659727738316,0.1721833655161294
7.851943492889404,1.5106274790911975,0.9284660129797593,0.11490172412405464
7.86335015296936,1.505547112456044,0.9182294999955043,0.0709829202244362
7.87290358543396,1.5012483406878376,0.9079400351077714,0.03885972769560969
7.881157636642456,1.4983173599367874,0.8976187291902297,0.016171811876241254
7.893913507461548,1.4928461958681607,0.8872837445362911,0.2766770570992864
7.903771162033081,1.4887428228166906,0.8769160836946186,0.29951601922168236
7.913666248321533,1.4846394497652204,0.8665000270647172,0.23789284315176717
7.923783779144287,1.4805360767137503,0.8560400447373177,0.15792654791935046
7.933907747268677,1.4760419062288068,0.8455403949357684,0.0853522458357686
7.946874618530273,1.4703753434434434,0.8349878372131397,0.027923055991956318
7.957839250564575,1.4662719703919733,0.824354512888693,-0.01405293831231277
7.967884063720703,1.4617777999070298,0.8136350989320288,-0.04290892947521002
7.976926565170288,1.4580652242890333,0.802860699458635,-0.06154273415193259
7.9877119064331055,1.4531802563706164,0.7920582425740755,-0.0726060590816664
7.9984424114227295,1.4484906871689365,0.7812161603777917,-0.07825838508732375
8.005889654159546,1.4453643077011498,0.7703424200096992,-0.08015532687723564
8.016354322433472,1.4410655359329432,0.7594786860615987,-0.07952075208709417
8.025891065597534,1.4367667641647361,0.7486426026826062,-0.07723734914326386
8.035892248153687,1.432663391113266,0.7378312865734932,-0.073930021903511
8.04542851448059,1.4285600180617963,0.727041811085139,-0.07003422295326531
8.057443618774414,1.4236750501433795,0.7162537706660206,-0.06584872723726853
8.066360712051392,1.4197670758086463,0.7054322363963935,-0.061575008621971974
8.078911781311035,1.414491310456756,0.6945652910445611,-0.057345988666450326
8.087813138961792,1.410974133555496,0.683660631102105,-0.053246723607034474
8.095897912979126,1.407261557937499,0.6727250189106592,-0.0493291393021093
8.106456756591797,1.4029627861692924,0.6617643029593827,-0.04562244754647061
8.115115880966187,1.3992502105512956,0.6508011029001548,-0.04214046525465255
8.127344131469727,1.393779046482669,0.6398542559764007,-0.03888673046260766
8.13589596748352,1.3900664708646722,0.6289038202896485,-0.035858060210407015
8.144876480102539,1.3857676990964651,0.6179504266678757,0.24299134831314043
8.154030799865723,1.3820551234784686,0.6070297805457908,0.0026810314035868865
8.163910388946533,1.3779517504269985,0.5961535850440204,-0.08313356958080993
8.173680543899536,1.374239174809002,0.5853130249293281,-0.10189817301523457
8.18420147895813,1.3697450043240584,0.5744997315290008,-0.09428462450988459
8.19489574432373,1.3648600364056418,0.5637059534776792,-0.07849246980184507
8.202919960021973,1.3615382582211184,0.5529249191566138,-0.06212540365349153
8.216360569000244,1.3560670941524915,0.5421335368349491,-0.04793745374566884
8.225247383117676,1.3523545185344947,0.5313134038077307,-0.036571640304792055
8.234570980072021,1.3484465441997613,0.5204861687181991,-0.027835199676397603
8.243885517120361,1.3443431711482912,0.509672184166939,-0.021271318416913952
8.256572961807251,1.3388720070796645,0.4988570010185161,-0.016398882892575132
8.26570177078247,1.3349640327449313,0.48803144005242477,-0.012800069049749847
8.27808690071106,1.3294928686763046,0.47720856445431525,-0.010141535190038286
8.289912700653076,1.324412502041151,0.46638841642597656,-0.008169194495847503
8.297895908355713,1.3210907238566276,0.4555755724259326,-0.0066945223989671055
8.307218074798584,1.317182749521894,0.44479456483417573,-0.005579953020023667
8.315903425216675,1.313665572620634,0.43408356709212553,-0.004726145461974931
8.32587480545044,1.3097575982859004,0.4234911917426426,-0.004061812900776488
8.334862232208252,1.3058496239511672,0.413047868326311,-0.0035359727203822244
8.343241930007935,1.3023324470499071,0.40276888887503376,-0.003112205048250552
8.351914405822754,1.2984244727151737,0.39266990626236725,-0.0027644741208488234
8.362880945205688,1.2937349035134937,0.38277666243532793,-0.2785124818907693
8.376569032669067,1.2882637394448668,0.3731029267663391,-0.311390686583507
8.385889768600464,1.2843557651101334,0.3636408529388817,-0.25608126755482963
8.397808074951172,1.2788846010415067,0.35439503717077636,-0.1798112480925707
8.407882928848267,1.2743904305565632,0.3453717641546198,-0.3851638436901499
8.418208122253418,1.2702870575050933,0.33657652068218474,-0.36152160237048536
8.429513931274414,1.2657928870201498,0.3280230945863315,0.0117415694929775
8.440959453582764,1.2609079191017332,0.31972280895802085,0.15048341982481353
8.449566125869751,1.2571953434837364,0.3116846303850898,0.18554265202258569
8.457701444625854,1.2536781665824763,0.30391532199321264,0.1783283152392482
8.471215009689331,1.2480116037971127,0.29641331616572875,0.15673267345000316
8.479897499084473,1.2439082307456428,0.2891762239905851,0.13272863130743917
8.491983890533447,1.2392186615439627,0.2822134593214262,0.11091710868247766
8.502870082855225,1.2347244910590192,0.27553164171724137,0.09262476133674044
8.514902830123901,1.2292533269903925,0.26912333983129016,0.07782963729060263
8.525233030319214,1.224759156505449,0.26297574432220605,0.0660377370681548
8.534471035003662,1.2208511821707155,0.25708229332503246,-0.21937747656427073
8.544303178787231,1.2169432078359823,0.25144145333858897,0.016038742551542542
8.553908109664917,1.2130352335012489,0.2460503807330973,0.0982027767910692
8.564123392105103,1.2087364617330423,0.2409050836942966,0.11423000767337539
8.573770999908447,1.2048284873983088,0.2360005778572492,-0.17149310576375187
8.581984519958496,1.2013113104970485,0.23133483994916465,-0.22199616157087765
8.590883255004883,1.1977941335957885,0.22690812406477873,0.09153953539987439
8.6032555103302,1.192127570810425,0.22271128332889278,0.1855870942371054
8.610874652862549,1.1890011913426384,0.21873092544781575,-0.08717496839326963
8.621875524520874,1.1841162234242217,0.21495791867381867,-0.14914047793703356
8.633932828903198,1.1788404580723315,0.21138000124290432,0.1463719948403806
8.646656513214111,1.1735646927204413,0.20798254607349903,0.22305018448061448
8.656860589981079,1.1692659209522347,0.20475523043134986,-0.06402008297332873
8.664988994598389,1.1655533453342382,0.20169381502765654,-0.13686740212096132
8.673566102981567,1.1620361684329779,0.19879346856768343,0.15078682722816966
8.680873155593872,1.158909788965191,0.19604850210474792,0.22202045001151577
8.68961763381958,1.1551972133471944,0.1934553132831185,0.2073680037517252
8.701789855957031,1.1505076441455144,0.1910047362410718,0.16535579200435746
8.710867881774902,1.1464042710940443,0.18868534788477084,0.12053178649797078
8.719506740570068,1.1424962967593109,0.18649108618997878,0.08187256300939783
8.730098247528076,1.137806727557631,0.18441591986131312,0.05156118103731695
8.740935325622559,1.1331171583559507,0.1824515758060971,0.029078232435727477
8.750346422195435,1.129404582737954,0.18059023367681967,0.013038860824556126
8.757863998413086,1.1264736019869042,0.178824549091801,0.0019653352804840027
8.769253253936768,1.121197836635014,0.17714763250413357,-0.005428801999927638
8.779868125915527,1.1170944635835438,0.17555304020741597,-0.01016814455223654
8.788681507110596,1.1135772866822837,0.1740347841184801,-0.01303015038246422
8.798850774765015,1.109278514914077,0.17258729578193055,0.2614508488028175
8.810258865356445,1.1041981482789236,0.1712038675876486,0.2939091358936328
8.819862127304077,1.1000947752274535,0.1698784326619134,-0.03729623416671829
8.829896926879883,1.09560060474251,0.1686085967921412,0.12985199264908523
8.840574026107788,1.0911064342575667,0.16739201103508805,0.14811533097360907
8.849839687347412,1.08739385863957,0.1662248358159267,0.11319031695053808
8.86291217803955,1.0817272958542066,0.16510227975915343,0.06641612233254841
8.87418508529663,1.076646929219053,0.1640188124370089,0.023916595072425807
8.883676290512085,1.0723481574508462,0.16297094096619608,-0.009418578259926126
8.89285683631897,1.0686355818328495,0.16195691613974716,-0.03335612375529984
8.90483546257019,1.0637506139144328,0.1609751020211916,-0.04931922595791197
8.916966915130615,1.058865645996016,0.160022862989932,-0.059089737290333635
8.92890739440918,1.053589880644126,0.15909679813247132,-0.06430076036190982
8.938669443130493,1.0492911088759191,0.1581951203444453,-0.06628192470553806
8.949263334274292,1.045187735824449,0.15731738738396814,-0.06605127021697127
8.958925008773804,1.041084362772979,0.15646313909810286,-0.06435961917468835
8.96897840499878,1.0365901922880356,0.15563189181562054,-0.06174662551000643
8.979220390319824,1.0320960218030921,0.15482315847372402,-0.058592468811104775
8.988911867141724,1.0279926487516222,0.15403645641634078,-0.05516023776225906
8.998392105102539,1.023889275700152,0.15327129429024244,0.22440969185972492
9.00883936882019,1.0193951052152086,0.1525271574570549,0.26104639781320593
9.019001722335815,1.0150963334470018,0.15180350836118184,-0.06667328483812421
9.029847860336304,1.0107975616787952,0.15109979379754915,-0.1726105458198433
9.04413890838623,1.0047402014599582,0.15041466763175576,0.09110389879111358
9.054858684539795,1.000246030975015,0.1497461562562111,-0.12942951801594946
9.065872430801392,0.9951656643398614,0.14909335661623394,-0.1863978831114283
9.079221487045288,0.989499101554498,0.14845552625337283,0.09840082208831752
9.088890075683594,0.9852003297862914,0.1478312706076671,0.16191760039153102
9.097848176956177,0.9814877541682946,0.14722081418301658,0.14017039915171553
9.107913494110107,0.9771889824000878,0.14662573218957328,-0.18262023973387406
9.120880603790283,0.9719132170481978,0.14604589469024387,0.013251518080985125
9.13489317893982,0.9656604581126244,0.1454784755908226,-0.21331880392572902
9.147854804992676,0.9601892940439976,0.14492048822174158,-0.2542689291279557
9.160860776901245,0.9549135286921074,0.14437139307322402,-0.2246176000211721
9.171833515167236,0.9504193582071641,0.14383202049499763,-0.17517094395689875
9.1817045211792,0.9461205864389572,0.14330247151267783,-0.1266430059370029
9.190891981124878,0.9422126121042239,0.14278280641514127,-0.08611148728001267
9.202813148498535,0.9367414480355971,0.1422741991135207,-0.05482246635537272
9.211856126785278,0.9328334737008638,0.14177757961734722,-0.03179657407985676
9.220834255218506,0.929120898082867,0.1412931044151606,-0.015424769872848399
9.231845617294312,0.9244313288811868,0.1408208445539105,-0.004121127584720244
9.240826606750488,0.9207187532631901,0.1403607627743844,0.003452328061804104
9.250821113586426,0.9164199814949833,0.13991274132839532,0.008344279100170738
9.259832859039307,0.9123166084435134,0.13947660176731214,0.011343183608208882
9.271942138671875,0.9072362418083599,0.13905211657488825,0.013026617073625523
9.280922651290894,0.9037190649070999,0.13863900752716052,0.013810297100018683
9.290372133255005,0.8996156918556298,0.1382369608878408,0.013989633748864683
9.301838397979736,0.8945353252204764,0.13784564761929727,-0.26226593741684634
9.317269325256348,0.8880871675681662,0.13746380058813215,-0.29585943944972104
9.325833797454834,0.8847653893836429,0.1370898377622617,-0.24138267656212958
9.340028285980225,0.8783172317313327,0.13672331219229633,-0.16600128119997837
9.349895477294922,0.8738230612463893,0.13636340355575136,-0.37225740360426063
9.359963655471802,0.8697196881949194,0.13600939999471975,-0.07346833527171057
9.36942434310913,0.8658117138601857,0.13566199503445744,0.05601862183934263
9.377846002578735,0.8622945369589258,0.13532174603688676,0.10571555382396822
9.385843276977539,0.8589727587744024,0.13498904355126157,0.11900909399490432
9.398714065551758,0.8533061959890389,0.134664149135052,0.11662686024138572
9.412936449050903,0.8472488357702022,0.13434603218653857,0.10825012937447455
9.421813011169434,0.8435362601522054,0.13403380220124753,0.09823574774927708
9.432831525802612,0.8388466909505254,0.13372747623114625,0.0884179461157343
9.444835186004639,0.8341571217488452,0.13342664527967987,0.07946781019644535
9.45568323135376,0.8292721538304285,0.13313058068815614,0.07154397473954693
9.463829278945923,0.8257549769291685,0.13283940938675864,0.06459760907134783
9.478803396224976,0.819502217993595,0.13255358817888976,-0.21752773283539825
9.489184379577637,0.8150080475086516,0.13227237771123157,-0.25600819765600685
9.498854160308838,0.8109046744571815,0.1319951295556354,-0.205651625367098
9.50785756111145,0.8071920988391849,0.13172236451824662,-0.13378945635935557
9.520327806472778,0.8021117322040313,0.13145449148266755,-0.06705082384330076
9.529720067977905,0.7983991565860346,0.13119113300210072,0.26220065930911296
9.543384552001953,0.7923417963671978,0.13093162851315127,0.33423873097713985
9.55383038520813,0.7878476258822544,0.13067540717745266,0.029717626079796944
9.563874959945679,0.7835488541140476,0.13042263041316848,0.21352358410343536
9.578922033309937,0.7772960951784743,0.13017345365745786,0.24104708167513755
9.58983588218689,0.7724111272600575,0.12992703331375796,-0.06591276221617853
9.599947452545166,0.7681123554918509,0.1296829675620749,-0.14542455889384265
9.610947847366333,0.7634227862901706,0.12944156332039605,-0.13484574829331833
9.623327255249023,0.7579516222215439,0.12920276671760778,0.18038877249496577
9.633098602294922,0.7538482491700736,0.1289662147514378,-0.020413511613414537
9.64280104637146,0.7499402748353403,0.12873191748578705,-0.07294389109985777
9.651092767715454,0.7466184966508169,0.12850049027554084,0.20916374117633163
9.660800218582153,0.742515123599347,0.1282727301406976,0.26687603853469044
9.669798851013184,0.7386071492646135,0.12804898482919724,0.23816518908905326
9.678699970245361,0.7346991749298801,0.12782922209907288,-0.09181519418055131
9.690552711486816,0.7300096057282001,0.12761338447177478,0.09707040716728103
9.700814485549927,0.7253200365265199,0.1274013900114388,0.1399393867411594
9.713560342788696,0.7198488724578932,0.12719286244745345,0.12596663534387378
9.724316358566284,0.7153547019729498,0.12698720261814994,0.09483406971530776
9.731793642044067,0.712228322505163,0.1267844526553346,0.06295322253704672
9.741795301437378,0.7079295507369562,0.1265851646010189,0.0361333509931456
9.754910945892334,0.7024583866683295,0.12638896735276384,0.015605288985018442
9.763675689697266,0.6987458110503327,0.1261949946366037,0.0008162579611044928
9.773074388504028,0.6946424379988627,0.12600330501778675,-0.009324684286835793
9.781839847564697,0.6911252610976026,0.1258144594764425,-0.015930266710431823
9.79177975654602,0.6868264893293958,0.12562891088172012,-0.019951239409510647
9.802776575088501,0.6823323188444524,0.12544675320089924,-0.022136568091595775
9.817968845367432,0.6758841611921423,0.1252672640631939,0.2529883915452061
9.826793670654297,0.6721715855741456,0.1250895866314141,0.28605930131238844
9.835778713226318,0.6684590099561489,0.12491376348159264,0.23147262255007983
9.844422578811646,0.6649418330548889,0.12474006591619485,0.15625399777555624
9.85365343093872,0.6610338587201554,0.12456845115244315,0.08680837711894565
9.864831924438477,0.6561488908017388,0.12439886922863265,0.03137463118757485
9.875871896743774,0.6514593216000585,0.12423126927166579,-0.009391374929559056
9.887173175811768,0.6461835562481684,0.12406536414168437,-0.03757613116506184
9.895796298980713,0.6428617780636451,0.1239009190093677,-0.05590370767995656
9.903815269470215,0.6395399998791217,0.12373820543497185,-0.06690418829480262
9.911783456802368,0.6360228229778616,0.12357764610700128,-0.07265240245353133
9.920151710510254,0.6325056460766015,0.12341957611284489,-0.074745397293736
9.92850923538208,0.6289884691753416,0.12326405500594877,-0.07436679772626564
9.935890197753906,0.6260574884242914,0.12311110712563139,-0.07237187710459138
9.943775415420532,0.6225403115230315,0.12296072497992243,-0.06936707349627322
9.955179929733276,0.6176553436046146,0.12281244060117241,-0.06577559536997078
9.964620590209961,0.6135519705531445,0.12266606858567794,-0.06188828174837198
9.974773168563843,0.6094485975016745,0.12252187092194221,-0.05790163930447767
9.983879566192627,0.6057360218836778,0.12238004755511846,0.2220927043061494
9.996776103973389,0.600264857815051,0.12224053803176464,0.25905913027615834
10.007246255874634,0.595575288613371,0.12210281317106213,-0.0684001234103005
10.01780390739441,0.5910811181284275,0.12196641195795284,0.10191033309238848
10.030915975570679,0.5852191566263274,0.1218309779895807,0.12288236586481359
10.042802572250366,0.5803341887079105,0.12169576957825888,0.09030815157886858
10.05296516418457,0.576035416939704,0.12156016398084818,0.045597448635574855
10.062511205673218,0.5723228413217071,0.1214243111010152,0.004926660520127191
10.070732831954956,0.5688056644204471,0.12128876047064865,-0.026774945204994034
10.078794956207275,0.5650930888024503,0.12115396308684905,-0.049243869770173795
10.08747935295105,0.5615759119011904,0.12102031962726291,-0.0638798488972428
10.097792625427246,0.5572771401329836,0.12088796417232929,-0.07244622537235676
10.10915756225586,0.5525875709313035,0.12075657484738625,-0.07656122355877465
10.118842601776123,0.5486795965965701,0.12062589051944467,-0.0775422935981143
10.134325504302979,0.5420360402275233,0.12049570514206887,-0.07639732794347621
10.142794370651245,0.5383234646095265,0.12036563445325552,-0.07386855433444682
10.152186393737793,0.5340246928413197,0.12023556652882401,-0.0704882388977357
10.164253234863281,0.5289443262061664,0.12010542620552982,-0.3426684877373931
10.175759553909302,0.5240593582877495,0.11997515773670119,-0.3717146094630111
10.183785200119019,0.5209329788199628,0.11984512555182558,-0.31249220381647486
10.198732852935791,0.5144848211676527,0.11971544824734588,0.043688676695497364
10.208285093307495,0.510772245549656,0.11958564207155717,-0.12478516466081702
10.218791723251343,0.5062780750647126,0.11945551281945091,-0.1526520149463337
10.230616331100464,0.5015885058630325,0.11932528487835337,-0.12811688837354931
10.24288821220398,0.49611734179440575,0.11919494601222208,-0.08983259664069843
10.254766464233398,0.4910369751592523,0.11906433071044244,-0.0533170979958828
10.263657093048096,0.4873243995412556,0.11893353083139277,-0.023669290292035454
10.273962497711182,0.48302562777304886,0.11880282430739458,-0.0015819310513131742
10.282865285873413,0.4791176534383154,0.11867245036628417,-0.2621450109775651
10.29527497291565,0.4736464893696886,0.11854252319993905,-0.2850304473191376
10.303362607955933,0.4703247111851653,0.11841323217949022,-0.22361508415375506
10.310768365859985,0.46719833171737857,0.11828517994328515,-0.14404040153870382
10.322418451309204,0.46250876251569845,0.11815877773223198,0.20402923673946521
10.33361029624939,0.45801459203075506,0.1180338314867873,0.29393430894864614
10.344922542572021,0.4531296241123383,0.11791015821608446,0.28010121545657796
10.356670618057251,0.4480492574771848,0.11778760425035117,0.2321315057867449
10.365757465362549,0.4441412831424515,0.11766605013764064,0.179498472475419
10.37688660621643,0.439647112657508,0.11754572324687225,0.13321014361103922
10.385666608810425,0.4361299357562479,0.11742679440382114,0.09616107033938917
10.396847248077393,0.4314403665545679,0.1173092267680681,0.06797242844627219
10.409412145614624,0.42577380376920443,0.1171928097881115,0.04717701827524324
10.417883396148682,0.42225662686794435,0.11707719853860091,0.03214723243201581
10.425763845443726,0.4191302474001577,0.1169624372515758,0.0214438701433262
10.435886859893799,0.41522227306542425,0.11684889850633504,0.013909928632338867
10.443873167037964,0.4119004948809009,0.1167367179860367,0.008661070355274523
10.451807498931885,0.40838331797964084,0.11662596542444982,0.005041359107882341
10.464424848556519,0.4033029513444874,0.11651669251345853,0.0025734820317844962
10.471773147583008,0.4003719705934373,0.11640863853953232,0.0009145104189472507
10.479793310165405,0.397050192408914,0.11630172837742832,-0.00017976315333834906
10.488650560379028,0.39314221807418054,0.11619619765302555,-0.0008821348200053193
10.500623941421509,0.3880618514390271,0.1160920737340946,-0.0013142778385296535
10.510789394378662,0.38356768095408367,0.11598921295048628,-0.0015615287247534287
10.522732257843018,0.37848731431893023,0.1158873365772081,-0.0016835283313335028
10.535356998443604,0.3732115489670402,0.11578587921876675,-0.0017218147606620736
10.544663190841675,0.36949897334904347,0.11568450909729856,-0.0017052093481553332
10.555092334747314,0.36500480286410003,0.115583437819056,-0.001653621278845985
10.566795587539673,0.3599244362289466,0.11548271078481455,-0.0015807270718288528
10.5757577419281,0.3564072593276865,0.1153821986922225,-0.0014958534629111462
10.588914155960083,0.3505452978255864,0.11528194480665241,-0.0014052982308041515
10.599143981933594,0.3470281209243264,0.11518185462896037,0.2747251042473189
10.609639883041382,0.3419477542891729,0.11508185264059484,0.3079405001382014
10.620893239974976,0.3372581850874929,0.11498200850374343,0.252931052687113
10.63380742073059,0.33178702101886604,0.1148822276465194,0.1769298280633082
10.646205425262451,0.32670665438371266,0.11478216134130732,0.10648632593173846
10.653912782669067,0.32358027491592595,0.11468182975262474,0.049938839936375816
10.665793418884277,0.3184999082807725,0.11458168586562911,0.008010627396854268
10.679850339889526,0.3130287442121457,0.11448167612798343,-0.02133994623622624
10.69077181816101,0.30833917501046565,0.11438148473746022,-0.04080783179622607
10.704197883605957,0.3024772135083655,0.11428099734125478,-0.05290489955875588
10.712338924407959,0.29915543532384214,0.11418011566701937,-0.05969526232096134
10.72033405303955,0.29583365713931875,0.11407906075529427,-0.06277035400040165
10.727757453918457,0.292707277671532,0.1139783307499923,0.2127267429546864
10.736298084259033,0.28919010077027196,0.11387833634921345,0.2469885556343701
10.745778560638428,0.2850867277188019,0.1137793933949211,0.19409899970072775
10.758748531341553,0.27942016493343846,0.11368148472047686,0.12086653070446451
10.770568609237671,0.2745351970150217,0.11358433628996281,0.05354741444295375
10.78075361251831,0.2698456278133416,0.11348786765421819,0.00028046087836828756
10.793057918548584,0.2653514573283982,0.11339198040369766,-0.03834434065100983
10.80333662033081,0.26105268556019146,0.1132964198276019,-0.06445552484676721
10.811729907989502,0.2575355086589314,0.11320126002701603,-0.0808027329656936
10.82499361038208,0.25186894587356795,0.11310673664534542,-0.08993033844967273
10.834754228591919,0.24776557282209788,0.11301277801143875,-0.09391982278182676
10.843905925750732,0.24405299720410112,0.11291929520830725,-0.09436979220669184
10.853762149810791,0.23994962415263102,0.11282647821543709,0.18357625354459783
10.86280870437622,0.23623704853463434,0.11273463151289488,0.22011479276859588
10.87360143661499,0.23154747933295422,0.11264374074221428,-0.10670194475375629
10.884032249450684,0.2270533088480108,0.11255351300978012,-0.2111051182433216
10.893683433532715,0.22294993579654077,0.11246381507832266,0.05451709994619429
10.904716730117798,0.21806496787812396,0.11237466893241034,0.11212670792241544
10.913805961608887,0.2145477909768639,0.11228623752405001,-0.1855734502793851
10.922813415527344,0.2108352153588672,0.11219877633897521,-0.2628550820500175
10.933173418045044,0.20653644359066042,0.11211222657157151,0.02471418238982978
10.941940069198608,0.20301926668940037,0.11202628452295059,0.09879234529851284
10.951818227767944,0.19872049492119365,0.11194095531458101,0.08886601441791897
10.961751937866211,0.19442172315298686,0.11185649352370473,0.052709847231502446
10.969760417938232,0.19129534368520015,0.11177297378919893,0.01434482635330888
10.978318214416504,0.18758276806720342,0.1116903013557241,-0.01761422936307661
10.987756252288818,0.18328399629899667,0.1116085076228729,-0.04122697295896298
10.997649669647217,0.1791806232475266,0.11152764658483036,-0.057171059093226013
11.005743980407715,0.17605424377973988,0.11144763681799139,-0.06693040845027098
11.01470160484314,0.1725370668784798,0.11136850390903517,-0.07204083128573666
11.02749490737915,0.16706590280985303,0.11129012865733452,-0.07381882946715307
11.038919448852539,0.16198553617469966,0.11121216619757475,-0.07330014130190066
11.050846576690674,0.15729596697301954,0.11113434647698905,-0.07126086918870277
11.059215784072876,0.15397418878849614,0.11105656202417949,-0.06826430031556291
11.066736936569214,0.15065241060397278,0.11097895393871589,-0.06470965836785825
11.076253652572632,0.14693983498597601,0.11090175691134166,-0.06087418295981989
11.088774919509888,0.1416640696340859,0.11082504717493642,-0.056946529309510246
11.099895477294922,0.13697450043240583,0.11074865978188414,-0.05305209010706065
11.110818147659302,0.13208953251398908,0.11067246142076154,-0.0492716643239327
11.121819019317627,0.12739996331230902,0.11059645871411758,-0.045654971788836686
11.133738994598389,0.12271039411062891,0.1105206433868439,-0.04223031327974253
11.14574122428894,0.11782542619221216,0.11044488831021267,-0.03901141108437867
11.153695344924927,0.11411285057421541,0.11036911077511882,-0.03600221690616251
11.162755966186523,0.11020487623948202,0.1102934887223653,-0.033200269000498356
11.171775817871094,0.10668769933822195,0.11021816735511814,-0.030599021268619506
11.181714296340942,0.10336592115369855,0.11014313526945496,0.24784891187209004
11.189893960952759,0.10023954168591184,0.11006837304186304,0.5592401834753031
11.20077657699585,0.09613616863444177,0.10999375491925158,1.0914023459357751
11.211717367172241,0.09261899173318171,0.10991906840475144,1.5804450962336012
11.222764730453491,0.08910181483192163,0.10984426283892425,2.495796651460949
11.23069429397583,0.08695242894781824,0.10976953759137373,3.3445532865650414
11.24004340171814,0.08421684691350488,0.10969517500148317,3.970467957280735
11.25237488746643,0.08050427129550815,0.10962118236152997,4.6340964722188085
11.261702299118042,0.07776868926119475,0.10954745137729315,5.0
11.270395278930664,0.07561930337709137,0.10947412079866592,4.7960735288571765
11.280314683914185,0.07307912005951467,0.10940130832161976,4.85939001103646
11.29159665107727,0.07073433545867464,0.10932887270770203,5.0
11.302030801773071,0.0689757470080446,0.10925658361235267,5.0
11.310814142227173,0.06760795599088791,0.10918448409805429,5.0
11.321710348129272,0.06604476625699454,0.1091128324319968,5.0
11.333719968795776,0.0642861778063645,0.10904161599060977,5.0
11.34546422958374,0.06311378550594449,0.10897048614975519,5.0
11.353733539581299,0.06252758935573448,0.10889937070356968,5.0
11.362783193588257,0.06194139320552447,0.1088286635832535,4.93238424077205
11.374303817749023,0.061355197055314455,0.10875850721449211,4.679347029686522
11.383697509765625,0.06115979833857779,0.10868869185897338,4.634567376531518
11.39371919631958,0.060964399621841116,0.10861922594740356,4.333701622932562
11.405734777450562,0.060964399621841116,0.1085502119783174,4.507612938056593
11.414729595184326,0.060964399621841116,0.10848152437103863,3.643114525464508
11.42476201057434,0.06115979833857779,0.10841307258369844,3.3929005836708104
11.437757730484009,0.061550595772051124,0.10834479226902377,3.071273723732182
11.449801683425903,0.06213679192226114,0.10827652691885413,2.4748673631758535
11.463736772537231,0.06272298807247115,0.10820814903198192,1.5975624438894638
11.473960876464844,0.06311378550594449,0.10813954997727114,0.5012870143511026
11.484730958938599,0.06389538037289116,0.10807075382707147,-0.46322003204832884
11.494164943695068,0.06448157652310119,0.10800189523486421,-1.472521039555264
11.501932621002197,0.0650677726733112,0.10793307886492061,-2.0107698989591087
11.511697053909302,0.06604476625699454,0.1078643888184237,-2.54698180427822
11.52374815940857,0.06702175984067789,0.10779590476134283,-2.9500937667200997
11.53178596496582,0.06760795599088791,0.10772779819138265,-3.1983551494908906
11.54179835319519,0.06878034829130793,0.10766030704139254,-3.0351663614085567
11.549728631973267,0.06936654444151794,0.10759353082695308,-3.2861512110676436
11.563555002212524,0.0709297341754113,0.10752735888580486,-3.031302316754058
11.572778701782227,0.07210212647583132,0.10746159934754676,-2.901658978678489
11.580735206604004,0.07307912005951467,0.10739627253569235,-2.802144156201769
11.592759370803833,0.07464230979340802,0.10733147347070435,-2.9736511618227155
11.604674816131592,0.0762054995273014,0.1072669933548104,-2.612080331723901
11.614658832550049,0.07757329054445808,0.10720266902945458,-2.3922502919400914
11.62520170211792,0.0793318789950881,0.10713864597788013,-2.507159850372038
11.632700443267822,0.08050427129550815,0.10707503514461351,-2.401898465444244
11.640666484832764,0.08167666359592816,0.10701192582974339,-2.4929572779842384
11.650691986083984,0.0834352520465582,0.10694947524580256,-2.323976172711776
11.660659790039062,0.08499844178045156,0.10688772231468519,-2.3515192695116003
11.669348001480103,0.08636623279760824,0.10682661140624557,-2.4088917397526037
11.679651975631714,0.08773402381476494,0.10676607984885392,-2.160023438340174
11.68966293334961,0.08910181483192163,0.10670605953860196,-2.385987023820973
11.69968843460083,0.09066500456581499,0.10664640221789988,-2.4172431916754857
11.711707353591919,0.09242359301644502,0.10658699470170643,-2.626896340540581
11.72377872467041,0.09418218146707506,0.10652784732188811,-2.8226364629202254
11.73175597190857,0.09535457376749508,0.1064689814675927,-2.942834329964367
11.744163751602173,0.0971131622181251,0.10641040849088713,-2.9805559840925255
11.751686334609985,0.09828555451854513,0.10635212850298523,-2.948786511568274
11.761663436889648,0.09984874425243849,0.10629425080072369,-2.8652916579027323
11.770160436630249,0.1010211365528585,0.10623688967235992,-2.7466217538113136
11.779221534729004,0.10219352885327855,0.10618005993417182,-2.8822516638930686
11.788376569747925,0.10317052243696188,0.10612378909292731,-3.039409411256357
11.795697450637817,0.10356131987043524,0.10606818840841913,-3.413204596968877
11.808655023574829,0.10453831345411858,0.10601336408509693,-4.020815857059516
11.819570064544678,0.10512450960432859,0.10595927035548969,-4.8160583230766605
11.830695867538452,0.10571070575453859,0.10590588064800732,-5.0
11.839478969573975,0.10590610447127527,0.10585325508841387,-5.0
11.85068130493164,0.10610150318801194,0.10580144967948925,-5.0
11.864706039428711,0.10629690190474862,0.10573971287124781,-5.0
11.875500440597534,0.10629690190474862,0.10564805552981525,-5.0
11.884713172912598,0.10629690190474862,0.10552161305395397,-5.0
11.892787218093872,0.10629690190474862,0.10536952017075688,-5.0
11.90673303604126,0.10629690190474862,0.10520093186927802,-4.562576654028275
11.915690898895264,0.10629690190474862,0.10502397355979108,-3.7140465669178298
11.92812204360962,0.10629690190474862,0.10484606664905066,-2.5737539072299844
11.936861515045166,0.10629690190474862,0.10467410418171187,-1.5252842576261516
11.946666955947876,0.10629690190474862,0.10451415062687755,-0.4112490799239138
11.957660913467407,0.10629690190474862,0.10437394363325044,0.5171665030216797
11.968256711959839,0.10629690190474862,0.10426334060915314,1.203207617659706
11.978676795959473,0.10629690190474862,0.10419099232815603,1.6664178503095644
11.989784240722656,0.10629690190474862,0.104164161388951,1.949869580552035
12.002610206604004,0.10629690190474862,0.10419180757729829,2.0981848093066393
12.014042377471924,0.10629690190474862,0.10428433021061558,2.149627973407091
12.023699522018433,0.10629690190474862,0.10444928907461798,2.134308595828937
12.035681247711182,0.10629690190474862,0.10469151900607858,2.0747906584201723
12.044206619262695,0.10629690190474862,0.10501527648946331,1.9874517049525764
12.054206848144531,0.10629690190474862,0.10542420967603117,1.883899365013445
12.062758684158325,0.10629690190474862,0.10592135502695732,1.7721944668387601
12.071674823760986,0.10629690190474862,0.10650617978294477,1.6578220419633451
12.080326318740845,0.10629690190474862,0.10717496386339166,1.5444275697130685
12.0915207862854,0.10629690190474862,0.1079301537569791,1.4343598170990786
12.103794813156128,0.10629690190474862,0.10877956855174295,1.3290638233994425
12.11637020111084,0.10629690190474862,0.10972996897412254,1.2293618089923684
12.124874114990234,0.10629690190474862,0.11078354017268553,1.1356520969469326
12.134770154953003,0.10629690190474862,0.11193464255348123,1.048048926387216
12.14667558670044,0.10629690190474862,0.11318147837863962,0.966480077475599
12.157253742218018,0.10629690190474862,0.1145289393583167,0.8907546004981708
12.164989471435547,0.10629690190474862,0.1159731405763098,0.8206094747032833
12.17519211769104,0.10629690190474862,0.11750267969081028,0.7557414821937654
12.183141231536865,0.10629690190474862,0.11911089176028462,0.6958287473926197
12.190717220306396,0.10629690190474862,0.12079136896592804,0.6405450802170747
12.198726892471313,0.10629690190474862,0.12253426507245307,0.5895693286177222
12.209928750991821,0.10649230062148528,0.12433460941577847,0.5425912866943682
12.219289064407349,0.10668769933822195,0.1261916389005404,0.4993152398117894
12.226717710494995,0.10668769933822195,0.1281043284545491,0.7355002610409719
12.239656686782837,0.10727389548843196,0.13007550592735206,1.007970589036104
12.252634525299072,0.1076646929219053,0.13211124525654785,1.5042981361010437
12.262891054153442,0.10805549035537865,0.1342121353672793,1.684315536452229
12.270648002624512,0.10844628778885199,0.13636987065662992,1.984104336736116
12.279869079589844,0.10903248393906198,0.13857695245598123,1.9656520440248801
12.288328170776367,0.10942328137253533,0.14083075793236213,2.1006825901347304
12.29598879814148,0.11000947752274534,0.14312016724268556,2.234270615502483
12.307678699493408,0.1109864711064287,0.14543558162265843,2.591239536664059
12.318576097488403,0.11196346469011205,0.1477815369454917,2.9212181368105785
12.33144998550415,0.1135266544240054,0.15016607523512318,3.1447553019206786
12.34034776687622,0.11450364800768877,0.15259147209539808,3.253809199955089
12.347740888595581,0.11548064159137211,0.1550506347527414,3.2662335349651355
12.36110782623291,0.11782542619221216,0.1575418325346083,3.48202608428852
12.372736930847168,0.1195840146428422,0.16007233400381424,3.9565566609165774
12.386051654815674,0.12192879924368223,0.16264813915231782,4.376761392846404
12.393646240234375,0.12329659026083893,0.1652648922383787,4.095036447645227
12.404844522476196,0.1254459761449423,0.1679095849746997,3.867715808303009
12.416638135910034,0.127986159462519,0.1705849592243283,3.65469168722277
12.424752950668335,0.12974474791314905,0.17329778411773986,3.166850968102782
12.432669878005981,0.1315033363637791,0.17603505276221923,2.9212451891082383
12.44349479675293,0.13443431711482912,0.17878574955121823,2.7652492165737415
12.455751895904541,0.13775609529935254,0.18155952081668128,2.910602205580749
12.464646339416504,0.14010087990019257,0.18436450492067769,2.5383685464684564
12.472692966461182,0.14264106321776926,0.18718830991531984,2.315774319014133
12.485355377197266,0.146353638835766,0.19002047826547758,2.155867599941848
12.493443250656128,0.1490892208700794,0.19286683765609916,2.0206581239929893
12.507163524627686,0.1531925939215495,0.19573739798592402,2.1708814229509477
12.51565957069397,0.15612357467259955,0.19863574107781018,2.0823827118727625
12.5246262550354,0.15885915670691292,0.20155487641883887,1.6328033164466444
12.536587715148926,0.162962529758383,0.20449399298193463,1.6848591053514903
12.549664735794067,0.1680428963935364,0.20746249207167577,1.5922941547760594
12.55863642692566,0.17136467457805982,0.21046318040638015,1.1756027771613031
12.566761255264282,0.17429565532910984,0.21348807029497288,0.7196068184607735
12.575673818588257,0.17761743351363324,0.21652516748418227,0.3289587349822107
12.586303949356079,0.18211160399857668,0.21957474549538736,0.0296282983662359
12.594647407531738,0.18543338218310007,0.22264223392366397,-0.18378061258331724
12.606643676757812,0.1905137488182535,0.22572180036233427,-0.3267697318368733
12.615683317184448,0.1942263244362502,0.22880859469554737,-0.6920328684028199
12.626667976379395,0.19872049492119365,0.23190381523001205,-1.0511638481749435
12.634639978408813,0.202042273105717,0.23500854779847707,-1.3274714211246832
12.64722490310669,0.20731803845760713,0.23812921517110622,-1.5086817611636723
12.6587393283844,0.21181220894255054,0.24127671997130878,-1.8827750061426982
12.67157244682312,0.2166971768609673,0.24446036215335779,-2.501343889571377
12.680648803710938,0.22040975247896405,0.24768247085492434,-3.0510897140545246
12.688970565795898,0.22353613194675076,0.25093377051187893,-3.4376097303367836
12.70095157623291,0.22881189729864085,0.2542062304327259,-3.3808425568419596
12.710602045059204,0.2331106690668476,0.2574985387144446,-3.703629279878225
12.720645189285278,0.23721404211831768,0.26080962320796175,-3.766820969183408
12.73061466217041,0.2411220164530511,0.26413860735919453,-3.4131764253502412
12.739061832427979,0.24463919335431117,0.26748477815036115,-3.2275833203493955
12.749543190002441,0.2487425664057812,0.2708475616005554,-3.092634468758475
12.75946569442749,0.2528459394572513,0.2742264922357975,-2.9625217349427406
12.769598960876465,0.257144711225458,0.27762117187078883,-2.8231373896562686
12.779193639755249,0.26105268556019146,0.28103124922754696,-2.6733729624047697
12.791020154953003,0.26554685604513484,0.2844622289721272,-2.516640914389485
12.799536228179932,0.26886863422965823,0.2879186449248073,-2.357244690638516
12.810622453689575,0.273167405997865,0.29139246035918726,-2.198988948525667
12.819136619567871,0.27668458289912506,0.29487671793528303,-2.0447811651194003
12.82960557937622,0.2811787533840685,0.2983713100784976,-1.8966389292823893
12.839912176132202,0.2854775251522752,0.3018760600065611,-1.7558371574203306
12.850205183029175,0.28958089820374533,0.30539064204501476,-1.899119665401627
12.861027240753174,0.29407506868868866,0.30892043483944803,-1.8078258393125628
12.86961841583252,0.29759224558994873,0.31246975849875797,-1.6366503505380117
12.88010287284851,0.3015002199246822,0.3160303382989638,-1.7286748647182173
12.889617443084717,0.3054081942594156,0.31959498345417725,-1.591182664100177
12.900536060333252,0.3097069660276223,0.3231633233334031,-1.6628537671441
12.91261076927185,0.3143965352293024,0.3267349676959161,-1.4922653395043437
12.92300295829773,0.31810911084729915,0.330315322060111,-1.5342123198406277
12.931621551513672,0.32143088903182254,0.3339088424285317,-1.618215227443295
12.940603017807007,0.32475266721634594,0.33750755607340105,-1.4043426487731816
12.950616836547852,0.3284652428343427,0.3411047105636834,-1.3943762013640093
12.963548421859741,0.33335021075275945,0.34470630945983777,-1.4352286388121083
12.972914457321167,0.3364765902205462,0.34832326564426813,-1.467460050403441
12.983630657196045,0.34077536198875297,0.35195893238604453,-1.4731820028617604
12.993244647979736,0.3444879376067496,0.35561022599006475,-1.4516025544776578
13.003538846969604,0.3482005132247464,0.3592743797399684,-1.4079129195617197
13.012704372406006,0.35132689269253303,0.36294305731427606,-1.0724715205030648
13.020629405975342,0.3538670760101098,0.3666033579214729,-0.9699886206441892
13.031575441360474,0.35757965162810657,0.3702504710624754,-1.2263886047319148
13.044611692428589,0.36226922082978663,0.37389239194829593,-1.2588778575381958
13.057045221328735,0.36656799259799333,0.37754781679131255,-1.1979883625482106
13.065660953521729,0.36930357463230673,0.38122647104050916,-1.1042240544654578
13.074899911880493,0.3724299541000935,0.38491851143231554,-1.004438586448869
13.087654829025269,0.3769241245850368,0.3886212589360923,-0.9096202808193675
13.098013639450073,0.3804413014862969,0.3923439723628328,-0.8235014361783004
13.107689619064331,0.38356768095408367,0.3960823161005922,-0.4706260215444374
13.120125770568848,0.3876710540055538,0.3998263655539128,-0.3692921675734997
13.128318786621094,0.39040663603986714,0.40357915036233005,-0.3637766223796336
13.135594129562378,0.39294681935744386,0.40733713892559203,-0.3857972067302807
13.143601179122925,0.3956824013917572,0.41108549155454,-0.13183258760816138
13.153443336486816,0.39900417957628065,0.41481746905683514,-0.11171037922841535
13.164572954177856,0.40232595776080404,0.41853320386526277,0.10667023752956215
13.174402236938477,0.4056477359453274,0.42223270991440137,-0.2059590176064237
13.188964128494263,0.4097511089967975,0.42592160630768466,-0.0756256654478186
13.199630975723267,0.41307288718132085,0.42961022991713294,0.17348581733495722
13.208593368530273,0.41600386793237093,0.4332958567736573,0.13539248696324604
13.219363451004028,0.4191302474001577,0.4369703324735118,0.28647058936154984
13.229075908660889,0.42225662686794435,0.44063782268134927,0.466319406583795
13.238598823547363,0.4251876076189945,0.4443016971472843,0.615665285828097
13.246607065200806,0.42792318965330783,0.44795355838388545,0.7194255185572365
13.259354591369629,0.4322219614215146,0.451586198383072,0.7801596226671108
13.271528959274292,0.43593453703951135,0.4552044224366956,0.8061379181088035
13.28258752822876,0.439647112657508,0.4588122094596312,0.8063153120081445
13.293925523757935,0.4431642895587681,0.4624126177428524,0.7884753270257656
13.304936647415161,0.44668146646002815,0.46601854243034335,1.034799998944559
13.314607381820679,0.45019864336128823,0.46963515484907614,1.0309280430549426
13.323774099349976,0.4531296241123383,0.4732505707859437,0.9348573081134192
13.332621097564697,0.456256003580125,0.47684930496752503,1.0921720779373156
13.340612173080444,0.45879618689770174,0.4804182981501316,1.0120427494152475
13.349740266799927,0.46192256636548845,0.4839518236047392,0.8585364806519868
13.361609697341919,0.4658305407002219,0.48745546270958684,0.9763049501069263
13.370943784713745,0.46876152145127187,0.4909340323589137,1.147332216670446
13.381613969802856,0.4720832996357954,0.4943815654511116,1.0132072889771282
13.391907453536987,0.475795875253792,0.4977981438947891,0.7941486035270684
13.401613235473633,0.4791176534383154,0.5011940293056605,0.8558709747512308
13.409605503082275,0.48204863418936544,0.5045680761096353,0.7099687843161939
13.417630195617676,0.4849796149404155,0.5079046378089245,0.792451635476429
13.425615310668945,0.4877151969747289,0.5111909066471644,0.6472549490054986
13.437769889831543,0.4916231713094623,0.5144314147634627,0.4485657624588185
13.445642232894897,0.49435875334377566,0.5176354543601972,0.5410585068606766
13.455585956573486,0.4980713289617725,0.5208014806454279,0.42720714983064667
13.467604637145996,0.5023701007299791,0.5239335225930621,0.5394566238560365
13.478771448135376,0.5062780750647126,0.5270451905080951,0.6967096859301416
13.486620426177979,0.5092090558157627,0.5301384303675718,0.8302153053305951
13.495577335357666,0.5123354352835494,0.5332053044590168,0.6447072371614988
13.507641792297363,0.5166342070517561,0.5362491569469419,0.6600251673798914
13.517669439315796,0.5201513839530162,0.5392827990282492,0.7291783603289119
13.525573492050171,0.5228869659873295,0.5423073991746619,0.5177389012143809
13.53500485420227,0.5262087441718529,0.5453142824770025,0.525947598231138
13.543065547943115,0.5289443262061664,0.5483011342749867,0.3209736182315651
13.550596237182617,0.5316799082404797,0.551266223673912,0.082448189013888
13.559502601623535,0.5350016864250031,0.5542034943315403,-0.12255035356879973
13.570574522018433,0.5393004581932099,0.5571129830079751,-0.2763329113215349
13.5836923122406,0.5441854261116267,0.5600047042912346,-0.3810892410501574
13.594615459442139,0.5482887991630967,0.5628921276296959,-0.44558235181398204
13.605613231658936,0.55219677349783,0.5657818372803621,-0.47951002680420707
13.617284774780273,0.5563001465493002,0.5686793671323878,-0.4913952529054965
13.625596284866333,0.5590357285836136,0.5715893098723703,-0.7640662341491848
13.635441303253174,0.562357506768137,0.5745057693200304,-0.7836955876238977
13.644589185714722,0.5654838862359236,0.5774237079865213,-0.984749972424068
13.657569169998169,0.5701734554376038,0.5803485435434774,-0.9181675248512112
13.667558431625366,0.5736906323388637,0.5832848059099864,-1.0430770316735178
13.679244756698608,0.5774032079568606,0.5862314082372175,-1.19339721713483
13.686589002609253,0.5797479925577007,0.5891873662090789,-1.3090180392745978
13.700337886810303,0.584242163042644,0.5921518084795525,-1.3757894937469342
13.710687637329102,0.5879547386606407,0.5951288473774993,-1.3976354015556702
13.724561929702759,0.5922535104288476,0.598131703114256,-1.6601312957150425
13.736128568649292,0.5959660860468443,0.6011763366918685,-1.9303206900405012
13.744906663894653,0.5983108706476843,0.6042611431808808,-2.128487558217107
13.758881092071533,0.6016326488322077,0.6073746256076596,-3.3444230560363772
13.76904296875,0.6039774334330478,0.6105167986378973,-4.064842511985116
13.779582262039185,0.6063222180338877,0.6136875026027225,-4.44004799567742
13.790294408798218,0.6082762052012545,0.6168814693350053,-4.855563322132158
13.79907488822937,0.6098393949351478,0.620094159643132,-5.0
13.810245752334595,0.6115979833857779,0.6233217341083743,-5.0
13.818099975585938,0.612770375686198,0.6265609735752091,-4.887011393858835
13.826581001281738,0.6139427679866178,0.6298040395945071,-4.800147970950576
13.835028886795044,0.6153105590037747,0.6330392634943975,-4.128522412387082
13.845572471618652,0.616873748737668,0.6362621982122219,-3.8987467526783455
13.855554103851318,0.6184369384715612,0.6394745830281974,-3.2560424553560425
13.865630149841309,0.620390925638928,0.6426782103526338,-2.287378084070461
13.874577283859253,0.6217587166560847,0.6458748804068736,-1.0943139028253688
13.885562181472778,0.6237127038234513,0.6490663728361069,0.23349494930265013
13.894151449203491,0.6252758935573448,0.6522544318500739,1.6256443238376614
13.903947114944458,0.6270344820079748,0.6554407517999841,2.754495233540106
13.911574840545654,0.6284022730251315,0.6586216040604131,3.551028421920455
13.920603275299072,0.6301608614757614,0.661788694402524,4.046601657179785
13.930683851242065,0.632310247359865,0.6649406573734604,4.3025476529487
13.941719770431519,0.6344596332439683,0.6680874434711969,4.657111726248955
13.95110034942627,0.6366090191280717,0.6712377082773127,4.920178305872256
13.959955215454102,0.6387584050121751,0.6743880591261455,5.0
13.96980619430542,0.641103189613015,0.6775357627732017,4.913263944862903
13.980285167694092,0.6438387716473285,0.6806840903884398,5.0
13.990011215209961,0.6461835562481684,0.6838359371939867,5.0
13.998687982559204,0.6485283408490086,0.6869938431805528,5.0
14.009564399719238,0.6516547203167954,0.6901600105951299,5.0
14.021225214004517,0.6551718972180554,0.6933418340814801,4.981201561790544
14.030419111251831,0.6579074792523687,0.6965454293171861,5.0
14.042953729629517,0.661815453587102,0.6997701923532657,4.879887869387175
14.051580429077148,0.6645510356214154,0.7030153556199185,4.604337528502592
14.062560319900513,0.6678728138059389,0.7062799995752028,4.275838598336522
14.071542739868164,0.6709991932737257,0.709563084214038,3.9413949559733368
14.080546617507935,0.6741255727415123,0.7128579315509195,3.6212846688600058
14.089940547943115,0.6774473509260357,0.7161586995313234,3.323155260662287
14.099255084991455,0.6807691291105592,0.7194658774941206,2.7728320602263965
14.106617450714111,0.683309312428136,0.7227742568558814,2.4886282417285646
14.119357585906982,0.6881942803465526,0.7260794008373849,2.590288410507336
14.130547046661377,0.6922976533980226,0.7293886240651825,2.4897595305164337
14.143532514572144,0.6973780200331761,0.732713549597521,2.3133491496537486
14.154298067092896,0.7016767918013829,0.7360637742440231,2.1182627080784417
14.165529489517212,0.7061709622863263,0.739441548538086,1.6527714866773555
14.178772211074829,0.7118375250716897,0.7428483724150273,1.7208967197558231
14.190099954605103,0.716331695556633,0.7462906086004956,1.3751751768973457
14.19853949546814,0.7196534737411566,0.7497676452037751,0.6693416035287993
14.20759654045105,0.7233660493591532,0.7532674850605307,0.2496665957124079
14.22087550163269,0.72883721342778,0.7567851175158661,-0.27716146133829217
14.228526830673218,0.7319635928955668,0.7603215259755759,-0.7350695318667438
14.2405686378479,0.7366531620972468,0.7638663166319507,-1.3510003586309574
14.251235008239746,0.7411473325821902,0.7674160122518259,-1.884575651514307
14.26054835319519,0.7450553069169236,0.770973031547496,-2.26763824902196
14.26941204071045,0.7487678825349204,0.7745338179019444,-2.502242206103942
14.279569625854492,0.7524804581529171,0.7780952990493248,-2.614440822650037
14.290073156356812,0.7565838312043872,0.7816548860868135,-2.634533892528001
14.30258321762085,0.7616641978395406,0.7852159184782374,-2.589536886391738
14.312746524810791,0.7661583683244839,0.788786728500984,-2.50105586430802
14.321592330932617,0.7696755452257441,0.7923633920552138,-2.3853717129134466
14.333344221115112,0.774560513144161,0.7959372655013993,-2.2542836820908043
14.344618082046509,0.7790546836291042,0.7995123457271301,-1.840052564084865
14.354443550109863,0.7831580566805743,0.8030922408531038,-1.667311013336671
14.365322828292847,0.787456828448781,0.8066747292756822,-1.5851422657275591
14.375515699386597,0.7917556002169878,0.8102582654791671,-1.804766675264943
14.387531995773315,0.7966405681354046,0.8138419261994172,-1.7821442838095654
14.396538019180298,0.8001577450366647,0.8174253562573491,-1.6644309454053365
14.404505014419556,0.8032841245044513,0.821008715587116,-1.518490685035478
14.413761615753174,0.8068013014057114,0.8245926362613135,-1.6490064767212276
14.42553448677063,0.8112954718906548,0.8281781885268403,-1.5479166793492398
14.436531782150269,0.8155942436588616,0.8317668307710964,-1.6489203033277464
14.445521831512451,0.8191114205601217,0.8353603311042461,-1.499981917106673
14.45375370979309,0.822433198744645,0.8389607007010218,-1.556899073656802
14.461523532867432,0.8253641794956951,0.8425638166096565,-1.374566306672106
14.470675230026245,0.828881356396955,0.846160355781534,-1.4093818540348761
14.484333276748657,0.8343525204655821,0.8497557740258135,-1.2145532626915894
14.495568037033081,0.8382604948003154,0.853368071514026,-1.2442604115663904
14.50653886795044,0.8423638678517854,0.857006455257634,-1.3256925855665338
14.51970911026001,0.8472488357702022,0.8606791603914159,-1.3923997935702617
14.530526638031006,0.8513522088216723,0.8643999148390784,-1.4249823954794625
14.542896270751953,0.8560417780233522,0.8681803857500068,-1.4232863911178366
14.551516056060791,0.8589727587744024,0.8720234429116746,-1.3937954796721566
14.560538530349731,0.8622945369589258,0.8759174444924716,-1.3442323355641541
14.569458484649658,0.8656163151434492,0.8798522294726133,-1.005453782213932
14.579392433166504,0.8691334920447094,0.8838257956787896,-0.9018887065163725
14.590903282165527,0.8728460676627059,0.8878362168793119,-0.8829170705272573
14.603557825088501,0.8773402381476494,0.8918886444876115,-1.1602324877946164
14.61151123046875,0.8804666176154361,0.8959870946434898,-0.914262897718789
14.620551586151123,0.8837883957999594,0.9001205041358803,-0.8115969622989642
14.630377769470215,0.8873055727012196,0.9042792048704442,-0.7648421678605624
14.639285564422607,0.890041154735533,0.9084618143291361,-0.7357960657471708
14.650399208068848,0.8937537303535298,0.9126669256708555,-0.7091413691749674
14.659525156021118,0.8966847111045797,0.9168930912965075,-0.6798114011055982
14.673166751861572,0.9013742803062598,0.9211458589503979,-0.37099659305539623
14.683510780334473,0.9048914572075198,0.9254365893965365,-0.302448880622979
14.696339130401611,0.9091902289757265,0.929774299772325,-0.04462349209551872
14.706498622894287,0.9127074058769867,0.9341588577035915,0.2256979662195237
14.721962928771973,0.9181785699456134,0.9385893200588664,0.4459737063316983
14.73340916633606,0.9222819429970835,0.9430780387621079,0.60293065008524
14.74153184890747,0.9250175250313969,0.9476205721465288,0.7024419542971061
14.751446962356567,0.9283393032159203,0.9521913394328657,0.756119311324776
14.765600681304932,0.9332242711343369,0.9567818842476727,0.7757660077879436
14.774263143539429,0.9363506506021237,0.9613982619886035,1.0474511268065672
14.784166097640991,0.9398678275033839,0.9660380407329843,1.0600646720741271
14.79151463508606,0.9426034095376973,0.970691673684389,0.974139820928099
14.803163051605225,0.9469021813059041,0.9753505915864835,0.8611216500035266
14.813100337982178,0.9504193582071641,0.9800071427691651,0.7505194227858929
14.820657968521118,0.9529595415247408,0.984647954607164,0.9287416792185027
14.832536458969116,0.9570629145762107,0.9892615854546529,0.8789199308350035
14.842146873474121,0.9605800914774709,0.9938515599214356,1.0306254656022618
14.852834701538086,0.9644880658122044,0.9984208279916971,0.9299928686723544
14.861545085906982,0.9680052427134643,1.0029587975617782,1.032106032007197
14.875045776367188,0.9730856093486179,1.0074566099944455,1.443754916408376
14.886383056640625,0.9773843811168246,1.0119198975379038,1.583497596280984
14.897528886795044,0.9816831528850313,1.0163536479494166,1.5901333979643182
14.907114744186401,0.9853957285030279,1.0207558317342351,1.809604741453961
14.917603015899658,0.9898898989879715,1.0251250033727988,2.0341943172447547
14.929753541946411,0.9949702656231248,1.0294666124404557,1.9173112529506287
14.941489458084106,0.9998552335415416,1.0337982389008062,1.9657124054082984
14.953532934188843,1.0047402014599582,1.038134903583013,1.7585119481495823
14.966248750686646,1.0100159668118485,1.042483010005787,1.7633120757421183
14.979571342468262,1.0150963334470018,1.0468543245671997,1.2622279031480472
14.9881010055542,1.0184181116315254,1.0512522733485483,0.6783082438488715
14.995925426483154,1.0217398898160488,1.0556540340235891,0.4465589538501056
15.007566213607788,1.0266248577344654,1.0600403603107758,0.09084382074088032
15.016581296920776,1.0303374333524622,1.0644080254672987,0.03774579527058183
15.025053977966309,1.033854610253722,1.0687482179343761,-0.4603505656011286
15.03452205657959,1.0377625845884557,1.073053938667946,-0.7255355154406925
15.045515775680542,1.042256755073399,1.0773262123295944,-0.856631424273019
15.054718732833862,1.045773931974659,1.0815664205538638,-0.9093628621315741
15.065382957458496,1.0502681024596026,1.0857762335824437,-0.9159296127979499
15.07823896408081,1.0557392665282292,1.0899640389592469,-0.8953924962082311
15.088517189025879,1.0598426395796994,1.0941437956423261,-0.8592852765595769
15.098470449447632,1.0635552151976961,1.0983145205290696,-0.5386750724618793
15.108449220657349,1.067267790815693,1.102469099744572,-0.732983464637805
15.1174795627594,1.0707849677169528,1.1066082817377425,-0.7713428890461855
15.130832195281982,1.076646929219053,1.1107329737907359,-0.7429423405272461
15.142663478851318,1.0815318971374697,1.1148572897102489,-0.4134875171793452
15.150495767593384,1.084853675321993,1.1189932302581151,-0.3207661432450667
15.160518169403076,1.0889570483734634,1.1231312618791172,-0.5940791670292607
15.168483257293701,1.0922788265579866,1.1272633780965977,-0.37412012299810476
15.176456689834595,1.0954052060257735,1.131382911153628,-0.30866860969907883
15.18951153755188,1.1006809713776635,1.135484447270907,-0.30170028550615435
15.200989723205566,1.1053705405793435,1.1395768674859776,-0.3112671263759631
15.209125757217407,1.1088877174806036,1.1436678780851368,-0.32060538511428344
15.217476606369019,1.1122094956651272,1.1477509023564756,-0.3242485066245091
15.226485967636108,1.1159220712831237,1.1518139344201301,-0.32147461878095096
15.238463163375854,1.1204162417680672,1.1558603764604232,-0.31330379719031226
15.249034881591797,1.1249104122530105,1.1599066190498468,-0.30118797346905835
15.258080005645752,1.1284275891542705,1.163959956765225,-0.28648960988715877
15.266022682189941,1.1315539686220573,1.1680132499351599,-0.2703144822320401
15.277429580688477,1.1360481391070005,1.1720605298409195,0.022545022665657027
15.289471626281738,1.141128505742154,1.1761101290527098,-0.2034936685245053
15.298479080200195,1.1452318787936242,1.1801623717627383,-0.27518994382776385
15.310370206832886,1.1499214479953044,1.1842108686449409,-0.004225029903240529
15.32038426399231,1.1538294223300378,1.1882635992554924,0.04960579398708481
15.332509517669678,1.1585189915317178,1.1923339159704414,-0.25334204485926515
15.344467878341675,1.1634039594501346,1.1964395332006708,-0.0584956998303601
15.354497909545898,1.1675073325016045,1.2005883024448298,-0.015716844429804047
15.364524841308594,1.171415306836338,1.204766335118647,-0.029843101082517857
15.374836683273315,1.1757140786045446,1.2089615019089972,-0.05925069783941184
15.384850978851318,1.1800128503727516,1.213176571024877,-0.08728043435191898
15.396711826324463,1.1847024195744316,1.2174201860787561,-0.10849348471614095
15.405266046524048,1.1880241977589552,1.2216859641528377,-0.1221791607548591
15.415048360824585,1.1923229695271618,1.2259549094818494,-0.129374593884367
15.42299747467041,1.1958401464284218,1.230217454701686,-0.1315605413758203
15.430521249771118,1.1989665258962086,1.2344655257200208,-0.13013937797200403
15.438455581665039,1.2020929053639953,1.2386858039585087,-0.12626507337093545
15.446488857269287,1.2052192848317822,1.2428673233456269,-0.12082179429813669
15.455356359481812,1.2087364617330423,1.2470012457808022,-0.1144576669376949
15.467480897903442,1.2134260309347222,1.2510937106641662,-0.10763271862381699
15.479535102844238,1.2181156001364022,1.2551699171644446,-0.10066453351907031
15.49157977104187,1.2228051693380821,1.2592511812292613,-0.09376620693537695
15.500830888748169,1.2265177449560791,1.2633357977532582,-0.08707586236316991
15.512505769729614,1.2315981115912327,1.2674092202097478,-0.08067874311893286
15.521597623825073,1.2353106872092292,1.2714657266742235,-0.07462335016932664
15.53046727180481,1.2390232628272257,1.2755071229511217,-0.06893303754498478
15.539625406265259,1.2423450410117491,1.2795350731713746,-0.06361424373351315
15.550449848175049,1.246839211496693,1.283551145272891,-0.05866227887908656
15.56153678894043,1.2513333819816361,1.2875633471312298,-0.05406535892468714
15.569553136825562,1.2548505588828962,1.2915785833257023,-0.049807393912316075
15.577472448348999,1.2579769383506831,1.295583302701253,-0.045869897016610955
15.585511684417725,1.2612987165352065,1.2995598226559741,-0.04223327650057677
15.595784902572632,1.2652066908699398,1.3035067322897589,-0.038877696758776274
15.604301691055298,1.2685284690544634,1.3074299937586968,-0.035783639936042534
15.617353916168213,1.2738042344063532,1.311341974445695,-0.032932260610465086
15.627457857131958,1.2779076074578233,1.315260371039778,-0.030305598383426148
15.636443376541138,1.28162018307582,1.3191870564873631,-0.027886693704629605
15.650450706481934,1.2874821445779203,1.3231172123649289,-0.02565963852093616
15.659035921096802,1.2908039227624437,1.3270605149142947,-0.023609583697376403
15.668452501296997,1.2945164983804403,1.3310250946355762,-0.2977610780805007
15.676547527313232,1.2978382765649636,1.3350040084156296,-0.3291491947597378
15.685585021972656,1.3015508521829606,1.338984342910585,-0.27245397131215476
15.694471597671509,1.3050680290842205,1.3429618231989096,-0.1948985571430138
15.707014322280884,1.310148395719374,1.346946074830719,-0.12302290756798845
15.715264558792114,1.3132747751871607,1.3509447367932184,-0.06515624072066739
15.725326776504517,1.3175735469553675,1.3549502315845436,-0.02201325812403669
15.737480401992798,1.3222631161570475,1.3589618341916918,0.2844940502267334
15.745557308197021,1.3253894956248342,1.3629847890081916,0.3381159946022961
15.757091999053955,1.3300790648265144,1.3670159655074774,0.2960632904112309
15.766438007354736,1.3339870391612478,1.37105175857952,-0.048397755985683855
15.777491569519043,1.3386766083629278,1.3750881582977366,0.1278708026717826
15.78952169418335,1.3435615762813446,1.3791266878521637,0.16075045870109006
15.798154354095459,1.3472741518993414,1.383167694671752,-0.13675561174451764
15.806001424789429,1.350400531367128,1.3871988583983386,-0.20644030571077515
15.81441330909729,1.3537223095516515,1.3912035130771958,-0.18704914092857042
15.823983669281006,1.357434885169648,1.3951729391399286,-0.14041528124678693
15.831486463546753,1.3603658659206983,1.399105165250571,-0.09218472377200977
15.843435764312744,1.3650554351223783,1.4029982422258567,-0.32753597852135874
15.854416370391846,1.3697450043240584,1.4068503664031535,-0.3295150469836605
15.868494272232056,1.375411567109422,1.4106651137424928,0.02402029178870141
15.878614664077759,1.3793195414441553,1.4144506283788159,-0.12750540753479117
15.888771533966064,1.383032117062152,1.41820859886684,-0.13530245368469146
15.898472547531128,1.3873308888303586,1.4219353200073346,-0.09371380529994089
15.910866022109985,1.392411255465512,1.4256328919278785,0.23303811887407372
15.919012784957886,1.3959284323667722,1.4293033716847727,0.3106949351540499
15.928889036178589,1.3998364067015054,1.432938753240801,0.013621632698418401
15.938479661941528,1.4039397797529758,1.4365327997622268,-0.07179594043715995
15.949020624160767,1.4082385515211824,1.4400859814459739,0.2040688811279045
15.956499576568604,1.4113649309889693,1.4435943013365025,0.2653651314369857
15.964503526687622,1.414491310456756,1.4470500621101479,0.2427396326657476
15.977300882339478,1.4195716770919091,1.4504580964094853,-0.0815610598134768
15.98958134651184,1.4246520437270627,1.4538338964270268,0.11167141897947448
16.000528573989868,1.4289508154952695,1.4571862918028096,0.15745699124498547
16.00957465171814,1.4324679923965296,1.4605183925924654,-0.13086244269541938
16.0225567817688,1.4377437577484196,1.4638392425948992,-0.19437428719442407
16.031501531600952,1.441651732083153,1.467162910609798,-0.17109834599215384
16.04377245903015,1.4463413012848332,1.4704965391684213,0.1537923732080245
16.055520057678223,1.4514216679199867,1.4738412882914969,-0.03984841356024724
16.06544256210327,1.4551342435379833,1.47719875814816,-0.0871480551230455
16.073434591293335,1.4586514204392433,1.4805709401531455,-0.0772931393712531
16.08408784866333,1.46295019220745,1.4839601608922126,-0.04997937248456126
16.091420650482178,1.465490375525027,1.487362750908958,-0.021633718771115272
16.10145592689514,1.4693983498597603,1.4907763157404703,-0.27412022675841563
16.110477447509766,1.4729155267610203,1.4942056133114119,-0.565772811574748
16.120203495025635,1.476628102379017,1.4976487355747259,-0.531795248597289
16.130581378936768,1.4807314754304872,1.5011048037395538,-0.39303897201270865
16.142452716827393,1.485030247198694,1.5045870317637897,-0.5182295342122762
16.150567531585693,1.4881566266664805,1.508114055272406,-0.6984060172718846
16.161705017089844,1.4922599997179506,1.51169526511429,-0.8536735628598939
16.17073082923889,1.4955817779024738,1.515324851837213,-0.6851371544872523
16.179006576538086,1.4987081573702605,1.5189908151050178,-0.7121745043548153
16.18741726875305,1.5016391381213108,1.522682933305344,-0.7885034138488388
