t_s,q_rad,q_des_rad,K,B,Kff,jerk,tau_Nm,reward
0.005910634994506836,-0.026574225476187156,[0.00037847],9.825212432529046,0.9790254919034855,1.9737818648793566,0.0,9.998999999999999,1.3647718534248163
0.013583183288574219,-0.026574225476187156,[0.0018298],9.650424865058092,0.9580509838069711,1.9475637297587132,0.0,10.098989999999999,1.3509876289019362
0.022825241088867188,-0.026769624192923825,[0.00454897],9.475637297587138,0.9370764757104565,1.92134559463807,0.0,10.099989899999999,1.321871773127075
0.03217482566833496,-0.026574225476187156,[0.00830406],9.300849730116184,0.9161019676139419,1.8951274595174268,0.0,10.099999898999998,1.2840370344810397
0.04244351387023926,-0.026769624192923825,[0.01288439],9.12606216264523,0.8951274595174274,1.8689093243967834,0.0,10.099999998989999,1.2301624698605398
0.05269813537597656,-0.026769624192923825,[0.01810173],8.951274595174274,0.8741529514209129,1.84269118927614,0.0,1.5745247602757972,1.1685208064372863
0.06070280075073242,-0.026769624192923825,[0.02378946],8.77648702770332,0.8531784433243983,1.8164730541554968,0.0,-9.98325475239724,1.0997488998327765
0.06945395469665527,-0.025988029325977144,[0.02980102],8.601699460232366,0.8322039352278838,1.7902549190348536,0.0,-10.09883254752397,1.036610069063968
0.07937455177307129,-0.02501103574229379,[0.03600837],8.426911892761412,0.8112294271313693,1.7640367839142101,1.104153438714724,-10.099988325475238,0.9739825522412631
0.09051394462585449,-0.024034042158610443,[0.04230067],8.252124325290458,0.7902549190348547,1.7378186487935667,2.0647669303965337,-10.099999883254752,0.9115950129906742
0.09964346885681152,-0.02305704857492709,[0.04858303],8.077336757819502,0.7692804109383402,1.7116005136729235,2.771866792549443,-10.099999998832546,0.8525861656819179
0.10735464096069336,-0.022666251141453746,[0.05477538],7.902549190348549,0.7483059028418256,1.6853823785522803,3.229723890674401,-10.099999999988324,0.7936576227564565
0.11712789535522461,-0.022080054991243738,[0.06081123],7.727761622877595,0.727331394745311,1.659164243431637,3.7576136431292033,-10.099999999999882,0.742642740161086
0.127424955368042,-0.0216892575577704,[0.06663633],7.55297405540664,0.7063568866487966,1.6329461083109935,3.886625133915572,-10.099999999999998,0.6989575108705318
0.1373910903930664,-0.021493858841033726,[0.07220749],7.378186487935686,0.685382378552282,1.6067279731903503,2.987931060552265,-10.099999999999998,0.6661345738040858
0.14742088317871094,-0.02129846012429706,[0.07749146],7.203398920464732,0.6644078704557674,1.5805098380697071,1.6171741370664834,-10.099999999999998,0.6400624624073427
0.15602946281433105,-0.02129846012429706,[0.08246393],7.028611352993777,0.643433362359253,1.5542917029490637,0.05941234198008272,-5.100499999999999,0.6160946478044254
0.163740873336792,-0.02129846012429706,[0.08710836],6.853823785522822,0.6224588542627384,1.5280735678284203,-1.5393415884777402,-5.050504999999999,0.5935694856074195
0.1726694107055664,-0.02129846012429706,[0.09141499],6.679036218051868,0.6014843461662238,1.501855432707777,-2.829059640676445,-5.050005049999999,0.5728757418914734
0.181382417678833,-0.02129846012429706,[0.09538001],6.504248650580913,0.6,1.475637297587134,-3.7402729944698376,-5.0500000505,0.5553861485325614
0.18938422203063965,-0.02129846012429706,[0.09900457],6.329461083109958,0.6,1.4494191624664907,-4.0355556625436595,-6.3957448952811555,0.5433458540982834
0.1973428726196289,-0.02129846012429706,[0.10229408],6.154673515639004,0.6,1.4232010273458477,-4.027978274931227,-4.505201271161619,0.5351887202532113
0.20835494995117188,-0.02129846012429706,[0.10525747],5.97988594816805,0.6,1.3969828922252046,-3.87598391373501,-3.0809401102796694,0.5295695106100229
0.2187361717224121,-0.02129846012429706,[0.10790646],5.805098380697095,0.6,1.3707647571045614,-3.3838160490285993,-2.0555923816512265,0.5270288406752337
0.22839951515197754,-0.02129846012429706,[0.11025495],5.63031081322614,0.6,1.3445466219839184,-2.835018417897774,-1.302261312999811,0.5254428567229037
0.23735928535461426,-0.02129846012429706,[0.11231866],5.455523245755186,0.6,1.3183284868632752,-2.062198971199691,-0.7460113185918217,0.5249802633001595
0.24837207794189453,-0.02129846012429706,[0.11411466],5.280735678284231,0.6,1.292110351742632,-1.339333807107192,-0.35686772994443045,0.5242107312489898
0.2577023506164551,-0.02129846012429706,[0.11566078],5.105948110813277,0.6,1.2658922166219888,-0.753826297505981,-0.07313920474240422,0.5230581050421994
0.2662971019744873,-0.02129846012429706,[0.11697535],5.0,0.6,1.2396740815013456,-0.3147484639051211,0.14307781856501794,0.5217680742621889
0.2757389545440674,-0.02129846012429706,[0.11807686],5.0,0.6,1.2134559463807026,-0.0024687927936766774,0.3106262800370123,0.5205458577802667
0.28336405754089355,-0.02129846012429706,[0.11898373],5.0,0.6,1.1872378112600595,0.2096783579985265,0.4291558455553451,0.5194969819091074
0.2927212715148926,-0.021103061407560384,[0.11971409],5.0,0.6,1.1610196761394163,0.34675873830143394,0.5134875564218905,0.5188615869653168
0.30236315727233887,-0.020516865257350376,[0.12028553],5.0,0.6,1.1348015410187733,0.705499601068297,0.5705059616719718,0.51859646914774
0.3123798370361328,-0.019735270390403698,[0.12071498],5.0,0.6,1.10858340589813,1.335026739728712,0.6115023130575444,0.518021306706349
0.32073378562927246,-0.018562878089983675,[0.1210186],5.0,0.6,1.082365270777487,2.1921549416833077,0.635558224511878,0.5167464167607928
0.3301677703857422,-0.017195087072826982,[0.12121167],5.0,0.6,1.0561471356568437,3.7615255473831013,0.6440488304446498,0.5112592919538026
0.339353084564209,-0.015436498622196948,[0.12130858],5.0,0.6,1.0299290005362005,5.0,0.6481073179289168,0.5054898912376019
0.3483738899230957,-0.013287112738093578,[0.12132274],5.0,0.6,1.0037108654155575,5.0,0.6509771003012512,0.5084088230302524
0.3573589324951172,-0.010746929420516863,[0.12126661],5.0,0.6,0.9774927302949143,5.0,0.6434251533924765,0.512370039364223
0.3669881820678711,-0.008011347386203481,[0.1211516],5.0,0.6,0.9512745951742712,5.0,0.631671672799759,0.5172892301618808
0.3770909309387207,-0.0042987717682067455,[0.12098811],5.0,0.6,0.9250564600536281,5.0,0.6124607672499035,0.5250425438268717
0.38576459884643555,-0.0005861961502100108,[0.12078556],5.0,0.6,0.898838324932985,5.0,0.590477032047927,0.5342699408625308
0.3948214054107666,0.0029309807510500534,[0.12055244],5.0,0.6,0.8726201898123418,5.0,0.5638943465690748,0.5445847472859583
0.40588998794555664,0.0072297525192568,[0.12029631],5.0,0.6,0.8464020546916986,5.0,0.5359914945916812,0.5592838574456296
0.41437411308288574,0.010551530703780192,[0.12002388],5.0,0.6,0.8201839195710555,5.0,0.5170702743873657,0.5727372396321647
0.4233360290527344,0.014068707605040257,[0.11974105],5.0,0.6,0.7939657844504124,5.0,0.49615729272232195,0.5889031628800427
0.43320417404174805,0.018367479373247002,[0.11945291],5.0,0.6,0.7677476493297692,5.0,0.4650672201880613,0.6112866815262319
0.443587064743042,0.02247085242471708,[0.11916376],5.0,0.6,0.741529514209126,4.647989705926301,0.4366509857911028,0.6383124752801613
0.4539153575897217,0.026769624192923825,[0.11887729],5.0,0.6,0.715311379088483,2.7372686740606325,0.4098467512037556,0.6777290618546172
0.4623579978942871,0.030091402377447216,[0.11859657],5.0,0.6,0.6890932439678399,0.6548325565916664,0.3870948951930196,0.7084277826314391
0.47185468673706055,0.034194775428917294,[0.11832416],5.0,0.6,0.6628751088471967,-1.371129306480179,0.3644243201808433,0.7413943269044915
0.48105812072753906,0.03771195233017736,[0.11806215],5.0,0.6,0.6366569737265535,-2.9775201539747997,0.34945880123626155,0.768375989147921
0.4893653392791748,0.04103373051470075,[0.11781213],5.0,0.6,0.6104388386059104,-4.38390299126053,0.3366739153698279,0.7934873324195607
0.49832677841186523,0.04435550869922414,[0.11757531],5.0,0.6,0.5842207034852673,-5.0,0.31934012849474036,0.8239772327924719
0.5083620548248291,0.04826348303395755,[0.11735249],5.0,0.6,0.5580025683646241,-5.0,0.2961736894404837,0.8666757714119829
0.5174746513366699,0.05178065993521762,[0.11714411],5.0,0.6,0.531784433243981,-5.0,0.2728277458024891,0.9072381246594232
0.5273566246032715,0.05607943170342436,[0.11695034],5.0,0.6,0.5055662981233379,-5.0,0.24512352243249041,0.9583435722801543
0.5382521152496338,0.06057360218836778,[0.11677108],5.0,0.6,0.4793481630026947,-5.0,0.21087297215025821,1.0134557061994327
0.5463438034057617,0.06369998165615451,[0.11660604],5.0,0.6,0.4531300278820516,-5.0,0.19495152737002205,1.0530495763144478
0.5561239719390869,0.06760795599088791,[0.11645484],5.0,0.6,0.42691189276140845,-5.0,0.1747363477113573,1.1022482603465997
0.5693342685699463,0.07327451877625135,[0.11631693],5.0,0.6,0.4006937576407653,-5.0,0.1421228569901351,1.1721005351745362
0.5791475772857666,0.0767916956775114,[0.11619158],5.0,0.6,0.3744756225201221,-4.725436059608943,0.12419007306682374,1.2167532092634539
0.5873332023620605,0.08011347386203481,[0.11607809],5.0,0.6,0.3482574873994789,-4.776700772238861,0.11661898856210673,1.2553621455810462
0.5965790748596191,0.08363065076329486,[0.11597579],5.0,0.6,0.3220393522788358,-4.58978324679628,0.09955356347126991,1.2957609135701915
0.6053328514099121,0.08734322638129159,[0.11588392],5.0,0.6,0.2958212171581926,-4.306607971566864,0.08215713168341782,1.3360466406245015
0.6133534908294678,0.09027420713234166,[0.11580166],5.0,0.6,0.2696030820375494,-3.994561707540921,0.07469110074731394,1.3660674619352529
0.624640941619873,0.09437758018381173,[0.11572822],5.0,0.6,0.24338494691690624,-3.9606113944756345,0.05296428203871332,1.401320830017178
0.632300615310669,0.0971131622181251,[0.11566273],5.0,0.6,0.21716681179626307,-3.9751312003682937,0.04006576490088156,1.421871715197392
0.6413459777832031,0.10004414296917516,[0.11560442],5.0,0.6,0.19094867667561988,-4.230836406720126,0.026110120255564688,1.4395805588935373
0.6523618698120117,0.10356131987043524,[0.11555252],5.0,0.6,0.16473054155497668,-4.464849285932294,0.009351752413648363,1.4570302853539525
0.6607022285461426,0.10668769933822195,[0.11550626],5.0,0.6,0.13851240643433352,-4.593836597323964,-0.007141799873300373,1.4691017967464683
0.668341875076294,0.10942328137253533,[0.11546494],5.0,0.6,0.11229427131369034,-4.609372047545178,-0.016663071849244888,1.4771579997556121
0.6783251762390137,0.11254966084032206,[0.11542796],5.0,0.6,0.08607613619304716,-4.806150158035655,-0.03187090974257926,1.4814417868521592
0.6864206790924072,0.11508984415789876,[0.11539474],5.0,0.6,0.05985800107240398,-4.690188402564461,-0.042552619867311424,1.4838714282438787
0.6956501007080078,0.11743462875873882,[0.11536473],5.0,0.6,0.0336398659517608,-4.991351602319774,-0.05331053866286538,1.4809375128911428
0.7052829265594482,0.11977941335957885,[0.11533738],5.0,0.6,0.0074217308311176206,-5.0,-0.06398445835003924,1.4777935079061835
0.7133142948150635,0.12173340052694555,[0.11531216],5.0,0.6,0.0,-5.0,-0.07194467511728854,1.4735195127921954
0.7226974964141846,0.12349198897757559,[0.11528861],5.0,0.6,0.0,-5.0,-0.08038468177415291,1.4683631498504308
0.7318906784057617,0.1252505774282056,[0.11526616],5.0,0.6,0.0,-5.0,-0.08771891329233533,1.461991795645988
0.7393391132354736,0.12642296972862566,[0.11524437],5.0,0.6,0.0,-5.0,-0.091228155633468,1.457049567370868
0.7473442554473877,0.12779076074578233,[0.11522299],5.0,0.6,0.0,-5.0,-0.0966377262638359,1.4506360485839926
0.7570178508758545,0.12896315304620237,[0.11520175],5.0,0.6,0.0,-5.0,-0.1008217509493067,1.4445651346451938
0.768326997756958,0.1301355453466224,[0.11518033],5.0,0.6,0.0,-5.0,-0.10423987480553808,1.4379860673887217
0.7783772945404053,0.13091714021356907,[0.11515843],5.0,0.6,0.0,-5.0,-0.10604644979825217,1.4332779144322438
0.7872989177703857,0.1315033363637791,[0.11513581],5.0,0.6,0.0,-5.0,-0.10697493910997957,1.4295629296143886
0.7952933311462402,0.1318941337972524,[0.11511233],5.0,0.6,0.0,-5.0,-0.1062484925290016,1.4269632221897401
0.8043303489685059,0.13228493123072574,[0.11508797],5.0,0.6,0.0,-5.0,-0.10652064312793236,1.424300161104884
0.8146533966064453,0.13248032994746242,[0.11506254],5.0,0.6,0.0,-4.943028800160568,-0.10661326169600088,1.423266743196313
0.8233652114868164,0.1326757286641991,[0.11503577],5.0,0.6,0.0,-4.681065586302454,-0.10564756247888142,1.4236149288736097
0.8329415321350098,0.13248032994746242,[0.11500748],5.0,0.6,0.0,-4.3466951675277015,-0.10278128037640039,1.4268981426492546
0.8423788547515869,0.13228493123072574,[0.1149777],5.0,0.6,0.0,-3.7243413066479594,-0.09912171435281884,1.431631674362543
0.8525025844573975,0.13208953251398908,[0.11494656],5.0,0.6,0.0,-3.6348886346551863,-0.0964911882726206,1.4331784690169753
0.8642680644989014,0.13169873508051574,[0.11491398],5.0,0.6,0.0,-2.8622924105107193,-0.09425724171681071,1.4391508033830251
0.8733322620391846,0.1313079376470424,[0.11487982],5.0,0.6,0.0,-2.2582080959134245,-0.08962442916339819,1.4436725394532093
0.8848421573638916,0.13072174149683238,[0.11484406],5.0,0.6,0.0,-1.2439854194554774,-0.08661644483239214,1.44967922183577
0.8925879001617432,0.1301355453466224,[0.11480674],5.0,0.6,0.0,-0.27547267397193465,-0.08161822768860136,1.4540362153727755
0.9006648063659668,0.12954934919641237,[0.11476797],5.0,0.6,0.0,0.7736480838623151,-0.07812962404135604,1.4567978184894885
0.910346269607544,0.12915855176293903,[0.11472786],5.0,0.6,0.0,1.3640695409999593,-0.07553902327242433,1.4578232415440642
0.9201326370239258,0.12837695689599235,[0.11468651],5.0,0.6,0.0,1.4022025522864645,-0.0698435524784443,1.4617467482379207
0.9327406883239746,0.12739996331230902,[0.11464403],5.0,0.6,0.0,1.7905037005943791,-0.06559455246345718,1.4656002559630852
0.9408271312713623,0.1266183684453623,[0.11460033],5.0,0.6,0.0,2.196295726437568,-0.06113291999275148,1.4679486577632566
0.9483356475830078,0.1260321722951523,[0.11455543],5.0,0.6,0.0,2.504263781219639,-0.056748254763191286,1.4693541559820738
0.95733642578125,0.12505517871146896,[0.11450955],5.0,0.6,0.0,2.692167421536817,-0.051467298113648106,1.4726372237128187
0.9673168659210205,0.12427358384452228,[0.11446283],5.0,0.6,0.0,3.0494409793562545,-0.04741829585662338,1.4740593722583009
0.9776995182037354,0.12329659026083893,[0.11441533],5.0,0.6,0.0,3.0807380231947956,-0.04220376360936165,1.477333038217744
0.9858396053314209,0.12251499539389225,[0.11436711],5.0,0.6,0.0,3.2401936946024943,-0.03809582411827737,1.479055549124515
0.9944632053375244,0.12153800181020889,[0.11431822],5.0,0.6,0.0,3.3717375421847744,-0.033112100948448686,1.481237512799127
1.0033049583435059,0.12075640694326222,[0.11426873],5.0,0.6,0.0,3.4288396009484146,-0.028953189502142797,1.4829416263602853
1.0121707916259766,0.11997481207631551,[0.11421882],5.0,0.6,0.0,3.4099759373359886,-0.024012550057894544,1.484814256655374
1.022280216217041,0.11880241977589551,[0.11416869],5.0,0.6,0.0,3.605354055635475,-0.018504757226449627,1.4861318025595944
1.031092882156372,0.11802082490894884,[0.1141185],5.0,0.6,0.0,3.5132935768873867,-0.014518833211223976,1.4878546024568764
1.0407583713531494,0.11704383132526547,[0.11406821],5.0,0.6,0.0,3.580048197608148,-0.010664719857684156,1.4887803596884301
1.0516934394836426,0.11606683774158212,[0.11401784],5.0,0.6,0.0,3.642297324049634,-0.004770242000525785,1.4893820933835569
1.0612425804138184,0.11528524287463544,[0.11396756],5.0,0.6,0.0,3.6475607794207203,-0.0010542146148868957,1.4898462205439966
1.0719270706176758,0.11411285057421541,[0.11391754],5.0,0.6,0.0,3.865742422512263,0.00439477179250231,1.4889909126533432
1.0812983512878418,0.11333125570726875,[0.11386791],5.0,0.6,0.0,3.7886019411135754,0.008860950027616362,1.4893709996460074
1.0893340110778809,0.11294045827379541,[0.11381895],5.0,0.6,0.0,3.8615995634800933,0.01084790819686918,1.488867512056737
1.0973079204559326,0.11235426212358537,[0.11377084],5.0,0.6,0.0,3.9227329122476053,0.012925889358128951,1.488274246565199
1.1062679290771484,0.11196346469011205,[0.11372362],5.0,0.6,0.0,3.921357833703456,0.014238560199419957,1.4880639138464087
1.1151502132415771,0.11157266725663871,[0.11367727],5.0,0.6,0.0,3.8530600124838816,0.01549613838649353,1.4881843344409378
1.1253304481506348,0.1109864711064287,[0.11363179],5.0,0.6,0.0,4.282029653362109,0.017569462224259796,1.4851368929492614
1.1369307041168213,0.11079107238969202,[0.1135871],5.0,0.6,0.0,4.738230829428607,0.01691252977201731,1.4820014739552785
1.144927978515625,0.11079107238969202,[0.11354312],5.0,0.6,0.0,4.783625206741273,0.016158666442357854,1.481739121465135
1.1522698402404785,0.11040027495621868,[0.11349986],5.0,0.6,0.0,4.906749720363585,0.01773938397522495,1.4804754352638159
1.1622812747955322,0.11040027495621868,[0.11345743],5.0,0.6,0.0,4.696590323966318,0.016558190265682667,1.4819792307689752
1.172262191772461,0.11040027495621868,[0.11341586],5.0,0.6,0.0,4.638723069649319,0.01545238449711286,1.4824189282420022
1.1822991371154785,0.11040027495621868,[0.11337509],5.0,0.6,0.0,4.309185626887923,0.01435618390111576,1.4845981440554525
1.1913657188415527,0.11040027495621868,[0.11333509],5.0,0.6,0.0,3.9030722700494405,0.013463679288232265,1.4870663057519928
1.200850009918213,0.11040027495621868,[0.11329582],5.0,0.6,0.0,3.226587779758168,0.012676592637638685,1.4906344638456908
1.2082984447479248,0.11040027495621868,[0.11325728],5.0,0.6,0.0,2.8288951439720273,0.012385955027442276,1.4924470137095474
1.217292308807373,0.11040027495621868,[0.11321949],5.0,0.6,0.0,2.2865499847295525,0.011477520885281426,1.4945348187082765
1.2289643287658691,0.11020487623948202,[0.11318236],5.0,0.6,0.0,1.7732336933734634,0.01103941134675521,1.495893295121173
1.2362983226776123,0.11020487623948202,[0.11314574],5.0,0.6,0.0,1.0694776288352816,0.011362433708106827,1.4974210486309047
1.247380256652832,0.11020487623948202,[0.11310967],5.0,0.6,0.0,0.7013182377273726,0.011368152455676291,1.497947862276273
1.2573199272155762,0.11020487623948202,[0.11307422],5.0,0.6,0.0,0.2267170812431083,0.01082632700566235,1.4983164641118938
1.2673163414001465,0.11020487623948202,[0.11303935],5.0,0.6,0.0,-0.19470470893524894,0.01025552872404017,1.498366224921342
1.2772796154022217,0.11020487623948202,[0.11300492],5.0,0.6,0.0,-0.5165961465219879,0.009891929625548131,1.4982345639099306
1.2872920036315918,0.11020487623948202,[0.11297081],5.0,0.6,0.0,-0.7390802836744865,0.009566397490863044,1.4980646368522994
1.2972931861877441,0.11040027495621868,[0.11293692],5.0,0.6,0.0,-0.8784143206240919,0.008250873271781338,1.4981398579385246
1.3073210716247559,0.11020487623948202,[0.11290313],5.0,0.6,0.0,-0.9539595864404495,0.008887145423085946,1.497867972837861
1.3172693252563477,0.11040027495621868,[0.11286933],5.0,0.6,0.0,-0.9831637524095114,0.007649415825919261,1.4980624693011761
1.326317548751831,0.11020487623948202,[0.11283543],5.0,0.6,0.0,-0.9800993276647051,0.008376641007459062,1.4979024416715752
1.3343019485473633,0.11020487623948202,[0.11280135],5.0,0.6,0.0,-0.9554654654795702,0.00822535778749493,1.4979734608483155
1.3424813747406006,0.11020487623948202,[0.11276705],5.0,0.6,0.0,-0.9171010926680692,0.00806657209991318,1.4980622082412391
1.3514389991760254,0.11020487623948202,[0.11273249],5.0,0.6,0.0,-0.8705995131570495,0.007807931083157394,1.498159152077341
1.359785795211792,0.11020487623948202,[0.11269764],5.0,0.6,0.0,-0.8198658590379941,0.0076899973770619716,1.4982578817784469
1.3672950267791748,0.11020487623948202,[0.11266253],5.0,0.6,0.0,-0.7675704808693127,0.00824384757724284,1.498354336289134
1.3771083354949951,0.11020487623948202,[0.11262728],5.0,0.6,0.0,-0.7154975036382707,0.007823587015004544,1.4984461358380152
1.3862888813018799,0.11020487623948202,[0.11259198],5.0,0.6,0.0,-0.6648040351393878,0.008165711070483918,1.4985321020058777
1.3960661888122559,0.11020487623948202,[0.1125567],5.0,0.6,0.0,-0.6162088790453752,0.007688494334018676,1.4986118207878876
1.4063704013824463,0.11020487623948202,[0.11252142],5.0,0.6,0.0,-0.5701279526550482,0.0073419473805069755,1.4986853911009628
1.4143457412719727,0.11020487623948202,[0.11248618],5.0,0.6,0.0,-0.526770448811611,0.007717695453410935,1.498753155809076
1.4243755340576172,0.11020487623948202,[0.11245103],5.0,0.6,0.0,-0.48620656737278545,0.007243356369575096,1.4988155266801222
1.4347021579742432,0.11020487623948202,[0.11241591],5.0,0.6,0.0,-0.44841489101314796,0.006231147792688372,1.4988730816022053
1.4453747272491455,0.11040027495621868,[0.11238067],5.0,0.6,0.0,-0.41331530450518184,0.005170464791670796,1.4990887658207699
1.4544353485107422,0.11020487623948202,[0.11234517],5.0,0.6,0.0,-0.38079170871190565,0.0054910365237113715,1.4989763178235687
1.4623165130615234,0.11020487623948202,[0.1123094],5.0,0.6,0.0,-0.3507075646249389,0.006175135144227386,1.499023040088625
1.471712589263916,0.11020487623948202,[0.11227344],5.0,0.6,0.0,-0.322916420588429,0.006043287518791464,1.4990669555290528
1.479369878768921,0.11020487623948202,[0.11223746],5.0,0.6,0.0,-0.2972689428880412,0.006554358993444576,1.499108284588206
1.4873530864715576,0.11020487623948202,[0.11220159],5.0,0.6,0.0,-0.2736175191963026,0.006287499323008554,1.49914721606235
1.4973437786102295,0.11020487623948202,[0.11216591],5.0,0.6,0.0,-0.2518191851664237,0.006014506584614368,1.499183961548729
1.50734281539917,0.11040027495621868,[0.11213042],5.0,0.6,0.0,-0.23173739925134257,0.004818694287095632,1.4993615217083875
1.5167431831359863,0.11020487623948202,[0.11209513],5.0,0.6,0.0,-0.21324303236207698,0.005620963890795637,1.4992517910676515
1.5250442028045654,0.11020487623948202,[0.11206006],5.0,0.6,0.0,-0.1962148277197385,0.005463099748529119,1.4992832383679295
1.5338878631591797,0.11020487623948202,[0.11202521],5.0,0.6,0.0,-0.18053950827031814,0.005357645266138308,1.499313233110533
1.5412423610687256,0.11020487623948202,[0.11199062],5.0,0.6,0.0,-0.16611165444916376,0.005253042863117662,1.4993418877371159
1.551607370376587,0.11020487623948202,[0.11195635],5.0,0.6,0.0,-0.15283343693294055,0.005616207525911022,1.4993692654222053
1.5640017986297607,0.11040027495621868,[0.11192247],5.0,0.6,0.0,-0.14061426239179187,0.0038431921584078576,1.4995219730413663
1.571357011795044,0.11020487623948202,[0.11188897],5.0,0.6,0.0,-0.12937037170273424,0.005250372465828139,1.4994204708295695
1.5803031921386719,0.11020487623948202,[0.11185589],5.0,0.6,0.0,-0.119024417184538,0.005018348310604725,1.499444434857693
1.589562177658081,0.11020487623948202,[0.11182328],5.0,0.6,0.0,-0.10950503646560165,0.004803326696337246,1.4994673660630755
1.5982608795166016,0.11020487623948202,[0.11179117],5.0,0.6,0.0,-0.10074643440903804,0.005141362118289308,1.4994893086306647
1.6073756217956543,0.11020487623948202,[0.11175961],5.0,0.6,0.0,-0.09268798025959697,0.004692166791455866,1.4995102836809835
1.6172544956207275,0.11040027495621868,[0.1117286],5.0,0.6,0.0,-0.08527382426152802,0.0036014084871004875,1.4996417592963862
1.626279354095459,0.11020487623948202,[0.11169811],5.0,0.6,0.0,-0.0784525360166957,0.004375691897125373,1.499549566107233
1.6342628002166748,0.11020487623948202,[0.11166816],5.0,0.6,0.0,-0.07217676552272334,0.004641434021570973,1.4995679713616468
1.6445858478546143,0.11020487623948202,[0.11163875],5.0,0.6,0.0,-0.06640292695210981,0.003834645466644304,1.4995856050353602
1.6523935794830322,0.11040027495621868,[0.11160982],5.0,0.6,0.0,-0.0610909046658092,0.0033757330241514917,1.499704664818461
1.6638531684875488,0.11040027495621868,[0.11158136],5.0,0.6,0.0,-0.05620378060146478,0.002609933724570909,1.4997186950571861
1.6724696159362793,0.11020487623948202,[0.11155335],5.0,0.6,0.0,-0.051707581969598,0.004064550537087882,1.4996344022391404
1.681023120880127,0.11020487623948202,[0.11152579],5.0,0.6,0.0,-0.04757104808340868,0.003779043533990354,1.4996494133689193
1.689251184463501,0.11020487623948202,[0.11149874],5.0,0.6,0.0,-0.043765415106702524,0.004043908721997877,1.4996638147116925
1.6982946395874023,0.11020487623948202,[0.11147221],5.0,0.6,0.0,-0.040264217507143645,0.0037516356413324174,1.4996776163757635
1.7082858085632324,0.11020487623948202,[0.1114462],5.0,0.6,0.0,-0.03704310503285664,0.0035633121953863984,1.4996908478014483
1.7173032760620117,0.11020487623948202,[0.11142065],5.0,0.6,0.0,-0.03407967407862745,0.0033137802236541656,1.4997035570069084
1.7303438186645508,0.11020487623948202,[0.11139545],5.0,0.6,0.0,-0.03135331236621691,0.0026139599245960103,1.499715813125858
1.7389366626739502,0.11020487623948202,[0.11137051],5.0,0.6,0.0,-0.0288450559266354,0.0031158583378946966,1.4997276756326776
1.7512784004211426,0.11040027495621868,[0.1113458],5.0,0.6,0.0,-0.026537457437305692,0.0014766242720433784,1.4998206897434014
1.7607698440551758,0.11020487623948202,[0.11132122],5.0,0.6,0.0,-0.024414465031682007,0.002351426267418472,1.4997503406422874
1.7723627090454102,0.11020487623948202,[0.11129671],5.0,0.6,0.0,-0.022461310761699986,0.002140890363813596,1.4997612338621522
1.7823078632354736,0.11020487623948202,[0.11127219],5.0,0.6,0.0,-0.020664407953550755,0.0020561591837531265,1.4997718756610008
1.7919538021087646,0.11040027495621868,[0.11124764],5.0,0.6,0.0,-0.01901125675421743,0.0009777314513258063,1.499856135991639
1.8019886016845703,0.11020487623948202,[0.11122302],5.0,0.6,0.0,-0.01749035721974556,0.0017131002261073216,1.4997924721876
1.8103463649749756,0.11020487623948202,[0.11119828],5.0,0.6,0.0,-0.016091129346271812,0.0016438315674342475,1.4998024558108707
1.8182587623596191,0.11020487623948202,[0.11117345],5.0,0.6,0.0,-0.014803839491444188,0.0019559130730916908,1.4998122258243707
1.8298444747924805,0.11020487623948202,[0.11114854],5.0,0.6,0.0,-0.013619532677140535,0.0011088266093660904,1.4998217782956125
1.8372564315795898,0.11020487623948202,[0.11112344],5.0,0.6,0.0,-0.01252997030447759,0.001002862250096594,1.499831146777258
1.8468620777130127,0.11020487623948202,[0.11109806],5.0,0.6,0.0,-0.011527572849175188,0.0007451662024037228,1.4998403582035922
1.8543977737426758,0.11020487623948202,[0.11107241],5.0,0.6,0.0,-0.010605367139580237,0.0011250719772106911,1.499849403301143
1.8642735481262207,0.11020487623948202,[0.11104655],5.0,0.6,0.0,-0.009756937851251177,0.0008040860236926335,1.4998582565585927
1.8742587566375732,0.11020487623948202,[0.11102051],5.0,0.6,0.0,-0.008976382881137238,0.0010547111738010905,1.4998668957660117
1.8853018283843994,0.11020487623948202,[0.11099429],5.0,0.6,0.0,-0.00825827229123657,-1.3121543498841244e-05,1.4998753229808788
1.893310546875,0.11020487623948202,[0.1109678],5.0,0.6,0.0,-0.0075976105363508555,0.00048672725217461805,1.499883553957755
1.9050343036651611,0.11020487623948202,[0.11094098],5.0,0.6,0.0,-0.006989801713332035,-0.0006424056043817193,1.4998915987143653
1.9132587909698486,0.11020487623948202,[0.11091377],5.0,0.6,0.0,-0.006430617590187947,-0.00013466559799703577,1.4998994669354286
1.9248981475830078,0.11020487623948202,[0.11088612],5.0,0.6,0.0,-0.00591616819271863,-0.001052326415600826,1.4999071603152683
1.9333326816558838,0.11020487623948202,[0.11085791],5.0,0.6,0.0,-0.005442874744123148,-0.001291849332514273,1.4999146902776181
1.9453208446502686,0.11020487623948202,[0.11082901],5.0,0.6,0.0,-0.005007444769368704,-0.0019668006149985316,1.4999220756952567
1.9563329219818115,0.11020487623948202,[0.11079931],5.0,0.6,0.0,-0.0046068491911620026,-0.0018725791752737802,1.4999293172179033
1.9664511680603027,0.11020487623948202,[0.11076885],5.0,0.6,0.0,-0.004238301258208994,-0.0012110069119248509,1.4999363749798658
1.9772393703460693,0.11020487623948202,[0.11073781],5.0,0.6,0.0,-0.003899237159190238,-0.0014119060072243967,1.4999431857918395
1.988337516784668,0.11020487623948202,[0.11070624],5.0,0.6,0.0,-0.0035872981876015897,-0.0020876930786154703,1.4999497177724663
1.9985616207122803,0.11020487623948202,[0.11067409],5.0,0.6,0.0,-0.003300314333396066,-0.0021419106599898006,1.4999559603159456
2.0077760219573975,0.11020487623948202,[0.11064143],5.0,0.6,0.0,-0.003036289187286207,-0.0014800835862259552,1.4999618778743955
2.0174152851104736,0.11020487623948202,[0.11060845],5.0,0.6,0.0,-0.002793386052696591,-0.0017032383742999527,1.499967419884699
2.0282247066497803,0.11020487623948202,[0.11057528],5.0,0.6,0.0,-0.0025699151687561548,-0.0018073676782115917,1.4999725551864973
2.040006399154663,0.11020487623948202,[0.11054058],5.0,0.6,0.0,-0.002364321955448367,-0.017454479447913746,1.4999774565710016
2.052215337753296,0.11020487623948202,[0.11049608],5.0,0.6,0.0,-0.0021751761991473904,-0.07586281019834192,1.4999830372279197
2.0602779388427734,0.11020487623948202,[0.11043065],5.0,0.6,0.0,-0.0020011621033100236,-0.07677074670567177,1.499989802263746
2.0710244178771973,0.11020487623948202,[0.11034466],5.0,0.6,0.0,-0.0018410691351113213,-0.031094077464598028,1.4999960897934517
2.0812461376190186,0.11020487623948202,[0.11024931],5.0,0.6,0.0,-0.0016937836043486828,0.007681544278911514,1.4999996029790557
2.089724540710449,0.11000947752274534,[0.1101557],5.0,0.6,0.0,-0.0015582809160331775,0.016368971095011457,1.4999957219538005
2.098273992538452,0.10981407880600867,[0.11007037],5.0,0.6,0.0,-0.001433618442773195,0.024163996834495008,1.4999868614351748
2.1063380241394043,0.10981407880600867,[0.10999884],5.0,0.6,0.0,-0.27735728864604825,0.04588865938238951,1.4999359117776185
2.116016149520874,0.10981407880600867,[0.10994945],5.0,0.6,0.0,-0.3103763774901117,0.06810273291206806,1.4999246293155812
2.1252212524414062,0.10981407880600867,[0.10993248],5.0,0.6,0.0,-0.2551820477262555,0.09062504334849475,1.4999487248730268
2.134387969970703,0.10981407880600867,[0.10995642],5.0,0.6,0.0,-0.17900773525306704,0.08832675522159184,1.4999720949941273
2.1435654163360596,0.10981407880600867,[0.11003059],5.0,0.6,0.0,-0.10840289489434245,0.14313909422172147,1.499981877491648
2.1519689559936523,0.11000947752274534,[0.11016656],5.0,0.6,0.0,-0.05170550948590075,0.1323479266806354,1.49999307483173
2.160067319869995,0.11000947752274534,[0.11037258],5.0,0.6,0.0,0.2663999979934576,0.15891773775140294,1.4999208055006332
2.1682660579681396,0.11040027495621868,[0.11065374],5.0,0.6,0.0,0.3290037147039707,0.14807166433123667,1.499906581012277
2.1782824993133545,0.11079107238969202,[0.11101483],5.0,0.6,0.0,0.8455698233928324,0.1774873330970195,1.4994580317544142
2.187246322631836,0.11157266725663871,[0.11146422],5.0,0.6,0.0,1.4000174237671246,0.2010971310575887,1.4985407131744684
2.195481777191162,0.11196346469011205,[0.11200908],5.0,0.6,0.0,1.8445176113078043,0.18473505879362898,1.4974733541209542
2.2082414627075195,0.11294045827379541,[0.11265655],5.0,0.6,0.0,2.6991022043050004,0.2495144800095052,1.494590111640139
2.2172679901123047,0.11391745185747876,[0.11342227],5.0,0.6,0.0,3.214935317059386,0.26162967477715726,1.492315873189075
2.2302467823028564,0.11548064159137211,[0.11432534],5.0,0.6,0.0,3.7611412976262235,0.2989019755710581,1.4893127784000604
2.241245985031128,0.1168484326085288,[0.11538321],5.0,0.6,0.0,4.444252869428135,0.2982718962373488,1.485081848326712
2.2514140605926514,0.11841162234242215,[0.11660567],5.0,0.6,0.0,4.712287448853557,0.2982577577860665,1.4830882679956316
2.2608861923217773,0.12017021079305219,[0.11799539],5.0,0.6,0.0,4.739193217256675,0.29854948623506417,1.4826117196433386
2.269300699234009,0.12153800181020889,[0.11954792],5.0,0.6,0.0,4.902511453585628,0.272292424146651,1.4816331640639993
2.2807962894439697,0.12388278641104894,[0.12125848],5.0,0.6,0.0,5.0,0.3054920035674535,1.4803556110191565
2.2882537841796875,0.12564137486167898,[0.12312752],5.0,0.6,0.0,5.0,0.2811260279870932,1.480468966981247
2.297203779220581,0.12779076074578233,[0.12514801],5.0,0.6,0.0,5.0,0.2885463492923908,1.4803362079607099
2.306626319885254,0.1299401466298857,[0.12731259],5.0,0.6,0.0,5.0,0.2935259094997733,1.4803522090615902
2.31721830368042,0.1326757286641991,[0.12961952],5.0,0.6,0.0,5.0,0.29407697856326953,1.4798657277353429
2.325247287750244,0.13502051326503914,[0.13206571],5.0,0.6,0.0,4.2809870925879325,0.29616174758293057,1.4847972664165798
2.3348145484924316,0.1379514940160892,[0.13464683],5.0,0.6,0.0,4.136241628418598,0.294827845754581,1.485243473853679
2.3439438343048096,0.14088247476713922,[0.13735749],5.0,0.6,0.0,3.6022003002672034,0.2936958295196755,1.4879514614970364
2.352262258529663,0.14342265808471594,[0.14019141],5.0,0.6,0.0,3.553123872016519,0.294457267192635,1.4886039351983482
2.3602118492126465,0.14615824011902934,[0.14313551],5.0,0.6,0.0,3.0748164570799106,0.27051764169738646,1.491185661458794
2.3682801723480225,0.14869842343660605,[0.14616506],5.0,0.6,0.0,2.5122772757834424,0.24716946565045586,1.4940409300830582
2.3791708946228027,0.15260639777133944,[0.14926402],5.0,0.6,0.0,2.275388942534726,0.28719110041294205,1.4939289535400835
2.3919472694396973,0.15729596697301954,[0.152436],5.0,0.6,0.0,2.437102658042904,0.2797300424545474,1.4908854388935717
2.400881290435791,0.16022694772406962,[0.15568298],5.0,0.6,0.0,2.1151186760503613,0.2806316010864535,1.4925598051848852
2.409238576889038,0.163548725908593,[0.15899342],5.0,0.6,0.0,1.9492179276072368,0.2542454729977595,1.4930381151769334
2.417212724685669,0.16667510537637972,[0.16235071],5.0,0.6,0.0,1.0135914284039196,0.2637302989992565,1.4955027188756205
2.426288366317749,0.1705830797111131,[0.16574626],5.0,0.6,0.0,0.5477958945209495,0.26641037418652,1.4951086275994632
2.435296058654785,0.1741002566123732,[0.16917852],5.0,0.6,0.0,0.03917517249595165,0.26930068704328547,1.4951658796075302
2.4454147815704346,0.17859442709731663,[0.172646],5.0,0.6,0.0,-0.3870674249959857,0.2662883156687553,1.492836698166222
2.4549732208251953,0.18211160399857668,[0.17614728],5.0,0.6,0.0,-0.7011533637648202,0.2677160409133516,1.4925447858283651
2.466212034225464,0.1866057744835201,[0.1796812],5.0,0.6,0.0,-1.1870730493722852,0.2641854199183689,1.4894080325587462
2.476248264312744,0.1905137488182535,[0.18324688],5.0,0.6,0.0,-1.6217535846039002,0.2635188858511903,1.487540096385858
2.4883246421813965,0.19539871673667025,[0.18684375],5.0,0.6,0.0,-1.9378847687052438,0.2581555115085745,1.4826814069838021
2.49725079536438,0.19911129235466699,[0.19047168],5.0,0.6,0.0,-2.6846002388962393,0.2589036258151913,1.4798460338037582
2.5058226585388184,0.20262846925592706,[0.19413098],5.0,0.6,0.0,-3.1198343473263996,0.26074110177024085,1.4784690406709773
2.515287399291992,0.20634104487392377,[0.19782239],5.0,0.6,0.0,-3.6106773241785737,0.26178710391659843,1.4759801397939112
2.524207353591919,0.2100536204919205,[0.20154699],5.0,0.6,0.0,-3.982838063170649,0.26283604725759413,1.4739616075291189
2.5322470664978027,0.2131799999597072,[0.2052992],5.0,0.6,0.0,-4.198278524405165,0.2489849255238642,1.4747056222960735
2.542228937149048,0.21728337301117734,[0.20906772],5.0,0.6,0.0,-4.271942026274385,0.25646649448475983,1.4731892851909796
2.5513362884521484,0.22099594862917407,[0.21284325],5.0,0.6,0.0,-4.234693977557489,0.23706190296020982,1.4736222382298754
2.5612165927886963,0.22509932168064412,[0.2166182],5.0,0.6,0.0,-4.117993211077408,0.2504417187172484,1.4732516582627233
2.5717997550964355,0.22959349216558755,[0.22040077],5.0,0.6,0.0,-3.9484658965759003,0.26038225972853474,1.4717689649032217
2.5822064876556396,0.23389226393379428,[0.22421952],5.0,0.6,0.0,-3.470718672929106,0.23909841130042758,1.4725745662611733
2.5947375297546387,0.23858183313547435,[0.22809819],5.0,0.6,0.0,-3.218886346634025,0.24439962265335766,1.470604743445414
2.604400396347046,0.24268520618694442,[0.23204153],5.0,0.6,0.0,-3.0490201231226193,0.2486404988148216,1.4707245298811338
2.6132583618164062,0.2462023830882045,[0.23603819],5.0,0.6,0.0,-2.9012333256972083,0.2527708513987481,1.4733231995839378
2.622767686843872,0.24971955998946457,[0.24007752],5.0,0.6,0.0,-2.7538207950740174,0.25419300260232647,1.475964564348535
2.634197235107422,0.254213730474408,[0.24416361],5.0,0.6,0.0,-2.6014913096386305,0.25493794248724005,1.47498906543912
2.643561601638794,0.2581217048091414,[0.2482919],5.0,0.6,0.0,-2.445303271270779,0.25148954809340396,1.4764291308208684
2.652470827102661,0.26202967914387476,[0.25244355],5.0,0.6,0.0,-2.288204866893352,0.25504490186557727,1.477906654895789
2.6611266136169434,0.26554685604513484,[0.25660867],5.0,0.6,0.0,-1.8571652034111172,0.25926242788001375,1.4815878514732712
2.6692514419555664,0.26886863422965823,[0.26077835],5.0,0.6,0.0,-1.6735663677964567,0.24436751687500724,1.4849141627188835
2.67828631401062,0.2721904124141816,[0.26493772],5.0,0.6,0.0,-1.8604828207871367,0.2563814442041444,1.4869648092110488
2.6873178482055664,0.2759029880321784,[0.26908039],5.0,0.6,0.0,-1.8328269171124227,0.2626630404783661,1.4882392370984885
2.696275234222412,0.27942016493343846,[0.27320702],5.0,0.6,0.0,-1.7193394132841748,0.26762176866896137,1.4901133864888254
2.704303741455078,0.2827419431179618,[0.27731755],5.0,0.6,0.0,-1.5791446869745156,0.27214960525709686,1.4922795943721745
2.7129106521606445,0.28645451873595856,[0.28140507],5.0,0.6,0.0,-1.4380374967809864,0.2502438449403506,1.493376581913133
2.7214515209198,0.28997169563721864,[0.28545714],5.0,0.6,0.0,-1.3061904093922925,0.2604559421504956,1.4946636254118089
2.730276107788086,0.29329347382174203,[0.28946903],5.0,0.6,0.0,-1.4627400964765502,0.2678773657091693,1.4954888111450821
2.7402098178863525,0.2973968468732121,[0.29344244],5.0,0.6,0.0,-1.3888178635586217,0.2688149106800712,1.4954436705962395
2.7482521533966064,0.3005232263409988,[0.29737263],5.0,0.6,0.0,-0.9620247226130318,0.24460518208564216,1.4973282595868755
2.7599916458129883,0.30501739682594226,[0.30125518],5.0,0.6,0.0,-1.04323026874829,0.27491475586324615,1.496363644369091
2.7692151069641113,0.3089253711606756,[0.30509726],5.0,0.6,0.0,-0.9840252154541292,0.2715775624675261,1.4963531093665785
2.7785751819610596,0.31283334549540903,[0.30889916],5.0,0.6,0.0,-0.8790486066841672,0.24086038216259611,1.4963343435180434
2.787307024002075,0.3163505223966691,[0.31264985],5.0,0.6,0.0,-0.7687305294370634,0.24648438141029802,1.496825040272788
2.800166606903076,0.3216262877485592,[0.3163501],5.0,0.6,0.0,-0.6684281676640749,0.26386086968117956,1.4941153481994927
2.8109130859375,0.3255342620832926,[0.3200104],5.0,0.6,0.0,-0.5823871769986371,0.25581806002276153,1.4936635590904364
2.8204526901245117,0.3296376351347627,[0.32363381],5.0,0.6,0.0,-0.5102974899322031,0.24667211154266416,1.4926229419837505
2.8344123363494873,0.3353041979201261,[0.32722189],5.0,0.6,0.0,-0.4502735932881978,0.2508434519076805,1.4868693189169098
2.842190742492676,0.3384305773879129,[0.33077552],5.0,0.6,0.0,-0.4001361384030641,0.21812239357375343,1.488229272205349
2.852186679840088,0.34253395043938295,[0.33428153],5.0,0.6,0.0,-0.3579066005315954,0.18059248188770666,1.4863765059588576
2.8658761978149414,0.34780971579127296,[0.33773314],5.0,0.6,0.0,-0.3219521449277701,0.23125951531707636,1.4798201618306113
2.876258134841919,0.3519130888427431,[0.34114268],5.0,0.6,0.0,-0.014947826960963445,0.2173922950270304,1.4770665638798994
2.884711980819702,0.35562566446073984,[0.34451626],5.0,0.6,0.0,0.04514474051779857,0.20659289570310016,1.475616882409541
2.893174171447754,0.35875204392852655,[0.34784603],5.0,0.6,0.0,0.013772399632305296,0.17090794901228998,1.4764923292668
2.903257131576538,0.3628554169799967,[0.35112146],5.0,0.6,0.0,-0.04125616577387537,0.16991428449735818,1.4728372532681728
2.9121899604797363,0.36656799259799333,[0.3543386],5.0,0.6,0.0,-0.0929515340593033,0.1698750021407173,1.4705248703739489
2.920192003250122,0.3698897707825168,[0.35749919],5.0,0.6,0.0,-0.13263607448885287,0.17101104576460335,1.4697482423503319
2.9321916103363037,0.37497013741767016,[0.36061002],5.0,0.6,0.0,-0.43535979245204176,0.19187529583731366,1.4594552627350106
2.9411680698394775,0.3786827130356669,[0.36367777],5.0,0.6,0.0,-0.48400194197993895,0.15294600951760157,1.4557947982163182
2.9492204189300537,0.3818090925034536,[0.36669574],5.0,0.6,0.0,-0.4357797947575627,0.12222948396626014,1.4552036998827869
2.9592161178588867,0.3857170668381871,[0.36965941],5.0,0.6,0.0,-0.36030019441680566,0.16641111821636861,1.4496408366264466
2.9715399742126465,0.39040663603986714,[0.3725845],5.0,0.6,0.0,-0.5620995755822454,0.18742040315008637,1.4382148528825396
2.9802093505859375,0.3939238129411272,[0.37548564],5.0,0.6,0.0,-0.5320573517857001,0.15075137011256592,1.4340560812288075
2.9923033714294434,0.39900417957628065,[0.37836747],5.0,0.6,0.0,-0.42668546549126424,0.1747989101615094,1.4182163116113915
3.001210927963257,0.40271675519427735,[0.38123526],5.0,0.6,0.0,-0.3119578606825885,0.13888246732292225,1.4117674222848808
3.0117013454437256,0.4068201282457474,[0.3840895],5.0,0.6,0.0,-0.2122724650977916,0.14171799109601638,1.401790091836684
3.020582675933838,0.4101419064302709,[0.38693201],5.0,0.6,0.0,-0.13382361646302487,0.14747786270310248,1.3978478090054083
3.0281999111175537,0.41307288718132085,[0.38977081],5.0,0.6,0.0,-0.35155069346786705,0.15428592333596622,1.39699955083951
3.038174867630005,0.4169808615160543,[0.39260829],5.0,0.6,0.0,-0.3430213058974525,0.1215375913547689,1.3878938287660114
3.049210548400879,0.4216704307177344,[0.39544191],5.0,0.6,0.0,-0.2591416647014145,0.12961529234714625,1.371408467745267
3.057166337966919,0.4251876076189945,[0.39827632],5.0,0.6,0.0,0.11221168598991371,0.13875145662054436,1.3651482895565719
3.0672011375427246,0.4292909806704645,[0.40112232],5.0,0.6,0.0,0.22818953459688088,0.14171565185671992,1.3532180264775266
3.0782413482666016,0.4335897524386713,[0.40399014],5.0,0.6,0.0,-0.03887595379661217,0.14156398376981102,1.3392649972253263
3.088189125061035,0.43769312549014133,[0.40688935],5.0,0.6,0.0,-0.10203408278514398,0.14078772164781062,1.3271378729888959
3.0982062816619873,0.4416010998248747,[0.40982877],5.0,0.6,0.0,-0.08630958854407228,0.13985397372389072,1.3171742096378032
3.106199264526367,0.4447274792926615,[0.41281637],5.0,0.6,0.0,-0.04713682846640616,0.1420321027280622,1.3157349632982518
3.117204189300537,0.44902625106086824,[0.41585922],5.0,0.6,0.0,-0.0072909092624365325,0.13795698835641845,1.3025104557175013
3.125199317932129,0.4523480292453916,[0.41896352],5.0,0.6,0.0,0.025288533442631295,0.13847021358330455,1.3001903103060286
3.136557102203369,0.45684219973033496,[0.42213459],5.0,0.6,0.0,0.04903461419972822,0.13297046651072153,1.285899842169718
3.146684408187866,0.4607501740650684,[0.42537685],5.0,0.6,0.0,0.06483618169531342,0.13036296145118517,1.2785995157819356
3.1561288833618164,0.46446274968306517,[0.42869397],5.0,0.6,0.0,-0.20173907576253294,0.1289321861878952,1.2742037200431817
3.168532609939575,0.4693477176014819,[0.43209653],5.0,0.6,0.0,-0.23013114335045998,0.1072495958613632,1.2576132084130414
3.1772549152374268,0.4726694957860053,[0.43559336],5.0,0.6,0.0,-0.1736721572384412,0.12204562073864379,1.2596043934659267
3.1872918605804443,0.4765774701207387,[0.43917695],5.0,0.6,0.0,-0.37457263298800525,0.12108591757554571,1.255860866545839
3.195964813232422,0.47970384958852547,[0.44284093],5.0,0.6,0.0,-0.3396385337901594,0.1231451061013446,1.2619399153651942
3.2062861919403076,0.48400262135673217,[0.44658751],5.0,0.6,0.0,-0.507365877580066,0.11914509880303187,1.255608715354937
3.2172789573669434,0.488301393124939,[0.45041864],5.0,0.6,0.0,-0.7023936201610128,0.11486468407804805,1.2501291463083493
3.226290225982666,0.4916231713094623,[0.45432785],5.0,0.6,0.0,-0.5846897369416023,0.11990683206144238,1.2568998479179565
3.235551595687866,0.495335746927459,[0.45830992],5.0,0.6,0.0,-0.6576720908614487,0.1032520030359298,1.2598715581701718
3.2461655139923096,0.49904832254545584,[0.46237733],5.0,0.6,0.0,-0.49425834112650174,0.1030707043632832,1.2639979123555083
3.2562813758850098,0.5027608981634525,[0.46654086],5.0,0.6,0.0,-0.5558809180495121,0.10227572917409183,1.2689900921297157
3.2661831378936768,0.5064734737814492,[0.47080151],5.0,0.6,0.0,-0.3955479718456461,0.10060828451108458,1.2751893187933458
3.2782280445098877,0.5109676442663927,[0.47516961],5.0,0.6,0.0,-0.4655003909901695,0.034666840232473246,1.273748596258239
3.2862002849578857,0.5138986250174427,[0.47965405],5.0,0.6,0.0,-0.5907277334476884,0.11149837255668925,1.290676357255971
3.295680284500122,0.5172204032019662,[0.48423434],5.0,0.6,0.0,-0.4268333136648784,0.14285186343702455,1.304298661430849
3.30517578125,0.5205421813864896,[0.48888366],5.0,0.6,0.0,-0.4718979861142348,0.13974339549910192,1.318194722982054
3.316004991531372,0.5244501557212229,[0.49359822],5.0,0.6,0.0,-0.5700224226634596,0.1288140962922728,1.3264126902040814
3.326214551925659,0.527967332622483,[0.49838456],5.0,0.6,0.0,-0.6597481912366583,0.11859736543867515,1.3391094879039962
3.3376691341400146,0.5320707056739531,[0.50325848],5.0,0.6,0.0,-0.7218047143977846,0.08309389310324874,1.3466341274401548
3.3457181453704834,0.5348062877082664,[0.50824333],5.0,0.6,0.0,-0.4784609848841581,0.08967280352197317,1.368216332143862
3.355673313140869,0.5385188633262632,[0.5133482],5.0,0.6,0.0,-0.45331051047683174,0.09408685712535958,1.3808340400720067
3.366225004196167,0.54223143894426,[0.51856966],5.0,0.6,0.0,-0.22171876854677905,0.0997953193736051,1.39402914470839
3.376495122909546,0.54574861584552,[0.52390329],5.0,0.6,0.0,0.03500525578141657,0.10728176753252797,1.4089686481795707
3.3848233222961426,0.5484841978798334,[0.52934354],5.0,0.6,0.0,-0.025414112328592635,0.11906846258209296,1.4293466519817364
3.39324951171875,0.5516105773476201,[0.53487377],5.0,0.6,0.0,-0.1761690035149354,0.1953477496721357,1.4454932030280918
3.4027884006500244,0.5547369568154068,[0.54047773],5.0,0.6,0.0,-0.04921611608548977,0.1495165663705641,1.4601488304801238
3.4122254848480225,0.5582541337166669,[0.5461497],5.0,0.6,0.0,0.14362822083967028,0.21390506919762722,1.4711063544868463
3.422187089920044,0.5615759119011904,[0.55187315],5.0,0.6,0.0,0.04328728215793763,0.21710057814112688,1.481346039466707
3.430168390274048,0.5645068926522403,[0.55763186],5.0,0.6,0.0,0.1431243753730751,0.2272442941111187,1.4905760709931577
3.4412665367126465,0.5684148669869737,[0.56342841],5.0,0.6,0.0,0.28673225464362945,0.19375014407232324,1.4949782000849585
3.449246406555176,0.5713458477380239,[0.56925397],5.0,0.6,0.0,0.4137080429068124,0.20775105774869376,1.498997804032847
3.461151123046875,0.5758400182229672,[0.57508113],5.0,0.6,0.0,0.782276761259471,0.23099281573219677,1.4994294920750986
3.4714839458465576,0.5799433912744373,[0.58090216],5.0,0.6,0.0,1.4252613851575886,0.22097171911929744,1.498306299096214
3.4808411598205566,0.5830697707422241,[0.58671752],5.0,0.6,0.0,1.7412993558000776,0.24723987958729482,1.495090298644387
3.488278865814209,0.5858053527765374,[0.59250928],5.0,0.6,0.0,2.14715605708132,0.33426497911781655,1.4876316084479781
3.4982690811157227,0.5897133271112708,[0.59825312],5.0,0.6,0.0,2.2030173840209963,0.3453552629209318,1.4819204721889085
3.5062692165374756,0.5930351052957942,[0.60393528],5.0,0.6,0.0,2.385168699374721,0.35895504936493416,1.4723003223799662
3.514448404312134,0.5965522821970541,[0.60955082],5.0,0.6,0.0,2.268716257009285,0.37142750602469093,1.4629553254559857
3.5248939990997314,0.600851053965261,[0.61509438],5.0,0.6,0.0,2.60309149298105,0.3790228591060227,1.4552188930492618
3.53529953956604,0.6051498257334678,[0.6205667],5.0,0.6,0.0,2.435788129269573,0.37293184210590236,1.4491790282708599
3.5431604385375977,0.6082762052012545,[0.62596099],5.0,0.6,0.0,2.1095024380139815,0.38386244199215686,1.4360641296916892
3.5511882305145264,0.6114025846690411,[0.63123911],5.0,0.6,0.0,1.768704689371709,0.39441454812323146,1.421996128937641
3.5601816177368164,0.6151151602870378,[0.63636311],5.0,0.6,0.0,1.466761174220434,0.41105429278245553,1.4120626399162262
3.572157621383667,0.6200001282054547,[0.64133324],5.0,0.6,0.0,1.2170968560413575,0.40472603321620626,1.4118976812280322
3.581156015396118,0.6237127038234513,[0.6461684],5.0,0.6,0.0,0.7410591377901867,0.41898531772324593,1.4036584952915274
3.5927112102508545,0.6284022730251315,[0.65088358],5.0,0.6,0.0,0.2736836415300382,0.4171112495750856,1.4038032913178133
3.600165843963623,0.6313332537761815,[0.65548534],5.0,0.6,0.0,0.1706528810206962,0.4180730250990795,1.389861903460151
3.6122798919677734,0.6360228229778616,[0.65997359],5.0,0.6,0.0,-0.07356922433092478,0.42415642891046884,1.3916047748415825
3.6231467723846436,0.6403215947460684,[0.66435335],5.0,0.6,0.0,-0.3159699120130881,0.41733114519629194,1.3908417621980325
3.6321587562561035,0.6440341703640652,[0.66862929],5.0,0.6,0.0,-0.507936333601878,0.4116115763354982,1.385856115439517
3.6411938667297363,0.6475513472653252,[0.67280075],5.0,0.6,0.0,-0.6410940654035181,0.40689474769990963,1.3799819009975984
3.650311231613159,0.6512639228833219,[0.67686796],5.0,0.6,0.0,-0.7223223012665462,0.40196718535739584,1.3767301274411539
3.6605167388916016,0.6553672959347919,[0.6808322],5.0,0.6,0.0,-0.7627280070081341,0.3961053040341694,1.3779328232570835
3.668325901031494,0.6584936754025786,[0.68469583],5.0,0.6,0.0,-0.7731590378756653,0.3962320320760004,1.371254661785172
3.6771793365478516,0.6624016497373121,[0.68845755],5.0,0.6,0.0,-0.7626784191143581,0.3622264512382284,1.3726001352405128
3.686826705932617,0.6663096240720454,[0.69211313],5.0,0.6,0.0,-0.7383034257079013,0.36979280586471075,1.374915782347757
3.70019793510437,0.671389990707199,[0.69567063],5.0,0.6,0.0,-0.7052260513043642,0.39836604658454794,1.3884060612638855
3.7106831073760986,0.6756887624754058,[0.69914874],5.0,0.6,0.0,-0.667168498740877,0.39265655283751894,1.3954364825278702
3.718573808670044,0.6788151419431923,[0.70256045],5.0,0.6,0.0,-0.6267322418119985,0.3939519096653665,1.3930656842630609
3.727703809738159,0.6825277175611891,[0.70591372],5.0,0.6,0.0,-0.5856921439922333,0.3935548424455814,1.3961335551449627
3.7391536235809326,0.6874126854796059,[0.70921719],5.0,0.6,0.0,-0.5452269222633848,0.38809948268231653,1.4090723447313263
3.74821138381958,0.690929862380866,[0.71247427],5.0,0.6,0.0,-0.5060924796971853,0.3582240289741558,1.4111556601435584
3.756155490875244,0.6942516405653893,[0.71568381],5.0,0.6,0.0,-0.46874898235258344,0.37151186389786534,1.412062439483012
3.7651453018188477,0.6977688174666494,[0.71884609],5.0,0.6,0.0,-0.4334524460765564,0.34433407866459315,1.4148427164921031
3.77315354347229,0.7006997982176995,[0.72195666],5.0,0.6,0.0,-0.4003199438042202,0.32485753544046714,1.4134730139739882
3.7851691246032715,0.7055847661361163,[0.72501933],5.0,0.6,0.0,-0.6454139562657552,0.38023168009947705,1.42693225757027
3.79447865486145,0.7094927404708496,[0.72805704],5.0,0.6,0.0,-0.649745716950023,0.3832014522087305,1.4330809605809522
3.8021352291107178,0.712814518655373,[0.73108436],5.0,0.6,0.0,-0.5679320494286332,0.3580396774899313,1.435182018255987
3.811918258666992,0.7169178917068433,[0.73410234],5.0,0.6,0.0,-0.4671089662609918,0.3683988123878001,1.4424868297023299
3.8248422145843506,0.7218028596252599,[0.73712642],5.0,0.6,0.0,-0.3737159294619341,0.38353723319245403,1.4540194356280192
3.8342387676239014,0.7257108339599934,[0.74018439],5.0,0.6,0.0,-0.29597545343178494,0.3795934626594317,1.4589035505186814
3.8451881408691406,0.7300096057282001,[0.74330146],5.0,0.6,0.0,-0.23449408697385776,0.3613124205733596,1.465241375395608
3.8542730808258057,0.7337221813461967,[0.74649272],5.0,0.6,0.0,-0.1871156843813927,0.37030452930975166,1.4678828099853682
3.86318302154541,0.7370439595307202,[0.74975657],5.0,0.6,0.0,-0.15103494443366794,0.37083500209069276,1.4681777112790102
3.8731515407562256,0.7411473325821902,[0.75309164],5.0,0.6,0.0,-0.12363497311442667,0.366985963961914,1.4718585331139948
3.885181188583374,0.7460323005006069,[0.7565115],5.0,0.6,0.0,-0.10275258416685981,0.33803324520924055,1.4782688264466812
3.8931407928466797,0.7495494774018672,[0.76002703],5.0,0.6,0.0,-0.08670347963300748,0.35950117308704677,1.4782778588127325
3.902135133743286,0.7532620530198638,[0.76363128],5.0,0.6,0.0,-0.07421958078612712,0.35881684592927837,1.478721292442298
3.9129388332366943,0.7573654260713338,[0.76731734],5.0,0.6,0.0,-0.06436498398195546,0.35607699438879115,1.4803836713069676
3.9256772994995117,0.762641191423224,[0.7710934],5.0,0.6,0.0,-0.056457016020558484,0.3230978651491526,1.4858112548580842
3.934252977371216,0.7659629696077473,[0.77497241],5.0,0.6,0.0,-0.05000089226695366,0.33553231106436027,1.4838951827780582
3.9451510906219482,0.7706525388094273,[0.77895592],5.0,0.6,0.0,-0.04463891515428269,0.33822914826318423,1.4863039090653696
3.957681179046631,0.7757329054445808,[0.78304294],5.0,0.6,0.0,-0.040112361929491885,0.30324679380344927,1.4893683881927302
3.967163324356079,0.7796408797793143,[0.78723061],5.0,0.6,0.0,-0.31227187164480136,0.34409685898342385,1.488472727661176
3.9795477390289307,0.7843304489809945,[0.79150706],5.0,0.6,0.0,-0.34202836464253017,0.32406458433863056,1.4896650519528911
3.9872360229492188,0.7876522271655179,[0.79586032],5.0,0.6,0.0,-0.2839730122119691,0.3481029552296376,1.4865558001506853
3.9971814155578613,0.7913648027835144,[0.80027158],5.0,0.6,0.0,-0.2052650863686918,0.3518839425690144,1.484227702805156
4.005632400512695,0.794686580968038,[0.80472343],5.0,0.6,0.0,-0.4084367164390913,0.3576059150541153,1.479929763274951
4.015578985214233,0.7987899540195079,[0.80920695],5.0,0.6,0.0,-0.3828313535243266,0.35949254356688315,1.478421943038963
4.025208473205566,0.8026979283542414,[0.81371345],5.0,0.6,0.0,-0.28383084157979577,0.3622960133917897,1.4759637963619483
4.034332990646362,0.8064105039722381,[0.81822797],5.0,0.6,0.0,-0.17660121881827018,0.3506267101287836,1.4724327543212745
4.046033620834351,0.8109046744571815,[0.82273702],5.0,0.6,0.0,-0.084976236072483,0.36673439665174257,1.4723821421335566
4.055176019668579,0.8146172500751782,[0.82724169],5.0,0.6,0.0,-0.014764979300626507,0.37031939795161906,1.4686271842947904
4.0651328563690186,0.818916021843385,[0.83174219],5.0,0.6,0.0,0.03538809867262551,0.370427532437373,1.4676323250843228
4.074692487716675,0.8230193948948551,[0.83623138],5.0,0.6,0.0,0.06912870107372092,0.37114147420297144,1.4656875149032107
4.082173585891724,0.8259503756459051,[0.8406965],5.0,0.6,0.0,0.0903442274714393,0.3578560514820435,1.4574363906041294
4.090809106826782,0.8294675525471652,[0.84511429],5.0,0.6,0.0,0.10241159865087307,0.336422488247634,1.4522075520961668
4.101489305496216,0.8337663243153719,[0.84947123],5.0,0.6,0.0,0.10801152414218287,0.3757834028865046,1.4518594190524643
4.111058473587036,0.8374788999333687,[0.85376845],5.0,0.6,0.0,0.3852071676674948,0.3533905100086709,1.4482032657657724
4.121176719665527,0.8417776717015754,[0.85800129],5.0,0.6,0.0,0.41652861443921985,0.36068276893538675,1.4485912798278349
4.134551286697388,0.8470534370534655,[0.86217786],5.0,0.6,0.0,0.3577291515964415,0.38237385318863865,1.4551858230896455
4.14496636390686,0.8509614113881988,[0.86632323],5.0,0.6,0.0,0.27678990397875025,0.38399638003652814,1.4538423645814373
4.156137228012085,0.8554555818731422,[0.87044723],5.0,0.6,0.0,0.20077862386310352,0.3802467017333338,1.4560153509273355
4.165555715560913,0.8595589549246124,[0.87454707],5.0,0.6,0.0,0.13838694901881735,0.3781487398138045,1.45605139425848
4.173088073730469,0.8624899356756623,[0.87861506],5.0,0.6,0.0,0.09057456190399121,0.3608848575145296,1.4493190221611782
4.182129144668579,0.8663979100103958,[0.8826396],5.0,0.6,0.0,0.055454164247130205,0.36769794692144403,1.4486067975618302
4.191645622253418,0.8706966817786026,[0.88661807],5.0,0.6,0.0,0.030428012779532033,0.37106784522054215,1.4505648691480828
4.201124668121338,0.8742138586798627,[0.89055581],5.0,0.6,0.0,0.01304204121034247,0.3771254326911137,1.4479893772818333
4.211654901504517,0.8785126304480694,[0.89445891],5.0,0.6,0.0,0.0012630376720890154,0.3785628224085677,1.4504147984949347
4.222130537033081,0.8826160034995394,[0.89833426],5.0,0.6,0.0,-0.006487667940039897,0.3803202702491077,1.4517881706517044
4.230130672454834,0.8857423829673262,[0.90218945],5.0,0.6,0.0,-0.011390775538328426,0.3862876606304617,1.4473361322211673
4.238677978515625,0.8892595598685864,[0.90601848],5.0,0.6,0.0,-0.014308676826098874,0.38789099640877495,1.4453760948429972
4.2500786781311035,0.8937537303535298,[0.9098109],5.0,0.6,0.0,-0.01586123631517634,0.3824385485069293,1.449740259840485
4.2591307163238525,0.8972709072547898,[0.91358077],5.0,0.6,0.0,-0.016488834606477758,0.3851029680995045,1.4481879510471791
4.268835783004761,0.9011788815895231,[0.91735664],5.0,0.6,0.0,-0.2925398453800801,0.3526490619827111,1.4489386575546477
4.276996850967407,0.9041098623405732,[0.92115727],5.0,0.6,0.0,-0.3252786651028181,0.39157921392536726,1.443455313297985
4.285667896270752,0.9080178366753067,[0.92498439],5.0,0.6,0.0,0.006491120100135944,0.38956316049797485,1.444053166362752
4.29559588432312,0.9123166084435134,[0.92884091],5.0,0.6,0.0,0.11648016378072348,0.38430544043528886,1.4468437670284817
4.303131580352783,0.9154429879113001,[0.93272992],5.0,0.6,0.0,0.1327601284263321,0.39272413938340167,1.4419703131535537
4.313775062561035,0.9197417596795069,[0.93665536],5.0,0.6,0.0,0.11417945479893253,0.36440209364399956,1.4443822561569784
4.321088552474976,0.9226727404305568,[0.94062997],5.0,0.6,0.0,0.08653383017933296,0.396004830855298,1.437537653359921
4.331216335296631,0.9269715121987636,[0.9446564],5.0,0.6,0.0,0.060183554055717015,0.3886356954952595,1.4393624259037803
4.341095209121704,0.9306840878167605,[0.94873789],5.0,0.6,0.0,0.038534729962632866,0.3806554981045225,1.4368902174783291
4.350842714309692,0.9347874608682304,[0.95288684],5.0,0.6,0.0,0.022050633241524356,0.36933431653698373,1.4365822835760045
4.359679698944092,0.9385000364862272,[0.95711432],5.0,0.6,0.0,0.01009694951236427,0.35959688724918365,1.4330482383471228
4.367524862289429,0.941626415954014,[0.96142027],5.0,0.6,0.0,0.001752095280903693,0.4013889128173061,1.4246321314160288
4.377110242843628,0.9455343902887473,[0.96579495],5.0,0.6,0.0,0.27217214098699216,0.38979694581578506,1.4211264696734345
4.387093782424927,0.9494423646234808,[0.9702399],5.0,0.6,0.0,0.3016702504183808,0.37441992037376964,1.4170609313006106
4.398423194885254,0.953936535108424,[0.9747764],5.0,0.6,0.0,0.24436681257224516,0.329164188871048,1.4167609826634455
4.406119346618652,0.9570629145762107,[0.97942231],5.0,0.6,0.0,0.16706852794269877,0.37108843624901366,1.4048270140686472
4.417460918426514,0.9615570850611541,[0.98418237],5.0,0.6,0.0,0.09601375439321219,0.3438188742959357,1.4026789673181743
4.429202556610107,0.9662466542628344,[0.98907057],5.0,0.6,0.0,0.03931763333315886,0.3412888111781744,1.401056310858494
4.437975645065308,0.969959229880831,[0.99408738],5.0,0.6,0.0,-0.002454550223931505,0.37307148808443297,1.3900892944981844
4.451213598251343,0.9754303939494579,[0.99922209],5.0,0.6,0.0,-0.03145505642649665,0.3549922721805583,1.3929632799960305
4.45946478843689,0.9789475708507178,[1.00448628],5.0,0.6,0.0,-0.05045552566522613,0.36071970719523855,1.3777027945193128
4.468187093734741,0.9822693490352413,[1.00987792],5.0,0.6,0.0,-0.062020427538319156,0.3771075158192483,1.358601836068236
4.477155447006226,0.9855911272197647,[1.01537286],5.0,0.6,0.0,-0.06824950023336968,0.35676463779252254,1.337449345033994
4.4871766567230225,0.989499101554498,[1.02096088],5.0,0.6,0.0,-0.07075791811814061,0.37098080628719304,1.3203917936787946
4.4991490840911865,0.9943840694729149,[1.02665499],5.0,0.6,0.0,-0.07074259073857386,0.4183691302516775,1.3119738917466153
4.510434865951538,0.9990736386745949,[1.03247692],5.0,0.6,0.0,-0.06906861849711522,0.4185134833652583,1.2999866129667783
4.519149541854858,1.0023954168591185,[1.03843305],5.0,0.6,0.0,-0.06634979391395263,0.42802523865485304,1.271247076236262
4.528125286102295,1.006107992477115,[1.04450514],5.0,0.6,0.0,-0.06301490602069136,0.39991746475315837,1.2446268050919804
4.538795709609985,1.0106021629620585,[1.05067688],5.0,0.6,0.0,-0.05935909556902634,0.45634738469447156,1.2252780425409011
4.547121286392212,1.013923941146582,[1.05694513],5.0,0.6,0.0,-0.055582242892506725,0.4294978924818375,1.1906184134485454
4.557125568389893,1.0178319154813154,[1.06329478],5.0,0.6,0.0,-0.05181702971347586,0.45040772913569554,1.1614126295393736
4.565111875534058,1.0211536936658387,[1.06971243],5.0,0.6,0.0,-0.04814915060009717,0.4726168090069175,1.1240075279640807
4.574600458145142,1.025061668000572,[1.07619776],5.0,0.6,0.0,-0.04463172028011269,0.49046210820343655,1.092750011098542
4.583119869232178,1.0289696423353054,[1.08273816],5.0,0.6,0.0,-0.041295465589146735,0.4967269633751232,1.0608997681791932
4.592138767242432,1.0324868192365655,[1.08929896],5.0,0.6,0.0,0.23788246742389446,0.5665865495545029,1.024345689233214
4.602700471878052,1.036980989721509,[1.09586242],5.0,0.6,0.0,0.27394466429631625,0.5303014749320505,0.9998154639967458
4.611433506011963,1.0401073691892957,[1.10244877],5.0,0.6,0.0,0.22158444075410272,0.55049409350478,0.9596134027991872
4.620099782943726,1.0436245460905555,[1.10907472],5.0,0.6,0.0,0.14804162702237117,0.5683213325917748,0.9245254020653642
4.630857706069946,1.047727919142026,[1.11574198],5.0,0.6,0.0,0.07987465433439553,0.5825769672280326,0.8964543195333314
4.640080213546753,1.0514404947600227,[1.12245123],5.0,0.6,0.0,0.301470291099905,0.5982216673783878,0.8646962528250943
4.651905059814453,1.0563254626784393,[1.12921378],5.0,0.6,0.0,0.29461031395208437,0.6460607397146028,0.845511806122293
4.66009521484375,1.059451842146226,[1.13603816],5.0,0.6,0.0,0.21195570101484917,0.6150258807491507,0.8093750277035795
4.670424938201904,1.0639460126311695,[1.14290726],5.0,0.6,0.0,0.11805612339923903,0.6294271022379955,0.7873621705339899
4.6807427406311035,1.0682447843993763,[1.14980565],5.0,0.6,0.0,0.03695991342349697,0.6443030375096515,0.7643611955618355
4.688078165054321,1.0709803664336897,[1.15671969],5.0,0.6,0.0,-0.02504885123801153,0.655545247281155,0.729868385888249
4.699615955352783,1.075474536918633,[1.16363712],5.0,0.6,0.0,-0.34486756668641405,0.6894671867574873,0.7112005419897789
4.707106828689575,1.0787963151031563,[1.17055855],5.0,0.6,0.0,-0.4067587598740931,0.6668932253329574,0.6854954268323599
4.716178894042969,1.0823134920044164,[1.17747281],5.0,0.6,0.0,-0.3689568590697344,0.6919060764317904,0.6633795416884956
4.725795030593872,1.0866122637726232,[1.18437011],5.0,0.6,0.0,-0.3018086608438476,0.7105594092920999,0.6478173493935526
4.735508918762207,1.09032483939062,[1.1912532],5.0,0.6,0.0,-0.23434740858101777,0.7298722329000523,0.6303385181718534
4.744416952133179,1.09384201629188,[1.1981241],5.0,0.6,0.0,-0.17679082194529772,0.7487024800698777,0.613590481581486
4.754501581192017,1.09794538934335,[1.20498423],5.0,0.6,0.0,-0.13123779923897355,0.7635627742922394,0.601105610631386
4.763490438461304,1.1016579649613467,[1.21183445],5.0,0.6,0.0,-0.09663014484117546,0.7795987744855859,0.5882262946977407
4.7731101512908936,1.10497974314587,[1.21866427],5.0,0.6,0.0,-0.07096279163621368,0.8146000103090137,0.5754048127502513
4.781090259552002,1.1084969200471304,[1.22545388],5.0,0.6,0.0,-0.05219945902475659,0.8008320900770369,0.5648409948105947
4.789577007293701,1.1120140969483903,[1.2321868],5.0,0.6,0.0,-0.03859786073215789,0.8835825107251287,0.5556698928356996
4.799076080322266,1.1161174699998604,[1.23884972],5.0,0.6,0.0,-0.028779470237112727,0.8662444335188403,0.5491610564101362
4.811107635498047,1.1210024379182773,[1.24545365],5.0,0.6,0.0,-0.021699413204059725,0.8591515455156893,0.5451561665680554
4.825211524963379,1.1264736019869042,[1.25204075],5.0,0.6,0.0,-0.29262427710237265,0.8967026678289375,0.5426420116147032
4.8370866775512695,1.1313585699053208,[1.25864656],5.0,0.6,0.0,-0.3220411503959143,0.8923128965504129,0.5390692079017432
4.846609592437744,1.1350711455233173,[1.2652791],5.0,0.6,0.0,-0.26423875098418576,0.8972650432676451,0.5336289886811002
4.855062484741211,1.1385883224245774,[1.27192318],5.0,0.6,0.0,-0.1861633366378385,0.8808218897501744,0.5285373798536324
4.8670971393585205,1.1434732903429943,[1.27856563],5.0,0.6,0.0,-0.1141603801686058,0.920270092309427,0.5259817386846758
4.878698348999023,1.1479674608279375,[1.2852271],5.0,0.6,0.0,0.21961496737572142,0.9596120863528952,0.5230613495549439
4.886090517044067,1.1508984415789878,[1.2919352],5.0,0.6,0.0,0.2955899695255385,0.9632400248976933,0.5186528913188848
4.895451545715332,1.1548064159137212,[1.29868062],5.0,0.6,0.0,0.2705709304156216,0.9314698030613127,0.5158690359031871
4.904947996139526,1.1585189915317178,[1.30543368],5.0,0.6,0.0,0.2145385762859471,0.9490093780910839,0.5133084479862472
4.916104316711426,1.1630131620166613,[1.31217966],5.0,0.6,0.0,0.1565916190891208,0.9621315930722288,0.51165880947162
4.924076795578003,1.1663349402011847,[1.31890614],5.0,0.6,0.0,0.10715898214297584,1.0311774051247364,0.5094997136625549
4.932106256484985,1.169656718385708,[1.32559226],5.0,0.6,0.0,0.06857424955162211,1.0226089745013929,0.5077223876806801
4.943084478378296,1.1743462875873882,[1.3322419],5.0,0.6,0.0,0.03999075036031882,1.0263891565563232,0.50683035095176
4.954899311065674,1.1792312555058049,[1.33887988],5.0,0.6,0.0,-0.2564597355129574,1.0302761095521191,0.506062826877407
4.9641993045806885,1.182748432407065,[1.34550627],5.0,0.6,0.0,-0.3037219222769846,1.0577314307759882,0.5049328082168159
4.972074747085571,1.1860702105915883,[1.35208974],5.0,0.6,0.0,-0.2581209981753679,1.1236012378867017,0.5039864233189187
4.980066299438477,1.1890011913426384,[1.35860437],5.0,0.6,0.0,-0.18818487597620995,1.116788704318427,0.503146735194234
4.988109588623047,1.192127570810425,[1.36505033],5.0,0.6,0.0,-0.39748082437444904,1.1064034637939366,0.5024100776595001
4.998605489730835,1.196426342578632,[1.37143939],5.0,0.6,0.0,-0.3761151397381748,1.0929285044740777,0.5020802005034815
5.007071495056152,1.199943519479892,[1.37777175],5.0,0.6,0.0,-0.28002250766887116,1.1738833521510266,0.5017333592910012
5.017067193984985,1.2038514938146252,[1.38403791],5.0,0.6,0.0,-0.1747651285272533,1.1582781893091867,0.5014906149245553
5.029043912887573,1.2085410630163056,[1.39025223],5.0,0.6,0.0,-0.08445842132298054,1.143299679838512,0.5013499125719633
5.0401434898376465,1.2130352335012489,[1.39645976],5.0,0.6,0.0,-0.015110603795382448,1.1842383639321556,0.5011956644081428
5.051146745681763,1.217138606552719,[1.40269909],5.0,0.6,0.0,0.034493693171554096,1.1828516865279466,0.5010205579199071
5.061373472213745,1.2218281757543992,[1.40898135],5.0,0.6,0.0,0.06790183577626435,1.18221739035557,0.5009036637572312
5.07109808921814,1.225931548805869,[1.41530491],5.0,0.6,0.0,0.08893244755199109,1.1874569124027758,0.5007615496674085
5.079066753387451,1.2292533269903925,[1.42166801],5.0,0.6,0.0,0.10091448879293285,1.1985633794674162,0.5006008166472489
5.088566541671753,1.2333567000418626,[1.42806883],5.0,0.6,0.0,0.10649532862025671,1.2075064247711456,0.5005008122660733
5.103013038635254,1.2390232628272257,[1.4345163],5.0,0.6,0.0,0.10767667808178416,1.2454250375956992,0.5004705152107575
5.114317893981934,1.2435174333121695,[1.44102826],5.0,0.6,0.0,0.38196317478951336,1.2436296378867278,0.5003002802418849
5.122206926345825,1.2466438127799562,[1.44759715],5.0,0.6,0.0,0.41145317675994036,1.2162485483283971,0.5001847663030393
5.13445258140564,1.2517241794151095,[1.45420477],5.0,0.6,0.0,0.351578168929459,1.2635613322197583,0.5001827371345078
5.146165609359741,1.2564137486167894,[1.46086715],5.0,0.6,0.0,0.27008494140368305,1.3008562066851586,0.5001796904964043
5.155057191848755,1.2601263242347864,[1.46758599],5.0,0.6,0.0,0.1938733410691288,1.3161069894252062,0.5001546776401484
5.169484376907349,1.2657928870201498,[1.47433957],5.0,0.6,0.0,0.13151614866087039,1.37322084850105,0.5001539866155628
5.177098751068115,1.2687238677711998,[1.48112922],5.0,0.6,0.0,-0.19214861130014527,1.324586676478404,0.5000930954745512
5.187071084976196,1.2730226395394069,[1.48794433],5.0,0.6,0.0,-0.2601139606062376,1.321802450474548,0.5000468829836586
5.197808027267456,1.2773214113076135,[1.49477332],5.0,0.6,0.0,-0.22970931578611542,1.3549338874041568,0.500038857709374
5.206076383590698,1.2804477907754,[1.50161502],5.0,0.6,0.0,-0.1706499035837121,1.3220487785582833,0.5000347254670332
5.2158284187316895,1.28455116382687,[1.50844701],5.0,0.6,0.0,-0.11153714575961962,1.3300561152965504,0.5000349798241251
5.229411363601685,1.2904131253289703,[1.51525792],5.0,0.6,0.0,-0.06230018888287875,1.359963062864036,0.5000377394242751
5.239084005355835,1.2941257009469669,[1.52205541],5.0,0.6,0.0,-0.024850659451054715,1.3608222754403356,0.5000302666316254
5.247084617614746,1.2972520804147536,[1.52881726],5.0,0.6,0.0,0.0019861156647422978,1.3788268667809067,0.5000219966522081
5.25714373588562,1.3011600547494875,[1.53549702],5.0,0.6,0.0,0.02028276323087025,1.3811985055984466,0.5000166858545334
5.26613450050354,1.304872630367484,[1.54207335],5.0,0.6,0.0,0.032109733529630036,1.4115122146841554,0.5000122029595059
5.27603006362915,1.3089760034189541,[1.54854619],5.0,0.6,0.0,0.03922102658922062,1.4442763897029451,0.5000092022991687
5.286060810089111,1.3128839777536871,[1.55491561],5.0,0.6,0.0,0.04299207357738258,1.4713974288922635,0.5000067874138117
5.297811031341553,1.3177689456721042,[1.56119001],5.0,0.6,0.0,0.04445515751983516,1.4260935260328595,0.5000056619866033
5.308066129684448,1.3216769200068375,[1.56737679],5.0,0.6,0.0,0.0443636295223286,1.51918785832825,0.5000042426749448
5.316049814224243,1.3248032994746242,[1.57346621],5.0,0.6,0.0,0.0432565432454268,1.536324238123241,0.5000028653998566
5.325065851211548,1.3285158750926211,[1.57945048],5.0,0.6,0.0,0.3175520747547359,1.549180228901947,0.4999283343359069
5.334074258804321,1.332033051993881,[1.5853319],5.0,0.6,0.0,0.34856211362888273,1.5625764986660087,0.49991224049299704
5.346013069152832,1.3369180199122979,[1.59112079],5.0,0.6,0.0,0.2911595711247729,1.5271304266051409,0.4999393375245317
5.355470657348633,1.3408259942470313,[1.59683407],5.0,0.6,0.0,0.21270074563922794,1.555553037160946,0.49996835213646934
5.363074779510498,1.343952373714818,[1.60247847],5.0,0.6,0.0,0.1398165649281904,1.5798714073251563,0.4999870139156285
5.373067617416382,1.3478603480495512,[1.6080446],5.0,0.6,0.0,0.08089761539055638,1.607920215561728,0.49999644664933063
5.381148815155029,1.3511821262340749,[1.61351003],5.0,0.6,0.0,0.036699299318132234,1.6078457156625119,0.5000000511312778
5.392543315887451,1.3558716954357548,[1.61886398],5.0,0.6,0.0,0.005198315683541836,1.619722642648267,0.5000009625583323
5.400130033493042,1.3589980749035415,[1.62411311],5.0,0.6,0.0,0.2597470398749267,1.6276586222672365,0.49995056421962975
5.412155866622925,1.3636876441052217,[1.62926352],5.0,0.6,0.0,0.2788841882328136,1.630847057448824,0.4999428543808332
5.421065092086792,1.3674002197232182,[1.63432778],5.0,0.6,0.0,-0.060802218953281195,1.6398336781044611,0.49999789557924995
5.429030895233154,1.3705265991910052,[1.6393168],5.0,0.6,0.0,-0.17472140735302755,1.6504229044865104,0.49997780617708854
5.439062595367432,1.374629972242475,[1.64422598],5.0,0.6,0.0,-0.19220224861935822,1.6467122431794943,0.4999729876506129
5.447643756866455,1.3781471491437352,[1.64904492],5.0,0.6,0.0,-0.17300215528470406,1.6561154832990381,0.4999781432592401
5.460102319717407,1.3828367183454155,[1.65377857],5.0,0.6,0.0,-0.14356279287865725,1.6607020750854853,0.4999850784035609
5.471060276031494,1.3871354901136221,[1.65844458],5.0,0.6,0.0,-0.11469711117421366,1.6638064384080498,0.49999061124002475
5.4820826053619385,1.391434261881829,[1.66305115],5.0,0.6,0.0,-0.09012426884553998,1.6651246940287912,0.4999943444997356
5.490643739700317,1.3953422362165622,[1.6675986],5.0,0.6,0.0,-0.07052106961211575,1.6672967432996915,0.49999666245749813
5.500331163406372,1.3992502105512956,[1.67208717],5.0,0.6,0.0,-0.05539645047435708,1.6687577881049467,0.49999805776891426
5.509199619293213,1.4027673874525557,[1.67651703],5.0,0.6,0.0,-0.04392285435788456,1.6716595657403237,0.49999887355728384
5.51819372177124,1.4064799630705522,[1.68088244],5.0,0.6,0.0,-0.03527779666405141,1.6520237819358294,0.4999993618544209
5.5280537605285645,1.4103879374052857,[1.68517289],5.0,0.6,0.0,-0.028762755744251085,1.65903082966873,0.49999966057813044
5.539093732833862,1.4148821078902292,[1.68939196],5.0,0.6,0.0,-0.023826284931497056,1.6771422984888626,0.4999998623090064
5.547165632247925,1.418008487358016,[1.69354337],5.0,0.6,0.0,-0.020050127728460574,1.6823973335740108,0.49999995526346946
5.5558154582977295,1.421525664259276,[1.69760736],5.0,0.6,0.0,-0.017124459843561885,1.6630404612745169,0.5000000213246935
5.56607985496521,1.4260198347442192,[1.70156816],5.0,0.6,0.0,-0.014823032899101592,1.6635435347584628,0.5000000905798868
5.575735330581665,1.4299278090789527,[1.70543125],5.0,0.6,0.0,0.2630563534165158,1.6652210913306265,0.4999487465465725
5.586081027984619,1.434031182130423,[1.70920825],5.0,0.6,0.0,0.2976797233300437,1.6648468125888007,0.4999343053735719
5.595775604248047,1.437548359031683,[1.71291003],5.0,0.6,0.0,0.2438240589985048,1.6666763767283306,0.49995600664070156
5.605071544647217,1.4412609346496796,[1.71654681],5.0,0.6,0.0,0.16878483315509468,1.6669785488228306,0.4999790553257879
5.619222164154053,1.44712289615178,[1.72013401],5.0,0.6,0.0,0.09915653541729867,1.670710903569622,0.4999930168053616
5.629058837890625,1.4512262692032498,[1.72369146],5.0,0.6,0.0,0.04331005467460755,1.6657799619162668,0.4999989599974872
5.639740943908691,1.45532964225472,[1.72723676],5.0,0.6,0.0,0.001992429689436144,1.6663889565902208,0.5000003756785663
5.647072792053223,1.4584560217225064,[1.73077935],5.0,0.6,0.0,-0.026820464150944526,1.6562288136907564,0.49999982638854135
5.657160758972168,1.4625593947739768,[1.73431557],5.0,0.6,0.0,-0.045810539163245574,1.6537914327615664,0.49999882269896473
5.667118310928345,1.466662767825447,[1.73784262],5.0,0.6,0.0,-0.05747982579057882,1.65140719439731,0.49999795031501054
5.675678253173828,1.4697891472932336,[1.74136441],5.0,0.6,0.0,-0.06388489618928553,1.6536810991990347,0.49999735444336546
5.684479713439941,1.4735017229112304,[1.74488432],5.0,0.6,0.0,-0.06661130683232219,1.6529403334784356,0.49999709789678376
5.692119598388672,1.4764327036622804,[1.74839918],5.0,0.6,0.0,-0.06683583532993483,1.6302913208891374,0.4999970509493966
5.701036691665649,1.4801452792802772,[1.75190021],5.0,0.6,0.0,-0.065410067338172,1.637765345014795,0.49999720006125076
5.709862232208252,1.483857854898274,[1.75538585],5.0,0.6,0.0,-0.06293887898720724,1.6416780407164406,0.4999974457746295
5.718065500259399,1.4871796330827973,[1.75885471],5.0,0.6,0.0,-0.05984532451944617,1.6149676262175947,0.4999977222712523
5.727080821990967,1.4906968099840574,[1.76229942],5.0,0.6,0.0,-0.05642099961664801,1.626096040220284,0.49999802171040014
5.737457036972046,1.494995581752264,[1.76572467],5.0,0.6,0.0,-0.05286373636990978,1.6503779300681425,0.49999834999349807
5.745126724243164,1.497926562503314,[1.76913959],5.0,0.6,0.0,-0.04930518215690748,1.6246887213416221,0.4999985986496682
5.755005836486816,1.5018345368380475,[1.77253981],5.0,0.6,0.0,-0.04583067536738898,1.624873214315926,0.4999988678091807
5.764348983764648,1.5053517137393075,[1.77592061],5.0,0.6,0.0,-0.04249342003371891,1.6245485874845156,0.4999990936438548
5.772055149078369,1.5088688906405676,[1.77927753],5.0,0.6,0.0,-0.31536287682062775,1.5917459924993862,0.49992641751679007
5.781025171279907,1.5125814662585644,[1.78260094],5.0,0.6,0.0,-0.34550298392031964,1.5967161180060663,0.49991161167651815
5.790960311889648,1.5170756367435079,[1.78588697],5.0,0.6,0.0,-0.2876115842646424,1.593716070954926,0.4999389558603107
5.801016330718994,1.5207882123615046,[1.78913681],5.0,0.6,0.0,-0.20892206635717261,1.5922941708918685,0.4999680653099494
5.811243295669556,1.5248915854129745,[1.79235095],5.0,0.6,0.0,-0.1359794979787889,1.5863115319520782,0.49998684768271456
5.819198846817017,1.5278225661640248,[1.79552916],5.0,0.6,0.0,-0.07711478136491487,1.5847558793147052,0.49999616909904254
5.828502416610718,1.5317305404987582,[1.79867074],5.0,0.6,0.0,-0.03304205179942344,1.5778792919852547,0.49999983396155157
5.838343143463135,1.5354431161167548,[1.80177906],5.0,0.6,0.0,-0.0017096560594015292,1.5981489200918366,0.5000006875532145
5.8470470905303955,1.5389602930180148,[1.80485697],5.0,0.6,0.0,0.019587712870897882,1.558353234247903,0.5000004371353267
5.8560168743133545,1.5426728686360116,[1.80789868],5.0,0.6,0.0,0.03337225051734233,1.5557137659317213,0.4999999470864135
5.865606069564819,1.5465808429707448,[1.81089985],5.0,0.6,0.0,0.04171812733129293,1.5526863229444043,0.4999995588101936
5.874263763427734,1.5502934185887418,[1.81386188],5.0,0.6,0.0,0.3222647809132442,1.5507416336514248,0.49992362138497776
5.88205623626709,1.553615196773265,[1.81678256],5.0,0.6,0.0,0.3572506833842788,1.5171594246337254,0.4999059673720837
5.8907341957092285,1.5569369749577884,[1.81965225],5.0,0.6,0.0,0.3022316943275137,1.4906667110995464,0.4999330198190023
5.900055408477783,1.5608449492925216,[1.82246397],5.0,0.6,0.0,0.22505795778767884,1.5080350867785413,0.4999634316996507
5.910092830657959,1.564948322343992,[1.82522217],5.0,0.6,0.0,0.15271270700732886,1.5189523981706448,0.49998394606943913
5.91968560218811,1.568660897961989,[1.82793685],5.0,0.6,0.0,0.09383527380574483,1.5279982557602358,0.49999489431045213
5.927599191665649,1.5719826761465123,[1.83061833],5.0,0.6,0.0,0.049355166887145474,1.5364770611329757,0.49999973479719917
5.935953378677368,1.5756952517645089,[1.83327717],5.0,0.6,0.0,-0.2586684023351345,1.5414618548201027,0.4999519211566056
5.946129560470581,1.579798624815979,[1.83592407],5.0,0.6,0.0,-0.5899244674388748,1.5432074407368908,0.4997430122521693
5.955507516860962,1.5835112004339755,[1.83856968],5.0,0.6,0.0,-0.5826052905587984,1.5456189105042721,0.49974962843941273
5.965186595916748,1.5872237760519723,[1.8412244],5.0,0.6,0.0,-0.46066426588044196,1.5470681907981523,0.49984454446038046
5.974023103713989,1.5907409529532324,[1.84389232],5.0,0.6,0.0,-0.3194558297094551,1.5156692569268793,0.49992675209074766
5.985479354858398,1.5952351234381759,[1.84657779],5.0,0.6,0.0,-0.19503941995372526,1.5502854655415357,0.49997494077597504
5.997045993804932,1.599924692639856,[1.84929706],5.0,0.6,0.0,-0.37336704719655867,1.5424034569352418,0.49990020686912306
6.007046461105347,1.604028065691326,[1.85206427],5.0,0.6,0.0,-0.3347772409317957,1.537265771487004,0.4999211094722477
6.01603889465332,1.607545242592586,[1.8548793],5.0,0.6,0.0,-0.22965475737664037,1.5095805543265337,0.4999655991603426
6.02725625038147,1.6120394130775293,[1.85774199],5.0,0.6,0.0,-0.12032616652101506,1.5322707379589449,0.4999949286336608
6.035642862319946,1.6153611912620527,[1.86066464],5.0,0.6,0.0,-0.028971727378868585,1.5303228198041952,0.5000053095097786
6.046042442321777,1.6198553617469964,[1.86365739],5.0,0.6,0.0,0.03958535220299983,1.5229286242953506,0.5000057066931751
6.055461645126343,1.6237633360817296,[1.86672211],5.0,0.6,0.0,0.08730081265950768,1.518974366951479,0.5000017878417966
6.063034772872925,1.6268897155495166,[1.86985999],5.0,0.6,0.0,0.11819172451904214,1.5194285304395272,0.499997054237051
6.07203483581543,1.630602291167513,[1.87306501],5.0,0.6,0.0,0.1363775577827145,1.4977702908467374,0.49999398453047844
6.081005334854126,1.6341194680687734,[1.87632514],5.0,0.6,0.0,0.42141887640382514,1.5051392747210948,0.4998758433653927
6.0909423828125,1.6382228411202433,[1.87963668],5.0,0.6,0.0,0.45713442457641446,1.5067359456735077,0.499853131200522
6.101010322570801,1.6423262141717134,[1.88300307],5.0,0.6,0.0,0.4002955074168476,1.5062373105699793,0.4998900380655756
6.111077785491943,1.6462341885064469,[1.88642724],5.0,0.6,0.0,0.31964990059172194,1.5062229341058775,0.49993369297767964
6.119049310684204,1.6493605679742336,[1.88991211],5.0,0.6,0.0,0.24282540618388626,1.5094283458994946,0.4999655258200382
6.13127326965332,1.6540501371759135,[1.89346786],5.0,0.6,0.0,0.1789140590377534,1.4939770380686663,0.4999866717743307
6.140798330307007,1.6581535102273839,[1.89710304],5.0,0.6,0.0,0.12915693255921104,1.5011863556840226,0.49999856308559104
6.150138854980469,1.6622568832788538,[1.90080254],5.0,0.6,0.0,0.09186143597580537,1.485631253999461,0.5000051308434151
6.160778284072876,1.666751053763797,[1.90455386],5.0,0.6,0.0,0.06456239133772117,1.4938659387191164,0.500009146503998
6.170853614807129,1.6704636293817938,[1.90836935],5.0,0.6,0.0,0.04489427401127044,1.4934433643702636,0.5000106296994162
6.179772138595581,1.6741762049997908,[1.91225968],5.0,0.6,0.0,0.030881526283082737,1.4928992581663134,0.5000112165844802
6.1916892528533936,1.6790611729182072,[1.91622644],5.0,0.6,0.0,0.02098165131846775,1.4865140963284553,0.5000126864552222
6.20098352432251,1.682773748536204,[1.92027102],5.0,0.6,0.0,0.014035317811155096,1.485869864301983,0.5000124637294362
6.21098518371582,1.6870725203044108,[1.92439464],5.0,0.6,0.0,0.009191404205832606,1.4823969657874763,0.5000127589858988
6.2250988483428955,1.6925436843730375,[1.9286153],5.0,0.6,0.0,0.0058345165434089625,1.4059634667771912,0.5000144081207653
6.234011888504028,1.6960608612742978,[1.93294783],5.0,0.6,0.0,0.0035242456919882927,1.409235134705503,0.5000133528689835
6.245465040206909,1.7003596330425044,[1.93737865],5.0,0.6,0.0,0.0019476459670800584,1.4245884664915214,0.5000131930923377
6.256733179092407,1.7046584048107114,[1.94190438],5.0,0.6,0.0,0.0008834705411330217,1.408114347150605,0.5000129142994271
6.266005516052246,1.708761777862181,[1.94652987],5.0,0.6,0.0,0.00017588742384786366,1.398267676411458,0.5000122898700311
6.274564027786255,1.712474353480178,[1.95124961],5.0,0.6,0.0,-0.0002845428268601557,1.4178146225569348,0.5000111649590011
6.2819976806640625,1.7157961316647015,[1.95604909],5.0,0.6,0.0,-0.0005744935929135396,1.4959695889342879,0.5000096909066333
6.292017459869385,1.7197041059994347,[1.96089752],5.0,0.6,0.0,-0.0007475653962829924,1.5132722733758626,0.5000088517090135
6.3010194301605225,1.7234166816174314,[1.96576803],5.0,0.6,0.0,-0.0008411477462493144,1.517216579402067,0.500007913805021
6.310560941696167,1.7271292572354282,[1.97065463],5.0,0.6,0.0,-0.0008812600728245244,1.5185489817987998,0.5000070604389687
6.321078300476074,1.731428029003635,[1.97556038],5.0,0.6,0.0,0.2751524010897385,1.5165967047347952,0.4999503006114795
6.33301043510437,1.7365083956387886,[1.98049555],5.0,0.6,0.0,0.032256873524537225,1.4596044517571027,0.5000059755938308
6.345290422439575,1.7413933635572052,[1.98548407],5.0,0.6,0.0,-0.05593242537720388,1.436219636872215,0.500004353452957
6.353993654251099,1.745105939175202,[1.99053605],5.0,0.6,0.0,0.19915919692506298,1.5109276989790534,0.499976335698654
6.365157604217529,1.749209312226672,[1.99564154],5.0,0.6,0.0,0.23789159757593242,1.4638003759536702,0.4999631851513795
6.376025438308716,1.7537034827116156,[2.00079857],5.0,0.6,0.0,0.19674247356049218,1.4936437255588912,0.4999761613177283
6.388120889663696,1.7587838493467687,[2.00600404],5.0,0.6,0.0,0.13532892248262798,1.5109183541372295,0.4999912805974643
6.395995378494263,1.761714830097819,[2.01124579],5.0,0.6,0.0,0.07743485352571254,1.5328715300790605,0.4999994419190804
6.406020164489746,1.7656228044325524,[2.01651228],5.0,0.6,0.0,0.030744712671274644,1.546512855135621,0.500002705315934
6.415992259979248,1.7697261774840223,[2.02179272],5.0,0.6,0.0,-0.003835573123867517,1.5569826790928039,0.5000030173504499
6.428753614425659,1.7750019428359125,[2.02708449],5.0,0.6,0.0,-0.027900204411439623,1.524375608060908,0.5000024439633346
6.439570188522339,1.7796915120375927,[2.03239179],5.0,0.6,0.0,-0.04367171254992832,1.546768276074936,0.500001420893867
6.447991609573364,1.7828178915053792,[2.03770243],5.0,0.6,0.0,-0.05325218793746682,1.5814002002032292,0.5000001647301838
6.45600700378418,1.7861396696899028,[2.04299068],5.0,0.6,0.0,-0.05837983420041404,1.5914712776331146,0.49999932376594824
6.4660162925720215,1.790047644024636,[2.04823438],5.0,0.6,0.0,-0.060398858684857906,1.5868546020560161,0.4999989060481417
6.4762492179870605,1.7941510170761064,[2.05341469],5.0,0.6,0.0,-0.0603085060002779,1.597837878247788,0.49999874314049975
6.485204219818115,1.797668193977366,[2.05852329],5.0,0.6,0.0,-0.05883239880539561,1.6085556691314524,0.49999865273606003
6.495048522949219,1.8015761683120999,[2.06356067],5.0,0.6,0.0,-0.05648455023956224,1.6150345464460967,0.49999871734609175
6.503842830657959,1.8050933452133597,[2.06852691],5.0,0.6,0.0,-0.05362427757696285,1.622450439887761,0.49999879749717946
6.514928340911865,1.809587515698303,[2.07342188],5.0,0.6,0.0,-0.050498964830051875,1.6243782294636966,0.499999000915072
6.5250022411346436,1.8138862874665098,[2.07824557],5.0,0.6,0.0,-0.04727613102002827,1.6265424957513726,0.49999918697756907
6.5354461669921875,1.8181850592347166,[2.08300417],5.0,0.6,0.0,-0.04406692027937986,1.6298595567558702,0.49999936477870544
6.545694351196289,1.8224838310029234,[2.08770888],5.0,0.6,0.0,-0.04094304316435102,1.6334172526609556,0.4999995283307682
6.5530407428741455,1.82561021047071,[2.0923564],5.0,0.6,0.0,-0.03794886361071154,1.6259960566198497,0.49999958818934787
6.560973167419434,1.82912738737197,[2.09693145],5.0,0.6,0.0,0.24092840525496076,1.6317395854890167,0.499957381635162
6.569375038146973,1.8324491655564934,[2.10142716],5.0,0.6,0.0,0.27672384725291715,1.6369239934830446,0.4999435197635044
6.5769946575164795,1.8353801463075436,[2.10583806],5.0,0.6,0.0,0.22412512085286895,1.6161557088805063,0.49996305170701977
6.587292194366455,1.8392881206422769,[2.1101594],5.0,0.6,0.0,0.15036772879436477,1.6482812023973632,0.49998359274508747
6.5960166454315186,1.8428052975435372,[2.11439296],5.0,0.6,0.0,0.08200673813949447,1.6225905251059618,0.4999953858659551
6.603996276855469,1.8461270757280606,[2.11853499],5.0,0.6,0.0,0.027387896103265648,1.6293074219316042,0.4999998001718864
6.6136040687561035,1.849839651346057,[2.12258212],5.0,0.6,0.0,-0.01275704884409963,1.6308265638603978,0.5000002245559845
6.621363401412964,1.8527706320971074,[2.12653191],5.0,0.6,0.0,0.2355775848760109,1.6032729503962315,0.4999589991314478
6.6290130615234375,1.8558970115648938,[2.13037295],5.0,0.6,0.0,-0.025284587855710652,1.578645611125177,0.49999981005885646
6.639296293258667,1.8601957833331009,[2.13410084],5.0,0.6,0.0,-0.12420254471294018,1.6229364389268202,0.4999888212453117
6.648954153060913,1.864103757667834,[2.13772196],5.0,0.6,0.0,-0.15068962171913106,1.5876989051389505,0.49998341106666866
6.657986640930176,1.8678163332858309,[2.14123723],5.0,0.6,0.0,0.1290252243572549,1.59042396735254,0.4999879287481355
6.667967796325684,1.871724307620564,[2.14464717],5.0,0.6,0.0,0.17660460654069365,1.5900315058135532,0.4999771222536252
6.675986051559448,1.8750460858050875,[2.14795722],5.0,0.6,0.0,0.1382770314572883,1.5904310468758942,0.4999861062605587
6.685009241104126,1.8785632627063478,[2.15116871],5.0,0.6,0.0,-0.19812802865639084,1.55574081406735,0.4999711305290519
6.69451904296875,1.882666635757818,[2.15427923],5.0,0.6,0.0,-0.2881811815057294,1.5575301779222877,0.4999385735058696
6.703315496444702,1.8863792113758147,[2.15729099],5.0,0.6,0.0,-0.2783407469963739,1.5561866220903005,0.49994275379865555
6.713909387588501,1.8904825844272846,[2.16020997],5.0,0.6,0.0,-0.2348641709504133,1.5496363409698422,0.49995941915077297
6.723963975906372,1.894390558762018,[2.16304138],5.0,0.6,0.0,-0.18599893672702,1.5420377717994633,0.4999747860828434
6.735608816146851,1.899080127963698,[2.16579321],5.0,0.6,0.0,-0.14245096183216394,1.5558812783600982,0.4999855571945157
6.7429797649383545,1.9020111087147482,[2.16847247],5.0,0.6,0.0,-0.1071798481291169,1.5157571152690943,0.4999921293296966
6.752352476119995,1.905528285616008,[2.17108184],5.0,0.6,0.0,-0.07998923715588854,1.53582309362778,0.4999959867318994
6.762762546539307,1.9102178548176882,[2.17362685],5.0,0.6,0.0,-0.05960689330072784,1.514531939399763,0.49999829565994264
6.771983861923218,1.913930430435685,[2.17610937],5.0,0.6,0.0,-0.0445741740704334,1.472241655827828,0.4999995912981217
6.780985116958618,1.9178384047704187,[2.17852502],5.0,0.6,0.0,-0.03358536053429662,1.46520702099585,0.5000004114160395
6.79066014289856,1.921746379105152,[2.18087067],5.0,0.6,0.0,-0.025583534877099717,1.4291237245092825,0.5000009844966634
6.801393985748291,1.9256543534398853,[2.18314709],5.0,0.6,0.0,-0.019756863773227044,1.454445283132216,0.5000014513922489
6.809659957885742,1.9293669290578819,[2.18535833],5.0,0.6,0.0,-0.015500577580018486,1.4164201317956129,0.5000018534903342
6.819624662399292,1.9332749033926153,[2.1875055],5.0,0.6,0.0,-0.012372642773836479,1.4113458473025717,0.5000023184292234
6.829127550125122,1.9371828777273485,[2.18958985],5.0,0.6,0.0,-0.010053873014102283,1.4039303754604673,0.5000028508106171
6.839349269866943,1.9410908520620822,[2.19161824],5.0,0.6,0.0,-0.008315574177494553,1.4191470926088192,0.5000034835353673
6.84900426864624,1.9449988263968156,[2.19359934],5.0,0.6,0.0,-0.006994676866952423,1.4013208422326677,0.5000042483539194
6.857525587081909,1.9485160032980757,[2.19553546],5.0,0.6,0.0,-0.005975217214466274,1.3621192233726043,0.5000049851878298
6.866003751754761,1.9518377814825991,[2.19742118],5.0,0.6,0.0,-0.005174815215242951,1.331593760570077,0.5000057535152796
6.876983404159546,1.9561365532508057,[2.19925234],5.0,0.6,0.0,-0.004534928377633111,1.3275074192106477,0.5000073328768261
6.88496470451355,1.959458331435329,[2.20103092],5.0,0.6,0.0,-0.004013886780693736,1.3248852831453974,0.5000085219177223
6.896969795227051,1.9641479006370093,[2.20276381],5.0,0.6,0.0,-0.003581944613273763,1.3360198956572167,0.5000113266370911
6.906991720199585,1.9682512736884794,[2.20445943],5.0,0.6,0.0,-0.0032177781386428543,1.3179640903094416,0.500014240792145
6.916977882385254,1.9723546467399493,[2.20612261],5.0,0.6,0.0,-0.0029060137295528927,1.3005704943949339,0.5000179155187838
6.927508354187012,1.9770442159416295,[2.20775736],5.0,0.6,0.0,-0.27867384553732594,1.3025222989258922,0.49996599657570395
6.936966419219971,1.980756791559626,[2.20936711],5.0,0.6,0.0,-0.5875993331368841,1.2603053629540313,0.49977191963324763
6.9469895362854,1.9846647658943595,[2.21095034],5.0,0.6,0.0,-0.5654161915811922,1.2469825710597777,0.49979775115712866
6.95598840713501,1.9881819427956196,[2.21250581],5.0,0.6,0.0,-0.4340458740341365,1.2354997093205997,0.4999023528690675
6.9669647216796875,1.9924807145638264,[2.21403477],5.0,0.6,0.0,-0.28726909566338954,1.219529919598091,0.49999307704470675
6.978856801986694,1.9973656824822434,[2.21554031],5.0,0.6,0.0,-0.15997179564991518,1.2208889684530537,0.500054317640658
6.987997770309448,2.00107825810024,[2.21702503],5.0,0.6,0.0,-0.06121371312222699,1.180544232467238,0.5000862348813009
6.999053001403809,2.0055724285851833,[2.21848685],5.0,0.6,0.0,0.010325270252273849,1.1633250171416387,0.5001153893923991
7.007988452911377,2.00869880805297,[2.21992378],5.0,0.6,0.0,0.059383393615202715,1.152966866093929,0.5001306363538695
7.017961502075195,2.01280218110444,[2.22133619],5.0,0.6,0.0,0.09116903589210963,1.1379854627462338,0.5001608511635265
7.026000261306763,2.0161239592889637,[2.22272451],5.0,0.6,0.0,0.1102596387960166,1.1262477302597698,0.5001870753483885
7.036005258560181,2.0202273323404336,[2.22409096],5.0,0.6,0.0,0.1203121088044532,1.1289308284971584,0.5002347587010667
7.044981241226196,2.0239399079584306,[2.22543739],5.0,0.6,0.0,0.12410058541334186,1.0909080547214347,0.5002859908408537
7.0530524253845215,2.0274570848596905,[2.22676003],5.0,0.6,0.0,0.12366303856696698,1.061076828986116,0.5003432829172356
7.061925649642944,2.0309742617609507,[2.22805405],5.0,0.6,0.0,0.1204638896059851,1.0544951749547793,0.5004122186292718
7.070960760116577,2.0346868373789473,[2.22931902],5.0,0.6,0.0,0.11553777639135446,1.0441725680041298,0.5005024977507138
7.08240532875061,2.0393764065806272,[2.23055785],5.0,0.6,0.0,0.1096050888811857,1.044249555052981,0.500659828300602
7.090146541595459,2.0426981847651504,[2.23177298],5.0,0.6,0.0,0.10316023400818164,1.0113842767283405,0.5007770554038339
7.099877595901489,2.046606159099884,[2.23296324],5.0,0.6,0.0,0.09653706086217043,0.997786107471046,0.5009557401848382
7.108739614486694,2.0499279372844073,[2.23412759],5.0,0.6,0.0,0.08995642739959697,0.9860911800726095,0.5011235644495161
7.1185057163238525,2.0540313103358776,[2.23526674],5.0,0.6,0.0,0.08356033494416107,0.9698565398166876,0.5013976430101053
7.129979133605957,2.058525480820821,[2.23638131],5.0,0.6,0.0,0.3534745579188661,0.9511273275758737,0.5016952121711483
7.140752792358398,2.062824252589028,[2.23747186],5.0,0.6,0.0,0.10475858604461986,0.9332987104721145,0.5022338964308721
7.151960372924805,2.067318423073971,[2.23853895],5.0,0.6,0.0,0.01108098273125243,0.914196896147211,0.5028417763501304
7.159972429275513,2.0706402012584944,[2.23958307],5.0,0.6,0.0,-0.015008493068830488,0.9007142019413575,0.5033180131919054
7.169806480407715,2.0747435743099647,[2.24060343],5.0,0.6,0.0,-0.014197489490750783,0.8696199596768477,0.5040788693273215
7.182565450668335,2.079823940945118,[2.24159948],5.0,0.6,0.0,-0.004708252358855479,0.8650530340813164,0.5053307252684952
7.190511703491211,2.0829503204129045,[2.2425734],5.0,0.6,0.0,0.005828919950681169,0.8513068979516241,0.5061217360284723
7.198983192443848,2.086467497314165,[2.24352716],5.0,0.6,0.0,0.01463151760914827,0.8358718273237827,0.5072007537100967
7.207955837249756,2.090375471648898,[2.24446004],5.0,0.6,0.0,0.02102751046351909,0.8059337750986587,0.5086651261140053
7.219535827636719,2.0950650408505784,[2.24537152],5.0,0.6,0.0,0.025181007803058295,0.8013628643393007,0.5109059032558234
7.228942394256592,2.0985822177518383,[2.24626251],5.0,0.6,0.0,0.02752108499875246,0.773076397849993,0.5127536502156587
7.237949371337891,2.1020993946530986,[2.24713274],5.0,0.6,0.0,0.02850237322096165,0.7609960029634634,0.5148913519010386
7.245965957641602,2.1054211728376218,[2.24798209],5.0,0.6,0.0,0.028517658152747448,0.7490314365780086,0.5171671380774532
7.256930351257324,2.109915343322565,[2.2488117],5.0,0.6,0.0,0.30391513366884104,0.730335896197506,0.5210321493839707
7.26494574546814,2.113041722790352,[2.2496226],5.0,0.6,0.0,0.33597481292237474,0.7181147335200561,0.523888018470015
7.276770114898682,2.117926690708769,[2.25041573],5.0,0.6,0.0,0.0035183252874844695,0.6966784618228798,0.5298769149643874
7.288742780685425,2.1228116586271857,[2.25119285],5.0,0.6,0.0,-0.10714949565971585,0.685445975929848,0.5370096434211853
7.296924591064453,2.1257426393782355,[2.25195543],5.0,0.6,0.0,0.15194967367306783,0.6590410048040488,0.5413224422579249
7.307949542999268,2.130236809863179,[2.25270363],5.0,0.6,0.0,0.2030232159400574,0.6493391479459223,0.5497750809761971
7.316752910614014,2.133753986764439,[2.25343752],5.0,0.6,0.0,0.1749722546698993,0.6210426218835751,0.5569700453592994
7.3270392417907715,2.137857359815909,[2.25415622],5.0,0.6,0.0,0.12467321884602092,0.6034475354594675,0.5668530644705415
7.336958169937134,2.1419607328673793,[2.25485894],5.0,0.6,0.0,0.07527104119627581,0.5850578813264032,0.578139858646549
7.34595513343811,2.145673308485376,[2.25554584],5.0,0.6,0.0,0.03464081313763132,0.5682411239493459,0.5894205514870321
7.3551344871521,2.149385884103373,[2.256217],5.0,0.6,0.0,0.004139206420915368,0.5512184753469045,0.6020208949611363
7.364534854888916,2.1530984597213694,[2.25687242],5.0,0.6,0.0,-0.017355349424684446,0.5338455862570122,0.6160413074770453
7.373971700668335,2.157006434056103,[2.25751206],5.0,0.6,0.0,-0.031657405085948144,0.5154024138161857,0.6326181092327675
7.383039712905884,2.1607190096740996,[2.25813511],5.0,0.6,0.0,-0.04054619625121743,0.49020508465627705,0.6498699207150533
7.3941473960876465,2.165213180159043,[2.25874022],5.0,0.6,0.0,-0.04551649157234407,0.4710021220153849,0.673865996010353
7.4025843143463135,2.1687303570603027,[2.25932695],5.0,0.6,0.0,-0.04773447722179122,0.45581989288466906,0.6936782260176619
7.410868167877197,2.1720521352448263,[2.25989559],5.0,0.6,0.0,-0.048071988156954445,0.4409047281645456,0.7136742485196754
7.4206318855285645,2.17596010957956,[2.26046682],5.0,0.6,0.0,-0.04716299529845386,0.625822711205879,0.7397199801800598
7.42794942855835,2.17889109033061,[2.26107805],5.0,0.6,0.0,-0.04545938091794717,0.558559814426696,0.7589953753550281
7.439960956573486,2.1833852608155535,[2.2617441],5.0,0.6,0.0,-0.043278072568668696,0.5408026731288909,0.7928700324785101
7.449474334716797,2.18709783643355,[2.26246214],5.0,0.6,0.0,-0.040838058476991256,0.493291792290006,0.8211138483088194
7.456919193267822,2.1900288171846003,[2.26322652],5.0,0.6,0.0,-0.03828828711197953,0.4544659037270356,0.8424656467759857
7.466961860656738,2.1939367915193335,[2.26402704],5.0,0.6,0.0,-0.03572817101893262,0.41239225981692046,0.8743623073083884
7.477001667022705,2.19823556328754,[2.2648369],5.0,0.6,0.0,-0.03322240792887016,0.20033215278733582,0.9118279504133406
7.485994338989258,2.2023389363390105,[2.26562396],5.0,0.6,0.0,-0.030811572597727436,0.30152307921850213,0.9488797060312982
7.495971918106079,2.206051511957007,[2.2663827],5.0,0.6,0.0,-0.028519623846774554,0.26756555500605655,0.9828874306898763
7.505631923675537,2.210154885008477,[2.26711477],5.0,0.6,0.0,-0.026359191351095913,0.25298536850693515,1.0226273340567757
7.512941360473633,2.2128904670427905,[2.26781524],5.0,0.6,0.0,-0.02433527896763467,0.24316073897031762,1.0469778222687451
7.522021055221558,2.216603042660787,[2.26848199],5.0,0.6,0.0,-0.022447846065540122,0.2318681379731461,1.08374815197226
7.5299506187438965,2.219729422128574,[2.26911379],5.0,0.6,0.0,-0.020693597655060486,0.21804250617918355,1.113997953436804
7.538942098617554,2.2236373964633076,[2.26970967],5.0,0.6,0.0,-0.01906721867699457,0.20057118336030705,1.1540763095118425
7.548516035079956,2.2277407695147775,[2.27026923],5.0,0.6,0.0,-0.017562219037824536,0.18600802220121287,1.1964673412835463
7.559760093688965,2.232039541282984,[2.27079332],5.0,0.6,0.0,0.25986685282985245,0.1691461792616981,1.2404931450554955
7.569135427474976,2.235752116900981,[2.27128342],5.0,0.6,0.0,0.2942751903876387,0.1544638011873292,1.2767959223167864
7.57853364944458,2.239269293802241,[2.27174122],5.0,0.6,0.0,-0.03567639460173733,0.14025649825802383,1.3098660422023682
7.58693265914917,2.242395673270028,[2.27216823],5.0,0.6,0.0,-0.14379459708940756,0.12365878561389668,1.337528985274974
7.595958232879639,2.2463036476047615,[2.27256573],5.0,0.6,0.0,-0.1582144567737616,0.1077981890770398,1.371132812859878
7.6069066524505615,2.250602419372968,[2.27293557],5.0,0.6,0.0,0.13821325642463755,0.08912368990532313,1.4050459055505278
7.618689298629761,2.2552919885746476,[2.27328033],5.0,0.6,0.0,-0.07532265585104095,0.07222894117235962,1.4373293118901542
7.6279051303863525,2.2590045641926446,[2.27360291],5.0,0.6,0.0,-0.1355528006479581,0.054768937322355916,1.45825952125575
7.636273384094238,2.262521741093905,[2.27390569],5.0,0.6,0.0,-0.409386486876234,0.038359423971480615,1.4742894085091565
7.645993232727051,2.2660389179951648,[2.27419056],5.0,0.6,0.0,-0.41902111554086385,0.021989556699806376,1.4866673948064806
7.655901908874512,2.2697514936131618,[2.27445936],5.0,0.6,0.0,-0.6127631745159525,0.0049393770639221705,1.495297573991706
7.666006803512573,2.273268670514421,[2.27471391],5.0,0.6,0.0,-0.8216236767515908,-0.011218708483414672,1.4990800769270591
7.674252271652222,2.276199651265472,[2.2749559],5.0,0.6,0.0,-0.9858093381712056,-0.024513497939076936,1.4989677630659048
7.682365655899048,2.2787398345830487,[2.27518692],5.0,0.6,0.0,-1.368623072799036,-0.035563022773321074,1.4960861293958625
7.689928293228149,2.281280017900625,[2.27540812],5.0,0.6,0.0,-1.7326769605470556,-0.050546388116406424,1.4908980630963784
7.699200868606567,2.2842109986516754,[2.27562058],5.0,0.6,0.0,-2.000727815400945,-0.05860351764115954,1.4823784241227738
7.70955491065979,2.287337378119462,[2.27582567],5.0,0.6,0.0,-2.7150040168134097,-0.07626117509199679,1.4683871184228006
7.71895432472229,2.289682162720302,[2.2760243],5.0,0.6,0.0,-3.956748972704872,-0.08486593257110803,1.4518604690516
7.72890043258667,2.2922223460378786,[2.27621728],5.0,0.6,0.0,-4.532849618889387,-0.09465623756667693,1.4349944255135956
7.7408223152160645,2.2949579280721917,[2.276406],5.0,0.6,0.0,-5.0,-0.10152941432807652,1.4152129618248306
7.749244451522827,2.296325719089349,[2.27659165],5.0,0.6,0.0,-5.0,-0.11030639980465132,1.4068012738508069
7.758578538894653,2.2980843075399786,[2.27677454],5.0,0.6,0.0,-5.0,-0.11603137824714645,1.3949130163174464
7.766926050186157,2.2994520985571354,[2.27695465],5.0,0.6,0.0,-5.0,-0.1231967406673583,1.3854598970867085
7.775899887084961,2.300819889574292,[2.27713196],5.0,0.6,0.0,-5.0,-0.12601781758807837,1.375576452389644
7.784898042678833,2.301601484441239,[2.27730678],5.0,0.6,0.0,-5.0,-0.12669068185321228,1.3703867476368456
7.79482626914978,2.302578478024922,[2.27747964],5.0,0.6,0.0,-5.0,-0.12813675035016517,1.3633554155712928
7.8059186935424805,2.3035554716086053,[2.27765096],5.0,0.6,0.0,-5.0,-0.12987615060075153,1.3561395798972202
7.815927028656006,2.303946269042079,[2.27782106],5.0,0.6,0.0,-5.0,-0.12854124925813887,1.3541337512460196
7.826040506362915,2.3045324651922887,[2.27799017],5.0,0.6,0.0,-5.0,-0.12860332436453065,1.350309387394989
7.833929777145386,2.3047278639090254,[2.2781582],5.0,0.6,0.0,-4.902337293293022,-0.12967744957019323,1.3507509591691966
7.847609519958496,2.3047278639090254,[2.27832528],5.0,0.6,0.0,-5.0,-0.12003690165729203,1.3515952708934866
7.85814642906189,2.3047278639090254,[2.27849202],5.0,0.6,0.0,-4.83553889162883,-0.12107894187939361,1.3542851356678713
7.866909503936768,2.3045324651922887,[2.2786584],5.0,0.6,0.0,-4.328670279401607,-0.11734085349558601,1.3609278665949351
7.877785921096802,2.3043370664755525,[2.27882432],5.0,0.6,0.0,-3.4798690842244873,-0.11116666451276463,1.3690038282778971
7.88746190071106,2.303946269042079,[2.27898997],5.0,0.6,0.0,-2.6404793954103676,-0.11018066808093797,1.3777191270571365
7.897495269775391,2.3033600728918686,[2.27915499],5.0,0.6,0.0,-1.6558801400963223,-0.10497219881626192,1.3873906065119213
7.908470392227173,2.3029692754583957,[2.27931926],5.0,0.6,0.0,-0.7917267011977593,-0.09820198919136373,1.393698864660342
7.915946960449219,2.302383079308185,[2.27948292],5.0,0.6,0.0,0.15499311151734296,-0.09659476112484087,1.400411600776137
7.924945116043091,2.3017968831579756,[2.27964562],5.0,0.6,0.0,0.9465626148472905,-0.0917971574119988,1.4058593355572577
7.933901071548462,2.301210687007765,[2.27980697],5.0,0.6,0.0,1.5264167615443913,-0.08724130307398677,1.4107169307005074
7.943987846374512,2.300429092140819,[2.27996663],5.0,0.6,0.0,1.9096092743946969,-0.08425574207071397,1.4169609047603846
7.953904390335083,2.299647497273872,[2.28012405],5.0,0.6,0.0,2.133754852412051,-0.07806886510516828,1.4232225586346028
7.96331787109375,2.298670503690189,[2.28027898],5.0,0.6,0.0,2.514532959039628,-0.07134984495770423,1.4299032002440404
7.973711729049683,2.2976935101065057,[2.28043142],5.0,0.6,0.0,2.567186144433309,-0.06480920495096361,1.4372632146671065
7.985714435577393,2.2965211178060856,[2.28058155],5.0,0.6,0.0,2.4733727662316687,-0.0552868549563379,1.4459222113686627
7.994899034500122,2.2955441242224017,[2.2807296],5.0,0.6,0.0,2.8726179425732385,-0.050488149277884385,1.4509502140289492
8.00394344329834,2.294762529355455,[2.28087551],5.0,0.6,0.0,3.0442616149832444,-0.04588105486828268,1.455313093766347
8.014337539672852,2.2935901370550353,[2.28101903],5.0,0.6,0.0,3.3495125256682847,-0.039375337006622935,1.460605494098724
8.025561332702637,2.2924177447546152,[2.28116019],5.0,0.6,0.0,3.3235547840610273,-0.030857677759460245,1.4668165920692544
8.03693699836731,2.291245352454195,[2.28129915],5.0,0.6,0.0,3.432035529590968,-0.024739773082776938,1.4717173087960926
8.046993017196655,2.2902683588705117,[2.28143603],5.0,0.6,0.0,3.7980480596519968,-0.018433810929216834,1.473895465770022
8.056533575057983,2.2892913652868283,[2.28157072],5.0,0.6,0.0,4.131866866904612,-0.015297353252739397,1.4756005979439764
8.065875768661499,2.2883143717031453,[2.28170288],5.0,0.6,0.0,4.066272959953382,-0.009503961007048985,1.4791376515737389
8.075898170471191,2.287337378119462,[2.28183237],5.0,0.6,0.0,4.1117740855084985,-0.0037142708457515656,1.4815290227160847
8.084482669830322,2.2865557832525156,[2.28195926],5.0,0.6,0.0,4.135061308649073,0.0010299527510735755,1.4832156498219935
8.092994689941406,2.2853833909520955,[2.28208353],5.0,0.6,0.0,4.3731887067903505,0.005688758268129801,1.4837888243013875
8.102565050125122,2.2846017960851484,[2.28220517],5.0,0.6,0.0,4.306733811474851,0.012340183055109586,1.4852336773826198
8.109877586364746,2.2840155999349383,[2.28232416],5.0,0.6,0.0,4.379187401717189,0.01569111582037031,1.4853542588543998
8.120349884033203,2.2832340050679916,[2.28244045],5.0,0.6,0.0,4.430053093342512,0.02233783112626161,1.4854762879815835
8.129919290542603,2.2826478089177815,[2.28255448],5.0,0.6,0.0,4.411142363084231,0.025422387637379234,1.4857213749774894
8.14041543006897,2.282061612767572,[2.28266691],5.0,0.6,0.0,4.596461315050165,0.028428202293718396,1.4844442098823118
8.147878885269165,2.2818662140508352,[2.28277799],5.0,0.6,0.0,4.757174088038171,0.02722179752925127,1.483268075714684
8.158827066421509,2.281475416617362,[2.28288775],5.0,0.6,0.0,5.0,0.02974219090527738,1.4813332031301498
8.167000770568848,2.281280017900625,[2.28299625],5.0,0.6,0.0,5.0,0.02824250325323888,1.4811431465631215
8.1775541305542,2.2810846191838885,[2.28310376],5.0,0.6,0.0,5.0,0.032888446352380904,1.4809170082822032
8.186930894851685,2.2810846191838885,[2.28321087],5.0,0.6,0.0,5.0,0.030402859681076106,1.4808282845574423
8.194982290267944,2.280889220467152,[2.28331792],5.0,0.6,0.0,4.865832824297176,0.032339658708331866,1.4815033175249805
8.204999685287476,2.280889220467152,[2.28342528],5.0,0.6,0.0,4.493158794842828,0.03314390761620063,1.4839098008329863
8.214358568191528,2.2810846191838885,[2.28353353],5.0,0.6,0.0,4.06057571853869,0.03293789562610967,1.4866768305750615
8.224001169204712,2.2810846191838885,[2.2836432],5.0,0.6,0.0,3.9182041647029324,0.033195172248301257,1.4873929290159296
8.235618114471436,2.2810846191838885,[2.28375503],5.0,0.6,0.0,3.573274506675671,0.036702997359784655,1.4891598436720903
8.24457836151123,2.2810846191838885,[2.28386998],5.0,0.6,0.0,2.909740120365135,0.036728372022623294,1.492186576070854
8.25391435623169,2.281280017900625,[2.28398864],5.0,0.6,0.0,2.234769663502004,0.035825517135433894,1.4948298555893653
8.262888669967651,2.281280017900625,[2.2841109],5.0,0.6,0.0,1.6575439427629002,0.03267450964607395,1.4963574814921154
8.271720886230469,2.281475416617362,[2.28423633],5.0,0.6,0.0,0.9255360270043361,0.0332060250447386,1.4978393731337185
8.282936573028564,2.281475416617362,[2.28436489],5.0,0.6,0.0,0.5477016757982591,0.03463302799875769,1.4981083259158574
8.290874242782593,2.2816708153340985,[2.28449655],5.0,0.6,0.0,0.34912731899765637,0.03126031348282746,1.4983135932967284
8.302470207214355,2.282061612767572,[2.28463123],5.0,0.6,0.0,0.2418142803597637,0.03443598103212898,1.498636756404344
8.30995798110962,2.282061612767572,[2.28476914],5.0,0.6,0.0,-0.09466326753154075,0.03165537377056936,1.4985282601183592
8.319874286651611,2.282257011484308,[2.28491014],5.0,0.6,0.0,-0.16382673441402795,0.03249785259838847,1.4985731915133338
8.330872058868408,2.282452410201045,[2.28505445],5.0,0.6,0.0,-0.4078464473697201,0.03644240677424086,1.4985229903506343
8.340888500213623,2.2826478089177815,[2.28520283],5.0,0.6,0.0,-0.38087360905228623,0.03555045275678734,1.4985872542836252
8.349945068359375,2.2828432076345186,[2.28535555],5.0,0.6,0.0,-0.543233884875271,0.034887907164575155,1.4985187972855796
8.360912561416626,2.2832340050679916,[2.28551247],5.0,0.6,0.0,-0.45315380474792,0.03325810112165066,1.4988094219719212
8.370287895202637,2.2834294037847283,[2.28567341],5.0,0.6,0.0,-0.5695036592504621,0.032892967249372525,1.4987520176008435
8.379401206970215,2.283624802501465,[2.2858382],5.0,0.6,0.0,-0.4473450767586626,0.03246522165251921,1.498871711939195
8.386868715286255,2.2838202012182016,[2.2860063],5.0,0.6,0.0,-0.5422671269857031,0.02846518975561587,1.49882580870683
8.398247003555298,2.2842109986516754,[2.28617716],5.0,0.6,0.0,-0.40650838620256086,0.031314603236226236,1.4991041420048774
8.40598726272583,2.2846017960851484,[2.28635029],5.0,0.6,0.0,-0.49342485050718865,0.030151786215156944,1.4992075380017629
8.414859056472778,2.284797194801885,[2.28652461],5.0,0.6,0.0,-0.6296075044261127,0.029597960890429355,1.4991083890139745
8.42387080192566,2.2849925935186217,[2.28669951],5.0,0.6,0.0,-0.748223877103132,0.028941379331733342,1.4990008893563922
8.436921834945679,2.2853833909520955,[2.28687528],5.0,0.6,0.0,-0.8296681098863845,0.030425200807006926,1.4990428078735099
8.449803352355957,2.285969587102305,[2.28705269],5.0,0.6,0.0,-0.5976741323977108,0.030129560726559635,1.499499563665362
8.459395408630371,2.286164985819042,[2.28723233],5.0,0.6,0.0,-0.5776981770142329,0.02768113792936194,1.4995238107788318
8.467888116836548,2.2865557832525156,[2.287414],5.0,0.6,0.0,-0.6228550781473186,0.02504081455954318,1.499563996528224
8.476890563964844,2.286751181969252,[2.28759695],5.0,0.6,0.0,-0.6729306869256828,0.020800736299780766,1.4995199694526629
8.48488736152649,2.2871419794027252,[2.28777992],5.0,0.6,0.0,-0.7070005856548289,0.016690282730163777,1.4995466599123222
8.496475458145142,2.2875327768361986,[2.28796214],5.0,0.6,0.0,-0.4449209982830511,0.019490892091014213,1.4998157945431472
8.506797552108765,2.2879235742696715,[2.28814375],5.0,0.6,0.0,-0.40797570568669816,0.01783595360435697,1.4998664186619695
8.516404867172241,2.2881189729864087,[2.28832484],5.0,0.6,0.0,-0.4456475531330978,0.017329876589112427,1.499843706769751
8.525498628616333,2.2883143717031453,[2.28850514],5.0,0.6,0.0,-0.4948406980208492,0.016762152607011208,1.4998104754880568
8.533875465393066,2.288509770419882,[2.28868446],5.0,0.6,0.0,-0.5324589147797962,0.016755563706612145,1.4997828944150928
8.543918371200562,2.288900567853355,[2.28886241],5.0,0.6,0.0,-0.5528130365197088,0.012567659725566612,1.4997722700516194
8.556214570999146,2.2892913652868283,[2.28903863],5.0,0.6,0.0,-0.5571070800946724,0.014779511650337782,1.4997562404415172
8.564866304397583,2.289486764003565,[2.28921307],5.0,0.6,0.0,-0.8247669849388239,0.011766496689254204,1.4994789036627674
8.574770450592041,2.289682162720302,[2.28938544],5.0,0.6,0.0,-0.840439751693316,0.011981068640286537,1.4994568684877327
8.588426351547241,2.289877561437039,[2.28955575],5.0,0.6,0.0,-0.7619095572792686,0.015267410264480365,1.4995473458491384
8.59665560722351,2.2902683588705117,[2.28972458],5.0,0.6,0.0,-0.6588238316202712,0.013413257476528632,1.4996178598060745
8.606855869293213,2.2904637575872484,[2.28989212],5.0,0.6,0.0,-0.8355499864748392,0.012998794711596994,1.4994152188722996
8.616103887557983,2.290659156303985,[2.29005832],5.0,0.6,0.0,-0.7827326379160346,0.012709620252929795,1.4994719373895566
8.625855445861816,2.290854555020722,[2.29022316],5.0,0.6,0.0,-0.6566447858293043,0.012286214228212583,1.499599402312199
8.633881092071533,2.291049953737459,[2.2903864],5.0,0.6,0.0,-0.7990791457517872,0.009702139016386287,1.4994368501066362
8.643906116485596,2.291245352454195,[2.29054765],5.0,0.6,0.0,-0.7152878201282646,0.010286812303344139,1.499521928334446
8.653839349746704,2.291440751170932,[2.29070681],5.0,0.6,0.0,-0.5659887217858602,0.010622653328121498,1.4996538648519548
8.664880514144897,2.291440751170932,[2.29086409],5.0,0.6,0.0,-0.6932094443302789,0.011964571591162005,1.4995759078304247
8.674768447875977,2.2916361498876685,[2.29101966],5.0,0.6,0.0,-0.6009407389061742,0.012015047576778773,1.499655237418685
8.683629751205444,2.2918315486044056,[2.29117372],5.0,0.6,0.0,-0.44831620283990575,0.012388272470126156,1.499763863863716
8.692068338394165,2.2920269473211423,[2.29132626],5.0,0.6,0.0,-0.2998759567253785,0.009552192612260531,1.4998348758020694
8.700840711593628,2.2920269473211423,[2.29147701],5.0,0.6,0.0,-0.4534265469350465,0.011372574548749952,1.4997864941075134
8.711942911148071,2.2922223460378786,[2.29162626],5.0,0.6,0.0,-0.39356409605936404,0.014519957818412782,1.4998136496477366
8.720373630523682,2.2922223460378786,[2.29177474],5.0,0.6,0.0,-0.5476721021465502,0.015175103356904468,1.4997367018739196
8.727855443954468,2.2922223460378786,[2.29192262],5.0,0.6,0.0,-0.45878764931477606,0.013084848364804736,1.499825371591672
8.740131616592407,2.2924177447546152,[2.29206981],5.0,0.6,0.0,-0.30304221895735445,0.01643364308184063,1.4999074316262089
8.74995732307434,2.2924177447546152,[2.29221678],5.0,0.6,0.0,-0.4277610386557784,0.017105092862760424,1.4998557310148508
8.758882284164429,2.292613143471352,[2.29236366],5.0,0.6,0.0,-0.33792127898693175,0.013934707802540093,1.4999025556112247
8.767670154571533,2.292613143471352,[2.29251007],5.0,0.6,0.0,-0.19200815575106367,0.015251050859078666,1.4999704318896823
8.778665542602539,2.292613143471352,[2.29265615],5.0,0.6,0.0,-0.3294971646710969,0.01942725963066194,1.4999188183341983
8.789089918136597,2.2928085421880886,[2.29280233],5.0,0.6,0.0,-0.25212642279579045,0.016392303679671368,1.4999526746604228
8.799877643585205,2.2928085421880886,[2.2929485],5.0,0.6,0.0,-0.11724576504714214,0.01746743401551872,1.4999858493867557
8.809696912765503,2.2928085421880886,[2.29309455],5.0,0.6,0.0,0.011932709821043531,0.018611449565030785,1.4999835339116248
8.820110321044922,2.2928085421880886,[2.29324086],5.0,0.6,0.0,0.11458797905891174,0.022268237797349592,1.49995284679624
8.82784390449524,2.2928085421880886,[2.29338775],5.0,0.6,0.0,-0.08821514049876382,0.019788975001558004,1.4999271132569523
8.836882829666138,2.2928085421880886,[2.29353501],5.0,0.6,0.0,-0.07374632716798182,0.02120858373046212,1.4998904074802195
8.845888614654541,2.2928085421880886,[2.29368246],5.0,0.6,0.0,0.008819929946052296,0.022087879743353987,1.4998472062322774
8.856848955154419,2.2930039409048253,[2.29383021],5.0,0.6,0.0,0.09752013594727556,0.022107810830653288,1.4998563866094827
8.864883422851562,2.2930039409048253,[2.29397805],5.0,0.6,0.0,0.17017219271857326,0.02015644036511718,1.4997886857732134
8.875502586364746,2.2930039409048253,[2.29412556],5.0,0.6,0.0,0.2218107883386641,0.021745174776851093,1.4997118036673673
8.883946895599365,2.2930039409048253,[2.29427263],5.0,0.6,0.0,0.2542099868401868,0.023043145495817464,1.4996300336584047
8.892857551574707,2.2930039409048253,[2.29441944],5.0,0.6,0.0,0.27120773191215825,0.024416226011755963,1.4995446019061516
8.90331220626831,2.2930039409048253,[2.29456616],5.0,0.6,0.0,0.0007237849545125019,0.025651215654919204,1.4995120110019
8.910866022109985,2.2930039409048253,[2.29471268],5.0,0.6,0.0,-0.034907642655489776,0.0237387457372152,1.4994153040906144
8.919484853744507,2.2930039409048253,[2.29485861],5.0,0.6,0.0,0.012272303922215226,0.02542186136167186,1.499312164227901
8.928917169570923,2.2930039409048253,[2.29500388],5.0,0.6,0.0,0.07700605549153115,0.026852042871980918,1.4991959529646668
8.941428661346436,2.2930039409048253,[2.29514896],5.0,0.6,0.0,0.13416864680407747,0.030866369118225948,1.4990667998039253
8.949375867843628,2.2930039409048253,[2.29529449],5.0,0.6,0.0,0.17642240840291118,0.030935184310268305,1.4989280575935073
8.95828914642334,2.2930039409048253,[2.29544072],5.0,0.6,0.0,0.2037302432293161,0.03125925449460987,1.49878223064549
8.966884136199951,2.2930039409048253,[2.29558735],5.0,0.6,0.0,0.21859223809923017,0.02903402926459784,1.4986305184602342
8.975847244262695,2.2930039409048253,[2.29573388],5.0,0.6,0.0,0.22399978662067951,0.030079142617928826,1.4984732497860067
8.983862400054932,2.2930039409048253,[2.29587983],5.0,0.6,0.0,0.22264757175940042,0.02853000914207408,1.4983103252152699
8.993342161178589,2.2930039409048253,[2.2960248],5.0,0.6,0.0,0.21670386305141234,0.030215548008838033,1.4981415860545635
9.002914667129517,2.2930039409048253,[2.29616851],5.0,0.6,0.0,0.20781055162268497,0.029169871516720486,1.4979669594941956
9.012458562850952,2.2930039409048253,[2.29631069],5.0,0.6,0.0,0.19716347066986611,0.03087152730099567,1.4977865287906402
9.020859003067017,2.2930039409048253,[2.29645112],5.0,0.6,0.0,0.1856086596632861,0.029725127613193444,1.4976005672608892
9.028971672058105,2.2930039409048253,[2.29658958],5.0,0.6,0.0,0.17372966975468634,0.03164547654177577,1.4974094748689661
9.038084506988525,2.2930039409048253,[2.29672634],5.0,0.6,0.0,0.16191854628521374,0.035293868229256085,1.4972130707178573
9.045828342437744,2.2930039409048253,[2.29686183],5.0,0.6,0.0,0.15043036671291715,0.03332198069354343,1.497010925177496
9.05749225616455,2.2930039409048253,[2.29699617],5.0,0.6,0.0,0.13942376479369284,0.03673559717428934,1.4968030308537343
9.064862728118896,2.2930039409048253,[2.29712947],5.0,0.6,0.0,0.12899040006588594,0.03467282802143908,1.496589404595635
9.075916290283203,2.2930039409048253,[2.29726158],5.0,0.6,0.0,0.11917607221120835,0.035328985298753626,1.496370488026601
9.083848714828491,2.2930039409048253,[2.29739233],5.0,0.6,0.0,0.10999568365553267,0.03599869771186033,1.4961468168004228
9.09383487701416,2.2930039409048253,[2.29752172],5.0,0.6,0.0,0.10144374917584728,0.036419318120869945,1.495918600861022
9.101953506469727,2.2930039409048253,[2.29764956],5.0,0.6,0.0,0.09350171946966095,0.03485119738681644,1.4956864410221788
9.112010955810547,2.2930039409048253,[2.29777568],5.0,0.6,0.0,0.08614304411108084,0.03799228002144224,1.4954509217889007
9.119869947433472,2.293199339621562,[2.29790015],5.0,0.6,0.0,0.07933664064122709,0.035292859946016795,1.4955855405767906
9.128874778747559,2.2930039409048253,[2.29802283],5.0,0.6,0.0,0.07304924569112076,0.03727204676340016,1.4949708383884202
9.137850999832153,2.2930039409048253,[2.29814364],5.0,0.6,0.0,0.06724698557659985,0.038013655288100724,1.494727264298275
9.150838851928711,2.2930039409048253,[2.29826283],5.0,0.6,0.0,0.06189640447397728,0.040480940824070714,1.4944812260899496
9.15884780883789,2.2930039409048253,[2.29838063],5.0,0.6,0.0,0.05696511756899655,0.038703808504932866,1.494232503543391
9.166857957839966,2.2930039409048253,[2.29849672],5.0,0.6,0.0,0.05242220649677483,0.03753996959669356,1.4939819884328536
9.178885221481323,2.2930039409048253,[2.29861084],5.0,0.6,0.0,0.04823843906846219,0.04038786177612845,1.4937305280479363
9.189843893051147,2.2930039409048253,[2.29872326],5.0,0.6,0.0,0.04438637043604639,0.04089744831676161,1.4934777713522638
9.19881272315979,2.2930039409048253,[2.29883425],5.0,0.6,0.0,0.04084036541083562,0.04151811911936396,1.4932233074455858
9.209311485290527,2.2930039409048253,[2.2989441],5.0,0.6,0.0,0.037576569437005,0.043778699900413415,1.492966683717158
9.218197345733643,2.2930039409048253,[2.29905321],5.0,0.6,0.0,0.0345728471795025,0.043789617254315565,1.492707092591647
9.226860761642456,2.2930039409048253,[2.29916159],5.0,0.6,0.0,0.03180870172142911,0.04206313085360555,1.4924446088391394
9.234861373901367,2.2930039409048253,[2.29926891],5.0,0.6,0.0,0.0292651832091487,0.04278484384397007,1.4921801237593502
9.242912530899048,2.2930039409048253,[2.29937493],5.0,0.6,0.0,0.02692479289223707,0.04172109516950608,1.4919144295643982
9.251257419586182,2.2930039409048253,[2.29947928],5.0,0.6,0.0,0.024771386499740627,0.04113535493003113,1.4916486015385337
9.261242151260376,2.2930039409048253,[2.2995817],5.0,0.6,0.0,0.022790079507483286,0.04259667161805694,1.4913835626611376
9.273083686828613,2.2930039409048253,[2.29968245],5.0,0.6,0.0,0.020967155896541977,0.045480686542527154,1.4911188517219167
9.282882928848267,2.2930039409048253,[2.29978209],5.0,0.6,0.0,0.019289981349704843,0.0460655009363332,1.4908531522444326
9.290993452072144,2.2930039409048253,[2.29988098],5.0,0.6,0.0,0.01774692138921185,0.046587792311285244,1.4905856307524386
9.300979137420654,2.2930039409048253,[2.29997925],5.0,0.6,0.0,0.01632726466134477,0.04678409453573715,1.490316010936151
9.308851957321167,2.2930039409048253,[2.30007682],5.0,0.6,0.0,0.015021151376741856,0.04544853077063642,1.4900446057286745
9.320851802825928,2.2930039409048253,[2.3001736],5.0,0.6,0.0,0.013819506788423627,0.04800320772632801,1.4897717230930085
9.334543228149414,2.2930039409048253,[2.30026999],5.0,0.6,0.0,0.012713979510628482,0.04978111409673568,1.4894963298439068
9.342914581298828,2.2930039409048253,[2.30036644],5.0,0.6,0.0,0.011696884435475279,0.04938570206745258,1.489217175535368
9.352819919586182,2.2930039409048253,[2.30046283],5.0,0.6,0.0,0.010761149980626206,0.04763870716306156,1.48893458335972
9.362141847610474,2.2930039409048253,[2.30055876],5.0,0.6,0.0,0.009900269392168853,0.04805367974271464,1.488649781077357
9.372036933898926,2.2930039409048253,[2.30065401],5.0,0.6,0.0,0.00910825582779053,0.04848266498796668,1.4883634605363367
9.381948709487915,2.2930039409048253,[2.30074853],5.0,0.6,0.0,0.008379600952464032,0.048709836633928444,1.4880758656378523
9.390905380249023,2.2930039409048253,[2.30084212],5.0,0.6,0.0,0.007709236789894684,0.047491801870112094,1.4877877423042813
9.398828268051147,2.2930039409048253,[2.30093443],5.0,0.6,0.0,0.007092500586242589,0.048244630951388416,1.4875002228121699
9.412322282791138,2.2930039409048253,[2.30102555],5.0,0.6,0.0,0.006525102457020844,0.05119521683146826,1.487213195691747
9.419940710067749,2.293199339621562,[2.30111565],5.0,0.6,0.0,0.006003095602833533,0.05070349511286272,1.4875446119317912
