t_s,q_rad,q_des_rad,jerk
0.005472660064697266,0.0009769935836833512,0.004091162484525279,0.0
0.01655125617980957,0.0009769935836833512,0.019780048709411274,0.0
0.03133845329284668,0.0009769935836833512,0.049190737844063456,0.0
0.04434490203857422,0.0011723923004200215,0.08985968428653975,0.0
0.05732250213623047,0.0015631897338933619,0.13955832710639252,0.0
0.07241487503051758,0.002540183317576713,0.19628567788036114,1.104153438714724
0.08629894256591797,0.004494170484943416,0.2582591029218586,2.616843649753896
0.10047793388366699,0.007425151235993469,0.32390369558477045,5.0
0.11797738075256348,0.013873308888303588,0.3918445631540008,5.0
0.13148784637451172,0.019344472956930356,0.4608941425561817,5.0
0.14954614639282227,0.026378826759450486,0.5300362740485265,5.0
0.1635892391204834,0.03224078826155059,0.598412117067744,5.0
0.17702817916870117,0.03751655361344069,0.6652997935219963,5.0
0.190399169921875,0.04318311639880412,0.7301028370875761,5.0
0.20406770706176758,0.04826348303395755,0.792343985146155,5.0
0.21932530403137207,0.05471164068626767,0.8516528819931326,3.7566274746881545
0.23328900337219238,0.06037820347163111,0.9077542938558509,0.8707444817497456
0.24834418296813965,0.06663096240720455,0.9604569125090503,-1.730119687208479
0.2669949531555176,0.07522850594361805,1.0096475866596804,-4.000320526175212
0.2848331928253174,0.0814812648791915,1.0552857002419718,-5.0
0.2993655204772949,0.08734322638129159,1.09738279371108,-5.0
0.31339168548583984,0.09300978916665503,1.135984147275514,-5.0
0.3264198303222656,0.09828555451854513,1.171167836959923,-5.0
0.34032106399536133,0.1037567185871719,1.2030437968898806,-5.0
0.3553183078765869,0.10981407880600867,1.2317474991051003,-5.0
0.37613677978515625,0.1182162236256855,1.2574397807608633,-5.0
0.38768768310546875,0.12329659026083893,1.2802991527782752,-5.0
0.4004688262939453,0.128572355612729,1.3005047875360212,-5.0
0.41751766204833984,0.13541131069851248,1.3182416750740493,-5.0
0.4336066246032715,0.1418594683508226,1.3337069622607922,-5.0
0.44831252098083496,0.14811222728639603,1.3470960425330845,-4.893893064004072
0.46231794357299805,0.15377879007175946,1.3585952565164225,-4.686494065135159
0.4773752689361572,0.15964075157385957,1.368384309899119,-4.429646903024675
0.4975857734680176,0.16784749767679974,1.376642812371704,-4.152522630315103
0.5076937675476074,0.1719508707282698,1.3835445765471326,-3.8716924682436815
0.5212554931640625,0.17742203479689655,1.3892446971445214,-3.8726047906510965
0.5388927459716797,0.18484718603289005,1.393892364480749,-3.6415552346366873
0.549593448638916,0.18895055908436015,1.3976325425041929,-3.336014706597597
0.5636746883392334,0.19442172315298686,1.400592435834004,-3.0245086094148146
0.5764591693878174,0.19969748850487698,1.4028883805342738,-2.733973654119514
0.5892438888549805,0.20497325385676707,1.4046290738649339,-2.196547004489937
0.6021621227264404,0.21024901920865718,1.4059122529409305,-1.9314120883392194
0.6191644668579102,0.21689257557770397,1.4068305810212713,-1.7811537993772668
0.630800724029541,0.22177754349612072,1.4074698543362076,-1.6750610136803
0.6436722278594971,0.2266625114145375,1.407900397484207,-1.583246417152851
0.6586995124816895,0.23350146650032094,1.4081846834859018,-1.494475213872493
0.6713974475860596,0.2389726305689477,1.4083804742965895,-1.4056168092744252
0.6913082599639893,0.24678857923841455,1.4085400947691227,-1.3167460210144415
0.7073290348052979,0.253041338173988,1.408713650984302,-1.5049941024112303
0.7297706604003906,0.26222507786061144,1.4089473233137015,-1.4526090354643832
0.7448160648345947,0.26808703936271155,1.4092826658086595,-1.3152619490452966
0.7576227188110352,0.27375360214807504,1.4097459528702527,-1.160869895387222
0.7742936611175537,0.28039715851712177,1.4103485094184545,-1.016393413728601
0.7883083820343018,0.28606372130248525,1.4110976777130504,-0.8903635568041715
0.8023173809051514,0.29192568280458536,1.4119976734195612,-0.7835348231781799
0.8153407573699951,0.2973968468732121,1.4130496745761454,-0.6937838927650224
0.8292772769927979,0.3032588083753122,1.4142526117129812,-0.8942976447304637
0.8422670364379883,0.30833917501046565,1.4156035305828985,-0.8634090801329246
0.8653557300567627,0.31752291469708915,1.4171068431249576,-0.7535168879140697
0.8748288154602051,0.3216262877485592,1.4187685085104955,-0.6300228414677116
0.8854625225067139,0.325925059516766,1.4205752473257809,-0.5180525926873127
0.9057395458221436,0.33413180561970607,1.4225141737847433,-0.4248507229113509
0.9187374114990234,0.33940757097159613,1.424585782505203,-0.3503024177573276
0.9329915046691895,0.345464931190433,1.426784101637542,-0.29172110937771506
0.9482886791229248,0.35171769012600645,1.4290977645952119,-0.24591096923906988
0.9612753391265869,0.3569934554778965,1.4315156026188698,-0.20996614026956645
0.9752762317657471,0.3628554169799967,1.4340254422941925,-0.18150786531745774
0.9902591705322266,0.36871737848209674,1.436615721177077,-0.15868923861598133
1.0042669773101807,0.3741885425507235,1.4392755334582488,-0.14011784686119047
1.0216615200042725,0.3814182950699803,1.44199755815959,-0.1247612150302483
1.034315586090088,0.38688945913860706,1.4447766178050205,-0.387898721040928
1.0452790260314941,0.3913836296235505,1.4476016822258477,-0.4100220689634765
1.0582706928253174,0.39646399625870393,1.4504588556857543,-0.34541515704875414
1.0702457427978516,0.401153565460384,1.4533387510156996,-0.26101143284572276
1.0832748413085938,0.4066247295290108,1.4562349469858158,-0.1831377054902465
1.0972483158111572,0.4122912923143742,1.4591416949923894,0.1560733668272793
1.1122658252716064,0.41834865253321096,1.4620538997162942,0.23707372040177122
1.125269889831543,0.42342901916836445,1.4649670955370508,0.21669527071693825
1.1392815113067627,0.4292909806704645,1.4678774186285064,0.16494440857414439
1.1552553176879883,0.4361299357562479,1.4707828294213077,0.3869833202028047
1.1709263324737549,0.4425780934085581,1.4736853691907459,0.3743129862553174
1.18916916847229,0.45000324464455155,1.4765926797893896,0.283981882847313
1.2053313255310059,0.4566468010135984,1.479512017609108,0.18239913872635163
1.2202801704406738,0.4628995599491718,1.4824420869823294,0.0943052980140614
1.234255075454712,0.4685661227345353,1.4853768757162227,0.026161050358516194
1.258279800415039,0.4781406598546321,1.488319435412936,-0.022925953882498892
1.2722992897033691,0.48380722263999554,1.4912803675664463,-0.056274883491632455
1.2862505912780762,0.48927838670862234,1.4942598282363049,-0.07754455784168865
1.3012197017669678,0.49553114564419576,1.4972491362748674,-0.36599129885637066
1.3152186870574951,0.5015885058630325,1.5002405566742476,-0.12919555960062992
1.3283488750457764,0.5068642712149226,1.5032272180761599,-0.042750945119906125
1.342217206954956,0.5121400365668127,1.506203031853228,-0.020630858226563083
1.3562440872192383,0.5180019980689128,1.5091626143093595,0.25285984425123686
1.3692543506622314,0.5232777634208029,1.5121012134100749,0.2762559736667819
1.3862109184265137,0.5305075159400596,1.5150171289860404,0.211361314283369
1.4024839401245117,0.5371510723091065,1.5179133556861255,0.12783067041806323
1.4133327007293701,0.5416452427940499,1.520789616471273,0.05263609383903265
1.4313242435455322,0.5494611914635167,1.5236419533832697,-0.00621893264997311
1.4459400177001953,0.5553231529656169,1.526471398467452,-0.04855554178514363
1.4612531661987305,0.5611851144677169,1.5292785050946682,-0.07694659829532835
1.4772188663482666,0.5676332721200271,1.5320587663360041,-0.09452952694384868
1.4902381896972656,0.5727136387551806,1.5348069413840078,-0.10415712765434126
1.5078237056732178,0.5797479925577007,1.5375206744376912,-0.10814398310189333
1.5248816013336182,0.5873685425104307,1.5402028473671505,-0.10825928824253088
1.5422286987304688,0.5940120988794776,1.5428578188884172,-0.10580693474871045
1.5582306385040283,0.600264857815051,1.5454856221334115,-0.10172405912146593
1.5745525360107422,0.6071038129008345,1.5480836852427702,-0.09667121302700096
1.5880727767944336,0.6129657744029345,1.5506501255789238,-0.0911060226436687
1.6015024185180664,0.6182415397548247,1.5531819752596552,-0.08533997130045368
1.6201915740966797,0.6254712922740814,1.5556789284452657,-0.07958071282773843
1.63523530960083,0.6317240512096549,1.5581454130904975,-0.0739629322152372
1.6502504348754883,0.638172208861965,1.5605828978790748,-0.06857053060349391
1.6642165184020996,0.6438387716473285,1.5629886677983966,-0.06345241096896066
1.6793115139007568,0.6497007331494286,1.5653600573230555,-0.05863362393004613
1.69221830368042,0.6551718972180554,1.5676954097454832,-0.05412318803717739
1.7062170505523682,0.6610338587201554,1.569994009320718,-0.04991954577652097
1.7202508449554443,0.6667004215055189,1.572256013504946,-0.04601434854561009
1.7353789806365967,0.6729531804410924,1.5744833197650798,-0.04239506590561968
1.7560479640960693,0.6811599265440325,1.5766846582118645,-0.03904677067463973
1.7699782848358154,0.6866310906126593,1.5788729854837733,-0.311991707913918
1.7852160930633545,0.6930792482649695,1.5810542002046597,-0.3422612677593699
1.8001861572265625,0.6993320072005428,1.5832284964785421,-0.28453100450035135
1.8200953006744385,0.7075387533034829,1.5854003884070391,-0.2060191761669059
1.837249517440796,0.7141823096725297,1.5875814919738103,-0.13326070114880678
1.8522276878356934,0.7204350686081032,1.5897813819656672,-0.07457978773784249
1.868267297744751,0.7270786249771499,1.5920011878949316,-0.03068626525966789
1.889969825744629,0.7356761685135634,1.5942449907245035,0.0004741832503778881
1.9050440788269043,0.741928927449137,1.5965235175293984,0.021608406526816264
1.9202218055725098,0.748377085101447,1.5988401727861936,0.0352393819771181
1.9342241287231445,0.7542390466035471,1.601189803759803,0.04344155370823774
1.949195146560669,0.7602964068223839,1.6035663510244573,0.04781593936826917
1.9678592681884766,0.767916956775114,1.6059675779049085,-0.22648550631305484
1.979034662246704,0.7724111272600575,1.608392062710849,-0.2596471092524439
1.9974312782287598,0.7800316772127877,1.6108362961052036,-0.20574521295932002
2.00773024559021,0.7843304489809945,1.6132974880345827,-0.13158128765363855
2.026599168777466,0.7915602015002512,1.6157727208424089,-0.06340515936201292
2.041195869445801,0.7976175617190879,1.618261320812664,-0.009349704172057827
2.057206630706787,0.804065719371398,1.6207605665314586,0.030000554243132534
2.071291446685791,0.8099276808734982,1.6232637985641916,0.05677918354708819
2.089341640472412,0.817743629542965,1.6257685918379852,0.34977881818556616
2.0971896648406982,0.8204792115772783,1.6282729027191056,0.39259598046347954
2.1112570762634277,0.8263411730793784,1.6307685077909186,0.3420079740430325
2.1241893768310547,0.8316169384312686,1.633248721520831,0.266851128832992
2.148123264312744,0.841386874268102,1.6357186945837636,0.19486070457672408
2.1632275581359863,0.8472488357702022,1.6381903618053948,0.1352297200212146
2.176227569580078,0.8525246011220923,1.6406671922147997,0.08928560547470153
2.192188262939453,0.8589727587744024,1.6431454155312817,0.05540661756923969
2.2113966941833496,0.8671795048773426,1.645626154219958,0.0311847287334032
2.2227563858032227,0.8714782766455493,1.64811302159615,0.014300367931967518
2.2332422733306885,0.875777048413756,1.650601585174768,0.002815115294688097
2.24621844291687,0.881052813765646,1.65308397959502,-0.004783207896189523
2.262223243713379,0.889454958585323,1.6555591942825825,-0.0096288599042048
2.283273696899414,0.8960985149543697,1.6580373411957632,-0.012551931591114934
2.2965500354766846,0.9017650777397332,1.6605332626085654,-0.014149925614942977
2.3113017082214355,0.9074316405250966,1.6630517627993888,-0.01484782665935859
2.326218843460083,0.9132936020271968,1.665590152223277,0.26109323703265097
2.3402276039123535,0.919155563529297,1.668146279220642,0.29451176674522933
2.36047101020813,0.9277531070657102,1.6707232794599876,0.23995437867007163
2.3776097297668457,0.9347874608682304,1.6733326440575707,0.16455519625753848
2.3922243118286133,0.9406494223703306,1.6759831683627087,0.0947961383716248
2.408189058303833,0.9472929787393772,1.6786733896426087,0.03896986792115009
2.431462049484253,0.9568675158594742,1.6814069100396203,-0.0022306920045337963
2.447178602218628,0.9627294773615743,1.6841954651945075,-0.030866898451393877
2.4602866172790527,0.9682006414302011,1.6870395403305618,-0.04964610107164261
2.4752185344696045,0.9742580016490379,1.6899300306189349,-0.06108754674911207
2.48915958404541,0.9799245644344012,1.6928587723325434,-0.06725930945119146
2.5127127170562744,0.989499101554498,1.6958276739103502,-0.06975448760847588
2.5282225608825684,0.9957518604900715,1.6988471314274631,-0.06975466784114048
2.543706178665161,1.002004619425645,1.7019161934238707,-0.06811436848371766
2.5571677684783936,1.0074757834942718,1.7050242713991675,-0.06544011915446235
2.5734732151031494,1.0143147385800553,1.7081642829014354,-0.062155763876951986
2.5932106971740723,1.0223260859662586,1.7113389341152137,-0.05855311282030035
2.6069486141204834,1.0277972500348853,1.7145543296208412,-0.05482983686974205
2.620239734649658,1.033463812820249,1.717805736831963,-0.051117184091468364
2.635193109512329,1.039911970472559,1.7210816670488538,-0.04749994979341802
2.6482291221618652,1.0449923371077126,1.7243718033329145,-0.04403071536510814
2.664160966873169,1.0512450960432858,1.7276668868551728,-0.31677828253062207
2.6871144771575928,1.0604288357299092,1.7309661853080929,-0.34680592297875235
2.70316481590271,1.0670723920989562,1.734276892247906,-0.2888108242631019
2.718186616897583,1.0733251510345296,1.7375973959715627,-0.21002574240140393
2.7385754585266113,1.0817272958542066,1.740921199600508,-0.13699514261169088
2.7538750171661377,1.08798005478978,1.7442469968308165,-0.07804935829779569
2.769502878189087,1.09442821244209,1.747571529190636,-0.03390199128716037
2.7841384410858154,1.1006809713776635,1.7508865589860245,-0.002500890484826032
2.7971746921539307,1.105761338012817,1.7541809594165405,-0.2571786455468634
2.811176061630249,1.1112325020814438,1.7574430829533596,-0.2764605153101193
2.8241660594940186,1.1165082674333338,1.7606626770185168,-0.2129638285684674
2.8391690254211426,1.1227610263689072,1.7638308237633977,-0.1323212511703375
2.8574421405792236,1.1301861776049007,1.7669416715101873,-0.05989193167245562
2.8702280521392822,1.1352665442400542,1.7699915798912753,-0.003150148742905177
2.881188154220581,1.1399561134417342,1.7729739546524814,0.03779711043982968
2.9027791023254395,1.148944454411621,1.7758854828829003,0.0654249884061757
2.9129984378814697,1.1532432261798278,1.7787280052805432,0.08272962894637116
2.929356813430786,1.1604729786990846,1.7814994955498267,0.09242954978537932
2.9461677074432373,1.166725737634658,1.7841984071482029,0.09672861132370233
2.959167718887329,1.171610705553075,1.7868248932708906,0.09731103113909226
2.9752817153930664,1.1782542619221215,1.7893767167837311,0.09541830018103131
2.989163398742676,1.1841162234242217,1.791851476460274,0.09194316995382833
3.002141237258911,1.1895873874928484,1.7942476455246543,0.08751546386567755
3.0161640644073486,1.195253950278212,1.7965644924630797,0.08257210694065545
3.033996820449829,1.2024837027974689,1.798803755939024,0.0774110829786437
3.0498857498168945,1.2091272591665154,1.800970504913688,0.07223163178771991
3.066179037094116,1.215966214252299,1.8030703133833064,0.06716356317394596
3.079481363296509,1.2206557834539788,1.8051067120467286,0.06228833002859392
3.0941195487976074,1.2265177449560791,1.8070808793195972,0.05765402424123755
3.1101555824279785,1.233552098758599,1.8089933479653681,0.0532859668719053
3.1241419315338135,1.2394140602606996,1.8108454189357723,0.04919414079092701
3.137111186981201,1.2446898256125896,1.8126391078553263,0.04537837845061352
3.1559178829193115,1.2525057742820562,1.8143790237381723,0.04183196293810292
3.1672000885009766,1.2571953434837364,1.8160708709631572,0.038544112496254654
3.182617425918579,1.2632527037025731,1.8177186110630794,0.03550168224119576
3.1983680725097656,1.26989626007162,1.8193280711679363,0.03269031884779658
3.209671974182129,1.27399963312309,1.8209049733526956,0.03009523420244408
3.2261111736297607,1.2808385882088735,1.822453491861071,0.027701714586166923
3.2390336990356445,1.2861143535607635,1.8239799272942112,0.3015338067399571
3.248748779296875,1.2900223278954968,1.8254869745449238,0.33262568301493967
3.2677230834960938,1.2978382765649636,1.8269770585247853,0.2756562450884934
3.2818825244903564,1.303700238067064,1.828460005872112,0.19784738225422666
3.29512882232666,1.3089760034189541,1.829943727683171,0.12573773995103177
3.309075355529785,1.3144471674875808,1.8314312442060958,0.06765522581708652
3.324150800704956,1.3206999264231545,1.8329258990361925,0.024313261929240992
3.3391430377960205,1.3265618879252543,1.8344308050168872,-0.006339030783857363
3.3602688312530518,1.3353548301784044,1.8359526437913516,-0.027005245393685557
3.372452735900879,1.3402397980968213,1.8375001211952589,-0.04020529913375236
3.390207529067993,1.3476649493328146,1.8390782970606594,-0.04801077527353499
3.4041361808776855,1.3537223095516515,1.8406917584744587,-0.05202002765617175
3.4201390743255615,1.359975068487225,1.8423424210273542,-0.05342089770442243
3.444206953048706,1.3695496056073215,1.844034996681089,-0.053074652559336806
3.4591386318206787,1.3750207696759482,1.8457797359855903,-0.051594727068911064
3.4741268157958984,1.3810781298947854,1.8475785367017425,-0.0494118056255998
3.4976999759674072,1.3910434644483554,1.8494328220116865,-0.04682433289219136
3.507591962814331,1.3951468374998257,1.8513465314122723,-0.04403632246800955
3.520724296569824,1.4002272041349793,1.8533122880067205,-0.3172233846971536
3.5381646156311035,1.407261557937499,1.8553234344854928,-0.07148547852332578
3.554141044616699,1.413709715589809,1.8573809269168424,0.019475531366868422
3.5691232681274414,1.4197670758086463,1.859482091690017,-0.23295627728053314
3.583113431930542,1.425042841160536,1.8616206755298834,-0.26916469484800803
3.6043872833251953,1.4338357834136866,1.8637961013194293,-0.22563960481171352
3.6135823726654053,1.437548359031683,1.8660097683275194,-0.16200241717612074
3.633179187774658,1.4453643077011498,1.8682585874142192,-0.3780745304368895
3.648240327835083,1.4512262692032498,1.8705418418271338,-0.3625840830228649
3.661125898361206,1.4565020345551398,1.8728569577248224,-0.2711226670839503
3.676121711730957,1.4623639960572403,1.8751967385361594,-0.16932279630344077
3.689117908477783,1.4674443626923934,1.8775547739403695,-0.08150404495653012
3.704115390777588,1.4735017229112304,1.8799253888926366,-0.013894728283669541
3.718118667602539,1.478972886979857,1.8823035880777936,0.03452811699564077
3.735604763031006,1.4860072407823772,1.8846875406396622,0.06715824047927788
3.7543325424194336,1.4936277907351074,1.8870823766615565,0.08769748519702933
3.7684133052825928,1.4990989548037343,1.889493891758126,-0.17664971904520482
3.783113479614258,1.5049609163058342,1.8919197197451765,-0.20434623473936409
3.7991178035736084,1.5110182765246711,1.894353146072255,-0.42416509560095056
3.8111112117767334,1.5160986431598242,1.8967881248993685,-0.3829534272169025
3.825110673904419,1.5215698072284511,1.8992191847395266,-0.26092470428200654
3.8461225032806396,1.5297765533313914,1.901645476599011,-0.13292725068810035
3.856001615524292,1.5336845276661246,1.9040674041938064,-0.025732254996531104
3.8753137588500977,1.5413050776188546,1.906481817781461,0.05470608712905222
3.8901097774505615,1.547167039120955,1.9088878067563904,0.11058902875704213
3.905111074447632,1.5532243993397916,1.911282524814183,-0.1294180555083351
3.921269655227661,1.559672556992102,1.913658177725122,-0.14150900575612194
3.937873363494873,1.5665115120778854,1.9160082595212509,-0.07621557223415858
3.9569807052612305,1.573741264597142,1.9183302128875337,0.002504467359291447
3.970719814300537,1.579212428665769,1.9206214433867461,0.07056101297676305
3.9839894771575928,1.5840973965841858,1.9228739870947715,0.121406437710879
3.9991841316223145,1.5901547568030223,1.925077219192283,-0.12044598611020138
4.015087366104126,1.596407515738596,1.9272211926132317,0.14292691455071865
4.02809476852417,1.6012924836570126,1.9292966430670646,-0.03485032376270639
4.044179677963257,1.6079360400260594,1.9312951865304242,-0.04444366798254107
4.057645320892334,1.6134072040946863,1.9332092009090942,0.0024742611133461018
4.081070184707642,1.6220047476310997,1.9350316567487855,0.05864472255537375
4.095067024230957,1.627671310416463,1.936755925686158,0.10641837506812904
4.110077381134033,1.6335332719185633,1.9383751842437549,0.14113424062747054
4.123104095458984,1.6386136385537167,1.939882865223168,0.16335587344399177
4.1360883712768555,1.6436940051888702,1.9412733466651528,0.1753719826008281
4.155879497528076,1.6511191564248633,1.9425408035849774,0.17971438860831007
4.171077013015747,1.6569811179269638,1.9436786091261289,0.17860423239689888
4.1803693771362305,1.6604982948282236,1.944682954762947,0.17380603004250267
4.191075325012207,1.664992465313167,1.9455546052650234,0.16664626291680384
4.20408821105957,1.669877433231584,1.94629474858047,0.15808667253362674
4.220379590988159,1.6765209896006308,1.9469021482660318,0.14880562116402504
4.234122276306152,1.681601356235784,1.947374536120474,0.13926999166300738
4.245067596435547,1.685704729287254,1.9477120096600378,0.12979291770890772
4.258108377456665,1.6907850959224076,1.947917116331132,0.1205778276796643
4.280773639678955,1.699968835609031,1.9479868958646485,0.11175102964764491
4.296093225479126,1.7054399996776577,1.9479132857795378,0.10338534090900361
4.310096263885498,1.710715765029548,1.947694382516417,0.0955169861323305
4.325153827667236,1.7167731252483849,1.9473338403576013,0.3641959161440475
4.341580152511597,1.723025884183958,1.9468343334093103,0.3904653644830248
4.357519149780273,1.729669440553005,1.9461959922141852,0.05296382048639833
4.370771408081055,1.7345544084714217,1.945418742857391,0.2138944638287124
4.385510683059692,1.7406117686902585,1.944504930958553,0.22613835601437482
4.402268409729004,1.7472553250593055,1.9434554925180836,-0.09057324513849607
4.416282415390015,1.7527264891279322,1.9422700740121843,0.10013028737179883
4.429809093475342,1.7578068557630855,1.940952882871285,0.14074789861743248
4.444085359573364,1.7626918236815023,1.9395113425190729,-0.1524068373829441
4.458054304122925,1.768162987750129,1.9379527235917968,-0.21946962762909944
4.473033428192139,1.774024949252229,1.9362841457330209,-0.19835524566415008
4.487035036087036,1.7794961133208558,1.9345125785622634,-0.15047928387256557
4.50106406211853,1.7849672773894825,1.932644840054391,-0.1012767747107049
4.514028787612915,1.790047644024636,1.930687591405769,0.2162580869388561
4.534965991973877,1.7980589914108396,1.9286411945572282,0.005192525975360851
4.550854206085205,1.8043117503464128,1.9264985288772487,-0.06000386511950562
4.56401801109314,1.809587515698303,1.9242591278916976,-0.06512302282722489
4.577115535736084,1.8146678823334566,1.9219325531553655,-0.04914319514586604
4.589379787445068,1.8191620528184,1.9195306682110165,-0.028815943086881932
4.601152658462524,1.8236562233033433,1.9170668675895897,-0.01060520695253348
4.618292570114136,1.83029977967239,1.9145499996605053,0.0035912336720297427
4.634047031402588,1.8365525386079635,1.9119811466848218,0.013754652619674169
4.649068832397461,1.8424145001100636,1.9093635648835297,-0.2555150265228043
4.663069725036621,1.8476902654619538,1.9067041474153752,-0.2844963842162812
4.679536581039429,1.8539430243975272,1.9040066390249177,-0.2271844878308571
4.694169044494629,1.8592187897494172,1.9012706301955713,-0.42628756976984367
4.706416606903076,1.8635175615176243,1.8984980324015797,-0.6650112383237381
4.7170493602752686,1.8670347384188843,1.8956977365669498,-1.139193463561178
4.730061054229736,1.8715289089038274,1.8928794383474632,-1.8614667593715413
4.74307656288147,1.8754368832385613,1.8900471879464114,-3.3321709316260613
4.764915227890015,1.8811034460239244,1.8871936497696222,-4.72445000218768
4.775022029876709,1.8834482306247644,1.8843082680131484,-5.0
4.784035921096802,1.8852068190753946,1.8813971863776047,-5.0
4.803551197052002,1.8883331985431815,1.878466558923581,-5.0
4.813540697097778,1.8893101921268645,1.8755114261341372,-5.0
4.834369659423828,1.8904825844272846,1.8725236893804036,-5.0
4.848035573959351,1.8902871857105479,1.8694875036592855,-5.0
4.861396312713623,1.8898963882770747,1.8663938502311463,-5.0
4.876040935516357,1.888919394693391,1.8632442155914828,-5.0
4.8900604248046875,1.8875516036762345,1.8600395305390458,-5.0
4.903056383132935,1.885988413942341,1.8567802728103655,-5.0
4.9156341552734375,1.8842298254917114,1.8534665716420098,-5.0
4.931037664413452,1.8814942434573978,1.8500983127574662,-5.0
4.946025371551514,1.8783678639896109,1.8466752420863222,-5.0
4.962411403656006,1.8746552883716143,1.8431945565489123,-5.0
4.981196880340576,1.869379523019724,1.83964273761236,-5.0
4.996165752410889,1.8650807512515175,1.8359998188994187,-4.770864830675512
5.009930372238159,1.860586580766574,1.8322579874541876,-3.815911026366896
5.023666143417358,1.8560924102816307,1.8284226277416604,-2.7628939120956453
5.03804874420166,1.8508166449297407,1.8245017199169078,-2.121257296461494
5.053046941757202,1.8451500821443771,1.8205028195121473,-2.8126945095161595
5.069767951965332,1.8385065257753306,1.8164314621325601,-2.1120259327419695
5.0900633335113525,1.8295181848054431,1.8122796881012089,-0.7948436503583853
5.1043524742126465,1.8236562233033433,1.8080302606716732,0.7561678950615182
5.114425182342529,1.8193574515351367,1.8036881538515432,2.35474461448729
5.125978708267212,1.8144724836167199,1.7992803961383979,3.9126891675568647
5.1415698528289795,1.8078289272476729,1.7948239344412529,5.0
5.153911352157593,1.8023577631790462,1.7903226131882606,5.0
5.165132522583008,1.7980589914108396,1.785787019118843,5.0
5.1834070682525635,1.7904384414581092,1.7812232763841933,5.0
5.194999694824219,1.7855534735396927,1.7766254246669528,5.0
5.212263584136963,1.778128322303699,1.7719893427836144,5.0
5.2260260581970215,1.7722663608015992,1.76730960351043,5.0
5.239536762237549,1.7664043992994989,1.7625849804123497,5.0
5.254040718078613,1.7607378365141355,1.7578212034621596,5.0
5.269055366516113,1.7548758750120355,1.7530230322925069,5.0
5.284031867980957,1.749209312226672,1.748194332565862,5.0
5.304438591003418,1.741588762273942,1.74332604989448,5.0
5.31721830368042,1.7368991930722617,1.7384000403160818,5.0
5.327301979064941,1.7335774148877383,1.7334216087088044,5.0
5.347468137741089,1.7271292572354282,1.7283992421236631,5.0
5.361003875732422,1.7226350867504847,1.7233183755842567,5.0
5.374380826950073,1.7185317136990148,1.7181729856910761,5.0
5.388041257858276,1.7142329419308078,1.712971204641815,5.0
5.401461601257324,1.7103249675960746,1.7077200616410262,5.0
5.4160401821136475,1.706416993261341,1.7024255750767217,5.0
5.432025194168091,1.7021182214931343,1.6970928446233193,5.0
5.446010112762451,1.6984056458751378,1.6917261419037868,5.0
5.4590020179748535,1.6948884689738777,1.686328998661538,4.742681475192103
5.473029851913452,1.691175893355881,1.680904291676676,4.473439631536188
5.486990451812744,1.6878541151713575,1.6754543238705832,3.9217947942487585
5.499999284744263,1.6847277357035708,1.6699809011746054,3.6130055342442216
5.513015270233154,1.681210558802311,1.6644854048087838,2.845652943757364
5.5314621925354,1.6757393947336838,1.6589612945117775,1.4902153983652933
5.543309211730957,1.6724176165491607,1.6533988555347308,-0.09097331334086856
5.557647705078125,1.6677280473474807,1.6477988596423891,-1.7193747252946152
5.566981792449951,1.6646016678796938,1.6421703670238024,-3.032949861753277
5.58100962638855,1.659716699961277,1.6365259932312515,-4.511252982591726
5.594034671783447,1.655027130759597,1.6308721392000294,-5.0
5.60985255241394,1.64896977054076,1.625205667031597,-5.0
5.624499797821045,1.6429124103219235,1.6195188397358076,-5.0
5.641714334487915,1.63607345523614,1.6137965422612108,-5.0
5.652324438095093,1.63197008218467,1.6080296910166094,-5.0
5.665967226028442,1.625912721965833,1.6022272589632165,-5.0
5.678438901901245,1.620636956613943,1.5963999136142553,-4.938650042206356
5.6924755573272705,1.6147749951118429,1.5905525240943434,-4.126372104456763
5.709826946258545,1.6073498438758493,1.5846784475400535,-3.1771117000803692
5.719372749328613,1.6030510721076425,1.578770770354525,-2.0499387182019593
5.738718748092651,1.5952351234381759,1.5728281207882946,-0.7790031286277861
5.749432802200317,1.590350155519759,1.5668437719057224,0.3060942961489346
5.765814542770386,1.5837065991507122,1.5608174272222413,1.1215101895995812
5.781021356582642,1.577258441498402,1.5547469195377708,1.6817014879323509
5.79503321647644,1.5712010812795654,1.5486307873905951,2.0330937020987
5.807964563369751,1.5657299172109387,1.542476188228354,2.2260909660467325
5.823973655700684,1.559086360841892,1.5362894729134557,2.3047024842817114
5.836013555526733,1.5538105954900017,1.5300762284869123,2.3038891741211316
5.848972320556641,1.548339431421375,1.523841324477366,2.2500089280582056
5.861989498138428,1.5424774699192747,1.5175889616903586,2.162278268250006
5.87600564956665,1.5362247109837017,1.5113227225229422,2.054369261360397
5.889980792999268,1.530558148198338,1.5050456219562682,1.9358131068831912
5.903985261917114,1.5248915854129745,1.498760158483038,2.0891628426295257
5.918001890182495,1.5186388264774013,1.4924683643269299,1.7237831517672602
5.931955814361572,1.5127768649753008,1.4861718544066649,1.5161476886582574
5.952637672424316,1.504374720155624,1.4798575571923922,1.3805628326126271
5.964016914367676,1.499294353520471,1.473504657974018,1.277372640698705
5.975006103515625,1.4946047843187906,1.4671207336529837,1.1888911954104566
5.994411468505859,1.486202639499114,1.4607138561430073,1.1076907467955106
6.004554510116577,1.4819038677309073,1.4542736006261348,1.0309705753846539
6.016033887863159,1.477214298529227,1.447812681551111,0.9578982388969652
6.03224778175354,1.4703753434434434,1.441348016619317,0.8883894703204334
6.0470967292785645,1.464317983224607,1.4348709981457703,0.8225741629969732
6.057100296020508,1.4600192114564001,1.4283797184505926,0.7605821686325791
6.07595682144165,1.4522032627869332,1.4218786822984386,0.7024727739465888
6.089977979660034,1.4461459025680965,1.4153533195245958,0.3721863283813167
6.104960680007935,1.439893143632523,1.4087937920665197,0.28858542082841165
6.120976686477661,1.432858789830003,1.4022058832935027,0.2968384039006732
6.13398003578186,1.4271922270446393,1.3955962824257486,0.32953821212358675
6.1529221534729,1.4195716770919091,1.3889608069665789,0.35994247593726103
6.164490699768066,1.4146867091734927,1.3822907635440536,0.37951145461536484
6.1749632358551025,1.4103879374052857,1.375599214994186,0.38731922807547414
6.194480895996094,1.401399596435399,1.368895843845474,0.6612469454398591
6.207229375839233,1.396514628516982,1.3621680639279585,0.4088073357394632
6.223736524581909,1.3894802747144621,1.3554070138317873,0.3059736442171324
6.238572359085083,1.3832275157788887,1.3486063176768952,0.5432181356854726
6.2529990673065186,1.376974756843315,1.3417633622280658,0.2862960117121556
6.268960475921631,1.3703312004742685,1.3348865053253067,0.19167024865971588
6.292443513870239,1.3609520620709084,1.3279653650643173,0.16498276581990545
6.307976245880127,1.3545039044185982,1.3209707495944005,0.16326223775825005
6.322926759719849,1.3480557467662881,1.3138998432920883,0.16794882261373292
6.346194505691528,1.337895013495981,1.3067512224685085,0.17179266083470107
6.360956907272339,1.331446855843671,1.2995037196612491,0.17257329344730174
6.376956939697266,1.3249986981913608,1.2921616771832325,0.1701483741362562
6.398197650909424,1.315619559788001,1.284735439644095,0.1651102212853436
6.410678863525391,1.3107345918695839,1.2772216683517477,0.1582065336207631
6.427047252655029,1.3038956367838006,1.2696295684594128,0.150115365998976
6.441930055618286,1.297642877848227,1.26197340851376,0.14137776728717033
6.456969738006592,1.2908039227624437,1.2542699977046448,0.13239562831218554
6.471029996871948,1.2849419612603434,1.2465419574684256,0.39949096591660443
6.494842767715454,1.2751720254235102,1.2387886667610835,0.4239028855650627
6.510042667388916,1.2687238677711998,1.230989101294621,0.3604456452717505
6.5250256061553955,1.2624711088356266,1.223147050289321,0.2764260633896399
6.548696517944336,1.2523103755653198,1.2152664067043133,0.19843201531286148
6.564990520477295,1.245471420479536,1.2073302240388393,0.13481587407225362
6.578055381774902,1.2398048576941727,1.1993458245431325,0.0862986951797111
6.5930280685424805,1.2333567000418626,1.191340946483158,0.32686442148927874
6.616306304931641,1.2233913654882922,1.1833186793001218,0.33484662253866004
6.63194465637207,1.217138606552719,1.17526125752641,0.262402150784375
6.646941900253296,1.2108858476171456,1.16717497535478,0.1746759142113011
6.670523405075073,1.2007251143468387,1.1590657614685096,0.0966008233448023
6.685001850128174,1.194667754128002,1.150918451286754,0.035308458780394486
6.7009453773498535,1.1880241977589552,1.1427414981046031,-0.009358020152910679
6.722753047943115,1.1782542619221215,1.1345464984291027,-0.040072036673784506
6.73667573928833,1.1721969017032847,1.126326948097476,-0.059976832718897255
6.753036737442017,1.1657487440509746,1.1180907681923966,-0.07189942652954016
6.7689385414123535,1.1591051876819278,1.1098579613400112,-0.07812366527826056
6.788963079452515,1.1505076441455144,1.1016365407108564,-0.08039294435155579
6.805319309234619,1.1434732903429943,1.093416795601271,-0.0799928480531593
6.8190529346466064,1.1372205314074209,1.085195996814695,-0.07784931700512565
6.834004878997803,1.131163171188584,1.0769923577454479,-0.07461747906280361
6.850032329559326,1.124519614819537,1.0688287395476295,-0.0707538457608216
6.872888565063477,1.1145542802659671,1.0607040611262029,-0.06657181853123255
6.887970209121704,1.1084969200471304,1.05259705759215,-0.06228299180825442
6.902961730957031,1.1022441611115568,1.0445098460392097,-0.05802725682405846
6.922104835510254,1.0936466175751434,1.0364554097057839,-0.05389443994482557
6.940264701843262,1.08563527018894,1.0284253951927147,-0.04993970462308053
6.951723575592041,1.0807503022705232,1.0204156377365843,-0.3222327944972342
6.966604948043823,1.0746929420516864,1.0124424691194307,-0.35183684379566815
6.980653285980225,1.0686355818328495,1.0045202192365912,-0.017409850857920073
6.994536876678467,1.0627736203307494,0.9966583665455085,-0.18117379212523474
7.008969068527222,1.0569116588286493,0.9888694765348518,-0.1960276201816606
7.024903297424316,1.0498773050261292,0.9811649025452741,-0.4337961926899925
7.04408597946167,1.040498166622769,0.9735440188024501,-0.41692337014420877
7.063939809799194,1.0336592115369856,0.9659860821246088,-0.3162587742330581
7.078929901123047,1.0268202564512021,0.9584723686082187,-0.20394439523050462
7.10223650932312,1.0170503206143686,0.9509869893194267,-0.10677118534030505
7.116903781890869,1.0109929603955317,0.9435073150558566,-0.03165508755930457
7.130929946899414,1.0051309988934318,0.9360336677713074,0.022466422594845506
7.144900560379028,0.9990736386745949,0.9285857185870776,0.059274991532782983
7.159940719604492,0.9928208797390216,0.9211800155290117,0.08280386540241846
7.179837226867676,0.9842233362026079,0.9138191038262268,0.09659254504001434
7.191867351531982,0.9791429695674545,0.9064971656496448,0.10346592246326676
7.210086345672607,0.9715224196147245,0.8992140398044548,0.10556503979354678
7.224937438964844,0.965269660679151,0.891966021974012,0.10446123260367379
7.241001129150391,0.9586261043101042,0.8847546795044929,0.10128227229308671
7.263453722000122,0.9492469659067441,0.8775765426686066,0.09682372786910762
7.27998423576355,0.9422126121042239,0.8704115603473247,0.09163839606674293
7.2950286865234375,0.9359598531686504,0.8632559766050948,0.08610459101821316
7.318028688430786,0.9259945186150802,0.8561091275907801,0.08047674545139362
7.334004640579224,0.9193509622460335,0.8489552846604755,0.07492218854994387
7.34893798828125,0.9127074058769867,0.8417957685288605,0.06954753014747592
7.372401714324951,0.9033282674736265,0.8346324149599815,0.0644174137963293
7.386424779891968,0.8972709072547898,0.827451360022359,0.05956775312692338
7.400928735733032,0.8910181483192163,0.8202593871799492,0.05501502167667202
7.416885614395142,0.8843745919501695,0.8130805822574678,0.0507627401504028
7.43750262260437,0.8755816496970192,0.8059224949260195,0.04680598410787212
7.453599214553833,0.8685472958944992,0.7987741501965214,0.043134499109881645
7.469001770019531,0.8622945369589258,0.7916350199257493,0.3157731992271859
7.483876705169678,0.8558463793066157,0.7845223864169807,0.06971642818128132
7.507236003875732,0.8460764434697822,0.7774382676840997,0.25463062413874293
7.522900104522705,0.839628285817472,0.7703673062858086,0.26408984707097943
7.537975072860718,0.8333755268818985,0.7633138953387856,0.21208623816712674
7.551954746246338,0.8273181666630619,0.7562989972874145,0.14762724824578316
7.565880298614502,0.8214562051609617,0.749340156239614,0.08963330674291337
7.5884623527526855,0.8122724654743383,0.7424351929612191,0.04366436003542577
7.604013919830322,0.8052381116718181,0.7355653595302359,0.009777589206048827
7.61890172958374,0.7989853527362445,0.7287314358184602,-0.013897565603474219
7.639201641082764,0.7901924104830944,0.7219403650556445,-0.029619529853536504
7.655677556991577,0.783353455397311,0.7151815874082265,-0.039437959177751405
7.669593095779419,0.7776868926119475,0.7084504851228621,0.23102166650456346
7.684922456741333,0.7710433362429008,0.7017594874042322,0.26153287734264974
7.6999006271362305,0.7647905773073274,0.6951249360636385,0.20584517401356972
7.72144341468811,0.7554114389039671,0.6885479631799568,0.1305119418670145
7.736872911453247,0.748963281251657,0.6820134072891617,0.061600020246663445
7.751895904541016,0.7423197248826102,0.6755171825727029,0.007109825480667027
7.767952919006348,0.7354807697968269,0.669071542608564,-0.03246875413848267
7.783065557479858,0.7294234095779901,0.66268831881144,-0.059336238503070717
7.804175138473511,0.7202396698913666,0.6563617590873636,-0.0762938933043314
7.81887412071228,0.7141823096725297,0.6500748253119201,-0.0859231018542991
7.834872484207153,0.7077341520202196,0.6438283870338302,-0.09033192386462513
7.858153820037842,0.6977688174666494,0.6376217048895756,-0.3671764818195087
7.87286114692688,0.691516058531076,0.6314391169592097,-0.12266204359798166
7.888969898223877,0.6842863060118193,0.6252825222530263,-0.3073325267038477
7.912229061126709,0.6745163701749858,0.6191539560179335,-0.3153868126879138
7.927878141403198,0.6680682125226756,0.6130405973916166,0.014782632569136978
7.942958354949951,0.6620108523038388,0.6069465246147692,-0.16112618626121142
7.959845066070557,0.6545857010678453,0.6008867917647154,-0.1885976566361119
7.976261138916016,0.6477467459820617,0.5948661392906778,-0.16078954955750363
7.993381977081299,0.6407123921795417,0.5888806736987786,-0.39457384396780426
8.008967638015747,0.6338734370937583,0.5829287565282852,-0.3873986299132096
8.02393889427185,0.6272298807247115,0.5770199962829087,-0.2993489612444331
8.040807485580444,0.620390925638928,0.5711655294288895,-0.1983949677019745
8.060148239135742,0.6123795782527245,0.5653617575520833,-0.11008630071086356
8.075933933258057,0.6057360218836778,0.5595978703786337,-0.041307039988974184
8.089953899383545,0.599678661664841,0.5538763684952593,0.28464973653551784
8.104965209960938,0.5934259027292675,0.5482098461710311,0.0759933694130419
8.128366470336914,0.583655966892434,0.5425963552516581,0.2860010787139225
8.142848014831543,0.5772078092401239,0.5370207508187439,0.03540842355403999
8.158947229385376,0.5707596515878138,0.5314834834400142,0.23576687379281377
8.182314395904541,0.5609897157509803,0.5259852035432505,-0.011642447418195437
8.195992708206177,0.5555185516823535,0.52051348415576,-0.0800471509582982
8.210843563079834,0.54926579274678,0.5150708784001506,0.19918345155440975
8.226856708526611,0.54223143894426,0.5096724886662468,-0.017168112637284128
8.248503923416138,0.5328523005408997,0.5043202202649426,0.20029239939765658
8.26386570930481,0.5262087441718529,0.4990030346558588,-0.038357325459206476
8.278848648071289,0.5201513839530162,0.4937204365582659,0.1740059083904537
8.293910503387451,0.5137032263007061,0.4884844533122786,0.21311986993278037
8.311115026473999,0.5064734737814492,0.48330369641085696,0.18645847465996016
8.33061170578003,0.49865752511198247,0.47817309535253477,0.14144557789851234
8.345860242843628,0.4916231713094623,0.47308242436521913,0.09737860110765607
8.361889123916626,0.4849796149404155,0.46803498963207424,0.06082039292431103
8.38463044166565,0.47560047653705534,0.46303063927762056,0.03289622307236845
8.39981746673584,0.4693477176014819,0.45805745879407406,0.012663051158091477
8.413841485977173,0.4634857560993818,0.4531171037730174,0.27463708630817824
8.428858280181885,0.45684219973033496,0.4482226002887356,0.022334411061502413
8.442829370498657,0.4509802382282349,0.4433846968843614,0.20418084978844914
8.455896139144897,0.4457044728763448,0.4386120759296242,0.21278394998077121
8.479677677154541,0.43593453703951135,0.4339004889527011,0.4374530584072568
8.492953062057495,0.4306587716876212,0.42923488714763214,0.9597972138618669
8.507821321487427,0.42499220890225775,0.4246135029437501,2.0193064977142736
8.523931980133057,0.4199118422671044,0.4200457407824738,3.8543595900422223
8.54666543006897,0.4132682858980576,0.41552850863433377,5.0
8.561902284622192,0.40838331797964084,0.4110482650010883,5.0
8.576858520507812,0.4038891474946974,0.4066042253914473,5.0
8.600682973861694,0.3974409898423873,0.40219596719409517,5.0
8.61590838432312,0.3933376167909172,0.39781270646493105,5.0
8.631834268569946,0.3894296424561838,0.3934558240446864,5.0
8.65043568611145,0.3847400732545037,0.3891324161267481,4.889281829237245
8.668290376663208,0.3808320989197703,0.38483839082874377,4.123614219638393
8.68234896659851,0.37770571945198356,0.38056927138661645,3.519084725601112
8.697019100189209,0.3747747387009336,0.3763313773271163,2.763034932255856
8.712897062301636,0.37145296051641014,0.37213552374522874,2.6207653634393298
8.73581075668335,0.36734958746494006,0.36798102496616714,2.119638341277593
8.749791860580444,0.36500480286410003,0.36385755203915343,1.572737693254032
8.762948036193848,0.3630508156967333,0.3597663560167541,0.8200978488297475
8.777796268463135,0.3607060310958933,0.355718039205143,0.4104087390977724
8.793829679489136,0.3579704490615799,0.3517206114851449,0.46010415159526674
8.814534425735474,0.35503946831052985,0.34777369978142364,0.09068128269966852
8.825697183609009,0.3530854811431631,0.3438729341844587,-0.34459550310679754
8.843791723251343,0.3509360952590598,0.34001887633007694,-0.9902778744966725
8.858823776245117,0.34839591194148306,0.3362108406019984,-1.2931094997077355
8.874814748764038,0.3458557286239063,0.33245030307648227,-1.9645645812199415
8.892152786254883,0.34233855172264627,0.32874030184512293,-3.1556418945565325
8.910188913345337,0.3384305773879129,0.32507566702277024,-4.525903533950651
8.924741744995117,0.3353041979201261,0.32144897329153493,-5.0
8.939823150634766,0.33178702101886604,0.3178599644336072,-5.0
8.95583176612854,0.32768364796739596,0.3143140173277092,-5.0
8.96882939338684,0.3241664710661359,0.3108166748647911,-5.0
8.98764419555664,0.3186953069975092,0.3073686042578848,-5.0
9.005647420883179,0.3132241429288824,0.30396184355258765,-5.0
9.020813465118408,0.308729972443939,0.3005886360445642,-5.0
9.036816120147705,0.3036496058087855,0.29725055758591357,-5.0
9.053025960922241,0.2981784417401588,0.293951853333485,-5.0
9.07386589050293,0.29153488537111205,0.2906880465321914,-4.877209155529963
9.088795900344849,0.2868453161694319,0.28745034165106603,-3.8573524096286045
9.10287356376648,0.2827419431179618,0.28423918847030605,-2.144048276914628
9.117900848388672,0.2786385700664918,0.2810613140749897,0.5969001471749866
9.141088247299194,0.2729720072811283,0.2779147421243395,2.8647686710657774
9.154834508895874,0.2692594316631316,0.2747902246458026,4.238994863821835
9.169915199279785,0.2657422547618715,0.27168754059215483,5.0
9.183766841888428,0.2624204765773481,0.2686140379988401,5.0
9.19879937171936,0.2592940971095614,0.265575806406807,5.0
9.212767601013184,0.256558515075248,0.26257779014611465,5.0
9.234437704086304,0.2520643445903046,0.25961762325833376,5.0
9.244068145751953,0.25030575613967454,0.25668994532499756,4.766195500084862
9.262312412261963,0.24698397795515117,0.25379566359570904,4.228567505619742
9.277885913848877,0.2442483959208378,0.2509347138015088,3.920553214469132
9.29281210899353,0.24170821260326106,0.2481076303448398,3.9739889722094337
9.316262483596802,0.238191035702001,0.24531184454674795,3.8099326243768203
9.331928014755249,0.23545545366768764,0.24253837428813685,3.561295333145342
9.34677791595459,0.23330606778358423,0.23978638403376426,3.013890159797019
9.370242834091187,0.22978889088232424,0.23705540978632017,2.4381220294256725
9.385949611663818,0.2272487075647475,0.23433860583816282,1.9333595073103593
9.400861501693726,0.22549011911411745,0.23163680950225726,1.800203715846359
9.41481065750122,0.2239269293802241,0.22895728543177518,1.51436408776136
9.428945779800415,0.22236373964633074,0.22630611284389826,0.9394590648888337
9.444166898727417,0.22040975247896405,0.22368737626358653,0.6454717901404434
9.45587158203125,0.21923736017854403,0.2211043309290726,0.21401359132986664
9.478341102600098,0.2166971768609673,0.21855528709260585,-0.18230135035066553
9.493897199630737,0.21513398712707393,0.21603262326548292,-0.48981270811183036
9.506890058517456,0.21357079739318058,0.2135349879138662,-0.9804627610577125
9.522815227508545,0.21200760765928722,0.21106720489450528,-0.873017691303239
9.538963317871094,0.21044441792539384,0.20863210749143743,-0.8589627026756855
9.558645009994507,0.20849043075802715,0.20622680121476625,-0.8673422155780954
9.5748770236969,0.2067318423073971,0.2038451441396761,-0.594907064256099
9.590977907180786,0.20516865257350375,0.2014863887497376,-0.552711744712616
9.602809190750122,0.20419165898982042,0.19915449826007242,-0.8620765804572116
9.624992847442627,0.20223767182245372,0.19684926214009338,-0.9394811887689347
9.640571355819702,0.20067448208856034,0.19456494888846249,-1.1922523136814873
9.655744314193726,0.1993066910714036,0.19229937340191752,-1.4391579154419611
9.670873165130615,0.19793890005424694,0.19005614669398896,-1.3439544997489885
9.690897226333618,0.19657110903709027,0.18783673435070428,-1.4165915350993536
9.698793172836304,0.19578951417014356,0.18564226034176992,-1.5124730605479
9.720693111419678,0.1938355270027769,0.1834749865043785,-1.3034337855675966
9.736797094345093,0.19207693855214686,0.18133159407425226,-1.5723629890260207
9.752746820449829,0.19012295138478016,0.17920995869432788,-2.4773098573736494
9.771118402481079,0.1873873693504668,0.177111162122189,-3.6614251502197575
9.788673400878906,0.1844563885994167,0.17503188685804222,-4.94255202798964
9.802838563919067,0.18172080656510334,0.17296882176887995,-5.0
9.816298961639404,0.17898522453078994,0.17092412015038846,-5.0
9.830735921859741,0.17585884506300323,0.16890228375041502,-5.0
9.846780061721802,0.1725370668784798,0.16690700844914355,-5.0
9.863458156585693,0.16901988997721973,0.16494023203199584,-5.0
9.883471727371216,0.16511191564248637,0.16299884534300718,-4.236240498759972
9.897258520126343,0.1627671310416463,0.16107760799599144,-2.8568179405348104
9.911877155303955,0.16042234644080625,0.1591766531850532,-0.6788452697007474
9.927779197692871,0.15807756183996624,0.15729958194904506,1.626630232850006
9.945413827896118,0.1555373785223895,0.15544784741927525,3.239563379256003
9.962064743041992,0.15338799263828612,0.15361964348676163,4.560204188293836
9.977150678634644,0.1516294041876561,0.1518122601582022,5.0
9.990090370178223,0.14987081573702607,0.15002591610111787,5.0
9.998746395111084,0.14889382215334274,0.14826588917430686,5.0
10.018512487411499,0.14674443626923936,0.14653570599905053,4.706734705939667
10.033751249313354,0.14518124653534598,0.1448325478493873,4.28367688683265
10.049803972244263,0.14342265808471594,0.143154926088218,4.399879457006326
10.072434902191162,0.14146867091734927,0.14150034771903094,4.062770111353934
10.086766242980957,0.14029627861692923,0.1398625959245969,3.5949918631432514
10.102816581726074,0.1391238863165092,0.13824041449099878,3.4069145527897775
10.116741180419922,0.13814689273282588,0.1366367197050401,3.303752658760035
10.134313821792603,0.13697450043240583,0.1350526074725208,2.655812537389707
10.153519630432129,0.13580210813198582,0.13348511481645117,2.199731059106039
10.168773889541626,0.13502051326503914,0.13193047068088576,1.865686772060922
10.1838219165802,0.13423891839809246,0.13038931204410878,1.3359802741897804
10.197738647460938,0.13345732353114578,0.12886468267113058,1.1039213754165698
10.216407775878906,0.1326757286641991,0.1273576080191436,0.7225107781361277
10.235833883285522,0.13208953251398908,0.12586529340769648,0.356806818082018
10.251841306686401,0.1313079376470424,0.1243847292132645,0.33740082548675593
10.264800071716309,0.13091714021356907,0.12291699339939173,0.15310274742182958
10.288629055023193,0.1301355453466224,0.12146165855384738,-0.051111180301058226
10.301955699920654,0.1299401466298857,0.12001492826708891,-0.22232403118287025
10.312865495681763,0.12974474791314905,0.11857836232341619,-0.3477122052800853
10.32832407951355,0.12896315304620237,0.11715699601516964,-0.7063868935895268
10.342844486236572,0.1281815581792557,0.1157525266614512,-1.063555005973429
10.357736349105835,0.12720456459557233,0.11436580509819867,-1.891690118842058
10.372907638549805,0.12583677357841566,0.11299869355151561,-3.795584091710336
10.391932010650635,0.12349198897757559,0.11165134766023539,-5.0
10.40980339050293,0.12114720437673555,0.11032061406036678,-5.0
10.424747228622437,0.11899781849263219,0.10900368712418854,-5.0
10.44074535369873,0.11606683774158212,0.1077013551513964,-5.0
10.46195912361145,0.11215886340684872,0.10641350615941589,-5.0
10.47641396522522,0.10961868008927202,0.1051374223237775,-5.0
10.492825508117676,0.10727389548843196,0.10387252506784694,-5.0
10.508798599243164,0.10512450960432859,0.10262047767788103,-4.008638190293155
10.529292106628418,0.1023889275700152,0.10138117440063149,-1.9874605359971367
10.5445876121521,0.10063033911938518,0.1001520706488155,0.28118195205101604
10.559828758239746,0.09867635195201847,0.09893245155831203,2.195091860413605
10.575786590576172,0.09691776350138845,0.09772461633764466,3.604793893203579
10.588817834854126,0.09574537120096842,0.09653121671688641,5.0
10.612353801727295,0.09359598531686505,0.09535172419746761,5.0
10.626136302947998,0.09261899173318171,0.09418296846854973,5.0
10.640780925750732,0.09164199814949833,0.09302503836356553,5.0
10.656772375106812,0.09066500456581499,0.09188076350624379,5.0
10.678449392318726,0.08988340969886832,0.09075051831655578,5.0
10.693900346755981,0.08929721354865831,0.08963222538953107,5.0
10.708796262741089,0.08890641611518496,0.08852589298343014,4.749774268320156
10.722736835479736,0.08871101739844828,0.08743417197968638,4.408876189537551
10.737768650054932,0.08851561868171162,0.08635985621390292,4.326684095360797
10.75071907043457,0.08832021996497495,0.08530538799022493,3.7394148976190102
10.77123475074768,0.08812482124823828,0.08427165907629545,3.0562190413288093
10.787668943405151,0.08792942253150161,0.08325762763587947,2.159229025506511
10.801789045333862,0.08792942253150161,0.08226320322058349,1.3379146450150432
10.81672716140747,0.08792942253150161,0.08129044563640091,0.4049242159746228
10.83274793624878,0.08792942253150161,0.08034188630368909,-0.11557845009389206
10.845706462860107,0.08792942253150161,0.07941971192008074,-0.4029776085313088
10.861281156539917,0.08773402381476494,0.07852568699766378,-0.8319142257847224
10.882331371307373,0.08773402381476494,0.0776600558706584,-0.9389066171106286
10.897823810577393,0.08753862509802827,0.07682205683955065,-1.1866758936093091
10.911804676055908,0.08753862509802827,0.0760124392815917,-1.6944974135542452
10.926731586456299,0.08695242894781824,0.07523302386214654,-2.4452740578153653
10.94077754020691,0.08636623279760824,0.07448528097668491,-3.102291401002904
10.953789710998535,0.08578003664739824,0.07377035621168505,-3.843095816905761
10.97693395614624,0.08460764434697822,0.07308840147533048,-4.4240096813985375
10.990922689437866,0.08363065076329486,0.07243878266979685,-4.789977037906862
11.003957748413086,0.0826536571796115,0.07182164985095112,-4.683679736974044
11.019657850265503,0.0814812648791915,0.07123772947517643,-4.665343906357405
11.033761024475098,0.08011347386203481,0.0706874501037831,-4.622831350123452
11.057762145996094,0.07796408797793142,0.07017063506408615,-4.525137297723688
11.072113513946533,0.07659629696077475,0.06968663606168717,-4.097896666263132
11.086833953857422,0.07522850594361805,0.06923512165225489,-3.3205046366486553
11.101853609085083,0.0742515123599347,0.06881596672396766,-2.262183927136917
11.116773843765259,0.07346991749298801,0.06842882370235522,-0.7352621910224739
11.138893127441406,0.07288372134277801,0.06807307484210251,1.2133338114459224
11.152516603469849,0.07229752519256799,0.0677479073876048,2.9129156814739514
11.167840480804443,0.07229752519256799,0.06745253129298111,4.174439457373163
11.181791543960571,0.07210212647583132,0.0671861385386577,5.0
11.195669651031494,0.07229752519256799,0.06694779531793267,5.0
11.210731029510498,0.07229752519256799,0.06673646693637304,5.0
11.222674131393433,0.07210212647583132,0.06655104085802117,4.555840201356979
11.2430899143219,0.07229752519256799,0.06639043215537023,3.682368331997173
11.260800123214722,0.07210212647583132,0.06625368495057095,2.51639085138227
11.275778770446777,0.07229752519256799,0.06613981473892032,1.447565595043478
11.289830207824707,0.07210212647583132,0.06604765089270821,0.5957293664854405
11.303755760192871,0.07210212647583132,0.0659759370114386,-0.031536264098997846
11.317682981491089,0.07210212647583132,0.06592342998781632,-0.46693125715569817
11.341136455535889,0.07210212647583132,0.06588919217037244,-0.7522156811618304
11.354926109313965,0.07210212647583132,0.06587259370340186,-0.9259338731985687
11.369829177856445,0.07210212647583132,0.06587272331417042,-1.019610075575803
11.38577651977539,0.07229752519256799,0.0658883734855011,-1.0574789579240895
11.408009052276611,0.07210212647583132,0.06591868355126984,-1.0574930480817932
11.423746824264526,0.07210212647583132,0.06596318414130599,-1.0326253014471853
11.439666748046875,0.07210212647583132,0.066021100745539,-0.9920789716086595
11.457429647445679,0.07210212647583132,0.06609143141958204,-0.9422829929884915
11.472692966461182,0.07210212647583132,0.0661733815695474,-0.8876624674826015
11.489710330963135,0.07210212647583132,0.06626628060129387,-0.8312143881158376
11.504157066345215,0.07210212647583132,0.06636940841550147,-0.7749283988281688
11.518743753433228,0.07210212647583132,0.06648177562912416,-0.7200897997246873
11.534669637680054,0.07210212647583132,0.06660224880889043,-0.6674955164934782
11.550340175628662,0.07229752519256799,0.06672983872429852,-0.6176068705891496
11.571191310882568,0.07210212647583132,0.06686406375870445,-0.5706570001788289
11.585805416107178,0.07210212647583132,0.06700474348579932,-0.5267260068533933
11.60071063041687,0.07210212647583132,0.0671511985399485,-0.48579326859888317
11.613758563995361,0.07210212647583132,0.06730239918485964,-0.4477736695223823
11.62867259979248,0.07210212647583132,0.06745740722005379,-0.4125425410514668
11.651634216308594,0.07210212647583132,0.06761580488121038,-0.3799527040324048
11.665692329406738,0.07210212647583132,0.067777616644089,-0.34984599944607353
11.680802345275879,0.07229752519256799,0.06794237334471699,-0.3220609853811311
11.693113803863525,0.07210212647583132,0.06810919659178298,-0.29643797651184156
11.707803010940552,0.07210212647583132,0.06827730814425592,-0.27282224928257526
11.72166395187378,0.07210212647583132,0.06844602527634105,-0.25106598792356627
11.73677396774292,0.07210212647583132,0.06861475592650146,-0.23102937237790888
11.754603385925293,0.07210212647583132,0.06878313324505737,-0.21258108726929092
11.773508548736572,0.07210212647583132,0.0689512657355841,-0.19559844568480547
11.78703498840332,0.07210212647583132,0.06911938486552964,-0.1799672618679251
11.800695657730103,0.07210212647583132,0.06928726751045294,-0.16558156523500567
11.815638303756714,0.07210212647583132,0.06945445054244953,-0.15234321905275655
11.831710815429688,0.07210212647583132,0.06962055409618814,-0.14016148686161745
11.844819068908691,0.07210212647583132,0.06978527483628146,-0.12895257564959264
11.867055416107178,0.07210212647583132,0.0699487413719768,-0.11863917501533217
11.882743835449219,0.07210212647583132,0.07011151264781451,-0.10915000480743783
11.898764848709106,0.07210212647583132,0.07027378418120275,-0.1004193790786436
11.912770509719849,0.07210212647583132,0.07043531521711346,-0.09238679101164687
11.933455467224121,0.07210212647583132,0.07059618641604189,-0.08499652131233856
11.94865107536316,0.07210212647583132,0.07075693194764406,-0.07819727111454647
11.963770627975464,0.07210212647583132,0.07091781633975013,-0.07194181948044864
11.97977352142334,0.07210212647583132,0.07107864118935822,-0.06618670496057333
12.002782583236694,0.07210212647583132,0.07123960345502406,-0.06089193029072727
12.017702341079712,0.07210212647583132,0.07140135184420669,-0.05602068907637274
12.034611225128174,0.07210212647583132,0.07156399142101266,-0.051539113196497205
12.052642107009888,0.07210212647583132,0.07172741123350311,-0.04741603961314225
12.06663966178894,0.07210212647583132,0.07189177911446105,-0.04362279527474682
12.081324338912964,0.07210212647583132,0.07205709289273551,-0.04013299883422639
12.094754457473755,0.07210212647583132,0.0722232051459181,-0.03692237795450995
12.110556364059448,0.07210212647583132,0.07239006155976017,-0.0339686010370644
12.126692056655884,0.07210212647583132,0.07255768739327385,-0.03125112227733996
12.14176869392395,0.07210212647583132,0.07272596746135791,-0.028751039021421218
12.15568995475769,0.07210212647583132,0.0728946672398117,-0.026450960468095537
12.173696756362915,0.07210212647583132,0.07306381536346658,-0.024334886828519475
12.19209623336792,0.07210212647583132,0.07323397997523953,-0.022388098120748
12.205761671066284,0.07210212647583132,0.0734057569682667,-0.02059705183804523
12.219204902648926,0.07210212647583132,0.07357913063715242,-0.01894928878787154
12.234691381454468,0.07210212647583132,0.07375377920654269,-0.017433346452650763
12.249602556228638,0.07210212647583132,0.0739294408444393,-0.01603867927390499
12.2729971408844,0.07210212647583132,0.07410648342580703,-0.014755585308218987
12.288694143295288,0.07210212647583132,0.07428581411186423,-0.013575138746919953
12.303728580474854,0.07210212647583132,0.07446764991650452,-0.012489127831517295
12.322638034820557,0.07210212647583132,0.07465193051099255,-0.011489997734041562
12.340366840362549,0.07210212647583132,0.07483923248173935,-0.010570798005650195
12.35573935508728,0.07210212647583132,0.07503004244858605,-0.009725134228430566
12.369707822799683,0.07210212647583132,0.07522416350678436,-0.008947123534418781
12.382593393325806,0.07210212647583132,0.07542112783152574,-0.008231353682649132
12.396663427352905,0.07210212647583132,0.07562053819978948,-0.007572845409725897
12.411699295043945,0.07210212647583132,0.07582206006805906,-0.006967017792129925
12.430124044418335,0.07210212647583132,0.07602571421903777,-0.0064096563793869885
12.439634561538696,0.07210212647583132,0.07623151857528347,-0.005896883876475247
12.452663660049438,0.07210212647583132,0.07643888491904698,-0.0054251331715646865
12.472553968429565,0.07210212647583132,0.07664778049552942,-0.0049911225214847345
12.488583326339722,0.07210212647583132,0.07685917762042946,-0.004591832722317606
12.504663944244385,0.07210212647583132,0.07707366499743244,-0.004224486106318365
12.519696235656738,0.07210212647583132,0.07729103038960781,-0.003886527219063204
12.533631801605225,0.07210212647583132,0.07751084434791654,-0.0035756050424133696
12.5565505027771,0.07210212647583132,0.07773345617255742,-0.003289556639632954
12.57173228263855,0.07210212647583132,0.07795987796119119,-0.003026392108891168
12.587600708007812,0.07210212647583132,0.0781902316368247,-0.0027842807404800714
12.600600957870483,0.07210212647583132,0.07842388343217314,-0.002561538281451803
12.624387741088867,0.07210212647583132,0.07866106162083444,-0.0023566152190827605
12.639710187911987,0.07210212647583132,0.07890273846685641,-0.0021680860016591087
12.65467357635498,0.07210212647583132,0.07914898166188813,-0.0019946391215984564
12.677700757980347,0.07210212647583132,0.07939991709647032,-0.0018350679919210341
12.692706823348999,0.07210212647583132,0.0796564989356205,-0.0016882625526026714
12.70870852470398,0.07210212647583132,0.07991873306314579,-0.001553201548419182
12.731740713119507,0.07210212647583132,0.0801867149160006,-0.0014289454245629538
12.745496034622192,0.07210212647583132,0.08046145021980973,-0.00131462979061003
12.761674404144287,0.07210212647583132,0.08074291689531872,-0.0012094594073697078
12.776603937149048,0.07210212647583132,0.08103020659185707,-0.001112702654786068
12.794583082199097,0.07210212647583132,0.0813229662801864,-0.0010236864424073395
12.811235666275024,0.07229752519256799,0.08162170807710205,-0.0009417915270176593
12.826284408569336,0.07229752519256799,0.08192710546799951,-0.0008664482048582824
12.842677354812622,0.07249292390930466,0.08223920025263597,0.27524122733020995
12.85771107673645,0.07288372134277801,0.0825574244183102,0.5844679607582093
12.88049602508545,0.07346991749298801,0.08288219727094344,1.1146306956259953
12.89442491531372,0.07386071492646136,0.08321501331662193,1.6018283349850009
12.908607244491577,0.07444691107667137,0.08355601372824281,1.6873633624134672
12.92481279373169,0.07503310722688138,0.0839041695587031,1.88310137291861
12.940953731536865,0.07581470209382805,0.08425880311868889,2.0545373055034437
12.961276054382324,0.07659629696077475,0.0846205329427652,1.8848823344620977
12.976570129394531,0.07698709439424807,0.08499062508398786,1.6150119489374304
12.992639303207397,0.07737789182772142,0.085368887727616,0.5166523507755285
13.013647317886353,0.07757329054445808,0.08575502318986865,-0.6459922784141059
13.025555849075317,0.07737789182772142,0.08614944069717552,-1.6006823007076707
13.04220175743103,0.07737789182772142,0.08655175013173927,-2.5638500074151143
13.056673526763916,0.07757329054445808,0.08696129189997766,-3.039941104461751
13.06964635848999,0.07776868926119475,0.08737712708395305,-2.9562185718265237
13.08458161354065,0.07776868926119475,0.08779785284482658,-2.39663034909383
13.098637342453003,0.0781594866946681,0.08822223784396044,-1.4853372126011573
13.111562967300415,0.07835488541140477,0.08864915867746835,-0.6161167432601647
13.12657642364502,0.07894108156161479,0.08907754502114691,0.3578361986810013
13.15013337135315,0.07972267642856146,0.08950755622545464,1.176167903446428
13.164507627487183,0.08030887257877146,0.08994041424552428,1.7747925310944805
13.178706407546997,0.08089506872898149,0.0903759454773949,1.8915969306057911
13.194653034210205,0.08167666359592816,0.09081272671841163,2.360439936940016
13.21763277053833,0.08304445461308485,0.09125055844642954,2.273157204867074
13.23257827758789,0.08382604948003153,0.09169031938036984,1.9961078176624825
13.247545719146729,0.08460764434697822,0.09213156260224235,1.6866396572624178
13.262665271759033,0.08499844178045156,0.09257274480178426,1.129253566803594
13.275576829910278,0.08519384049718824,0.09301254597811107,0.03231349789402027
13.291428089141846,0.08558463793066157,0.09344998063454373,-1.0303321009586006
13.307242155075073,0.08558463793066157,0.09388469003231939,-2.1437065911380713
13.325525999069214,0.08558463793066157,0.09431722439661007,-3.3121885117757026
13.340664148330688,0.08558463793066157,0.09474829441883786,-3.684580478601047
13.35463547706604,0.08558463793066157,0.09517764189652954,-3.685662040858805
13.370524883270264,0.08578003664739824,0.09560443497626077,-3.246709851847837
13.393342971801758,0.0859754353641349,0.0960290921551159,-2.158430473260889
13.40741491317749,0.08617083408087158,0.09645312594033609,-1.0419396558828649
13.421617984771729,0.08656163151434493,0.0968767231015592,-0.11599473464534515
13.437578916549683,0.08714782766455492,0.09729894101474301,1.1261335291729095
13.461185932159424,0.08792942253150161,0.09772012487879479,1.6684781374692572
13.47556185722351,0.08851561868171162,0.09814170135064083,2.1384635551402904
13.491539478302002,0.08929721354865831,0.09856374901479137,2.470190521410796
13.505545377731323,0.09007880841560498,0.09898520429546838,2.664727856482008
13.523390769958496,0.09105580199928834,0.09940562760664229,2.4701129426870434
13.53713846206665,0.09183739686623502,0.09982511373103202,2.4335648427446643
13.553526163101196,0.09261899173318171,0.10024367294467044,1.87357889838156
13.568625211715698,0.09300978916665503,0.10066145588493682,1.2289603507633964
13.579935312271118,0.0932051878833917,0.10107815256484293,0.38878174505671087
13.59757399559021,0.09340058660012837,0.10149303284411797,-1.1875137242469262
13.612544775009155,0.0932051878833917,0.10190598268716983,-2.9631308794488103
13.634911298751831,0.09340058660012837,0.10231772461649741,-3.6018897084321453
13.651712656021118,0.09340058660012837,0.10272970200006128,-3.70999330236509
13.667649745941162,0.09340058660012837,0.10314263575429092,-3.5821663081361654
13.690602540969849,0.09359598531686505,0.10355722325405284,-2.807594078367619
13.705575466156006,0.09379138403360171,0.10397499456350698,-1.6622091177922456
13.719547510147095,0.09418218146707506,0.1043960832756638,-0.595099090992889
13.73355770111084,0.0945729789005484,0.10481942968542929,0.2511966911306275
13.748541831970215,0.09496377633402173,0.10524416515345938,1.4146564469288514
13.770235776901245,0.09574537120096842,0.1056706370262845,2.166171411606839
13.78493618965149,0.09633156735117841,0.10610046574977279,2.3402198936373324
13.80055022239685,0.0971131622181251,0.10653424933898688,2.5432106776245664
13.815553426742554,0.09809015580180845,0.10697121973246022,2.686434105752808
13.833166599273682,0.0992625481022285,0.10741093505031259,2.750962784681052
13.850296258926392,0.10004414296917516,0.10785402083366812,2.468841392275677
13.860242366790771,0.10063033911938518,0.10830056053606807,2.099075644750589
13.87055253982544,0.1010211365528585,0.10874862425502028,1.4701166394910326
13.883477449417114,0.10141193398633185,0.109196137368572,0.5835198568877236
13.897526502609253,0.10141193398633185,0.1096423795239118,-0.5006234992869855
13.910596370697021,0.10160733270306853,0.11008723961451893,-1.712420492165727
13.926655530929565,0.10160733270306853,0.11053098259936694,-2.9905698411888975
13.939244508743286,0.10160733270306853,0.11097398399406261,-3.459272715124539
13.951513767242432,0.10160733270306853,0.11141598865192778,-3.5367690054527365
13.963574409484863,0.1018027314198052,0.1118566248788652,-3.155092892952859
13.977593898773193,0.10199813013654188,0.11229594710247273,-2.6602206134018873
13.994670629501343,0.10219352885327855,0.11273459779984535,-1.6389255344569595
14.004516124725342,0.10258432628675188,0.1131731816675543,-0.6225012726932333
14.021837949752808,0.10297512372022523,0.11361185135423245,0.20670399147535512
14.03149127960205,0.10317052243696188,0.11405080140917888,1.0916336500072548
14.055173635482788,0.10395211730390858,0.11449134881886332,1.5372319649243118
14.065528154373169,0.1043429147373819,0.11493570201627121,2.014293483462743
14.077287197113037,0.10492911088759192,0.11538390263971669,2.1106345835647145
14.094345808029175,0.10571070575453859,0.1158353300102011,2.316789644586681
14.104480504989624,0.10629690190474862,0.11629031639910781,2.2152955040169866
14.116920232772827,0.10688309805495863,0.1167481132255489,2.0074386611948123
14.126494407653809,0.10727389548843196,0.11720734923835517,2.056774924127905
14.1404869556427,0.10825088907211532,0.11766709598991429,1.878833818388682
14.153530597686768,0.10922788265579866,0.11812744875487105,1.6389722042067627
14.173412799835205,0.11059567367295536,0.11859035931471056,1.405078226550387
14.187684059143066,0.11157266725663871,0.11905884970828175,1.476723104570015
14.201798915863037,0.11235426212358537,0.11953454089911696,1.063341570681389
14.213814496994019,0.11294045827379541,0.12001722480763061,0.5595639247489693
14.222504615783691,0.11294045827379541,0.1205052174521845,-0.16035664331006472
14.234517097473145,0.11313585699053208,0.1209962549211967,-1.363242764000292
14.25437617301941,0.1135266544240054,0.12149068766875767,-2.7527748762172966
14.266083478927612,0.1135266544240054,0.12199060165358167,-3.905362597870091
14.278929948806763,0.1135266544240054,0.12249622417277949,-4.439759847794051
14.297885179519653,0.1135266544240054,0.1230080213092999,-4.620287170162248
14.311495304107666,0.1135266544240054,0.12352792921870426,-4.045048019208222
14.325496196746826,0.11372205314074207,0.12405639997230165,-3.2872069262952066
14.340492963790894,0.11391745185747876,0.12459255766727437,-2.2990729729306443
14.354670286178589,0.1143082492909521,0.12513556484680785,-1.1209029342861
14.367493391036987,0.11450364800768877,0.12568463089462498,-0.0919427483124417
14.382455348968506,0.11508984415789876,0.1262390193198511,1.2466494621033177
14.403606414794922,0.11587143902484545,0.1267994179246039,1.8635741515078346
14.41951322555542,0.11645763517505547,0.12736820061770898,2.38458167802046
14.434521198272705,0.11743462875873882,0.12794642099060075,2.747097467908251
14.447556257247925,0.1182162236256855,0.12853304492510725,2.6806973892305885
14.463560342788696,0.11899781849263219,0.12912664845492375,3.008710766510193
14.477549314498901,0.11997481207631551,0.1297259790823602,2.8132214863694376
14.491556882858276,0.12075640694326222,0.1303299503184565,2.7285870156083067
14.509883880615234,0.1221241979604189,0.13093863649933785,2.3869469390460605
14.521025896072388,0.12310119154410225,0.13155260284374926,1.9988193086941228
14.54055643081665,0.12446898256125893,0.1321722975662062,1.6454811040844457
14.555553674697876,0.1252505774282056,0.13279908796082943,1.0746952205119191
14.568613529205322,0.12583677357841566,0.13343319656938418,0.5294441595459909
14.583568096160889,0.12622757101188897,0.13407336814329365,-0.46241703622899477
14.598499298095703,0.12622757101188897,0.13471856979981406,-2.508237502495227
14.612503051757812,0.12642296972862566,0.1353679761152931,-3.9225513958817553
14.634024143218994,0.12642296972862566,0.13602279632397796,-4.541691556628315
14.648691654205322,0.12642296972862566,0.13668630000950133,-4.732648846243423
14.664489507675171,0.1266183684453623,0.13735979808195853,-4.140580860815041
14.679471731185913,0.126813767162099,0.13804224855362748,-3.083146324045592
14.693485021591187,0.12720456459557233,0.1387324417810425,-1.7637402041632866
14.707473754882812,0.12759536202904564,0.139429358394653,-0.3134631551676401
14.726612091064453,0.1281815581792557,0.14013362082490002,0.6311248918766629
14.737021207809448,0.1287677543294657,0.1408463606162993,1.501874212330376
14.75250506401062,0.12935395047967568,0.1415667016511296,1.889344241709067
14.761510610580444,0.12974474791314905,0.14229265746805742,2.0249069028791444
14.774431943893433,0.13052634278009573,0.1430217317864857,2.581376322386539
14.788444519042969,0.1313079376470424,0.14375245456152644,2.860633652824834
14.806694507598877,0.13228493123072574,0.14448595821640625,2.9632421939656988
14.821306705474854,0.13345732353114578,0.14522470767410586,2.6778769361297625
14.83350920677185,0.13423891839809246,0.14596955397490252,2.565707350457236
14.848738431930542,0.13541131069851248,0.14672008242446663,2.22379214461495
14.85761570930481,0.13619290556545915,0.14747531523032417,1.846177232452653
14.871730089187622,0.13736529786587917,0.1482328711675044,1.7826980810554087
14.892013549804688,0.1391238863165092,0.14899386380026813,1.5350009467386265
14.904430389404297,0.14029627861692923,0.1497623793211963,1.256628066081085
14.918311834335327,0.1416640696340859,0.1505394717500044,1.0061889056337723
14.934480905532837,0.14303186065124263,0.15132502236964276,0.8002535767115566
14.949477195739746,0.14459505038513598,0.15211968493057262,0.6381731511150843
14.963488101959229,0.14615824011902934,0.15292364881548712,0.513351207439458
14.980918407440186,0.14733063241944935,0.15373806289257583,-0.13399426960592353
14.999799013137817,0.14811222728639603,0.1545672391442285,-1.101027112201162
15.012869834899902,0.1485030247198694,0.15541566410293556,-2.250089080742604
15.028528928756714,0.14889382215334274,0.15628415431435688,-3.764518304204321
15.043466329574585,0.1490892208700794,0.1571719699512532,-5.0
15.05846381187439,0.1490892208700794,0.15807854113119826,-5.0
15.071455478668213,0.1490892208700794,0.15900320066138837,-5.0
15.084474563598633,0.14928461958681605,0.15994544646976436,-4.577319107650178
15.098455905914307,0.14928461958681605,0.16090491565046922,-3.9834496506925365
15.121548891067505,0.14967541702028941,0.16188520402017323,-2.847414557587447
15.134339094161987,0.15006621445376275,0.16289297131122243,-1.4424414629631068
15.148715496063232,0.1504570118872361,0.16393003598270162,-0.2005059222726342
15.161569595336914,0.1510432080374461,0.1649940036318091,1.0314082040658867
15.173668384552002,0.1516294041876561,0.16608167015235645,2.0136548525299696
15.182948350906372,0.15202020162112945,0.16718808213393008,2.7047178516799537
15.201107025146484,0.1529971952048128,0.1683105248158112,2.8622227720134523
15.209435224533081,0.1531925939215495,0.1694490933616813,3.059687742519202
15.22045350074768,0.15397418878849614,0.1705997552776925,3.1957852518740983
15.237419366836548,0.15514658108891616,0.17175945444321525,3.247914488938492
15.24997329711914,0.1563189733893362,0.1729302024925122,3.2241264134158505
15.272460460662842,0.15788216312322959,0.17411635404228346,3.4177615403071764
15.286462545394897,0.15924995414038626,0.17532406111442517,3.603603125782763
15.301456451416016,0.16061774515754293,0.17655550272636014,3.4323436924940505
15.31442928314209,0.16198553617469966,0.17780894954573265,3.1374488991781555
15.328468322753906,0.163548725908593,0.17908277942702774,2.821124143873384
15.341458082199097,0.16511191564248637,0.1803754749678685,2.2481087949109533
15.3534574508667,0.16647970665964307,0.18168562199835056,1.9503730452333505
15.367425680160522,0.1682382951102731,0.18301190897909436,2.050481002100099
15.38876986503601,0.17116927586132313,0.184356410849187,1.9590299889655536
15.405138492584229,0.1733186617454265,0.18572545418709943,1.5237259604398998
15.41539716720581,0.1748818514793199,0.18712041108197533,1.3181626745315849
15.43346118927002,0.17742203479689655,0.18853757507175622,0.9337766202955696
15.449429988861084,0.17976681939773664,0.18997610746473248,0.82967602519801
15.463439464569092,0.18172080656510334,0.19143513264399667,0.549611989030512
15.480453252792358,0.18426098988268005,0.19291361882523428,0.2595045478419623
15.496367454528809,0.18680117320025674,0.1944137912640145,0.018169489488343904
15.507108211517334,0.18816896421741344,0.19593537849210627,-0.4378635940577754
15.522502899169922,0.18992755266804345,0.19747417843874068,-1.4232055120707996
15.538435220718384,0.19149074240193684,0.19902920529661788,-2.374691444214827
15.553186178207397,0.19227233726888354,0.20060218930292395,-3.934112203507148
15.568423509597778,0.1930539321358302,0.2021925787197406,-5.0
15.583441972732544,0.1938355270027769,0.20379751289770962,-5.0
15.597432136535645,0.19403092571951355,0.20541366112132237,-5.0
15.615122079849243,0.19461712186972355,0.2070397044133591,-5.0
15.630223274230957,0.19520331801993357,0.20867695355875976,-5.0
15.647611141204834,0.19578951417014356,0.2103280200456146,-4.893954719564
15.661431312561035,0.19657110903709027,0.2119947658945091,-3.6863212271486434
15.674792289733887,0.19735270390403695,0.21367529967283574,-2.033152479630388
15.689432382583618,0.19813429877098362,0.21536550080534045,-0.25018725256322105
15.7054443359375,0.1993066910714036,0.21706179881786597,1.51484965448539
15.718456983566284,0.20028368465508697,0.2187611427390667,2.9205784342949506
15.732423067092896,0.20145607695550702,0.22046096732499795,3.632436228079502
15.746396541595459,0.2028238679726637,0.2221591569669935,3.9420253488079875
15.760517835617065,0.20419165898982042,0.22385400830720878,4.291996079366984
15.775864601135254,0.2061456461571871,0.22554512907997964,4.260932936854118
15.789293766021729,0.20770883589108044,0.22723306010704286,4.061947689047299
15.806575775146484,0.20985822177518385,0.2289197155315954,4.073993707829247
15.817284345626831,0.21122601279234052,0.23060682392873122,3.8267767667115633
15.834471702575684,0.21357079739318058,0.23229406097104432,3.497127050118036
15.848382234573364,0.21572018327728396,0.2339829833521781,3.161601901372637
15.858587265014648,0.21708797429444063,0.23567306475607783,3.126033778598165
15.870182037353516,0.21884656274507067,0.23735818851834561,2.8802589964916225
15.888506650924683,0.22177754349612072,0.23903664405374647,2.578931770722491
15.898551940917969,0.22334073323001408,0.24071143213681534,2.286021649741462
15.915282487869263,0.22607631526432748,0.2423833428637639,2.0240424996917064
15.928995609283447,0.22881189729864085,0.2440544540955384,1.521472291116312
15.939014196395874,0.2303750870325342,0.2457246811752095,1.294700793510257
15.957498788833618,0.23408766265053094,0.24739279561977226,0.9082482961806975
15.971881866455078,0.237018643401581,0.2490640459039414,0.8089438715572719
15.9854154586792,0.2395588267191577,0.25074285976394367,0.5352232808863157
16.000385761260986,0.24209901003673442,0.2524292757443415,0.25092491760488617
16.016399145126343,0.2450299907877845,0.2541228428977633,0.014226101555113474
16.029370307922363,0.2473747753886245,0.25582331929384433,-0.4383819581339522
16.050647258758545,0.25128274972335796,0.25753499395151647,-0.8692566794363494
16.06609320640564,0.253627534324198,0.25926751910951334,-1.2008359885775375
16.08141303062439,0.255972318925038,0.26102631486202393,-1.9751087937604193
16.096372842788696,0.2575355086589314,0.262810025933095,-3.5492308451949066
16.110418796539307,0.25890329967608805,0.26461586227930445,-5.0
16.12842082977295,0.2602710906932448,0.26644342520849873,-5.0
16.14303231239319,0.26124808427692814,0.26829525882955463,-5.0
16.156906604766846,0.26183428042713813,0.2701727161577394,-5.0
16.1729576587677,0.26222507786061144,0.2720761215270411,-5.0
16.188024044036865,0.2624204765773481,0.2740069667968958,-5.0
16.19892168045044,0.2626158752940848,0.27596303036725905,-5.0
16.208653926849365,0.26281127401082144,0.2779347300800016,-5.0
16.223928213119507,0.2632020714442948,0.2799133852245286,-4.358263943971977
16.23634672164917,0.26359286887776817,0.2818970651894001,-3.1070949359305002
16.250888347625732,0.26417906502797817,0.28388537356155896,-1.3080487702800354
16.264094829559326,0.26476526117818816,0.28587784064178184,0.34129165389028515
16.279418468475342,0.2657422547618715,0.2878758813582755,1.9009950085436458
16.29576349258423,0.26691464706229157,0.28988402251743606,3.3887180090045472
16.311399221420288,0.26808703936271155,0.2919069825537746,4.529931349219856
16.326372146606445,0.26965022909660497,0.29394519251680173,5.0
16.345924615859985,0.2717996149807083,0.29600072793309457,5.0
16.35621404647827,0.273167405997865,0.29807644439279535,5.0
16.37646746635437,0.2757075893154417,0.30017422480725914,5.0
16.39058256149292,0.27746617776607174,0.3023007954473339,5.0
16.405380964279175,0.2798109623669118,0.3044587367319088,5.0
16.419384956359863,0.2819603482510151,0.3066442185994933,5.0
16.43335509300232,0.2843051328518552,0.3088539980555791,4.819729814290792
16.446380138397217,0.28664991745269525,0.31108537211811443,4.510170476897327
16.461371898651123,0.28958089820374533,0.313336128723862,4.439712620722171
16.473395109176636,0.29192568280458536,0.31560449608921365,3.8542791633665647
16.488373279571533,0.2952474609891087,0.31788909085438166,3.9961196484040786
16.511618852615356,0.3001324289075255,0.32019678491370296,3.4691241359181726
16.526393175125122,0.30345420709204884,0.32254139862762643,3.0613014496496893
16.54236936569214,0.30677598527657224,0.3249266586707898,2.7326031064184155
16.556458711624146,0.3100977634610957,0.3273476072796149,2.4590442495820692
16.569372415542603,0.31283334549540903,0.32979983001485647,1.9496695994901356
16.58338952064514,0.3161551236799325,0.33227940920256577,1.1617090526147908
16.60302758216858,0.32104009159834923,0.3347881085387011,0.6958542019288032
16.61369228363037,0.32338487619918926,0.3373297013817773,-0.13819716273436566
16.627599239349365,0.3269020531004493,0.33989946761738704,-0.37860296030203233
16.64674997329712,0.3313962235853927,0.3424967188124223,-0.6536729078820913
16.658170461654663,0.33413180561970607,0.3451262904501863,-1.1558357065100804
16.673619508743286,0.3378443812377029,0.34778614541304237,-1.6218414429580315
16.68937635421753,0.3419477542891729,0.3504737861357789,-1.9682014181434635
16.704345703125,0.34566032990716966,0.35318693445298605,-2.186608645899339
16.718349933624268,0.3487867093749564,0.35592102156063943,-2.296078411958529
16.735326290130615,0.35269468370968976,0.35867473475432715,-2.8741948382140112
16.754886388778687,0.3560164618942132,0.3614558158178284,-4.010959749362909
16.77036428451538,0.3581658477783165,0.3642744447220299,-5.0
16.785349369049072,0.3601198349456833,0.36713028228240874,-5.0
16.80617928504944,0.3624646195465233,0.3700230958397017,-5.0
16.816720485687256,0.36324621441346994,0.37295559034424414,-5.0
16.83403706550598,0.3646140054306266,0.37592421932166276,-5.0
16.846835136413574,0.36520020158083666,0.3789263108971571,-5.0
16.862677335739136,0.36637259388125676,0.3819609465063599,-5.0
16.87735939025879,0.36734958746494006,0.3850266890113856,-5.0
16.89335322380066,0.36871737848209674,0.3881201777151276,-4.312219689076899
16.90733575820923,0.3698897707825168,0.3912357500146854,-2.4789165514383944
16.920342683792114,0.37106216308293677,0.39436866859014474,-0.31929730145290136
16.941396474838257,0.37340694768377686,0.3975220746149819,1.5388996468285157
16.955065965652466,0.37497013741767016,0.4007061653798193,2.9285143980258073
16.970584392547607,0.37711952330177356,0.4039252363183138,4.144115065936908
16.98457646369934,0.37926890918587697,0.4071781366643863,5.0
16.999350786209106,0.3814182950699803,0.4104615882515798,5.0
17.013340711593628,0.3837630796708204,0.41377015577252985,5.0
17.026366472244263,0.3861078642716604,0.41709890591059057,5.0
17.042434692382812,0.3892342437394471,0.4204437825200215,5.0
17.055339574813843,0.3917744270570238,0.4238015348584747,5.0
17.069329500198364,0.3947054078080739,0.4271696469094298,5.0
17.091882467269897,0.3997857744432273,0.43055691308006366,5.0
17.10734486579895,0.4033029513444874,0.4339821076112428,5.0
17.119762420654297,0.4064293308122741,0.43745102515779394,4.99960915538988
17.13436794281006,0.41053270386374413,0.44095748037502014,4.874572409806547
17.148361921310425,0.41424527948174095,0.44449577045697763,4.674661796852957
17.16133141517639,0.417762456383001,0.44806107676179574,4.1564905138264185
17.177332639694214,0.4220612281512078,0.4516493778525487,4.412529031681556
17.195292949676514,0.42733699350309784,0.4552621850773976,3.98815035961192
17.207610607147217,0.43163576527130454,0.4589039179297403,3.3774514957643946
17.22565531730652,0.437888524206878,0.4625784367363279,2.5062225366675133
17.235698461532593,0.4408195049579281,0.4662876555649636,1.962600078367466
17.254253149032593,0.44668146646002815,0.47003046599962106,1.6042039794606084
17.268019676208496,0.4515664343784449,0.473811277009626,1.0782572196384246
17.27828049659729,0.4560606048633884,0.47762588580813875,0.5853499447320838
17.29533362388611,0.4607501740650684,0.4814633753788942,-0.08632879281465466
17.310333728790283,0.4658305407002219,0.48532540368929233,-0.4108786760052467
17.325422048568726,0.4707155086186386,0.48921328168303824,-0.8330964058535464
17.347799062728882,0.4787268560048421,0.4931332268050738,-1.1965446567842242
17.364307165145874,0.48400262135673217,0.497102896997832,-1.4576554319451973
17.37833857536316,0.4886921905584123,0.5011280224741552,-1.8947489871230871
17.391338348388672,0.49338175976009235,0.505200381097043,-2.2827242341371274
17.40633273124695,0.49865752511198247,0.5093107018926147,-2.5537753981800932
17.420292377471924,0.5033470943136626,0.5134508018869002,-2.7050319815600696
17.43431282043457,0.5076458660818692,0.5176135166499267,-3.032553935024282
17.45330286026001,0.5137032263007061,0.5218002549677015,-3.0421751595985107
17.469910621643066,0.5191743903693328,0.5260249470495293,-3.187136574564479
17.485304355621338,0.5234731621375396,0.5302967384767646,-3.8619659424557184
17.49942898750305,0.5271857377555363,0.5346100992632068,-4.53285161998007
17.514333248138428,0.5308983133735331,0.5389547721863135,-5.0
17.537662267684937,0.5357832812919499,0.5433351169028771,-5.0
17.55330514907837,0.5385188633262632,0.547767906285238,-5.0
17.568307876586914,0.5406682492103666,0.5522538956421148,-5.0
17.580311059951782,0.5424268376609965,0.5567802373783034,-5.0
17.59530997276306,0.5445762235450999,0.5613358882766352,-5.0
17.61532735824585,0.5475072042961501,0.5659195857757389,-5.0
17.62593936920166,0.5494611914635167,0.5705337971151171,-4.873565549589907
17.63862180709839,0.5514151786308834,0.5751663490525553,-3.5729054322936875
17.65618109703064,0.5543461593819334,0.5798086072495128,-1.546318488001516
17.667006969451904,0.5561047478325636,0.5844620563775331,0.34752119702386053
17.685837984085083,0.5594265260170869,0.5891275529771547,2.1106548297248846
17.700215339660645,0.5619667093346636,0.5938125943247697,3.4713778654076326
17.713510036468506,0.5645068926522403,0.5985192431715761,4.402330777685784
17.728301286697388,0.5674378734032904,0.6032397211561729,5.0
17.74430823326111,0.5711504490212871,0.6079667679986022,5.0
17.758297204971313,0.5742768284890738,0.6126941360233932,5.0
17.776955366134644,0.5789663976907539,0.617424221190604,5.0
17.788619995117188,0.5822881758752773,0.6221635516132111,5.0
17.80545473098755,0.5875639412271675,0.6269116507854484,5.0
17.81876564025879,0.5914719155619009,0.6316682701476101,5.0
17.828375577926636,0.5945982950296876,0.6364242019902259,5.0
17.839288473129272,0.5977246744974742,0.6411566705840582,5.0
17.858562469482422,0.6045636295832577,0.645858675830315,5.0
17.868780374526978,0.6084716039179912,0.6505371526707951,5.0
17.88415241241455,0.6141381667033546,0.6551899249843165,5.0
17.895414352416992,0.6205863243556646,0.6598116895820261,5.0
17.917330503463745,0.6262528871410281,0.6644080429513018,4.962214349137771
17.931363821029663,0.6321148486431284,0.6689951486153028,4.5611278709649135
17.946303129196167,0.6385630062954383,0.6735791343022525,4.340569782477928
17.96033239364624,0.6442295690808018,0.6781541488915795,3.3398459558565943
17.973299741744995,0.6493099357159552,0.6827152402763975,2.2379681371437328
17.987396240234375,0.6551718972180554,0.6872583228761431,1.009981541208511
18.006636142730713,0.6633786433209955,0.6917874867813968,-0.03741440625921977
18.01744294166565,0.6692406048230957,0.6963098221263944,-1.1032443217050503
18.03419780731201,0.6741255727415123,0.7008251639224543,-1.9592633590446862
18.0474693775177,0.6794013380934025,0.7053351231581119,-2.2855301565523307
18.06455636024475,0.6864356918959225,0.7098453432067771,-2.6278380391077447
18.07935929298401,0.6924930521147594,0.7143609573587761,-2.878738596893685
18.09337306022644,0.6983550136168594,0.7188816288017158,-3.2940283866405227
18.108296394348145,0.7044123738356962,0.7234024190740721,-3.367779748708535
18.124414920806885,0.7108605314880063,0.7279210973535198,-3.2771296212864245
18.139904022216797,0.7173086891403164,0.732441436489852,-3.1114401830033644
18.156150579452515,0.7239522455093631,0.736973967121149,-2.915731797700704
18.16540503501892,0.7274694224106234,0.7415202025206106,-2.988591482771596
18.17633819580078,0.7315727954620934,0.7460633774777565,-3.0982236485459693
18.199272394180298,0.7405611364319802,0.7506044384087532,-3.161687757827276
18.212145566940308,0.7458369017838703,0.7551678870031091,-3.1602873190604512
18.22727608680725,0.751894262002707,0.7597630762578612,-3.100343131358957
18.24325203895569,0.7577562235048073,0.7643869480053184,-3.271771494266302
18.257309675216675,0.7628365901399606,0.769037167051622,-3.4458691715860343
18.271262407302856,0.7675261593416408,0.7737103885781204,-4.098474098754078
18.29267430305481,0.7737789182772141,0.7784180340919303,-5.0
18.309237241744995,0.7780776900454209,0.783185731071031,-5.0
18.322279453277588,0.7812040695132076,0.7880230131615249,-5.0
18.33825397491455,0.7843304489809945,0.7929219907144499,-5.0
18.353773832321167,0.7872614297320444,0.7978756884118385,-5.0
18.365273475646973,0.7892154168994111,0.8028778904020897,-5.0
18.388401746749878,0.7929279925174079,0.807935806045525,-5.0
18.40326476097107,0.7952727771182478,0.8130714833847326,-5.0
18.419352293014526,0.7980083591525613,0.8182882740369956,-5.0
18.44052743911743,0.8015255360538213,0.8235845162930503,-3.5358419089052995
18.450295209884644,0.8032841245044513,0.8289638804783389,-1.4899923256257763
18.46911382675171,0.8069967001224482,0.8344191863062353,0.6483687649002928
18.4830482006073,0.8097322821567615,0.8399474705003718,2.678487888059725
18.498255729675293,0.8130540603412848,0.8455414796285692,4.255888609670052
18.51226282119751,0.8161804398090716,0.8511837342992193,5.0
18.527250051498413,0.819502217993595,0.8568586522078554,5.0
18.543375253677368,0.8232147936115918,0.8625554551953563,5.0
18.554248809814453,0.8259503756459051,0.8682645988110194,5.0
18.56726884841919,0.8294675525471652,0.8739717571224173,5.0
18.58126449584961,0.8335709255986353,0.8796647601113751,5.0
18.594321489334106,0.837283501216632,0.8853364477726144,5.0
18.611562490463257,0.8427546652852588,0.8909852232656473,5.0
18.62382173538208,0.8466626396199921,0.8966118725924784,5.0
18.64468240737915,0.8542831895727223,0.9022252807545855,5.0
18.659021615982056,0.8595589549246124,0.9078459276023058,5.0
18.675316333770752,0.8662025112936592,0.9134792833741309,5.0
18.695332765579224,0.8744092573965994,0.9191254019263814,5.0
18.70524501800537,0.8783172317313327,0.9247868573161222,5.0
18.716206073760986,0.8828114022162762,0.9304464278702009,4.996071105476554
18.730229139328003,0.8884779650016396,0.9360849791167039,4.010876793692354
18.746074438095093,0.8947307239372131,0.9416997351993877,2.572733055586263
18.76464343070984,0.9025466726066799,0.9473051115274767,1.2311141157775598
18.776185512542725,0.9070408430916233,0.9529175460639365,-0.1153279694837166
18.785375595092773,0.91075341870962,0.9585250036630147,-1.206115175747259
18.80569815635681,0.919155563529297,0.9641152644835406,-1.7168201999958117
18.817143201828003,0.9240405314477135,0.9697004567531452,-2.1991413243070665
18.830591678619385,0.9293162967996036,0.9752829487475918,-2.554292123327663
18.84589385986328,0.9357644544519137,0.9808594084014028,-2.7703639203107926
18.860764980316162,0.941626415954014,0.986437480843521,-2.8673542701674273
18.870011806488037,0.945729789005484,0.9920129381334676,-3.149202336013138
18.88136625289917,0.9504193582071641,0.9975632009412865,-3.1231946661858734
18.895282983779907,0.9558905222757909,1.003074089787435,-2.9655205707448555
18.910005807876587,0.9613616863444175,1.0085502599244747,-2.759821717541097
18.919309616088867,0.9650742619624143,1.0139936358019055,-2.5446238138358543
18.932287216186523,0.9705454260310411,1.0193954505801905,-2.336719331807207
18.945210933685303,0.9756257926661944,1.0247541178091508,-2.1426245511620783
18.967424154281616,0.9850049310695548,1.030091055811524,-1.9641430080711813
18.97718596458435,0.9887175066875513,1.0354320231619198,-1.8010307045630862
18.995551109313965,0.996142657923545,1.0407880392080668,-1.3762079057337353
19.00951910018921,1.0016138219921717,1.0461718811352163,-1.2073545239984584
19.02277421951294,1.0070849860607984,1.051591012395657,-1.1385171828091347
19.036331176757812,1.0127515488461618,1.0570411200748102,-1.1013018953079297
19.051291704177856,1.0188089090649985,1.0625184435031272,-1.0681241909757682
19.06534767150879,1.0244754718503621,1.0680197311907342,-1.0297328619554813
19.080207109451294,1.0305328320691989,1.0735421891423862,-0.9846003039560067
19.09899592399597,1.0389349768888756,1.0790915080884877,-0.9340570525976816
19.11032009124756,1.0430383499403457,1.0846757390119843,-0.8801660911046931
19.12869119644165,1.0502681024596026,1.0902994443353309,-1.1009128162174744
19.138808012008667,1.0543714755110727,1.095966124893693,-1.0789016851725046
19.15581250190735,1.0610150318801193,1.1016721828014508,-0.9699578191212543
19.166212558746338,1.065313803648326,1.107411413127069,-1.11811981279704
19.184813976287842,1.0733251510345296,1.1131822040780353,-1.0314633170742113
19.200303077697754,1.079577909970103,1.1189929197797777,-0.5972440824687658
19.21418833732605,1.08504907403873,1.1248460174312918,-0.40248273120723055
19.225297212600708,1.08973864324041,1.1307321489128448,-0.3170016823475691
19.236048936843872,1.0942328137253534,1.136636183111271,-0.2791462699565527
19.250988483428955,1.1004855726609268,1.1425423484524015,-0.2604690856232974
19.265939712524414,1.1065429328797636,1.1484507425443031,-0.5244286863990804
19.28127145767212,1.1124048943818636,1.1543667866539125,-0.5469135039171493
19.295302391052246,1.1180714571672272,1.1602881974652357,-0.48080836385074205
19.310215711593628,1.124128817386064,1.166210272730247,-0.39296753368858195
19.33273410797119,1.1333125570726872,1.172144572304878,-0.5861403183207734
19.34665322303772,1.1387837211413143,1.178119000045735,-0.5500246143381737
19.362219095230103,1.1456226762270976,1.1841439064556456,-0.1643013457275709
19.378204107284546,1.152070833879408,1.1902092769650303,-0.2893969655513343
19.394916772842407,1.1593005863986645,1.1963089949427073,-0.27569697641911284
19.40828537940979,1.164380953033818,1.2024430626824336,-0.2165994354212935
19.421719789505005,1.169656718385708,1.208605805295798,-0.15151322228715197
19.43565845489502,1.1755186798878081,1.2147875170835274,-0.09504687855327221
19.454983949661255,1.183334628557275,1.220993084003465,-0.05094417553294149
19.468908548355103,1.1891965900593753,1.2272383457623612,-0.018590748289917726
19.4797523021698,1.1936907605443183,1.2335178332188546,0.004055349956107738
19.488712787628174,1.1970125387288422,1.2397997004114154,0.019224265398914996
19.505269527435303,1.2038514938146252,1.246059937942268,0.028872742860095595
19.51661491394043,1.2089318604497787,1.252295368656112,0.034563955659313576
19.533790826797485,1.2155754168188255,1.2585093883245624,0.03748483133757979
19.546540021896362,1.2202649860205057,1.2647095324051723,0.03850887410804131
19.558995723724365,1.226126947522606,1.2708961620935693,0.038265462066445544
19.57423734664917,1.2317935103079691,1.2770649507340404,0.03720099231843654
19.588163137435913,1.2376554718100692,1.2832216547009365,0.03562797933331624
19.60356330871582,1.2437128320289061,1.289374833914384,0.033762552141029176
19.616747617721558,1.2489885973807964,1.2955296589015763,0.03175224811488658
19.631244659423828,1.2548505588828962,1.301685534068114,0.029696224535787664
19.646155834197998,1.2609079191017332,1.3078383902703294,0.027659769046309433
19.6611807346344,1.2671606780373064,1.313984783260137,0.30172298347466076
19.67517590522766,1.272631842105933,1.320121842001713,0.33295924539490396
19.68817639350891,1.2779076074578233,1.3262472219743942,0.2760748278979547
19.702208518981934,1.28337877152645,1.332359062401499,0.19831069301828433
19.71516704559326,1.2886545368783402,1.338455946425097,0.12621874645237563
19.728171348571777,1.2941257009469669,1.3445368633800034,0.06813608941349587
19.749814748764038,1.3033094406335908,1.3506151935480761,0.024782495366791144
19.75893473625183,1.3068266175348506,1.3567072149104586,-0.0058885474719508075
19.768170833587646,1.3103437944361107,1.3627985053582063,-0.026577648112754274
19.78217339515686,1.3158149585047374,1.3688671012423228,-0.039802702466669185
19.799991130828857,1.323240109740731,1.3749137107298257,-0.04763394115941551
19.818862199783325,1.3310560584101976,1.3809624593035443,-0.05166882856366074
19.834183931350708,1.3371134186290345,1.3870429215717082,-0.05309463630352142
19.8481547832489,1.342779981414398,1.3931621614717662,0.22326607839355192
19.862175703048706,1.348641942916498,1.3993115982118012,-0.01819039477532465
19.876215934753418,1.3545039044185982,1.4054828662227659,0.17178773155980612
19.891157150268555,1.3601704672039616,1.411668570778897,0.18649214247412832
19.904159545898438,1.3654462325558518,1.4178622100004499,0.13972667323954602
19.918187141418457,1.3707219979077419,1.4240580971890888,0.08037662167267931
19.931180715560913,1.3756069658261585,1.4302512853352576,0.027286324932459534
19.94415593147278,1.3810781298947854,1.4364374953195644,-0.014028610272114325
19.95817995071411,1.3869400913968852,1.4426130490022278,-0.04353369805011258
19.98031187057495,1.3959284323667722,1.4487914442038132,-0.06310764390231574
19.99441361427307,1.4015949951521356,1.4550004727347665,-0.3510457802943395
20.009190559387207,1.4074569566542359,1.4612483938123746,-0.11439967140477283
20.024160623550415,1.413709715589809,1.467526871241772,-0.30450411952413725
20.037177562713623,1.4187900822249626,1.47382617936953,-0.3162099927446655
20.052184104919434,1.424456645010326,1.4801355433484606,-0.26445288902288216
20.06617307662964,1.4303186065124263,1.48644550287527,-0.1989211217646687
20.080166816711426,1.4361805680145263,1.4927478172505118,-0.13901789516552263
20.093129634857178,1.4412609346496796,1.4990353624550778,-0.09064045697041778
20.116130828857422,1.4506400730530398,1.50531944984173,-0.054078350414882397
20.129988193511963,1.4561112371216667,1.5116273635383803,-0.027618640687931493
20.14513373374939,1.4621685973405036,1.5179645276763434,-0.009107823899563655
20.159138441085815,1.4676397614091303,1.524316502168656,0.0034356880595386554
20.17216467857361,1.473110925477757,1.53066970285563,0.011633232334766826
20.188188791275024,1.4791682856965935,1.5370120641441725,0.016734242815407033
20.204101085662842,1.4856164433489039,1.5433360977103858,0.01966816650904343
20.218798637390137,1.4930415945848974,1.5496400936558021,0.02111082475740845
20.238133668899536,1.4998805496706806,1.5559325528310557,0.021545860568177783
20.253137826919556,1.505742511172781,1.562226559436654,-0.25472312485555276
20.268165588378906,1.5116044726748812,1.5685184350518289,-0.28850466070936365
20.284980535507202,1.5182480290439277,1.5747953540460777,-0.23432469006088735
20.29612922668457,1.5229375982456077,1.5810458373353102,-0.15930341246116117
20.309157609939575,1.528213363597498,1.5872537473696082,-0.08991363581757317
20.324515104293823,1.534075325099598,1.5934062783510967,-0.31048065609298897
20.342138528823853,1.5413050776188546,1.5995032703858951,-0.3027419035722658
20.356797218322754,1.5475578365544282,1.605552097641989,0.056712207331506864
20.369863986968994,1.5528336019063185,1.611552319958435,-0.0916348832824798
20.380255937576294,1.557132373674525,1.6174883787729752,-0.09817003529043442
20.40013027191162,1.564948322343992,1.6233506631865309,0.21941633591648957
20.41377854347229,1.5704194864126186,1.6291475644079856,0.02631871168077478
20.42820954322815,1.576086049197982,1.6348807874761577,-0.0188080753440533
20.444213151931763,1.5825342068502923,1.6405410995922167,-0.007488466348139936
20.45814800262451,1.588005370918919,1.6461208174268867,0.01994601805336628
20.470207452774048,1.5928903388373359,1.6516136799051826,0.04711758808261679
20.48315405845642,1.5981661041892261,1.65701472531939,0.06847649032136861
20.498136281967163,1.604028065691326,1.662320175201805,0.08308380422240741
20.512203454971313,1.6096946284766893,1.6675273273579783,0.09174471138678963
20.52315354347229,1.6143841976783697,1.6726344601069105,0.09574436668420085
20.53910517692566,1.620636956613943,1.6776407489076293,0.09633423197366238
20.557190895080566,1.6278667091331998,1.6825511241325326,0.09455805969183576
20.57513451576233,1.6350964616524568,1.687382429846825,0.09122279932935937
20.589157104492188,1.6405676257210835,1.6921515154697493,0.08692453848176193
20.60413908958435,1.6464295872231836,1.6968609689067518,0.08208976657728456
20.61912727355957,1.6524869474420203,1.7015064247389309,0.07701576757546844
20.633138418197632,1.657958111510647,1.706084928186838,0.071904608047652
20.647124767303467,1.6636246742960106,1.7105948502983335,0.0668897478442102
20.66109538078308,1.669291237081374,1.7150357942544905,0.3380944021664368
20.683871746063232,1.678084179334524,1.7194205305557149,0.0905790036612722
20.700117111206055,1.6849231344203075,1.7237729579341639,0.2740534451752397
20.7141056060791,1.6903942984889342,1.7281021516637778,0.006081110588101624
20.737312078475952,1.6995780381755579,1.7324169089374015,-0.08037695598037033
20.752221822738647,1.7054399996776577,1.7367377370736599,0.18504248755166874
20.767195224761963,1.7111065624630215,1.7410700306880003,-0.3169987938217844
20.787643432617188,1.7191179098492249,1.7454127827964425,-0.4148938802704923
20.80488395690918,1.7253706687847985,1.7497780196877009,-0.9111518183223414
20.820215940475464,1.7308418328534252,1.7541754476903546,-1.4304597645406791
20.8351411819458,1.7361175982053152,1.7586003173249278,-2.1173941461113372
20.849146366119385,1.7406117686902585,1.7630421853398455,-2.9784163372924444
20.872262477874756,1.748232318642989,1.7675042665812024,-3.6961595907961096
20.88633894920349,1.7527264891279322,1.7720016688611004,-3.9110035334336954
20.90112566947937,1.756829862179402,1.7765347296690128,-4.152199866148778
20.916135549545288,1.7607378365141355,1.7810903250675165,-5.0
20.934507608413696,1.7654274057158155,1.7856605440819284,-5.0
20.953437566757202,1.7699215762007592,1.7902506510076712,-5.0
20.969101905822754,1.7734387531020193,1.7948685270475861,-4.850523605977179
20.984104871749878,1.7767605312865427,1.7995075727666943,-5.0
20.99809432029724,1.7794961133208558,1.8041532226250336,-4.300241973354055
21.010103464126587,1.7818408979216962,1.808792624171718,-4.580626937920117
21.02610492706299,1.7847718786727458,1.813414926161076,-3.964223840419139
21.043068885803223,1.787702859423796,1.818015760152715,-3.4046392490513915
21.05859398841858,1.790047644024636,1.8225973895516034,-2.6527772583510982
21.073605060577393,1.792392428625476,1.8271605367475228,-1.9500223961986065
21.084407806396484,1.793564820925896,1.8316975476620816,-1.3732031844930954
21.096145391464233,1.7953234093765262,1.8361912372359246,-0.9300524642416522
21.115349531173706,1.797863592694103,1.8406322084228581,-0.6029810055152813
21.131112575531006,1.8000129785782062,1.845024804989209,-0.09215651441306738
21.146093368530273,1.801966965745573,1.8493674765975079,0.3818856779776276
21.16011667251587,1.8037255541962032,1.8536513768530063,1.3015100448506094
21.178100109100342,1.806070338797043,1.8578727146114726,1.8982267619841744
21.193588495254517,1.8084151233978831,1.862033443473231,2.254812318502434
21.211214065551758,1.810759907998723,1.8661350401576102,2.715304997420727
21.226138830184937,1.8129092938828264,1.8701752153009328,3.089178500788329
21.241199016571045,1.8150586797669297,1.874146453126872,3.6030928816580445
21.261677980422974,1.81798966051798,1.878043820978814,4.021219578138236
21.271649599075317,1.8195528502518732,1.881864586811801,4.280803932976102
21.29108214378357,1.8224838310029234,1.8856016769160007,4.6646853388689244
21.30611252784729,1.8248286156037634,1.8892503459062737,4.683638344336666
21.321239948272705,1.8271734002046034,1.892804276156702,4.801318033375349
21.338932037353516,1.8304951783891268,1.89625421590975,4.59477439752732
21.35387659072876,1.8332307604234404,1.8995936289188813,4.543975208785259
21.371426105499268,1.8367479373247004,1.9028172719957104,4.222411515688202
21.38549304008484,1.8394835193590138,1.905919480816404,4.100128175367686
21.399028301239014,1.8420237026765904,1.9088921929653135,4.016045405197726
21.414201736450195,1.8447592847109036,1.9117259803956528,3.636008040407452
21.430179834365845,1.8478856641786905,1.9144121464455457,3.4652866586534525
21.44307780265808,1.8504258474962672,1.916942887162056,3.076780286387792
21.459592819213867,1.8537476256807905,1.9193110991049325,2.6550419944712385
21.479108810424805,1.8578509987322607,1.9215091841708498,2.2708727959575694
21.4939067363739,1.860586580766574,1.9235285671587992,1.944542519685736
21.5091392993927,1.8639083589510974,1.9253615716115462,1.3994662589525193
21.524104356765747,1.8668393397021477,1.9270022881925257,1.1467630453333229
21.547768592834473,1.871724307620564,1.9284413419490194,0.7464180472497648
21.56156349182129,1.8744598896548776,1.9296657849665784,0.08960256795888777
21.576146602630615,1.8771954716891908,1.9306683620186458,-0.5260766960309742
21.59006905555725,1.879540256290031,1.9314474015032936,-1.0052181181834698
21.60519790649414,1.8820804396076078,1.9320021003943488,-2.1654099466731798
21.62526273727417,1.8852068190753946,1.932327837829047,-3.022440279551655
21.64194345474243,1.8875516036762345,1.932413112620156,-3.582747564241831
21.657098054885864,1.8895055908436014,1.932249613838314,-3.8980586725533497
21.67107892036438,1.8910687805774946,1.93183902689392,-4.027795197421048
21.6851806640625,1.8924365715946512,1.931187438168937,-4.3008315840046585
21.69906234741211,1.8936089638950713,1.9303013727984155,-5.0
21.71653175354004,1.8945859574787545,1.929184915647876,-5.0
21.73239278793335,1.8953675523457014,1.9278370953459736,-5.0
21.74975323677063,1.8957583497791746,1.926252540394331,-5.0
21.765056133270264,1.8959537484959115,1.924428026906871,-5.0
21.781041383743286,1.8957583497791746,1.9223708199481788,-5.0
21.797197818756104,1.8959537484959115,1.9200915337739015,-5.0
21.81752896308899,1.8959537484959115,1.9175877806395247,-4.088271219707105
21.833089351654053,1.8957583497791746,1.9148516901911246,-2.850879853670917
21.84805917739868,1.8959537484959115,1.911891218855699,-1.1574422169708327
21.861087799072266,1.8959537484959115,1.9087250951654102,0.3749784745136516
21.880184650421143,1.8957583497791746,1.9053646717464443,1.5598920365624867
21.893968105316162,1.8953675523457014,1.901814878186248,2.3890560217050183
21.908946752548218,1.8951721536289647,1.8980849775657798,2.641420453967498
21.92320442199707,1.8949767549122283,1.894185691627594,2.6284091426251353
21.939033031463623,1.8945859574787545,1.8901246961339349,2.5008780812855362
21.954508781433105,1.8939997613285446,1.8859113712788618,2.0546536654472543
21.968021392822266,1.8936089638950713,1.8815604156239314,1.5659367844842984
21.981070280075073,1.8932181664615981,1.8770887373535772,1.4136406553990415
21.99605417251587,1.8926319703113879,1.8725116342769776,1.1056062254011243
22.011029481887817,1.891264179294231,1.8678428667568516,0.5166449698254421
22.03207516670227,1.888919394693391,1.8630818488039382,-0.3331101843434878
22.047255277633667,1.8865746100925513,1.8582128325264546,-1.9295052513912694
22.06104350090027,1.8842298254917114,1.8532331351568048,-3.4398492446302678
22.07504177093506,1.8812988447406611,1.848157178010573,-5.0
22.09106206893921,1.8775862691226646,1.843000905265812,-5.0
22.114448070526123,1.8709427127536178,1.8377619352555812,-5.0
22.129036903381348,1.8658623461184642,1.8324223325130606,-5.0
22.1450297832489,1.8601957833331009,1.8269841130518625,-5.0
22.16820526123047,1.8510120436464772,1.821449387898622,-5.0
22.1816725730896,1.8455408795778505,1.8158051178151753,-5.0
22.19706416130066,1.8394835193590138,1.810058003936493,-5.0
22.213119983673096,1.8318629694062836,1.8042289367946014,-5.0
22.228778839111328,1.8248286156037634,1.7983330912493893,-3.972405059380344
22.249243021011353,1.8166218695008234,1.7923676846175562,-1.664903401925143
22.264081478118896,1.81036911056525,1.7863198444146742,0.9123201039364098
22.280076503753662,1.8035301554794665,1.7801966398224272,3.075773737623869
22.296343088150024,1.7964958016769463,1.7740155295655202,4.934066356897872
22.30913996696472,1.791220036325056,1.7677917040290518,5.0
22.329556226730347,1.7820362966384327,1.7615302353685727,5.0
22.338046312332153,1.7787145184539093,1.7552355854239372,5.0
22.361406803131104,1.768749183900339,1.7489194602277542,5.0
22.375022888183594,1.762887222398239,1.7425736291583842,5.0
22.39786124229431,1.7537034827116156,1.7361762840526989,5.0
22.4130220413208,1.7470599263425688,1.729708982409903,5.0
22.42532777786255,1.741588762273942,1.7231748450899107,5.0
22.440101146697998,1.7353360033383685,1.7165952648778846,5.0
22.455087423324585,1.729083244402795,1.7099886373071516,5.0
22.471149682998657,1.722048890600275,1.7033692074399696,5.0
22.48308539390564,1.7167731252483849,1.69674890992094,4.858858750414344
22.505884170532227,1.7071985881282878,1.6901215294012,4.609133989020949
22.520000457763672,1.7015320253429245,1.6834662581201956,4.316583433621952
22.53507399559021,1.6948884689738777,1.6767828879837432,4.014028576875498
22.54920482635498,1.688831108755041,1.6700830858564486,3.7175694149544096
22.56300950050354,1.682969147252941,1.663376673294625,3.434789474552708
22.577356576919556,1.6767163883173675,1.6566752877334816,3.168924958461986
22.599169492721558,1.6675326486307438,1.6499720620277751,3.1970327272337657
22.607150554656982,1.6640154717294837,1.643257396696078,3.000056343259052
22.62764835357666,1.6552225294763336,1.6365365043766187,2.7320276989361636
22.64208459854126,1.6495559666909703,1.6298013606017945,2.4592613368151888
22.656172513961792,1.6436940051888702,1.6230479967175828,2.2072839023244724
22.67005205154419,1.6376366449700333,1.6162888126229769,1.9833888082559925
22.685102224349976,1.6313838860344596,1.6095341590193222,2.063313989656221
22.708235502243042,1.6212231527641532,1.60277284871347,1.649047028057965
22.72303318977356,1.6153611912620527,1.5959755845291979,1.4106107144599145
22.739081859588623,1.6083268374595328,1.589137447211234,1.2571674405279578
22.757128715515137,1.600510888790066,1.5822669004143675,1.145160138129306
22.775554418563843,1.5926949401205992,1.575353652330099,1.330073044041233
22.78953790664673,1.5866375799017622,1.5683841322730607,1.0074232090200363
22.804092168807983,1.5805802196829255,1.5613628120128058,0.8465909212428804
22.820093631744385,1.573741264597142,1.5543064871794197,1.0343012869796573
22.834134101867676,1.567879303095042,1.5472318654491262,0.7340890828568206
22.847989797592163,1.5620173415929417,1.5401531538791922,0.8770737803857018
22.861002445220947,1.5563507788075785,1.5330822646642102,0.8490375426725476
22.880635976791382,1.547753235271165,1.5260170437293155,0.7610709984649762
22.895153999328613,1.5411096789021181,1.5189412025656828,0.661387686983945
22.911065816879272,1.5344661225330716,1.511844628265687,0.568934753378568
22.926052570343018,1.5286041610309713,1.5047270753595523,0.48954884179357383
22.942000150680542,1.5217652059451876,1.4975967178008032,0.4235792483987456
22.9637188911438,1.512190668825091,1.4904491287128712,0.3693809812253569
22.98001503944397,1.505547112456044,1.483260229983792,0.324838180083571
22.996076822280884,1.4987081573702605,1.4760243794316492,0.2879695130598944
23.01886534690857,1.488547424099954,1.4687371676758747,0.2571213298000355
23.034005641937256,1.4820992664476438,1.4613779106307654,-0.045050918504841136
23.050002813339233,1.4756511087953337,1.4539504140579227,-0.10059781787554226
23.069857358932495,1.4672489639756567,1.4464661986064116,-0.06497027019448261
23.083328247070312,1.4615824011902934,1.4389218938828734,-0.00597414137976348
23.092656135559082,1.4578698255722966,1.4313382265041263,0.32544745546041415
23.113289833068848,1.4486860858856732,1.4237399731075968,0.1256378607821747
23.129061460494995,1.4424333269500995,1.4161206318317785,0.0672663507732773
23.144983053207397,1.435203574430843,1.4084817741304507,-0.21131706495841704
23.167248725891113,1.4254336385940094,1.4008217399248757,-0.22930370088563967
23.18211340904236,1.4197670758086463,1.3931185452456625,0.11882929119970109
23.19804549217224,1.4131235194395992,1.3853748033537363,-0.034795135842986935
23.22120428085327,1.4031581848860288,1.3775930914192982,0.2316974502807992
23.230405569076538,1.3986640144010856,1.3697667530650788,0.30401539419861123
23.24233865737915,1.3939744451994056,1.361926920060199,0.2964205092512454
23.259154319763184,1.3871354901136221,1.3541038725468573,0.26097967543835354
23.275177717208862,1.3797103388776286,1.3462920503606821,0.2201744484099481
23.289998054504395,1.3736529786587917,1.3384857712728406,-0.09328557315815808
23.305975914001465,1.367009422289745,1.3306955655397297,-0.15782524791344343
23.320005655288696,1.3611474607876448,1.3229362770478956,-0.1280561298165283
23.342665672302246,1.3517683223842847,1.3151998824539273,-0.07203903930184001
23.357995986938477,1.345124766015238,1.307458351077417,-0.017348880394751028
23.372940063476562,1.3386766083629278,1.2997073861256927,0.026731062907014564
23.385961294174194,1.3330100455775644,1.291964378692451,0.058698554801662986
23.40099310874939,1.3265618879252543,1.2842447020228385,0.07998763122561667
23.413973808288574,1.3210907238566276,1.27656105448236,0.3688718414514877
23.4279842376709,1.3150333636377907,1.2689237134496445,0.4085688630424997
23.439997673034668,1.310148395719374,1.2613407813869504,0.3555823494342814
23.452994108200073,1.3046772316507471,1.253818422096546,0.27855218688431116
23.46700119972229,1.298815270148647,1.2463610856071927,0.20507307401696265
23.48008441925049,1.292953308646547,1.2389717205238435,0.14423755370400104
23.494088172912598,1.28689594842771,1.2316519730175566,0.09730116840855338
23.503361701965332,1.2829879740929768,1.224407010121513,0.06259060377395097
23.514277458190918,1.2784938036080336,1.2172518660685872,0.037660673427457776
23.526625394821167,1.2732180382561433,1.2102012179579276,0.020164866006486572
23.54296565055847,1.26637908317036,1.2032483994267447,0.008145071185333572
23.551955699920654,1.2624711088356266,1.196383458091414,0.27611293226195344
23.572582960128784,1.253873565299213,1.1895976932364094,0.02793285038845543
23.586000204086304,1.2482070025138494,1.1828612203360445,0.21244887159377882
23.601080417633057,1.241954243578276,1.1761536044583818,0.22264724782355622
23.617079973220825,1.234919889775756,1.1694742337015793,0.1721058839137807
23.639562368392944,1.224759156505449,1.162801614011151,0.10954391221484122
23.655045986175537,1.2187017962866122,1.1560969006217652,0.05368355248412458
23.667599201202393,1.213621429651459,1.1493485016157847,0.009950377526152309
23.681026458740234,1.2079548668660955,1.142568003752757,-0.021687945223265344
23.696084022521973,1.2015067092137852,1.1357657299867803,-0.043160188896553056
23.709091901779175,1.1960355451451585,1.1289508054420219,0.21927705313608944
23.72304892539978,1.1901735836430585,1.122131228674657,0.24460038926354977
23.73801612854004,1.1835300272740117,1.115313946483052,0.1858264091541647
23.751923084259033,1.1772772683384383,1.1085049307502743,0.10891023252741544
23.773865222930908,1.1682889273685515,1.1016918799956714,0.03945941939083813
23.791003465652466,1.1612545735660311,1.0948442205984017,-0.014865405238624233
23.806053638458252,1.1546110171969846,1.0879511168601281,-0.05381956002634082
23.8261399269104,1.1462088723773076,1.0810118224998995,-0.07977723499506287
23.83639144897461,1.1415193031756277,1.0740242352046219,-0.09566075839803427
23.846025228500366,1.1374159301241575,1.067012862194463,-0.3801729661281494
23.86953115463257,1.1274505955705874,1.0599892612833706,-0.416525855470702
23.88496732711792,1.1208070392015406,1.0529307024657752,-0.08502772537302955
23.89894413948059,1.1147496789827036,1.045833552683694,-0.2491225983870091
23.9139142036438,1.1086923187638669,1.0387155797550156,0.013445798007612683
23.927037000656128,1.1032211546952402,1.031592260277726,-0.18872629709651506
23.94093155860901,1.0971637944764034,1.0244769366990327,-0.22382905714974446
23.9549560546875,1.09091103554083,1.017380977744469,-0.1957800182205209
23.977182149887085,1.0815318971374697,1.0102941940848087,-0.15037605719699024
23.991134881973267,1.0756699356353696,1.0031883527723864,-0.1062060511671597
24.005980014801025,1.0690263792663228,0.9960598748692184,-0.06955120717691247
24.01855707168579,1.0637506139144328,0.9889260307598741,-0.04144605123547511
24.033057689666748,1.0578886524123328,0.9818017061432477,-0.020936521859785263
24.0489718914032,1.0510496973265493,0.9746995808352845,-0.006518356557349731
24.06531071662903,1.043429147373819,0.967625281407151,0.0032771583847699764
24.07833981513977,1.0391303756056123,0.9605798469157575,0.009683706171141438
24.09879994392395,1.0299466359189888,0.9535548078419964,-0.2623728016987388
24.11393928527832,1.023303079549942,0.9465309328190903,-0.29321684369556694
24.129935264587402,1.016854921897632,0.939506521427932,-0.23701150157752138
24.14529538154602,1.0102113655285851,0.9324939970398525,-0.160611134757975
24.16258716583252,1.0027862142925916,0.925493416909079,0.18574165361556969
24.173809051513672,0.9980966450909117,0.9185042479594595,0.27494483241634843
24.183951139450073,0.9939932720394414,0.9115472126574246,-0.01494046470509075
24.201876878738403,0.986568120803448,0.904639710127089,-0.09559639936523977
24.22014880180359,0.9787521721339812,0.8977668373453177,-0.09240869493509213
24.23402714729309,0.9728902106318811,0.890907574426448,-0.061720098220325946
24.247450351715088,0.9670282491297811,0.884063063422157,-0.027266406387100962
24.26198935508728,0.9609708889109442,0.8772454621086022,0.0021806415026136006
24.27793002128601,0.9545227312586343,0.8704649824254038,0.024394443245413965
24.29627823829651,0.9469021813059041,0.8637239657388787,0.039765784078840946
24.31537103652954,0.9386954352029638,0.8570059768961833,0.049536108332219136
24.329997301101685,0.9326380749841271,0.850291195069618,0.05505211033863648
24.346014976501465,0.9257991198983436,0.8435814695562827,0.05748955487621619
24.36879539489746,0.9158337853447734,0.8368729022734198,0.05778271478818541
24.383988618850708,0.9091902289757265,0.8301446975117206,0.056636322090015664
24.400004625320435,0.9029374700401532,0.8233978842581766,0.05456457219894324
24.413928270339966,0.8970755085380532,0.8166518559598682,0.051933714904699245
24.42941427230835,0.8904319521690063,0.8099200813831218,0.04899948333361072
24.448938131332397,0.8822252060660662,0.8031979737142204,0.0459370754439017
24.465024709701538,0.8753862509802827,0.7964710147066296,0.04286400737339803
24.479948043823242,0.8689380933279726,0.7897422936344733,0.3158953812481833
24.50066113471985,0.8601451510748225,0.7830182302845223,0.34612732013951103
24.510608673095703,0.8552601831564056,0.7763020059878206,0.28828024473519565
24.530943632125854,0.8476396332036755,0.7696011223276307,0.2096033081176008
24.54603624343872,0.8411914755513653,0.7629127513440219,0.1366525344492585
24.56098437309265,0.8351341153325286,0.7562409647419808,0.07776640183417946
24.584755659103394,0.8251687807789585,0.7495858918503714,0.30970261169179913
24.60002565383911,0.818916021843385,0.7429311798052708,0.31146094493366205
24.615932941436768,0.8122724654743383,0.7362800775165681,0.23503038725014996
24.63355302810669,0.8042611180881346,0.7296462379455585,0.145124448001566
24.6521475315094,0.7966405681354046,0.7230250421947995,0.06622007097017105
24.666945695877075,0.7901924104830944,0.7164086652191403,0.005055387757070623
24.680922985076904,0.784525847697731,0.7098071327020584,-0.03883648888922133
24.69591236114502,0.7784684874788942,0.7032393067837494,-0.06836102739140824
24.710904598236084,0.7720203298265842,0.6967210113541887,-0.08682928836714095
24.733126640319824,0.762641191423224,0.6902495182928687,-0.09718650693359045
24.747936725616455,0.7563884324876504,0.6838065270954738,-0.10179786023336226
24.763947010040283,0.7495494774018672,0.6773924453266016,-0.10246131346752357
24.777942180633545,0.7432967184662935,0.6710234191409343,-0.10049795100447398
24.791990756988525,0.7370439595307202,0.66471283858832,-0.09685581734281487
24.81296396255493,0.7286418147110434,0.6584585542032008,-0.09220285494286495
24.824733018875122,0.72356144807589,0.6522487517010473,-0.08700203428585485
24.83564853668213,0.7186764801574732,0.6460942089639427,-0.081568934783463
