t_s,q_rad,q_des_rad,jerk
0.007256984710693359,-0.046700293300064186,0.00037882040640744875,0.0
0.019016504287719727,-0.046700293300064186,0.0018311141858940734,0.0
0.033020734786987305,-0.04611409714985418,0.004552534202656991,0.0
0.04296541213989258,-0.04591869843311751,0.0083137915729936,0.276038359678681
0.06353998184204102,-0.044550907415960815,0.012907898157877958,1.413316401554846
0.07384848594665527,-0.04357391383227746,0.0181494017217467,2.318832636644792
0.09059405326843262,-0.04161992666491077,0.023872922510663353,4.05400093235747
0.10628700256347656,-0.03927514206407072,0.02993251250295327,5.0
0.12128043174743652,-0.036344161313020665,0.036200415356348076,5.0
0.13713502883911133,-0.03302238312849727,0.042565700551679436,5.0
0.15000081062316895,-0.029700604943973877,0.04893337279790782,5.0
0.16500401496887207,-0.0255972318925038,0.055223072071276316,5.0
0.18497371673583984,-0.019344472956930356,0.061368402502464364,5.0
0.1992201805114746,-0.014264106321776927,0.06731563474413976,5.0
0.2126178741455078,-0.008597543536413491,0.07302131973291068,5.0
0.22487902641296387,-0.0035171769012600643,0.07845123535663312,5.0
0.23221254348754883,-0.0005861961502100108,0.08357943981356908,5.0
0.2516179084777832,0.0072297525192568,0.08838798116044111,5.0
0.26100850105285645,0.011137726853990204,0.09286661661286094,4.109490388353363
0.2702908515930176,0.014654903755250269,0.09701040139861491,2.1099163690719336
0.2843804359436035,0.020712263974087045,0.1008191245814568,0.6599003971240769
0.2993912696838379,0.026574225476187156,0.10429751684825761,-1.1736887327138028
0.31369924545288086,0.032045389544813924,0.10745412437908744,-3.04436057960921
0.32790446281433105,0.03790735104691403,0.11030049394154275,-4.258974723852967
0.34836792945861816,0.046700293300064186,0.11285092174450798,-5.0
0.36118388175964355,0.05178065993521762,0.11512170401889202,-5.0
0.3725545406341553,0.056470229136897705,0.11712954048609289,-5.0
0.38207006454467773,0.06037820347163111,0.118891009746438,-5.0
0.3922092914581299,0.0642861778063645,0.12042296804344288,-5.0
0.40618443489074707,0.07014813930846461,0.12174291860766656,-5.0
0.4181804656982422,0.07503310722688138,0.1228689326123218,-5.0
0.4301886558532715,0.07972267642856146,0.12381901612979702,-5.0
0.4441812038421631,0.08519384049718824,0.12461069463411717,-4.9878332798774
0.4591946601867676,0.09125120071602501,0.12526086149884494,-4.8073048194393575
0.46817612648010254,0.09496377633402173,0.12578507317154278,-4.5491766282697
0.4821903705596924,0.10082573783612185,0.12619788224854783,-4.260515560587457
0.49593019485473633,0.10649230062148528,0.12651422941798146,-3.965742322800758
0.5046951770782471,0.11020487623948202,0.12674809119985847,-3.677418973546195
0.5183963775634766,0.11548064159137211,0.12691147644843376,-3.401824897074916
0.5261735916137695,0.11841162234242215,0.12701538940352528,-3.1418706222044257
0.5393450260162354,0.12349198897757559,0.127069837387355,-3.17467958788699
0.5531766414642334,0.128572355612729,0.12708419927662515,-3.25742845849336
0.5652203559875488,0.13248032994746242,0.12706733114286714,-3.577484911246703
0.576575756072998,0.13619290556545915,0.1270268713884756,-4.4222905798506815
0.5913000106811523,0.14029627861692923,0.12696959354278403,-5.0
0.6061809062957764,0.14420425295166264,0.12690198220541113,-5.0
0.6201901435852051,0.14733063241944935,0.12682965831997497,-5.0
0.6341817378997803,0.15006621445376275,0.12675717109010756,-5.0
0.6491799354553223,0.15280179648807612,0.12668836924074658,-5.0
0.6621842384338379,0.15456038493870616,0.1266264582780439,-5.0
0.6751837730407715,0.15612357467259955,0.12657405791861756,-5.0
0.689183235168457,0.15749136568975622,0.12653325888571185,-5.0
0.7046716213226318,0.15846835927343958,0.12650578506261692,-5.0
0.7185308933258057,0.15885915670691292,0.12649297586696884,-5.0
0.7358963489532471,0.15885915670691292,0.12649588444657614,-5.0
0.7524912357330322,0.1586637579901762,0.12651582119391833,-5.0
0.7642741203308105,0.15807756183996624,0.12655371090776538,-5.0
0.7741484642028809,0.15749136568975622,0.12660895778154213,-4.837163309998214
0.7849655151367188,0.15651437210607286,0.12668011467516693,-4.655461773689018
0.7988910675048828,0.15514658108891616,0.12676614078299075,-3.894266788125905
0.8112382888793945,0.15397418878849614,0.1268663825746835,-3.0443707577024886
0.8251030445098877,0.15260639777133944,0.12698017409954937,-1.7387840681647295
0.8351802825927734,0.15123860675418274,0.12710687653814903,-0.23762268890766058
0.8447670936584473,0.14987081573702607,0.12724549082410738,0.7681061909683633
0.855266809463501,0.1485030247198694,0.12739449985708837,1.13796168489697
0.873638391494751,0.14557204396881931,0.12755308046720773,1.7712145838426614
0.8882701396942139,0.14342265808471594,0.12772147839606138,2.071670461719399
0.9027419090270996,0.14107787348387593,0.12789960227430916,2.459057396153391
0.9154665470123291,0.13892848759977253,0.12808659522220026,2.771323924502508
0.9274544715881348,0.13697450043240583,0.12828151702664056,3.2428535142906263
0.9360451698303223,0.13541131069851248,0.1284831245046801,3.637160945630876
0.945181131362915,0.13404351968135578,0.12868958058129384,4.164076858327363
0.9601778984069824,0.1318941337972524,0.12889949830788572,4.859648115986994
0.9731698036193848,0.13033094406335904,0.1291123481916527,5.0
0.9950904846191406,0.12837695689599235,0.12932852183977897,5.0
1.0089695453643799,0.12720456459557233,0.1295488880124088,5.0
1.023604393005371,0.12642296972862566,0.1297733923665422,5.0
1.0371592044830322,0.12583677357841566,0.13000142358092703,5.0
1.050745964050293,0.1254459761449423,0.1302323166903572,5.0
1.0661487579345703,0.12505517871146896,0.13046537961349086,5.0
1.0801494121551514,0.12505517871146896,0.13070023142186826,5.0
1.093148946762085,0.12505517871146896,0.13093655694094175,5.0
1.1065173149108887,0.12505517871146896,0.1311740035723231,5.0
1.121466875076294,0.12505517871146896,0.13141233346472092,5.0
1.1341407299041748,0.12505517871146896,0.13165138747596233,4.914471469132994
1.1461806297302246,0.12505517871146896,0.1318910243127234,4.1143870262344615
1.1591472625732422,0.12505517871146896,0.13213118129596724,3.1868589794976794
1.1731534004211426,0.12485977999473229,0.13237189530550209,2.0802437537723213
1.1862339973449707,0.12485977999473229,0.13261326145515537,1.1012564242551943
1.2011425495147705,0.12505517871146896,0.13285542485811627,0.33615779283430547
1.2151575088500977,0.12505517871146896,0.1330985721874294,-0.2187338313436339
1.2281463146209717,0.12505517871146896,0.1333429232730466,-0.597884584619411
1.2434921264648438,0.12485977999473229,0.13358875734244588,-0.8412335193268636
1.2566838264465332,0.12505517871146896,0.13383643554180238,-0.9845231686289795
1.2691583633422852,0.12505517871146896,0.13408624455320955,-1.056554416639623
1.281144618988037,0.12505517871146896,0.13433833319948865,-1.0792758693127174
1.2951512336730957,0.12505517871146896,0.13459290765785434,-1.0688511814474788
1.3091721534729004,0.1254459761449423,0.1348502586076288,-0.7608695531672418
1.3211956024169922,0.12564137486167898,0.13511067915522562,-0.6824990244872939
1.3351478576660156,0.1260321722951523,0.13537446743223347,-0.13268696267661934
1.3457207679748535,0.12642296972862566,0.13564176765726518,0.19001886493155615
1.3611578941345215,0.126813767162099,0.13591276518840262,0.6520405111804776
1.3752431869506836,0.12739996331230902,0.13618801500430305,0.787274892431578
1.3902044296264648,0.127986159462519,0.13646806350460228,1.058180302885173
1.4106614589691162,0.1287677543294657,0.1367540375297711,1.3086015931211672
1.4210832118988037,0.12915855176293903,0.13704716020517846,1.2131053727061194
1.434863805770874,0.12954934919641237,0.13734734532936993,0.45773401191045876
1.451225757598877,0.12954934919641237,0.13765509976501172,-0.3720893936795109
1.4605839252471924,0.12974474791314905,0.13797124703273295,-1.063754837906996
1.4711625576019287,0.12974474791314905,0.13829499828092734,-2.1188286454750194
1.485116958618164,0.12954934919641237,0.13862576150021155,-2.7889916191763877
1.5001440048217773,0.12954934919641237,0.1389640210682714,-2.898376080260638
1.5131332874298096,0.12974474791314905,0.13931044702714743,-3.047664659391722
1.52714204788208,0.12974474791314905,0.13966569859054753,-2.5927888392289167
1.5442276000976562,0.1301355453466224,0.14003112219241348,-1.998685022253666
1.5555298328399658,0.13033094406335904,0.14040805045453886,-1.1726069355843802
1.5681169033050537,0.13052634278009573,0.14079623959627763,-0.41471668731376626
1.5811247825622559,0.13091714021356907,0.14119526158863,0.18219453006882416
1.5972182750701904,0.1313079376470424,0.14160599732997264,0.8877093935206312
1.6135222911834717,0.13208953251398908,0.14203043427728168,1.2074559345499565
1.6225872039794922,0.13228493123072574,0.14246954792164454,1.3277437617490708
1.6357314586639404,0.13287112738093576,0.1429222585180063,1.6210566304647167
1.6477782726287842,0.13345732353114578,0.14338753455898007,1.6188630782484559
1.659132719039917,0.13404351968135578,0.14386497002568943,1.5025068764742322
1.6741344928741455,0.13482511454830248,0.14435448920236965,1.629506257040433
1.6871309280395508,0.13560670941524913,0.14485629029881353,1.5151438180495105
1.7001280784606934,0.13638830428219584,0.14537048815548526,1.6026483704315542
1.723695993423462,0.1379514940160892,0.14589930125230266,1.4432580889592432
1.735503911972046,0.13892848759977253,0.14644628945202529,1.2173327273980603
1.743377685546875,0.1393192850332459,0.14701032567422276,0.9983008960161037
1.7623555660247803,0.14029627861692923,0.14758850785369873,0.5350868588835608
1.770097255706787,0.14029627861692923,0.1481796070448727,-0.20120258343076752
1.7835731506347656,0.14068707605040257,0.14878078454237764,-1.435189600530108
1.7961196899414062,0.14068707605040257,0.1493899249119288,-2.3017170685763064
1.8073618412017822,0.14068707605040257,0.15000660445078426,-3.1337000977543745
1.8166871070861816,0.14088247476713922,0.1506292032260818,-3.4828402812213417
1.8270187377929688,0.14088247476713922,0.15125510533251307,-3.8444127098146366
1.8385066986083984,0.14088247476713922,0.15188219152340995,-4.095156607388108
1.8590893745422363,0.1412732722006126,0.15251117667649508,-3.6613537787882118
1.8700428009033203,0.14146867091734927,0.1531447398887302,-2.7695748367703352
1.8805596828460693,0.1416640696340859,0.15378230882297253,-1.590492327495344
1.8901798725128174,0.1418594683508226,0.15442081726538,-0.5238378383958618
1.9041013717651367,0.1424456645010326,0.1550583166978387,0.3102365293389537
1.9161138534545898,0.14283646193450597,0.15569435504823786,1.183261489451343
1.9300968647003174,0.14342265808471594,0.15632919626853944,1.6127163003358693
1.9409687519073486,0.144008854234926,0.15696300836385466,2.0744308731756034
1.949521780014038,0.1443996516683993,0.1575943882224962,2.433914150047262
1.9626410007476807,0.14518124653534598,0.15822086489716167,2.3869317975323354
1.974473237991333,0.14596284140229268,0.15884151346898692,2.465389337441062
1.9910180568695068,0.1471352337027127,0.1594568801056648,2.53974691807825
2.0058212280273438,0.14811222728639603,0.1600691972519425,2.2921410488133165
2.014157295227051,0.14869842343660605,0.1606796496049821,1.960402371254478
2.0361738204956055,0.15065241060397278,0.16128848036554386,2.1931551690634965
2.0490238666534424,0.15182480290439276,0.16189866993828378,1.9850566089711186
2.0641698837280273,0.1529971952048128,0.16251226387470502,1.9267603184230646
2.0781683921813965,0.1543649862219695,0.163129158237434,1.6286171703726757
2.094165563583374,0.15592817595586284,0.16374931742490448,1.5663854859703021
2.1171715259552,0.15846835927343958,0.1643748865216458,1.2971063273887187
2.129855155944824,0.1594453528571229,0.16500994910326414,0.9967556463232616
2.143157720565796,0.16042234644080625,0.16565584885826393,0.45546713698588664
2.154222011566162,0.1610085425910163,0.16631088751975528,-0.3420625016034661
2.1698403358459473,0.16159473874122632,0.1669736560360802,-1.6185431218180977
2.184166431427002,0.16198553617469966,0.16764437501474583,-3.063330482492151
2.198347568511963,0.16218093489143628,0.1683230039083398,-4.527081408954842
2.214120626449585,0.16237633360817297,0.16900886276013213,-5.0
2.2376558780670166,0.16237633360817297,0.1697044438878285,-5.0
2.252161979675293,0.16237633360817297,0.17041436510901006,-5.0
2.2681472301483154,0.16237633360817297,0.1711397340647332,-4.874692245369575
2.2821600437164307,0.16237633360817297,0.1718788949873253,-4.020956215929193
2.30428147315979,0.16257173232490962,0.17263288226720622,-2.7705862933238588
2.3124232292175293,0.16257173232490962,0.17340279402082373,-1.59682350689453
2.32441782951355,0.1627671310416463,0.1741844437933209,-0.37554290597403744
2.3371400833129883,0.1627671310416463,0.17497338925331488,0.6335016319094102
2.3545589447021484,0.16315792847511965,0.1757688128945236,1.3748856757141557
2.36513614654541,0.163548725908593,0.17657031450214886,2.1487598036727675
2.3863656520843506,0.16433032077553966,0.1773784171387521,2.48423617709404
2.4021520614624023,0.16491651692574968,0.17819603172165643,3.137073847836478
2.415165901184082,0.1655027130759597,0.17902398590452917,3.7304178127012335
2.4311394691467285,0.16647970665964307,0.17986030042979775,3.5950277178392867
2.450415849685669,0.16765209896006306,0.18070493327737389,3.483607400833727
2.462655544281006,0.16862909254374644,0.1815589178124532,3.3592719237189783
2.4745852947235107,0.16921528869395644,0.18242037127626232,2.9380518829375566
2.484144449234009,0.16999688356090312,0.1832853432185689,2.7420485574873714
2.4981765747070312,0.17116927586132313,0.18415038207130585,2.346862703840851
2.5101444721221924,0.17214626944500647,0.18501376633821254,2.486539755219222
2.5324413776397705,0.17429565532910984,0.18587733368257497,2.466027185512404
2.5446856021881104,0.1752726489127932,0.18674416701103413,2.092200260155619
2.561251401901245,0.1768358386466866,0.18761504316365088,1.9265651846541525
2.5773236751556396,0.17859442709731663,0.18849034962997802,1.5602814072568387
2.59493088722229,0.18015761683120995,0.18937071449799087,1.4562976483461636
2.606621742248535,0.18152540784836665,0.19025566710457845,1.1630174781223674
2.621140956878662,0.18269780014878667,0.19114339355838786,0.8505508860607961
2.6361279487609863,0.1844563885994167,0.19203197069807654,0.3050299483477649
2.657256841659546,0.1866057744835201,0.1929232810399313,-0.21554586987974514
2.6721432209014893,0.18758276806720342,0.19382191391275266,-0.9026317634098135
2.6861519813537598,0.18816896421741344,0.1947289676809197,-2.0540327196130383
2.6990811824798584,0.18875516036762346,0.19564256102358885,-3.1115285516830484
2.71506404876709,0.1891459578010968,0.19656107007997958,-5.0
2.735945224761963,0.18934135651783346,0.19748595406149086,-5.0
2.75114369392395,0.18934135651783346,0.19842127368552526,-5.0
2.7651419639587402,0.18934135651783346,0.19936756133308628,-5.0
2.7801451683044434,0.18934135651783346,0.20032234454383643,-5.0
2.7985970973968506,0.18953675523457011,0.20128454544436328,-4.504478625898281
2.8081157207489014,0.1897321539513068,0.20225320224719923,-3.2477979761504447
2.826963424682617,0.19012295138478016,0.20322693408376014,-1.6697814277041583
2.837099313735962,0.1905137488182535,0.20420454596813792,-0.26808048694931497
2.856959819793701,0.19129534368520015,0.20518457973362175,1.36581733458621
2.8737094402313232,0.19207693855214686,0.20616874154183085,2.4716137979476573
2.8881354331970215,0.19285853341909354,0.20715953479669635,3.443639290041677
2.9052462577819824,0.1938355270027769,0.20815640434390656,4.14658201440923
2.9271483421325684,0.19520331801993357,0.2091605683546194,4.303523626087429
2.9431650638580322,0.19637571032035359,0.21017526742533482,4.203191689747742
2.9581987857818604,0.19774350133751029,0.2112001605414525,4.2646807982525585
2.9731454849243164,0.1989158936379303,0.21223220648719868,4.039378823323672
2.9922192096710205,0.20067448208856034,0.21327114760634236,3.440026589207056
3.0082099437713623,0.202042273105717,0.2143196289841806,3.068865136722344
3.0218799114227295,0.2034100641228737,0.21537789977998387,2.52883705057585
3.036038875579834,0.2047778551400304,0.21644307664214318,2.282731559829875
3.0482935905456543,0.20595024744045046,0.21751162158060655,1.8745980496479515
3.0640411376953125,0.20770883589108044,0.21858044461863643,1.4693417075464383
3.078104019165039,0.20927202562497385,0.21964770934524913,1.400416777754252
3.0868096351623535,0.21024901920865718,0.2207094533650636,1.1600429383744326
3.105074405670166,0.21239840509276056,0.22176180399689446,0.8962130643290706
3.1191020011901855,0.2141569935433906,0.2228060243807649,0.9402418260967573
3.141106367111206,0.2166971768609673,0.22384564013821018,0.5116759825898693
3.1491127014160156,0.217478771727914,0.22488111870159053,0.0062220746597888565
3.170121431350708,0.21923736017854403,0.22590988703865472,-0.9801049317611281
3.1850874423980713,0.22001895504549068,0.22693193081014296,-2.198148045173651
3.1981000900268555,0.2206051511957007,0.22794704451753173,-3.5090361366257126
3.214088201522827,0.22099594862917407,0.22895237141582173,-5.0
3.2260990142822266,0.22119134734591073,0.22994539281781293,-5.0
3.2487847805023193,0.22138674606264738,0.23092607344634258,-5.0
3.2651009559631348,0.22138674606264738,0.2318965002176084,-5.0
3.281637668609619,0.22158214477938404,0.23285645922334344,-5.0
3.2973384857177734,0.2219729422128574,0.23380442622224742,-4.412959143743106
3.309690237045288,0.22236373964633074,0.23473936740585952,-2.8486187114892925
3.3231148719787598,0.22275453707980408,0.2356592223117814,-1.2326290733548295
3.3450915813446045,0.22353613194675076,0.2365641263287301,0.38378348638660453
3.359248399734497,0.22412232809696078,0.23745749505325242,1.6886084386979694
3.3671913146972656,0.22451312553043412,0.23833856553000973,2.624922139213311
3.388061046600342,0.2256855178308541,0.23920488620056637,3.509214907560538
3.4031293392181396,0.2266625114145375,0.24005928985974045,3.890592371194265
3.4250664710998535,0.22822570114843083,0.24090667690998743,3.990882280165488
3.440089464187622,0.2292026947321142,0.24175195841858882,3.933716326468882
3.4531147480010986,0.23017968831579752,0.2425981122157569,3.78950652027795
3.469106912612915,0.2317428780496909,0.24344541228636554,3.8752327381954794
3.484189510345459,0.23271987163337426,0.2442938729679757,3.420130862255885
3.4991891384124756,0.23428306136726765,0.24514377073442137,2.8363101261757504
3.5211291313171387,0.236432447251371,0.24599866239597148,2.5639704951501665
3.5350875854492188,0.23780023826852767,0.24686489198702516,2.1368663042265243
3.5511066913604736,0.2395588267191577,0.24774500246461156,1.7154353256404804
3.569701910018921,0.24170821260326106,0.24864003966667694,1.3553177834508103
3.579077959060669,0.24248980747020776,0.24955092673411872,0.7910633277167068
3.60209584236145,0.24405299720410112,0.25047819084615536,-0.017245987200506463
3.615581750869751,0.2450299907877845,0.25142568832132206,-1.0263936047726714
3.6310787200927734,0.2456161869379945,0.25239508044464065,-3.0003098239184802
3.6542646884918213,0.24581158565473116,0.2533875845174216,-4.873833733246271
3.6700901985168457,0.24600698437146784,0.2544074608550249,-5.0
3.6861181259155273,0.24600698437146784,0.25545473094166155,-5.0
3.7066526412963867,0.24600698437146784,0.25652812991692564,-5.0
3.7150814533233643,0.24600698437146784,0.2576259856972664,-4.893450857463527
3.7357285022735596,0.2462023830882045,0.25874436174117993,-3.984508805434844
3.7490949630737305,0.24639778180494118,0.25988256509475144,-2.3900044014125377
3.7570817470550537,0.24659318052167786,0.2610356192514606,-1.125063063674256
3.77908992767334,0.24717937667188783,0.2621954436059128,0.3589975886717458
3.7930266857147217,0.2475701741053612,0.26336081949643536,2.1794118846690016
3.816898822784424,0.2487425664057812,0.26453286066183107,3.184023675709094
3.83209228515625,0.24971955998946457,0.26571147960996466,3.972900895425528
3.8480615615844727,0.2506965535731479,0.2668932671213568,4.218711741005832
3.8600919246673584,0.2514781484400946,0.2680721787027157,4.1923266125619865
3.8756728172302246,0.25265054074051463,0.2692429542258062,4.309037995214624
3.8898563385009766,0.2538229330409346,0.27040109574569515,4.397942835793754
3.907015800476074,0.255386122774828,0.27154344678120335,4.132188376406974
3.91808819770813,0.2563631163585114,0.2726673693521858,3.4771023495190976
3.929070234298706,0.2575355086589314,0.2737686625208066,3.055431034489004
3.9420650005340576,0.25890329967608805,0.2748433114415186,2.752371634118976
3.9647316932678223,0.26144348299366477,0.2758912614872751,2.7880964564090553
3.9800527095794678,0.2633974701610315,0.2769151539226945,2.61662656500497
3.9944212436676025,0.2651560586116615,0.2779155383298364,2.379619736378083
4.008048057556152,0.26691464706229157,0.2788912504209275,2.1379858745680336
4.022037506103516,0.2686732355129216,0.279841751305527,1.6390783516434086
4.034045457839966,0.27023642524681496,0.280767081527363,1.1324521989758503
4.049020051956177,0.2723858111309183,0.28166781140255337,0.7060101901501984
4.0638267993927,0.2745351970150217,0.2825449880872161,0.3779393350366957
4.08584189414978,0.2770753803325984,0.2834025360238452,0.13934218186964117
4.102084159851074,0.2790293674999651,0.2842468752917225,-0.3028214460300207
4.116067886352539,0.28020175980038514,0.28508165302361416,-0.998926891818971
4.129062175750732,0.28137415210080513,0.2859080602519318,-2.184631164923918
4.1429643630981445,0.2819603482510151,0.2867275773306654,-3.5525252342342473
4.157047748565674,0.2825465444012252,0.28754191331294204,-4.9525926016216655
4.180464029312134,0.28293734183469854,0.28835603376395313,-5.0
4.196393251419067,0.2831327405514352,0.28917767390310534,-5.0
4.207535982131958,0.2831327405514352,0.29000998102386666,-5.0
4.223055124282837,0.2831327405514352,0.29085280660536167,-5.0
4.23628830909729,0.2831327405514352,0.29170765788916975,-5.0
4.252048969268799,0.2831327405514352,0.2925759441076554,-4.63364031762508
4.265606164932251,0.2831327405514352,0.29345822274646327,-3.5698355833028454
4.279057264328003,0.2833281392681718,0.2943550314254561,-2.164700055096481
4.290982007980347,0.2833281392681718,0.29526686063306085,-0.8906553609574906
4.305057764053345,0.28352353798490854,0.29619413044819837,0.38583581673558137
4.318050384521484,0.28391433541838185,0.2971371711795124,1.4159514085705434
4.333067417144775,0.28410973413511853,0.29809620773328194,2.1540206824077233
4.346050262451172,0.2845005315685919,0.2990713474646927,2.908007991310326
4.362013101577759,0.2850867277188019,0.3000625713286361,3.4889672229167803
4.384594917297363,0.2862591200192219,0.3010735413920244,4.137999912632331
4.397161483764648,0.2870407148861686,0.30211096167448276,4.083903326504103
4.4080729484558105,0.2876269110363786,0.3031748170953694,4.316747344357864
4.417925834655762,0.2884085059033253,0.30425825655575045,3.9938681858119427
4.42894721031189,0.28919010077027196,0.30535451416576476,3.7815051460379916
4.449528694152832,0.2907532905041653,0.3064620297427755,3.875737571991892
4.463869333267212,0.29192568280458536,0.30758531227796965,3.728242366436329
4.478785037994385,0.29329347382174203,0.3087271841485701,3.4861960441930404
4.4950196743011475,0.29505206227237213,0.3098859246392357,3.217858711072213
4.509140253067017,0.2964198532895288,0.3110588002783159,3.2294638208875988
4.52447509765625,0.2981784417401588,0.3122437721534769,2.738175141255504
4.536020755767822,0.29974163147405214,0.31343886997210324,2.421479768535039
4.549986124038696,0.30130482120794555,0.3146411219167004,2.4681561639132483
4.565021753311157,0.30306340965857553,0.31584783647206555,2.041275160173067
4.58318018913269,0.3054081942594156,0.31705953118752794,1.518520762705322
4.598920583724976,0.3075575801435189,0.31828007855410967,1.045996218823697
4.612797260284424,0.3095115673108857,0.31951070834434536,0.6668733965084356
4.627549648284912,0.31127015576151573,0.3207487099221858,0.3818567840193396
4.639647722244263,0.3130287442121457,0.3219907590661522,0.17671324605897307
4.655021905899048,0.31498273137951244,0.32323400487958753,-0.24189280832207816
4.670025110244751,0.31693671854687916,0.3244775071320989,-0.3707575692796382
4.67795205116272,0.31791371213056246,0.3257169163188732,-0.6534305980202015
4.700023174285889,0.3198676992979292,0.3269476199029782,-1.4761575657073238
4.722049951553345,0.32143088903182254,0.3281767965235693,-2.5747882467648884
4.738020420074463,0.32221248389876916,0.3294143410995664,-4.3507377142016574
4.751030683517456,0.3227986800489792,0.3306614038180275,-5.0
4.763976335525513,0.3229940787657159,0.33191530736218083,-5.0
4.779028654098511,0.32318947748245264,0.33317382250444966,-5.0
4.793012619018555,0.32318947748245264,0.3344351258971485,-5.0
4.807024955749512,0.32358027491592595,0.335697756093472,-5.0
4.826312303543091,0.3239710723493993,0.33696302389568866,-4.967967909292695
4.84400749206543,0.3245572684996093,0.3382360266126488,-3.463391431254069
4.85702657699585,0.3249480659330826,0.3395200971748763,-1.7289644941470332
4.867577075958252,0.3255342620832926,0.3408129308952018,-0.2293192533405427
4.875991344451904,0.325925059516766,0.3421071121491071,0.912545516544014
4.895135402679443,0.3269020531004493,0.34339803248691575,2.2633768416724873
4.9039342403411865,0.32729285053392265,0.3446865921377814,3.121638564036326
4.924618482589722,0.3290514389845527,0.34597397269270597,3.6207634842924086
4.9372947216033936,0.33002843256823605,0.34726385036565766,3.8659634576096105
4.951998233795166,0.3313962235853927,0.3485586625382248,3.936420041590925
4.966997146606445,0.3327640146025494,0.34985724732243884,4.442062182107899
4.983236074447632,0.3343272043364428,0.3511590101474658,4.386380599588463
4.995926380157471,0.33549959663686285,0.3524635469635389,4.3839340714136235
5.013584136962891,0.33745358380422946,0.35377127684753545,3.794410142876635
5.022995710372925,0.3384305773879129,0.35508267553186823,3.3583622758092355
5.037384748458862,0.34018916583854286,0.3563963735727166,3.01428244796813
5.05726432800293,0.34253395043938295,0.3577154519115369,2.7290201066720847
5.065229892730713,0.34370634273980294,0.35904423758736714,2.2081102399310524
5.075031518936157,0.34487873504022304,0.360378270318989,1.6837974217983471
5.088009834289551,0.346637323490853,0.36171224275151537,1.513841079379859
5.103994607925415,0.3487867093749564,0.36304594324682143,1.4721131342482687
5.119959831237793,0.35132689269253303,0.36438088239429617,1.185899325328445
5.129998207092285,0.35289008242642644,0.3657185020073646,1.1371492597382913
5.151321887969971,0.3564072593276865,0.3670631655315569,0.8844408811668679
5.1626365184783936,0.3579704490615799,0.368421294805308,0.6034592271700767
5.17090916633606,0.3595336387954733,0.369790772717193,0.08348022234096975
5.185990810394287,0.3616830246795766,0.3711645368284057,-0.13962332152802098
5.198993444442749,0.3636370118469433,0.3725407623924522,-0.4991061734530984
5.218921422958374,0.36676339131473,0.373924546336945,-0.5521737869463542
5.232996463775635,0.3689127771988334,0.37532397608484197,-0.765905121336167
5.242307901382446,0.3702805682159901,0.37673928719897704,-0.9815703588645672
5.257253170013428,0.37203915666662013,0.3781657023938138,-1.4211414334455026
5.270089864730835,0.3732115489670402,0.37960273014061735,-2.1082763458643266
5.279969692230225,0.37399314383398685,0.38104880646856015,-3.271348583914342
5.291997194290161,0.3747747387009336,0.3824999935176948,-4.87950945193851
5.314976692199707,0.3759471310013535,0.38396076804017354,-5.0
5.3299689292907715,0.3763379284348269,0.38544214336855126,-5.0
5.341713190078735,0.3763379284348269,0.38694733937168885,-5.0
5.357971906661987,0.37672872586830025,0.3884736779239708,-5.0
5.37296462059021,0.3769241245850368,0.39002031002331966,-5.0
5.395037889480591,0.37770571945198356,0.39159134961595976,-4.841717543213456
5.406252145767212,0.3780965168854569,0.3931926488906986,-3.493749950655857
5.423142433166504,0.37887811175240366,0.3948242272828101,-1.424815868200683
5.433864593505859,0.37926890918587697,0.3964821382742241,0.22423137907475288
5.441972017288208,0.3798551053360869,0.3981568891419837,1.698103671569765
5.46366024017334,0.38122289635324363,0.3998426250733064,2.815156648992591
5.4715094566345215,0.3818090925034536,0.4015408530029299,3.2952535017852425
5.48097825050354,0.3823952886536637,0.4032450571739841,3.991565757752315
5.4972779750823975,0.3837630796708204,0.40494820853563684,4.301262896136105
5.506970405578613,0.3847400732545037,0.40664973807964583,4.376012355611511
5.519971609115601,0.38591246555492376,0.40834834815501314,4.584432476589434
5.532895803451538,0.38747565528881706,0.41004293405265074,4.189204818508936
5.54796576499939,0.38903884502271047,0.41173356746478124,4.728578811499532
5.56296706199646,0.39099283219007713,0.4134203237268869,4.581555452692777
5.577343463897705,0.39275142064070717,0.41510388004247606,4.186467919348231
5.588965654373169,0.3943146103746005,0.4167848318363753,3.7363327381058133
5.612553358078003,0.3980271859925973,0.4184678597587143,3.8612386251764272
5.626970529556274,0.4003719705934373,0.4201622449919529,3.8252023945196303
5.641995429992676,0.40291215391101404,0.4218709903801681,3.698287257045142
5.654970169067383,0.4050615397951174,0.42359117260400597,3.5218435406109867
5.668978691101074,0.4074063243959575,0.42532023881848796,3.3207138053869825
5.686891555786133,0.41072810258048087,0.4270574059003774,2.5579245367831875
5.703617572784424,0.4138544820482676,0.4288054449007449,2.0045541247030854
5.720201015472412,0.4169808615160543,0.4305693528815858,1.3236639535437473
5.731057167053223,0.4191302474001577,0.43235027454501185,0.7151975850386464
5.73894739151001,0.4208888358507877,0.4341394804927482,0.23707791998369715
5.751935005187988,0.42323362045162777,0.4359252669553525,-0.11107230523965109
5.765946865081787,0.42577380376920443,0.4377034179053413,-0.3498909603819211
5.782544374465942,0.4289001832369912,0.43947616657204125,-0.7799689736351506
5.793346881866455,0.43085417040435786,0.44124622850338574,-1.1805580499983828
5.805917263031006,0.4331989550051979,0.4430127018655733,-1.4813730675740273
5.820942401885986,0.43593453703951135,0.4447737160410836,-1.6751295080698145
5.844436407089233,0.44023330880771805,0.4465348600719743,-2.053536168633548
5.858941316604614,0.44277349212529477,0.44830734482992807,-2.1188221408497445
5.869940757751465,0.44453208057592475,0.45009570413701766,-2.0454530510067532
5.883946418762207,0.44668146646002815,0.4518978837892094,-2.468908440996167
5.89893913269043,0.4486354536273949,0.45371158896105657,-3.4943346074590496
5.910945415496826,0.4498078459278149,0.4555347727729125,-4.200794017350238
5.924946308135986,0.4509802382282349,0.45736562008749926,-5.0
5.939945697784424,0.4519572318119182,0.45920253089533136,-5.0
5.9623799324035645,0.4529342253956016,0.461049945332757,-5.0
5.976455926895142,0.4531296241123383,0.4629173487668907,-5.0
5.987672328948975,0.453325022829075,0.46480451191967054,-5.0
5.997606992721558,0.4535204215458116,0.4667012481206076,-5.0
6.007888555526733,0.4537158202625483,0.4685972961422092,-5.0
6.030948638916016,0.453911218979285,0.4704917282684884,-4.556155303440543
6.040935277938843,0.4541066176960216,0.47238978296112755,-3.2739185560978648
6.053861618041992,0.45469281384623167,0.47428867468020314,-1.6500191680462624
6.071443319320679,0.4552790099964417,0.4761863383632478,0.07119329627901816
6.078928232192993,0.45566980742991503,0.47808162478679833,1.771894243066001
6.101936101913452,0.4570375984470717,0.479971301053821,3.6736712897566655
6.124224424362183,0.4584053894642284,0.4818661454154773,4.682696426910663
6.1327033042907715,0.4591869843311751,0.48377481850871484,5.0
6.153952360153198,0.46094557278180515,0.48569332142576827,5.0
6.168938398361206,0.4623133637989618,0.4876225853372831,5.0
6.189882516860962,0.46446274968306517,0.48956663159843183,5.0
6.198856592178345,0.46543974326674853,0.4915233510510979,5.0
6.221918344497681,0.46837072401779856,0.4934883234748699,5.0
6.237912654876709,0.4703247111851653,0.49546272874034003,5.0
6.251910209655762,0.47227869835253194,0.49744568722208626,4.920160732659409
6.274930477142334,0.475795875253792,0.4994359704038603,4.717164499273466
6.289926767349243,0.4779452611378954,0.5014373464099747,4.180436673494306
6.302934408187866,0.47989924830526204,0.5034475417692864,3.588060321780609
6.316918134689331,0.48204863418936544,0.5054592342902344,3.047259927680278
6.333554983139038,0.4849796149404155,0.5074667553351843,2.3132135879996123
6.3449225425720215,0.48673820339104557,0.509465134411973,1.9046906550041067
6.362131357192993,0.48966918414209565,0.5114499149501829,1.3797109686916593
6.370922803878784,0.491232373875989,0.5134170947630544,0.9004218165862158
6.383834600448608,0.49338175976009235,0.515360941384195,0.5161048935964192
6.397915840148926,0.49592194307766907,0.5172762323299378,0.2291959850267753
6.410913467407227,0.4980713289617725,0.519159475133436,-0.25062356177036904
6.424911260604858,0.5006115122793491,0.5210070209723314,-0.6983871374440482
6.437922716140747,0.5029562968801892,0.5228151293513096,-0.7663346057099744
6.4509196281433105,0.5051056827642926,0.5245801774985076,-0.9659136128302166
6.46692419052124,0.5080366635153426,0.5262983369048492,-0.8823286410761053
6.48193097114563,0.5105768468329194,0.5279654684999385,-0.9888964287434605
6.496240854263306,0.5129216314337594,0.529577741052065,-1.1245787681428228
6.515962600708008,0.5160480109015461,0.5311325709517143,-1.230361403496294
6.524885892868042,0.5174158019187027,0.5326266828773535,-1.5676916562665857
6.540425777435303,0.5199559852362795,0.5340547505835371,-1.896675193943493
6.550567388534546,0.5213237762534362,0.5354118732499152,-1.8616657551957312
6.567539215087891,0.5240593582877495,0.5366942429177587,-1.9698007420176344
6.5749123096466064,0.5252317505881696,0.5378987350552177,-2.0798449774725976
6.596054792404175,0.528553528772693,0.5390229857264955,-2.420675806199986
6.603914260864258,0.5295305223563763,0.540065495605611,-2.189937231471104
6.625906705856323,0.532656901824163,0.5410255872894686,-2.620829470286183
6.639890432357788,0.5344154902747932,0.5419032407246016,-2.875408992365462
6.653908014297485,0.5359786800086865,0.5426993468648166,-2.990340802552347
6.664995431900024,0.5367602748756332,0.5434157180579469,-3.2786232756224307
6.6803460121154785,0.5377372684593165,0.5440549779390725,-3.528607512950111
6.69115686416626,0.5383234646095265,0.5446204332133848,-3.9524577827997693
6.707473039627075,0.5385188633262632,0.5451160462699635,-5.0
6.722884893417358,0.5385188633262632,0.5455463607549833,-5.0
6.737890243530273,0.5385188633262632,0.5459163639605554,-5.0
6.752847671508789,0.5385188633262632,0.5462313758733572,-5.0
6.772442579269409,0.5385188633262632,0.5464973221848822,-5.0
6.7878923416137695,0.5385188633262632,0.5467206738920787,-4.2223666384637735
6.800938606262207,0.5383234646095265,0.5469075158821192,-2.5495892358749845
6.814072608947754,0.5383234646095265,0.5470633192924242,-0.8758080877286587
6.827234745025635,0.5383234646095265,0.54719326893264,0.49078754539214575
6.841820478439331,0.5385188633262632,0.5473021933244645,1.4929268218370593
6.8551976680755615,0.5383234646095265,0.5473944291239825,2.1693895670457706
6.865289688110352,0.5383234646095265,0.547473529321962,2.58642387280221
6.8819193840026855,0.5383234646095265,0.5475426848675831,2.8096486164876686
6.897443771362305,0.5383234646095265,0.5476052155635741,2.8943381964881962
6.921227216720581,0.5383234646095265,0.5476641427557555,2.883596375224205
6.935343980789185,0.5383234646095265,0.5477217643681754,2.8095634322905143
6.949742555618286,0.5383234646095265,0.5477791136579108,2.6955022461490903
6.9639317989349365,0.5383234646095265,0.5478361389780452,2.557877564107855
6.978897333145142,0.5383234646095265,0.5478922580325191,2.408119595205423
7.000033140182495,0.5383234646095265,0.5479460184158593,2.254011286882685
7.013229608535767,0.5383234646095265,0.5479950445371345,2.1007346124053363
7.023390531539917,0.5383234646095265,0.5480370934730657,1.9516394768280336
7.034888982772827,0.5383234646095265,0.5480702925149367,1.8087991988142975
7.059410572052002,0.5383234646095265,0.5480903586426912,1.6734070473728695
7.07288932800293,0.5383234646095265,0.5480901668030512,1.5460568168931215
7.0868635177612305,0.5383234646095265,0.5480634059059337,1.4269399469514668
7.101862668991089,0.5383234646095265,0.548004865195768,1.3159831450285764
7.122293949127197,0.5383234646095265,0.5479067727809183,1.2129438796327343
7.129867076873779,0.5383234646095265,0.5477613481404694,1.1174761948682193
7.142855882644653,0.5383234646095265,0.5475651126421102,1.0291757048338281
7.156904458999634,0.5383234646095265,0.5473139485464279,0.947610036151068
7.1718573570251465,0.5383234646095265,0.5470010822863528,0.8723391365594453
7.192805528640747,0.5383234646095265,0.5466136683340393,0.8029285538988628
7.207858562469482,0.5383234646095265,0.5461334345068374,0.738957861348799
7.220868110656738,0.5383234646095265,0.5455493947096802,0.6800257506626495
7.244842290878296,0.5381280658927898,0.5448495869474572,0.6257528553590963
7.259881496429443,0.5383234646095265,0.5440154667268025,0.5757830432521058
7.272011041641235,0.5381280658927898,0.5430403753721382,0.5297836917157104
7.2872233390808105,0.5381280658927898,0.5419263690254122,0.48744530097437433
7.300182580947876,0.5381280658927898,0.540671681336145,0.4484806902382084
7.313692808151245,0.5381280658927898,0.5392752988092581,0.4126239444207194
7.329851388931274,0.5381280658927898,0.5377388855653708,0.3796292254793196
7.343855142593384,0.5381280658927898,0.5360645036263425,0.34926952508513454
7.3578572273254395,0.5381280658927898,0.5342546168460811,0.32133540943702643
7.377367258071899,0.5379326671760531,0.5323049079637777,0.2956337891370505
7.385859727859497,0.5379326671760531,0.5302126508024094,0.2719867347265245
7.397866487503052,0.5379326671760531,0.5279909472981622,0.25023035005368316
7.411880254745483,0.5377372684593165,0.5256518383225306,0.23021370992357176
7.430034875869751,0.5377372684593165,0.523194581373013,0.21179786464185751
7.440294981002808,0.5373464710258432,0.5206182474659922,-0.08118344814953024
7.451852321624756,0.5371510723091065,0.5179323689731267,-0.6819725503495551
7.4668779373168945,0.5363694774421598,0.5151485555121805,-0.983503801038282
7.479822874069214,0.5353924838584764,0.5122729101049891,-1.9476961193330966
7.5026021003723145,0.5334384966911098,0.5092988849281829,-3.7468114865251017
7.517863988876343,0.5316799082404797,0.5062101775320949,-4.875901698499856
7.5318381786346436,0.5299213197898497,0.5030051415116116,-5.0
7.54784083366394,0.5277719339057463,0.4996955218995136,-5.0
7.5618321895599365,0.5252317505881696,0.49629299015980394,-5.0
7.584124326705933,0.5211283775366995,0.49279678046250575,-5.0
7.59294056892395,0.5195651878028061,0.48920135401995124,-5.0
7.610489130020142,0.5158526121848095,0.48551523283333126,-5.0
7.6194682121276855,0.5137032263007061,0.48175476980193177,-4.920220759421005
7.629806995391846,0.5115538404166027,0.47794659340046036,-4.623288748370781
7.642832040786743,0.5082320622320793,0.47411655235875405,-4.257371162347924
7.66010856628418,0.5033470943136626,0.4702686952978792,-3.887676108580041
7.669833183288574,0.5006115122793491,0.4664024886837335,-3.2643162974325124
7.679760694503784,0.49728973409482574,0.4625393948773975,-2.6385430029575776
7.7012553215026855,0.490646177725779,0.458691347260153,-3.2033804154806917
7.708843469619751,0.4879105956914656,0.45484485900797184,-2.901681363577306
7.720802545547485,0.48380722263999554,0.45100148066856205,-2.3434602136272873
7.73208475112915,0.47970384958852547,0.44717128712891896,-1.7805794440332183
7.746535539627075,0.47442808423663535,0.4433564992633646,-1.5778170294869351
7.761835813522339,0.46837072401779856,0.43955905111590826,-1.510603779675999
7.774480581283569,0.4632903573826451,0.43578473591537925,-1.757718992696499
7.790845155715942,0.4570375984470717,0.43203842206156595,-1.2098883733264227
7.812961578369141,0.4478538587604482,0.42830496357101705,-1.0477310724842952
7.8278467655181885,0.44199189725834814,0.42456079943465724,-0.47592097514105447
7.842832803726196,0.43573913832277467,0.4208016225362243,0.676941175239431
7.856825351715088,0.43007257553741124,0.4170352764920884,1.2376582646653365
7.871848106384277,0.42401521531857445,0.4132687744795962,2.31443157733304
7.886837959289551,0.417762456383001,0.40950833814424825,3.3250148855497192
7.907761812210083,0.4093603115633242,0.4057490108943393,4.358412364824106
7.9218528270721436,0.4038891474946974,0.4019765229059307,5.0
7.934879302978516,0.3991995782930173,0.398190987710465,5.0
7.942837953567505,0.39646399625870393,0.39441367760823687,5.0
7.963842153549194,0.3900158386063938,0.3906604953838539,5.0
7.979830980300903,0.3855216681214504,0.3869244611262873,5.0
8.002822160720825,0.37926890918587697,0.3831909824286214,5.0
8.015319108963013,0.3765333271515635,0.3794483635340246,5.0
8.029829502105713,0.37340694768377686,0.37569719232449356,5.0
8.043815612792969,0.3706713656494634,0.37194836188643643,5.0
8.05684518814087,0.3681311823318867,0.36821135691180595,5.0
8.07284665107727,0.36539560029757334,0.364494348373937,5.0
8.08582353591919,0.3634416131302067,0.3608042903695464,5.0
8.106862306594849,0.3605106323791566,0.35713977693936794,5.0
8.114808320999146,0.3595336387954733,0.35349959063041686,5.0
8.1359224319458,0.3569934554778965,0.34988835594559065,5.0
8.150829076766968,0.35562566446073984,0.34630083223886443,4.991682763575598
8.160759687423706,0.3544532721603198,0.3427382887818098,4.3925379161009515
8.17184567451477,0.35347627857663644,0.3392169417364504,3.3882352842164365
8.184300422668457,0.35230388627621645,0.3357485046851443,2.4036305223994203
8.19480848312378,0.3509360952590598,0.33233938458887674,1.0315230938631992
8.208814859390259,0.34937290552516637,0.32899445269500605,-0.49307641873973906
8.230916023254395,0.34605112734064297,0.32570566576688326,-2.323264277350103
8.245875597000122,0.3440971401732763,0.32245491593253517,-4.428313438268079
8.261868238449097,0.34136155813896296,0.3192354685744631,-5.0
8.274490356445312,0.33921217225485956,0.31605053125223953,-5.0
8.286818027496338,0.33706278637075615,0.31290265553576246,-5.0
8.300015687942505,0.3343272043364428,0.3097931827737105,-5.0
8.30952525138855,0.3321778184523394,0.3067272818063808,-5.0
8.326812982559204,0.3280744454008694,0.3037093520676478,-5.0
8.341808795928955,0.3245572684996093,0.3007342762563149,-5.0
8.355817794799805,0.3208446928816125,0.2977974496715791,-5.0
8.368816375732422,0.31771831341382584,0.2948990063111419,-5.0
8.382805109024048,0.31381033907909234,0.29203883463144475,-5.0
8.399547576904297,0.3089253711606756,0.2892148897531651,-5.0
8.411818265914917,0.3052127955426789,0.28642523974706735,-5.0
8.424813985824585,0.3011094224912088,0.28367151898500303,-4.695916322508773
8.436747074127197,0.2970060494397388,0.28095490554332886,-4.16575809309082
8.45080041885376,0.29251187895479536,0.27827444988383804,-3.6135448244247796
8.464789152145386,0.288017708469852,0.2756291377588827,-3.3918261759530024
8.481752395629883,0.2823511456844885,0.2730154549223323,-2.7258747049246064
8.50045895576477,0.276098386748915,0.2704232561662697,-2.010700548069263
8.515787601470947,0.27121341883049827,0.2678416257305672,-1.3914313696033502
8.52929139137268,0.2667192483455549,0.2652685841965032,-0.6279692019733792
8.54167127609253,0.26281127401082144,0.26270984703688127,0.32043928642005354
8.556742191314697,0.25851250224261474,0.26017005039947755,1.42039596554615
8.571800708770752,0.25440912919114467,0.2576483968285962,3.7233064398611067
8.588419437408447,0.2506965535731479,0.2551437219860374,5.0
8.607081413269043,0.2462023830882045,0.25265288923135076,5.0
8.62294316291809,0.24288060490368113,0.2501681052439727,5.0
8.637784957885742,0.23994962415263102,0.2476853413138645,5.0
8.651782274246216,0.23740944083505436,0.2452074937065842,5.0
8.666823625564575,0.23526005495095098,0.2427394438959483,5.0
8.681782960891724,0.2331106690668476,0.24028542944197448,5.0
8.703439950942993,0.2305704857492709,0.23784294173432594,5.0
8.71878433227539,0.22881189729864085,0.2354036203054858,5.0
8.733782768249512,0.22763950499822086,0.2329666100210039,5.0
8.756785154342651,0.22549011911411745,0.23053189722817016,5.0
8.772833108901978,0.22451312553043412,0.22809380354317826,4.895152644985132
8.787799596786499,0.22353613194675076,0.22565360514912036,4.374592004325044
8.801773309707642,0.22275453707980408,0.22321883853148147,3.766583103360696
8.819504261016846,0.2219729422128574,0.22079515950825385,2.924700196842593
8.835885524749756,0.22138674606264738,0.21838439772690635,2.1323712104125057
8.852360963821411,0.22080054991243736,0.215984564366717,1.4809526391475296
8.86566424369812,0.2206051511957007,0.21359438953897847,0.9809053184362945
8.873739242553711,0.22040975247896405,0.211223340455474,0.33679930783857376
8.897752523422241,0.22001895504549068,0.20888218830439054,0.04068330909560067
8.919835567474365,0.2194327588952807,0.20656303654494437,-0.6396827851354818
8.9335298538208,0.21884656274507067,0.20425368457851792,-1.5828700184669007
8.948756217956543,0.21786956916138733,0.20195517355809742,-2.964562363391422
8.964763402938843,0.21689257557770397,0.19967401017496045,-5.0
8.98151421546936,0.2153293858438106,0.19741431547662044,-5.0
8.993162870407104,0.2141569935433906,0.19517853674167776,-5.0
9.004779577255249,0.21278920252623387,0.1929713666588062,-5.0
9.028104782104492,0.20966282305844713,0.1907934406639782,-5.0
9.043762683868408,0.20731803845760713,0.1886387048471215,-5.0
9.059683561325073,0.20458245642329373,0.1865061606351196,-5.0
9.083027124404907,0.20067448208856034,0.18439510312328217,-5.0
9.098767518997192,0.1975481026207736,0.1822999824585609,-5.0
9.111763000488281,0.1950079193031969,0.18022107844777735,-5.0
9.13367223739624,0.19012295138478016,0.1781598637534358,-5.0
9.148746490478516,0.1866057744835201,0.1761128394192023,-5.0
9.16475796699524,0.18289319886552335,0.17407975365167058,-4.67955487202337
9.179739713668823,0.17976681939773664,0.17206515341495676,-4.093465181193178
9.202979803085327,0.17449105404584653,0.17006932964896157,-3.4840734002075706
9.217715501785278,0.17136467457805982,0.16808795979240307,-2.113038824740645
9.232698440551758,0.16862909254374644,0.16612196531316675,-0.7318953728925615
9.24677586555481,0.16628430794290636,0.16417664778375857,1.2269837048098857
9.260740518569946,0.16393952334206632,0.16225637570641593,3.2610211844949273
9.27467966079712,0.16237633360817297,0.16036466978282163,5.0
9.288881778717041,0.16042234644080625,0.15850428598750052,5.0
9.300770998001099,0.15924995414038626,0.15667729573169065,5.0
9.315773010253906,0.15749136568975622,0.15488516256992044,5.0
9.338751792907715,0.15534197980565284,0.15312465820028456,5.0
9.354737997055054,0.1543649862219695,0.15138866092261233,5.0
9.368690967559814,0.1535833913550228,0.1496751948042835,5.0
9.391361951828003,0.15280179648807612,0.14798260397841034,5.0
9.405709743499756,0.1524109990546028,0.14630551452711923,5.0
9.419740438461304,0.1522156003378661,0.14464340984506238,5.0
9.428769588470459,0.15202020162112945,0.14300216877813454,4.47606468689428
9.439675331115723,0.15182480290439276,0.14139051717033585,3.5028907654211756
9.45381236076355,0.1516294041876561,0.13981296302447227,2.8039687276272827
9.464662313461304,0.15123860675418274,0.13826909742788215,1.74042663947005
9.485037326812744,0.1502616131704994,0.13675737960376022,0.18858805281470903
9.496787786483765,0.14967541702028941,0.13527413177888636,-1.2278957315263295
9.505731344223022,0.1490892208700794,0.13381965116655112,-2.869005321076373
9.52622675895691,0.14752603113618606,0.1323950572279537,-4.236205534036289
9.541337251663208,0.146353638835766,0.13099532777086526,-5.0
9.55573034286499,0.14518124653534598,0.129617478003258,-5.0
9.570736408233643,0.14342265808471594,0.12826266761822513,-5.0
9.587577104568481,0.1416640696340859,0.1269318013395527,-5.0
9.609973907470703,0.13873308888303587,0.12562297032661215,-5.0
9.625747203826904,0.1365837029989325,0.12433274384647097,-5.0
9.642804145812988,0.13404351968135578,0.12306104734120465,-5.0
9.661492109298706,0.1315033363637791,0.12180849656593587,-5.0
9.677752256393433,0.12896315304620237,0.12057492214130247,-4.544250140882143
9.69266676902771,0.1266183684453623,0.1193630761632633,-3.630414302033304
9.708659648895264,0.12427358384452228,0.11817745704449166,-2.9751769751466575
9.730709791183472,0.12173340052694555,0.11702059984866918,-1.6638862584824712
9.745711326599121,0.12017021079305219,0.11589348204403245,-0.09448659169565654
9.75901985168457,0.11919321720936885,0.11479892282105651,1.5370104191201905
9.77271580696106,0.1182162236256855,0.11374110004750436,3.688189296664963
9.78775143623352,0.11763002747547549,0.11272360238368076,5.0
9.809623003005981,0.11665303389179212,0.11174886656665041,5.0
9.817736387252808,0.11665303389179212,0.11081888921425391,5.0
9.840750217437744,0.11606683774158212,0.10993589302056064,5.0
9.856730699539185,0.11606683774158212,0.10910116254366635,5.0
9.872563123703003,0.11587143902484545,0.10831560377544686,5.0
9.883720874786377,0.11587143902484545,0.10758034504503995,4.13513525834963
9.901257514953613,0.11587143902484545,0.10689618079531785,3.2658999192831377
9.919730186462402,0.11587143902484545,0.10626340805819842,2.521221163239892
9.93471360206604,0.1156760403081088,0.10568194765307494,1.6518455769407816
9.947725296020508,0.1156760403081088,0.10515148927629533,0.6116384660941477
9.96268916130066,0.11528524287463544,0.10467138014916103,-0.5693150658677437
9.97770619392395,0.11469904672442544,0.10424062379684301,-2.1164527129229342
9.995309829711914,0.11411285057421541,0.10385797377746801,-3.1861096998639127
10.014952898025513,0.11313585699053208,0.1035222261203435,-4.136588130009663
10.029311895370483,0.11235426212358537,0.10323214852107938,-4.5424227459008595
10.043992280960083,0.11157266725663871,0.10298600098768257,-4.91730276331062
10.059856414794922,0.11040027495621868,0.10278172057358685,-5.0
10.070698261260986,0.10981407880600867,0.1026171184264065,-4.60703369990676
10.08275294303894,0.10903248393906198,0.102489739361239,-3.98240745066744
10.09605860710144,0.10864168650558867,0.10239710249220481,-3.0780384360718633
10.104787588119507,0.10844628778885199,0.10233644254971097,-1.942447542893196
10.122725009918213,0.10805549035537865,0.10230506888458474,-0.6488177443213193
10.137706995010376,0.10786009163864198,0.10230113296105947,1.0097734523477382
10.150678157806396,0.1076646929219053,0.10232276706218638,1.9065558910514384
10.165700435638428,0.1076646929219053,0.1023677321634508,2.9168452950013206
10.177819967269897,0.1076646929219053,0.1024338759266761,3.184650092112621
10.193712949752808,0.1076646929219053,0.10251914442917559,3.1242761332654014
10.20573902130127,0.1076646929219053,0.10262159137820487,2.65616999390265
10.22164797782898,0.1076646929219053,0.10273938499678902,2.1138402189659793
10.23461365699768,0.1076646929219053,0.10287087484859944,1.3492486483062063
10.249176263809204,0.1076646929219053,0.10301454308925644,0.6421701940692777
10.265758275985718,0.1076646929219053,0.10316915673197652,0.08024982729668984
10.275993585586548,0.1076646929219053,0.10333354364196849,-0.3291277635531532
10.288375854492188,0.1076646929219053,0.1035061257676723,-0.6076553051317605
10.308205366134644,0.1076646929219053,0.10368593923666061,-0.7838370342835148
10.32363510131836,0.1076646929219053,0.10387292683995664,-0.8841828388835871
10.335891962051392,0.1076646929219053,0.10406656558153575,-0.9304335788373985
10.344115495681763,0.1076646929219053,0.10426522758007592,-0.9393128644378432
10.36401629447937,0.1076646929219053,0.10446756946009604,-0.9231997230991664
10.37270712852478,0.1076646929219053,0.10467313934097844,-0.8910221204632475
10.385935068130493,0.1076646929219053,0.1048810416095301,-0.8490932403448865
10.397801160812378,0.1076646929219053,0.10509018337764109,-0.801801817215525
10.41374659538269,0.1076646929219053,0.10529994702620403,-0.7521474038246163
10.433741807937622,0.1076646929219053,0.1055106671012292,-0.7021406772678661
10.443351030349731,0.1076646929219053,0.1057230466523154,-0.6530960957902834
10.455754518508911,0.1076646929219053,0.1059367593907827,-0.6058426423594494
10.466253757476807,0.1076646929219053,0.10615086990794978,-0.5608739766032133
10.485900402069092,0.1076646929219053,0.10636514304972088,-0.5184545712526442
10.501782178878784,0.1076646929219053,0.10658031673007436,-0.47869425991427667
10.514754295349121,0.1076646929219053,0.10679675035812314,-0.4416003048831566
10.529670476913452,0.1076646929219053,0.10701417928592609,-0.4071135643802851
10.543697834014893,0.1076646929219053,0.10723238374762775,-0.37513346487849114
10.564415216445923,0.1076646929219053,0.10745164330371007,-0.3455351211058438
10.581668615341187,0.1076646929219053,0.10767287739640041,-0.31818096654151407
10.59576940536499,0.1076646929219053,0.10789659485405355,-0.2929285586709874
10.607078075408936,0.1076646929219053,0.10812232575555267,-0.26963572802721414
10.621692180633545,0.1076646929219053,0.10834937606970399,-0.248163890336445
10.633800745010376,0.1076646929219053,0.10857717330423063,-0.22838009485375182
10.648892402648926,0.1076646929219053,0.10880515814755332,-0.2101582089655265
10.662206411361694,0.1076646929219053,0.10903305550546363,-0.19337951777789558
10.676646709442139,0.1076646929219053,0.10926054983760249,-0.17793293239617175
10.691681861877441,0.1076646929219053,0.10948707802194713,-0.16371494111772333
10.704686641693115,0.1076646929219053,0.10971208560922943,-0.15062939619002202
10.71868085861206,0.1076646929219053,0.10993503429124786,-0.13858719976924422
10.731680154800415,0.1076646929219053,0.11015541114004533,-0.12750593249041262
10.74669599533081,0.1076646929219053,0.11037273890816539,-0.11730945398838115
10.759610652923584,0.1076646929219053,0.11058658671931938,-0.10792749494000423
10.778746843338013,0.1076646929219053,0.11079676318903402,-0.09929525343561599
10.796238660812378,0.1076646929219053,0.11100355691396377,-0.09135300382499831
10.804062128067017,0.1076646929219053,0.11120689679959268,-0.08404572298429222
10.820213317871094,0.1076646929219053,0.11140615027496292,-0.0773227367714201
10.829150199890137,0.1076646929219053,0.11160098945309174,-0.07113738796789934
10.841645240783691,0.1076646929219053,0.11179109180208087,-0.06544672602724397
10.855618953704834,0.1076646929219053,0.11197624335200998,-0.060211218312828656
10.870327949523926,0.1076646929219053,0.11215668993222427,-0.0553944821052476
10.884445428848267,0.1076646929219053,0.1123329588270028,-0.05096303641704474
10.893617153167725,0.1076646929219053,0.11250554130762382,-0.04688607251983567
10.90761423110962,0.1076646929219053,0.11267463188432988,-0.043135242029558284
10.920587301254272,0.1076646929219053,0.1128405540881684,-0.03968446138511081
10.935588598251343,0.1076646929219053,0.113003874513282,-0.03650973157684434
10.950839042663574,0.1076646929219053,0.1131652815286075,-0.033588972022476606
10.962579727172852,0.1076646929219053,0.11332546863338465,-0.03090186754092443
10.980350732803345,0.1076646929219053,0.11348518783057855,-0.028429727433822737
10.99738621711731,0.1076646929219053,0.11364580334929737,-0.02615535574643745
11.012238025665283,0.1076646929219053,0.11380885500488873,-0.024062931841846873
11.026885032653809,0.1076646929219053,0.11397515869455008,-0.022137900483086212
11.040076732635498,0.1076646929219053,0.11414499802357356,-0.0203668706764503
11.055584907531738,0.1076646929219053,0.11431860094207309,-0.01873752258474196
11.069581985473633,0.1076646929219053,0.1144962543886783,-0.017238521871647955
11.08558177947998,0.1076646929219053,0.11467823695771807,-0.01585944088749587
11.105563163757324,0.1076646929219053,0.11486562324845455,-0.014590686152402017
11.116218328475952,0.1076646929219053,0.1150596728384674,-0.013423431635343963
11.130555629730225,0.1076646929219053,0.11526013420027303,-0.012349557367110301
11.141651153564453,0.1076646929219053,0.11546616001976703,-0.011361592961557178
11.162559032440186,0.1076646929219053,0.11567820013083216,-0.010452665653303597
11.179142951965332,0.1076646929219053,0.1158980720278696,-0.009616452491109009
11.19301700592041,0.1076646929219053,0.11612686624210791,-0.008847136354869077
11.204667568206787,0.1076646929219053,0.1163644166529048,-0.008139365490613702
11.21663498878479,0.1076646929219053,0.11661036190697868,-0.0074882162822585115
11.227123737335205,0.1076646929219053,0.11686390226244404,-0.00688915900130355
11.244647741317749,0.10786009163864198,0.11712451214201604,-0.006338026296337286
11.259626626968384,0.10786009163864198,0.11739297120936266,-0.005830984203226913
11.275083065032959,0.10825088907211532,0.1176702542743984,0.2706738542042946
11.287734985351562,0.10844628778885199,0.11795662206792065,0.5802659774771759
11.299954891204834,0.10883708522232532,0.11825156700543382,0.8347265113251293
11.310914278030396,0.10903248393906198,0.1185545938820916,1.0130704538112434
11.325671195983887,0.10942328137253533,0.11886599806611339,1.3969010190394298
11.338618993759155,0.11000947752274534,0.11918627252480823,1.4811692974900534
11.353657484054565,0.11040027495621868,0.11951567530405713,1.4351935151228026
11.36763072013855,0.1109864711064287,0.11985435894491198,1.6148305813191828
11.382619142532349,0.11176806597337538,0.12020248665018772,1.8136059751999087
11.403753519058228,0.11274505955705873,0.12056184133932167,1.6829749543765748
11.41763424873352,0.11294045827379541,0.12093559124160025,1.1748609028437698
11.42669677734375,0.11313585699053208,0.12132371836998557,0.6276406543796205
11.444010019302368,0.11333125570726875,0.12172460001800585,-0.3878083494981496
11.454824447631836,0.1135266544240054,0.12213838579618887,-1.3564380016883526
11.470712423324585,0.1135266544240054,0.12256497894391044,-2.1096749326987574
11.484392881393433,0.1135266544240054,0.12300451803153192,-2.901162651083587
11.49846601486206,0.1135266544240054,0.12345748850482002,-3.243732145018181
11.513631820678711,0.11372205314074207,0.12392366621320668,-3.061698621413328
11.527711868286133,0.11391745185747876,0.12440260479095559,-2.4325505525100537
11.542664051055908,0.11411285057421541,0.12489379875071634,-1.4737407668035063
11.555633068084717,0.1143082492909521,0.12539675725898236,-0.5732688783689088
11.568699836730957,0.11489444544116212,0.12591099821829502,0.14420777488197406
11.582719802856445,0.11528524287463544,0.12643604399137798,0.9407472646661322
11.596667051315308,0.1156760403081088,0.12697141912793738,1.3240751579003385
11.615426778793335,0.11665303389179212,0.12751763219950932,2.0377044347935183
11.623618841171265,0.11704383132526547,0.12807503160566597,2.1455720220403007
11.638625860214233,0.11782542619221216,0.12864186032053385,2.2881809990582522
11.653647899627686,0.11860702105915884,0.1292165679113999,2.387422825960411
11.675892114639282,0.11977941335957885,0.12980088743005946,2.1491570498236667
11.689538955688477,0.12095180565999888,0.13039834560365912,2.0977327980551745
11.70263385772705,0.12173340052694555,0.13100975448738203,1.815030971713934
11.716693639755249,0.12271039411062891,0.1316336092065441,1.4897907417045255
11.73063063621521,0.12388278641104894,0.13226855777429164,1.4708096601939977
11.749554634094238,0.1254459761449423,0.13291438768252845,1.260362354386087
11.767486095428467,0.12642296972862566,0.13357312282589512,1.0131235642052934
11.78163743019104,0.12700916587883565,0.13424670398237806,0.23677908406295362
11.79564356803894,0.12739996331230902,0.13493447275960047,-1.1173500453860705
11.810706853866577,0.12759536202904564,0.1356345483498857,-2.3868330967718983
11.823209762573242,0.12759536202904564,0.13634519665224468,-3.6352546937754866
11.835632801055908,0.12779076074578233,0.13706491943328689,-4.596071342712016
11.851714372634888,0.12779076074578233,0.13779261400472412,-4.950532819281781
11.864607095718384,0.12779076074578233,0.13852735162623525,-4.706955496291133
11.879647731781006,0.1281815581792557,0.13926827517740767,-4.260605905254758
11.902373552322388,0.128572355612729,0.1400172038530797,-3.230566075984151
11.911415100097656,0.12896315304620237,0.14077642985841468,-1.8934804049730511
11.921609878540039,0.12915855176293903,0.1415428300981783,-0.41281212587525873
11.9370276927948,0.12974474791314905,0.14231265668309032,0.8377165255083696
11.957668542861938,0.13072174149683238,0.1430879359520294,1.7664871746990483
11.97259521484375,0.1313079376470424,0.14387304128261313,2.393987477740979
11.98754072189331,0.13228493123072574,0.14466907051019515,2.77652582201215
12.002540349960327,0.13306652609767244,0.14547469106794605,3.2502241799621583
12.01919960975647,0.13423891839809246,0.14628954732660113,3.0721939647893346
12.039413452148438,0.13560670941524913,0.14711605296461874,2.9573049220550063
12.054588317871094,0.13677910171566918,0.14795733267095904,2.849088595900737
12.07149076461792,0.13834229144956253,0.1488137174527642,2.7293929233037515
12.090744495391846,0.1399054811834559,0.14968562478793399,2.319952004187304
12.10129189491272,0.14088247476713922,0.1505733860005466,2.143205825952155
12.11252760887146,0.1418594683508226,0.1514727575771552,1.7732122985553547
12.134533882141113,0.144008854234926,0.15238111956604866,1.3900133473512406
12.147539615631104,0.14518124653534598,0.15330123423057376,1.0586898902417208
12.163524627685547,0.1465490375525027,0.15423364293139183,0.5182791607199033
12.180245399475098,0.14772142985292272,0.15517604745143562,-0.26903734151687286
12.200618982315063,0.1485030247198694,0.15612928525872635,-1.535115638402007
12.213626623153687,0.14869842343660605,0.15709641127328583,-2.9724173287736146
12.224445343017578,0.14869842343660605,0.15807611970406354,-4.156096622731969
12.233625888824463,0.14889382215334274,0.15906159935412548,-4.7072989200417155
12.244534730911255,0.14889382215334274,0.16004585014638065,-5.0
12.267338275909424,0.14928461958681605,0.16102880739335468,-5.0
12.282505989074707,0.14967541702028941,0.16201543717754632,-4.434019865479336
12.297508239746094,0.15006621445376275,0.16300703810085182,-3.2941870482545585
12.311516046524048,0.15084780932070943,0.16400179199764742,-1.5945349385353407
12.327143907546997,0.15143400547091945,0.16499841225418577,-0.018420498217144532
12.340880870819092,0.15202020162112945,0.16599597958409815,0.9426357551933955
12.36188554763794,0.1531925939215495,0.16699641718867395,1.7877693148880263
12.376774072647095,0.15416958750523282,0.1680042919198875,2.4135471590854958
12.39032506942749,0.15514658108891616,0.16902071263781568,2.8208321065863355
12.405657529830933,0.1563189733893362,0.17004372616564228,3.322566575725342
12.420582056045532,0.15768676440649287,0.1710717509319612,3.167436723429369
12.435590028762817,0.15905455542364957,0.1721035522209914,3.3443387102437683
12.456385612487793,0.1608131438742796,0.17314057148710701,3.2783731475553752
12.471582889556885,0.16237633360817297,0.1741875552633023,3.1073972130672054
12.484171390533447,0.16335332719185633,0.1752469465418691,2.6217662401767727
12.492746353149414,0.16433032077553966,0.1763153371742057,2.0956250348878847
12.511675834655762,0.16628430794290636,0.17738971568339043,1.9072972230315939
12.526811361312866,0.16784749767679974,0.1784721061004023,1.564601681758245
12.541604042053223,0.16921528869395644,0.17956394002513798,1.2185366642734268
12.556507110595703,0.17097387714458645,0.1806642933671327,0.9225165887993594
12.570666790008545,0.1725370668784798,0.18177247053103693,0.4117462402485515
12.587766647338867,0.17449105404584653,0.1828899544948562,0.4760084344660678
12.605520963668823,0.17624964249647657,0.18402192045551205,0.15543246998270904
12.620615243911743,0.17781283223036992,0.18517262377242227,-0.23001713799030107
12.635564804077148,0.17859442709731663,0.18634170667254255,-1.3884755070322619
12.650568723678589,0.17937602196426328,0.18752683648873486,-2.835112260614741
12.6735098361969,0.18015761683120995,0.18872977543437752,-4.341698483389903
12.687513589859009,0.18035301554794664,0.18995567510140704,-5.0
12.701485872268677,0.18035301554794664,0.1912046042539561,-5.0
12.71557903289795,0.18054841426468332,0.19247230317887193,-5.0
12.729318380355835,0.18054841426468332,0.1937548007938262,-5.0
12.743478536605835,0.18093921169815663,0.19504839696065276,-4.748128931280635
12.756481647491455,0.18133000913162997,0.1963496470410275,-3.538822337203963
12.769729852676392,0.18172080656510334,0.19765534860736883,-1.932485529111689
12.78247857093811,0.18211160399857668,0.19896253021470078,-0.48031915929457636
12.791222333908081,0.18250240143205002,0.20026621567963956,0.6520565490442205
12.80741262435913,0.18308859758226,0.20156201578785943,1.7345219608927702
12.82139253616333,0.18387019244920672,0.20285054233252667,2.574433565489535
12.833028554916382,0.18484718603289005,0.20413167762711767,3.145766436491951
12.84791088104248,0.18562878089983675,0.20540295962932534,3.760352872227314
12.861952304840088,0.18699657191699343,0.20666319852342718,3.950932938871552
12.871540784835815,0.18777816678394008,0.20790953559812603,4.197399906418273
12.8887779712677,0.18953675523457011,0.2091389098996302,4.36466493334469
12.903485298156738,0.19129534368520015,0.21035230163143617,4.422270601075212
12.918487310409546,0.19285853341909354,0.21155078839925529,4.656591990741644
12.93357229232788,0.1950079193031969,0.212733520320969,4.295338955588557
12.946482419967651,0.19637571032035359,0.21389969894311156,4.035443324534277
12.964241743087769,0.1989158936379303,0.21505000447706452,3.533101267927041
12.974485874176025,0.20008828593835032,0.21618507026940104,3.005739237831997
12.989469289779663,0.20223767182245372,0.21730289390568405,2.2584123314592928
13.004093408584595,0.20419165898982042,0.2184027106653078,1.8311862588371424
13.015524625778198,0.20595024744045046,0.21948538181985708,1.2901930136961561
13.02951979637146,0.2080996333245538,0.22055036649670878,0.7998731394165405
13.039482593536377,0.20966282305844713,0.2215971066895441,0.4094323889944241
13.047480344772339,0.2108352153588672,0.22262274268241533,0.12042327036667358
13.066221237182617,0.21376619610991726,0.22362510882457354,0.1935801501502868
13.08152985572815,0.21630637942749392,0.22460830292939798,0.0910933527829734
13.095493793487549,0.21845576531159733,0.22557590654328138,-0.32560969703922493
13.110565423965454,0.2206051511957007,0.2265282893071719,-0.7604094843212033
13.120143175125122,0.22177754349612072,0.22746497209895356,-1.3853379073484897
13.131169557571411,0.22294993579654077,0.22838505065912337,-1.9361272958223839
13.141338586807251,0.22412232809696078,0.22928833042904725,-2.887237123167549
13.158563137054443,0.22509932168064412,0.23017582194427627,-4.027930778834376
13.17353105545044,0.22607631526432748,0.23104995796964783,-5.0
13.187523603439331,0.2266625114145375,0.23191226025574502,-5.0
13.198696374893188,0.22685791013127415,0.2327623187122982,-5.0
13.20645809173584,0.2270533088480108,0.2335975104822853,-5.0
13.222701787948608,0.2272487075647475,0.2344155358010655,-5.0
13.234144687652588,0.2272487075647475,0.2352176489839903,-5.0
13.246526718139648,0.2272487075647475,0.23600503371298137,-5.0
13.25948977470398,0.2272487075647475,0.2367773603082808,-4.632793012527712
13.280597925186157,0.22744410628148415,0.23753690000216088,-3.782661001312353
13.288688659667969,0.22744410628148415,0.23828672859249891,-2.617121922888229
13.30672812461853,0.22783490371495752,0.23902772255236404,-1.26403037097013
13.321367740631104,0.2280303024316942,0.2397619539102149,0.18357240667891217
13.332175016403198,0.22822570114843083,0.24049067820901218,1.3843604023798588
13.343454599380493,0.2286164985819042,0.24121229377927678,2.5369503539604574
13.356186866760254,0.22900729601537753,0.2419251281123086,3.148546680607785
13.369651079177856,0.22939809344885087,0.24262873847410438,3.7079955574750003
13.388919115066528,0.2303750870325342,0.24332529954999335,4.099861722218533
13.403458833694458,0.2311566818994809,0.24401805844222543,4.314113341690364
13.41707968711853,0.23193827676642756,0.24470828741163175,4.378695909784758
13.430499792098999,0.23271987163337426,0.24539588846059393,4.330270004480278
13.445592403411865,0.23389226393379428,0.24608078658597912,4.202693052695446
13.456839561462402,0.23467385880074096,0.2467629259734209,3.74739840847202
13.47045350074768,0.23565085238442432,0.24744226772086328,3.228115868784175
13.484524726867676,0.2368232446848443,0.2481187890014456,3.024193878550731
13.498997688293457,0.238191035702001,0.24879248334753665,2.648234477164676
13.513530492782593,0.2395588267191577,0.24946336158006102,2.532570861603543
13.528522491455078,0.24073121901957772,0.25013145284256916,2.216269366016715
13.543900728225708,0.2422944087534711,0.25079741702600117,2.144902884509602
13.563964366912842,0.24444379463757446,0.25146389441894196,1.8641879147297031
13.578518390655518,0.24542078822125782,0.2521339459493271,1.2709899613287152
13.592100143432617,0.2462023830882045,0.25280804944467405,0.3985898591332824
13.60456109046936,0.24678857923841455,0.25348487977715445,-0.6787787535450899
13.614034414291382,0.24698397795515117,0.2541619100004509,-1.8853402048262276
13.626075506210327,0.24717937667188783,0.254835630048682,-2.881630991936115
13.644988536834717,0.2473747753886245,0.25550590282794045,-4.4144548827647965
13.652815103530884,0.2473747753886245,0.25617483301804106,-5.0
13.672563791275024,0.2473747753886245,0.2568428749656257,-5.0
13.683241844177246,0.2473747753886245,0.25751040007725523,-4.819517375808166
13.699546098709106,0.2475701741053612,0.25817778796065277,-4.253568523319257
13.71514368057251,0.24776557282209788,0.2588458450060457,-3.0679102856543934
13.73049545288086,0.24815637025557122,0.2595153298668713,-1.5951274080126352
13.751424074172974,0.2487425664057812,0.2601880987451624,-0.014539254475442354
13.765891790390015,0.24913336383925455,0.26086800076797456,1.0245865601030442
13.779557704925537,0.24971955998946457,0.2615566699904166,1.9556709177243572
13.794190645217896,0.2505011548564112,0.26225350136777476,2.375553487566039
13.808612585067749,0.2510873510066213,0.26295781420458414,2.798583111300651
13.822519779205322,0.25186894587356795,0.2636690543711816,3.1086674605436
13.83658504486084,0.2528459394572513,0.2643868810561917,3.0101250358388687
13.848901271820068,0.253627534324198,0.2651110520901106,2.762606350186819
13.864493370056152,0.25440912919114467,0.2658415177318014,2.7570329422600617
13.887637615203857,0.255972318925038,0.26658137608566507,3.073378825638485
13.900916814804077,0.25694931250872133,0.2673357880732235,2.844319737710256
13.909390211105347,0.2575355086589314,0.2681041447449605,2.449029638875138
13.928197860717773,0.2592940971095614,0.26888410373005517,2.045929917640154
13.94199824333191,0.2604664894099814,0.2696782705688972,1.6923532860153991
13.958047151565552,0.26183428042713813,0.27048843928607497,1.4015944098216366
13.973589181900024,0.2632020714442948,0.2713138407459716,1.4455262641142945
13.995392084121704,0.26496065989492484,0.27215671087298926,1.0194584467812438
14.009518146514893,0.26554685604513484,0.2730220357130805,0.2347317594379396
14.025431871414185,0.2661330521953449,0.2739112163940134,-1.0712785139240524
14.039487361907959,0.2663284509120815,0.2748220776864075,-2.2841448078781954
14.053440570831299,0.2665238496288182,0.27575231867392824,-4.313317845631916
14.07100772857666,0.2665238496288182,0.27670097170413543,-5.0
14.082401037216187,0.2667192483455549,0.27766699678543927,-5.0
14.102366924285889,0.26691464706229157,0.2786492852184473,-4.66752590673764
14.116774320602417,0.2671100457790282,0.2796491748959294,-3.839347902530333
14.132527828216553,0.26750084321250156,0.280667176356951,-2.686796525289089
14.148454189300537,0.26808703936271155,0.2817016543549404,-1.0644634059459281
14.159490823745728,0.2684778367961849,0.282750140208738,0.13763134287152912
14.173571825027466,0.2690640329463949,0.2838096114022774,1.250398117668606
14.187564849853516,0.26965022909660497,0.2848773291289641,2.1079708202076577
14.202554941177368,0.27062722268028827,0.28595083267655386,2.6951365681547115
14.215544939041138,0.271408817547235,0.2870279332717777,3.3273665054740214
14.233359575271606,0.272581209847655,0.28810740479768204,3.5380166659361647
14.252221584320068,0.27394900086481166,0.2891913000829217,3.5304384077712605
14.267552137374878,0.2753167918819684,0.2902830339457116,3.411665206966524
14.280579805374146,0.27629378546565175,0.29138226051725197,3.2387141603010634
14.296504497528076,0.27785697519954505,0.29248616787486403,3.3183523358899505
14.316237688064575,0.2798109623669118,0.29359422619665954,3.1483343999734856
14.325480222702026,0.2807879559505952,0.29470597319778835,2.6164122314980793
14.340161800384521,0.2823511456844885,0.2958174982902417,2.589701884728394
14.355411052703857,0.28410973413511853,0.29692723257075393,2.1475915684600935
14.365554571151733,0.2850867277188019,0.2980353531429253,1.905990682961361
14.388521194458008,0.28782230975311524,0.29914205750725964,1.4759477545409847
14.399892091751099,0.28938549948700865,0.30025056728026095,1.0492232716452248
14.409611940383911,0.29036249307069195,0.3013597880953491,0.41601594102015493
14.427523612976074,0.292707277671532,0.30246689659400167,0.10767669463144292
14.435553789138794,0.29368427125521535,0.3035709743182014,-0.03876269215488359
14.455441236495972,0.29622445457279206,0.30467081967572995,-0.10478168835397328
14.470401287078857,0.2981784417401588,0.30577011696740625,-0.4071426889245811
14.48541259765625,0.3001324289075255,0.30687215257563766,-0.4472331528486212
14.498493432998657,0.3015002199246822,0.3079764131923099,-1.2180035970287781
14.514559745788574,0.3026726122251022,0.30908260389197106,-2.062990567292807
14.527565717697144,0.30345420709204884,0.3101906177720663,-3.574686926834218
14.547945499420166,0.3044312006757322,0.31130370009731995,-4.970945158288046
14.562674045562744,0.3046265993924689,0.3124284822962696,-5.0
14.577011585235596,0.3048219981092056,0.31356787634168837,-5.0
14.590556859970093,0.30501739682594226,0.31472059106710715,-5.0
14.606526851654053,0.3052127955426789,0.3158852313610922,-5.0
14.62846302986145,0.3054081942594156,0.31706397503230266,-5.0
14.63642930984497,0.30560359297615225,0.31825847223460335,-3.9177248638168938
14.651620149612427,0.3059943904096256,0.31946463528272356,-2.5091266104716228
14.662958145141602,0.306385187843099,0.3206794343708253,-0.9569381025314123
14.67444896697998,0.30677598527657224,0.3219010197158293,0.3580539081101122
14.689380168914795,0.30736218142678234,0.323126968115945,1.6185618773809307
14.703794240951538,0.30833917501046565,0.3243571010416506,2.8786450883190335
14.724347829818726,0.3095115673108857,0.32559597701312554,3.58859361625725
14.739428043365479,0.310488560894569,0.32685076049380196,3.9434454325661568
14.754431962966919,0.31146555447825236,0.3281233001742214,4.069212917440948
14.765706300735474,0.31244254806193567,0.32941134723740173,4.0484888704584385
14.778639316558838,0.3134195416456191,0.3307129028359178,3.935950252699071
14.792394876480103,0.31459193394603907,0.33202619338742867,3.7679982774914333
14.805962800979614,0.31595972496319574,0.33334964378918397,3.568898097145011
14.813387632369995,0.3165459211134058,0.3346775112741478,3.3547704518439776
14.835437297821045,0.3188907057142458,0.336004920032683,3.4122693296913185
14.849437952041626,0.3202584967314025,0.3373364428657035,2.9532832098877684
14.864439725875854,0.3218216864652959,0.33867588252217123,2.655795244763345
14.886053562164307,0.3245572684996093,0.34002626910937184,2.4349628558820733
14.895116090774536,0.32572966080002924,0.34139138497124055,1.9755138024892722
14.908216714859009,0.32729285053392265,0.3427665098041531,1.5028193376385328
14.919396162033081,0.32885604026781606,0.34414456221974626,1.0976379665682985
14.934506893157959,0.3310054261519194,0.3455230243436681,1.0540469762785967
14.946349382400513,0.33237321716907614,0.34690103612617723,0.8464834533612421
14.968187808990479,0.33549959663686285,0.34828024128429486,0.6154000428517665
14.983445882797241,0.33764898252096615,0.3496658411635508,0.4132642760201841
14.991402387619019,0.3384305773879129,0.35105507825280907,0.2538962748386485
15.0113844871521,0.3411661594222262,0.352441263121575,-0.1405057005558214
15.02233099937439,0.34272934915611963,0.3538259181664607,-0.5339661719152237
15.031147003173828,0.3439017414565396,0.3552070518473629,-0.845958395354081
15.043099880218506,0.345464931190433,0.3565770901025334,-1.0622878197648935
15.055335283279419,0.3470281209243264,0.35793206402324185,-1.1939637784134542
15.065957307815552,0.3485913106582197,0.3592691374902667,-1.2590353236023466
15.08582329750061,0.35152229140926977,0.3605887001426904,-0.9991498705094465
15.098290920257568,0.3532808798598998,0.3618961799195233,-0.9480550612900357
15.106405019760132,0.3544532721603198,0.3631921244651726,-1.2385605520927676
15.129573345184326,0.3569934554778965,0.36447544327811754,-1.8450409293036814
15.139593362808228,0.3579704490615799,0.36574949026083303,-2.139855097437642
15.148503065109253,0.3591428413619999,0.36701202965862634,-2.8046965124914776
15.1701340675354,0.3605106323791566,0.36826024525751305,-3.7047488337220438
15.180559873580933,0.36090142981262996,0.3694975474168077,-4.465072139703054
15.189499855041504,0.36109682852936664,0.37072215082974824,-4.706322049282193
15.212504386901855,0.36129222724610327,0.3719316636746425,-5.0
15.228445768356323,0.36148762596283995,0.3731309829354295,-5.0
15.252489805221558,0.3616830246795766,0.3743263052779974,-5.0
15.267028093338013,0.36187842339631326,0.3755223059538433,-5.0
15.280343770980835,0.36207382211305,0.37671944915270095,-3.981759885111722
15.29681658744812,0.36226922082978663,0.3779156213404797,-2.4559250701999202
15.313344240188599,0.36266001826325994,0.379110335972238,-0.7510439161927196
15.331412553787231,0.36324621441346994,0.38030538039250344,0.6965752667361591
15.34640622138977,0.3636370118469433,0.38150244435391795,1.7779495470204876
15.362407684326172,0.36441860671389,0.3826998830287288,2.7906348205137
15.385550260543823,0.36520020158083666,0.38389749398334716,3.55530441401028
15.40040397644043,0.3659817964477834,0.38509803359092915,3.776123723136804
15.4158353805542,0.36676339131473,0.3863006351773184,4.286630806641832
15.430412769317627,0.36774038489841343,0.3875014078757714,4.189904718593727
15.452729225158691,0.3691081759155701,0.3886996468436257,4.141787009090221
15.460494041442871,0.36949897334904347,0.38989472788921137,3.516685398817284
15.473318099975586,0.37047596693272683,0.3910808515075428,3.334440773020004
15.496315240859985,0.37203915666662013,0.3922560894885101,3.013370926170464
15.505574941635132,0.3728207515335668,0.3934220641805001,2.948480537608127
15.525466680526733,0.3743839412674602,0.3945772671422925,2.666988982311132
15.54810118675232,0.3763379284348269,0.39572514141306125,2.337231379044291
15.56447982788086,0.37770571945198356,0.39687144791311074,2.026539276403321
15.579392194747925,0.37907351046914023,0.39801574376953475,2.0327376528274983
15.603466272354126,0.38122289635324363,0.3991574603321025,1.8393658604774568
15.617844104766846,0.3825906873704003,0.40029865652991187,1.3203623643242164
15.632474422454834,0.383958478387557,0.4014381562322763,1.0553101351222387
15.64547872543335,0.3851308706879771,0.4025722839680181,0.6336880561268073
15.658258199691772,0.38630326298839707,0.40369767615414653,0.5101927835121657
15.682710409164429,0.38864804758923716,0.40481391682349527,0.2239977712680966
15.696983814239502,0.38982043988965714,0.4059235433513066,-0.0628974780654924
15.710029602050781,0.39099283219007713,0.4070260493100999,-0.570791696310414
15.725343704223633,0.39216522449049723,0.40811820826823025,-0.7704598210438462
15.739387035369873,0.3933376167909172,0.4091973162759641,-1.0997350417933731
15.751454591751099,0.3945100090913372,0.4102610640684556,-1.118946275337481
15.767385959625244,0.3956824013917572,0.4113076004501585,-1.021239415324018
15.781367540359497,0.39685479369217724,0.412335667005482,-1.168232719282366
15.796354293823242,0.3980271859925973,0.41334434653819413,-1.0760335959774818
15.80829906463623,0.39880878085954397,0.41433293247524317,-1.1874583010487112
15.820427656173706,0.3997857744432273,0.41530099105558815,-1.0529913256022534
15.83331561088562,0.40076276802691063,0.4162483186564497,-1.1282984181353788
15.84841513633728,0.40173976161059405,0.4171748990454951,-1.2433048319590039
15.862369775772095,0.4025213564775407,0.4180808600130783,-1.33432355062819
15.878340721130371,0.4036937487779607,0.4189664289738839,-1.3843127923029594
15.891724109649658,0.40447534364490745,0.41983204095411686,-1.1189424732809932
15.904361963272095,0.4052569385118541,0.42067811396346866,-1.065057786328166
15.917354106903076,0.4058431346620641,0.4215047002644284,-1.0767288699866948
15.939294576644897,0.40701552696248405,0.42231352878153366,-1.094370659447141
15.954360723495483,0.4077971218294308,0.4231077883918531,-1.0974506282649368
15.969357252120972,0.40838331797964084,0.4238880968899155,-1.3581254488999153
15.98236870765686,0.4089695141298508,0.4246528037402448,-1.0838433711552307
15.9973726272583,0.4095557102800608,0.4254001454630099,-0.9524510061285967
16.01499915122986,0.4103373051470075,0.4261285631999025,-0.8806042658786972
16.027800798416138,0.41092350129721755,0.4268365402338498,-0.5549764865851605
16.038381576538086,0.41131429873069086,0.4275220242621867,-0.47887913262500176
16.054924488067627,0.4119004948809009,0.4281829802780991,-0.21580416360444268
16.07023000717163,0.41248669103111085,0.4288179474456637,-0.2159553563637639
16.080994606018066,0.41268208974784754,0.4294253075030111,-0.2982451823155621
16.102667808532715,0.41365908333153095,0.430003209109186,-0.11173127935804728
16.114500045776367,0.4138544820482676,0.43055001170776624,-0.14879780158004374
16.124724626541138,0.41424527948174095,0.4310639578592107,0.027009351809989923
16.134913682937622,0.4144406781984775,0.4315433060123874,-0.03840400229741506
16.147360801696777,0.41483147563195094,0.4319866175575172,0.10743738516765393
16.17035961151123,0.41522227306542425,0.4323916831728987,0.016265327500012604
16.185367345809937,0.4154176717821609,0.43275520578078003,-0.13409755247350655
16.197367668151855,0.4156130704988976,0.4330742051767967,0.002696600273804403
16.212352991104126,0.41600386793237093,0.43334614460241433,-0.07010629034672919
16.224860429763794,0.41600386793237093,0.4335682697318421,-0.1957256042296457
16.236492395401,0.41600386793237093,0.4337381344623306,-0.31213542951453843
16.251357078552246,0.4161992666491076,0.43385297158070724,-0.12367794783388814
16.26737070083618,0.4161992666491076,0.4339086359420173,-0.1474143391343312
16.277587890625,0.4161992666491076,0.4339024597459479,-0.23319827111798247
16.2923424243927,0.4161992666491076,0.43383199787320775,-0.3198641848713243
16.305336236953735,0.4161992666491076,0.43369133684719624,-0.11047084324423151
16.31831455230713,0.4161992666491076,0.4334753466578508,-0.1202438658535338
16.334367990493774,0.4161992666491076,0.433180660947147,0.0787497026177322
16.352400064468384,0.4161992666491076,0.43280160337053336,0.306212338975987
16.365381956100464,0.4161992666491076,0.43233139618861954,0.49594956621807523
16.3764169216156,0.4161992666491076,0.4317670071467034,0.6315377437541425
16.389431715011597,0.4161992666491076,0.4311087350130314,0.7163497206279662
16.404341459274292,0.4163946653658443,0.43035541737455746,0.7601012886349892
16.422428846359253,0.4161992666491076,0.4295006369236317,0.7731973916019439
16.436976194381714,0.4161992666491076,0.4285336543793039,0.7646558065630551
16.445332527160645,0.4161992666491076,0.42745323305095984,0.7415939174649158
16.45900559425354,0.4161992666491076,0.42626791211287474,0.7093391223787655
16.470288515090942,0.4161992666491076,0.4249814385746785,0.6717405531622989
16.483304738998413,0.4161992666491076,0.4235949523906115,0.6315041301890512
16.497268676757812,0.4163946653658443,0.4221098273770277,0.5904851891087695
16.51035213470459,0.4161992666491076,0.4205262004050287,0.5499220537339707
16.524333000183105,0.4161992666491076,0.4188447304899466,0.510613618872741
16.53933572769165,0.4161992666491076,0.4170665835442759,0.4730504367740417
16.55123805999756,0.4161992666491076,0.4151951251142955,0.43750962542234106
16.568010568618774,0.41600386793237093,0.4132331964979142,0.4041226561029299
16.58912229537964,0.41600386793237093,0.4111709856621147,0.37292327621536814
16.603339672088623,0.41600386793237093,0.4089929192320789,0.3438811029889147
16.618353366851807,0.41600386793237093,0.40669808952991165,0.31692498998449686
16.635952711105347,0.41600386793237093,0.40429322901627956,0.2919591499626003
16.646368265151978,0.4158084692156343,0.4017852793920387,0.26887417764568433
16.66155219078064,0.4156130704988976,0.399184538499931,-0.02848386034044234
16.674729585647583,0.4150268743486876,0.3964993828111361,-0.6333563516092868
16.686346530914307,0.4144406781984775,0.3937390304884623,-1.2147224472747746
16.69935393333435,0.41365908333153095,0.39091512210954726,-1.9395216156909223
16.71134066581726,0.41248669103111085,0.3880365380138432,-2.5495201321454237
16.72635245323181,0.41092350129721755,0.38511009877575714,-3.252097238634855
16.739344358444214,0.4095557102800608,0.3821422657461885,-4.088008193697604
16.754340648651123,0.4077971218294308,0.379139137620534,-5.0
16.76805830001831,0.4058431346620641,0.37610573885258736,-5.0
16.779343128204346,0.4038891474946974,0.3730468517326157,-5.0
16.793273210525513,0.4013489641771207,0.3699684322103358,-5.0
16.805931091308594,0.39900417957628065,0.36687594596448586,-5.0
16.817556858062744,0.39646399625870393,0.3637736770213636,-4.938532504152418
16.8311767578125,0.3933376167909172,0.360665578913158,-5.0
16.844799757003784,0.3900158386063938,0.357555286193649,-5.0
16.85835313796997,0.3866940604218704,0.35444612688169647,-5.0
16.872352123260498,0.38278608608713705,0.3513414754926899,-4.665958521531985
16.888357877731323,0.3779011181687203,0.34824436995186325,-5.0
16.90420937538147,0.3732115489670402,0.3451548418286269,-4.963024169885475
16.916433334350586,0.36930357463230673,0.34207307435057926,-3.8903937252825918
16.938082695007324,0.36187842339631326,0.3389948557303781,-4.021589352979015
16.95307755470276,0.3566026580444232,0.33590802447778323,-3.6391156554216817
16.96739888191223,0.35113149397579646,0.3328096819441596,-2.5681643304461126
16.980271100997925,0.34605112734064297,0.329706744788276,-1.7242243489005784
16.996399402618408,0.3403845645552796,0.32660539106390585,-0.8170015645677077
17.019237518310547,0.3321778184523394,0.32350261440768835,-0.3280083876643903
17.0273118019104,0.3290514389845527,0.3203961603224862,0.4894189720443093
17.047686100006104,0.3216262877485592,0.3172933600671105,1.8034946319645253
17.063420295715332,0.31693671854687916,0.31419235331107687,3.8342898126204537
17.086397647857666,0.310488560894569,0.31108304274382825,5.0
17.100455284118652,0.30677598527657224,0.307959080122798,5.0
17.11425495147705,0.30306340965857553,0.30482413313629697,5.0
17.12842059135437,0.3001324289075255,0.30168693107479455,5.0
17.142519235610962,0.2970060494397388,0.2985551381468597,5.0
17.157328605651855,0.29407506868868866,0.29543690855938887,5.0
17.17885184288025,0.2905578917874287,0.29233406338360857,5.0
17.19505500793457,0.2884085059033253,0.28924053941963423,5.0
17.210339784622192,0.28645451873595856,0.2861540371258544,5.0
17.22382116317749,0.2848913290020652,0.2830805332631013,5.0
17.236807823181152,0.2837189367016452,0.2800282678508163,5.0
17.252400875091553,0.2823511456844885,0.27700417226778007,5.0
17.270703554153442,0.2811787533840685,0.27401017018149093,5.0
17.28039264678955,0.28059255723385845,0.27104773571126983,4.802906338732374
17.294392585754395,0.2798109623669118,0.26812391128828295,4.551045958209194
17.309297800064087,0.2788339687832284,0.2652443926694481,3.7227148955292417
17.32737946510315,0.2776615764828084,0.26240860856747866,2.545432236678928
17.345383405685425,0.27629378546565175,0.2596088115698504,1.1728873225245149
17.36038899421692,0.2753167918819684,0.25683610291870473,-0.8439382310548489
17.374385356903076,0.27375360214807504,0.25409006694789404,-2.674898036576271
17.389384269714355,0.2721904124141816,0.25137509249692597,-4.6181046510924215
17.4123477935791,0.2692594316631316,0.24868856677947526,-5.0
17.422332286834717,0.2678916406459749,0.2460240367491055,-5.0
17.43137001991272,0.2665238496288182,0.24338910389788637,-5.0
17.450684070587158,0.2633974701610315,0.2407959705423313,-5.0
17.466412782669067,0.2606618881267181,0.23824308948929485,-5.0
17.479896783828735,0.2581217048091414,0.23572611574273997,-5.0
17.495274782180786,0.25499532534135466,0.2332478113368257,-5.0
17.508214235305786,0.25265054074051463,0.23081348500944168,-5.0
17.52331256866455,0.24952416127272792,0.2284279854734481,-5.0
17.53835892677307,0.24600698437146784,0.22609573419182136,-5.0
17.56056785583496,0.24073121901957772,0.223816750292599,-5.0
17.576279163360596,0.23662784596810765,0.22158758687532523,-4.936134823679334
17.594790935516357,0.23213367548316424,0.219408678971088,-4.80185362751808
17.606266498565674,0.22939809344885087,0.21728496728861568,-4.060712937351214
17.6215660572052,0.2256855178308541,0.21522362496337488,-2.9402133063193507
17.6406729221344,0.22099594862917407,0.21322824997141102,-2.151210826227873
17.650205612182617,0.21845576531159733,0.2112997004639429,-1.3170080103631299
17.66060161590576,0.2159155819940206,0.2094437079391684,-0.3349067655906507
17.677076816558838,0.21220300637602388,0.20766624755611401,0.7882757776490488
17.694990873336792,0.2086858294747638,0.20596787490040938,2.2860992258052875
17.710269689559937,0.20595024744045046,0.2043473683363879,3.8685757591639667
17.721271753311157,0.20419165898982042,0.20280560923500518,5.0
17.73512077331543,0.20262846925592706,0.2013438597969515,5.0
17.749254941940308,0.20086988080529702,0.19996150067596172,5.0
17.763266563415527,0.19950208978814032,0.1986571422542772,5.0
17.776970863342285,0.19832969748772028,0.19742914258652136,5.0
17.791276216506958,0.19735270390403695,0.19627517269395334,5.0
17.806262016296387,0.19637571032035359,0.1951923192724071,5.0
17.819212436676025,0.19578951417014356,0.19417719412299989,5.0
17.834280252456665,0.19539871673667025,0.19322604627473958,5.0
17.8512704372406,0.1950079193031969,0.19233439571308458,5.0
17.86125946044922,0.19481252058646023,0.19149769224633348,4.901837897738313
17.874249935150146,0.19481252058646023,0.1907123513444036,4.408337310141723
17.894189834594727,0.19442172315298686,0.18997365594128782,3.2763260748316227
17.904231786727905,0.19442172315298686,0.1892762235231814,2.1144806327686823
17.92382836341858,0.19442172315298686,0.18861553853615706,1.1384054425300736
17.93235206604004,0.19442172315298686,0.18798779750575395,0.11790333453519475
17.951694011688232,0.19442172315298686,0.18738987346193847,-0.7244236804726254
17.96617317199707,0.19442172315298686,0.1868172527636171,-1.3406430985214244
17.980177402496338,0.19442172315298686,0.18626574831009327,-2.0269248234165778
17.995282888412476,0.19442172315298686,0.18573283289128847,-2.5810499855051803
18.010231971740723,0.19442172315298686,0.1852160750299458,-2.956364353747171
18.02813982963562,0.19442172315298686,0.1847121909465015,-3.1673155441596186
18.037240982055664,0.19442172315298686,0.18421820608729358,-3.24725327860267
18.059048175811768,0.19403092571951355,0.18373179305303514,-3.230849471336162
18.074185848236084,0.19364012828604024,0.18324931250898016,-3.699846936721141
18.088124990463257,0.1930539321358302,0.1827684004968921,-4.191635930236101
18.10218071937561,0.1924677359856202,0.18228886438461672,-5.0
18.126100540161133,0.19129534368520015,0.18180929696045173,-5.0
18.13639497756958,0.1905137488182535,0.18132795680330188,-5.0
18.15546226501465,0.1891459578010968,0.18084516414115215,-5.0
18.170265674591064,0.18816896421741344,0.1803616092495252,-4.842286968419902
18.183247566223145,0.1873873693504668,0.17987812793823085,-4.54559212708622
18.198209047317505,0.1866057744835201,0.17939632939442265,-3.6538933379828857
18.21317458152771,0.18621497705004675,0.17891773331416136,-2.4201409678928876
18.227893829345703,0.18582417961657338,0.1784436023635829,-0.7295418840702037
18.24850058555603,0.18562878089983675,0.1779740183860279,0.7957025182569336
18.263246536254883,0.18543338218310007,0.17750819111666746,2.2443962061599407
18.27626657485962,0.18562878089983675,0.177046324150342,2.8141792894855366
18.29025101661682,0.18543338218310007,0.17658937852588869,2.958924220831519
18.30524230003357,0.18562878089983675,0.1761380278910771,2.9037982396343422
18.317251443862915,0.18543338218310007,0.17569264402618792,2.483903822471448
18.330247402191162,0.18543338218310007,0.17525333940831767,1.720488702640201
18.339720964431763,0.18523798346636342,0.17482075296099608,0.9708629248859937
18.35637331008911,0.18484718603289005,0.17439529267656348,0.08041749827657801
18.371274948120117,0.18426098988268005,0.17397567717949006,-0.6871522341877349
18.38375449180603,0.18387019244920672,0.17356062590221252,-1.5371102768375373
18.39774179458618,0.18328399629899667,0.17314992660519168,-2.50969836362024
18.412251949310303,0.18269780014878667,0.17274344293626365,-3.0308268480828957
18.42724084854126,0.18191620528184,0.17234073479742243,-3.2712010063735972
18.440160036087036,0.18113461041489332,0.1719415208330828,-3.612285129163891
18.454169511795044,0.18015761683120995,0.1715458837949986,-3.325567736285576
18.467147827148438,0.17937602196426328,0.17115407188752685,-2.8512677471734147
18.47555947303772,0.17878982581405328,0.170766953307547,-2.3724679470391936
18.494136571884155,0.1780082309471066,0.17038550279207218,-1.954721554416892
18.50967311859131,0.17761743351363324,0.1700098924978333,-1.0604727956013047
18.52114248275757,0.17742203479689655,0.16964055671997244,-0.169971865499224
18.53614068031311,0.1772266360801599,0.16927866728381386,1.3802818284597473
18.550142526626587,0.1772266360801599,0.16892552781755693,2.8318643285869127
18.563228845596313,0.1772266360801599,0.16858252483568367,3.941891657333037
18.57875657081604,0.17703123736342324,0.16825111988273145,4.131653609187341
18.600178480148315,0.17703123736342324,0.16793281541670263,3.9394554955199115
18.613792419433594,0.17703123736342324,0.16762926361864047,3.0614336970476925
18.628143548965454,0.17703123736342324,0.16734233971343318,2.368701969092165
18.642162799835205,0.1766404399299499,0.1670739487786816,1.2867515291680949
18.658146381378174,0.17624964249647657,0.1668258649678794,0.2696022292257056
18.671143293380737,0.17585884506300323,0.1665997125126323,-0.8126963230829128
18.68317174911499,0.1754680476295299,0.16639694960981902,-1.4245454941591438
18.69613528251648,0.1748818514793199,0.16621885537274783,-2.0276024357228355
18.713358879089355,0.17429565532910984,0.16606666230691447,-2.7649545909363966
18.72413420677185,0.17370945917889985,0.16594138349957463,-2.8201967210060395
18.73519992828369,0.1735140604621632,0.165843526599489,-2.6114610576140334
18.749725580215454,0.1733186617454265,0.16577342778827037,-2.0500084284018083
18.761449337005615,0.17312326302868986,0.16573113598753766,-1.1810184749262904
18.7737238407135,0.17312326302868986,0.16571631856493874,-0.0878990128205519
18.787780046463013,0.17312326302868986,0.16572905118545128,0.8707522414178822
18.80322527885437,0.17312326302868986,0.16576967982025786,1.8695503271994018
18.818313121795654,0.17312326302868986,0.16583803087065335,2.3930310928342338
18.841655254364014,0.17312326302868986,0.16593468875931733,2.6352819627972046
18.856253623962402,0.17312326302868986,0.16606109893983714,2.1572490381499447
18.87224006652832,0.17312326302868986,0.1662170267423486,1.5122239988633666
18.894654035568237,0.17312326302868986,0.16640177992177002,0.9178355681410203
18.909045219421387,0.17312326302868986,0.16661567209270517,0.4416719003959109
18.917122840881348,0.17292786431195314,0.16685660139103062,0.08874764039628955
18.93518376350403,0.17312326302868986,0.16712080053471856,-0.15850289259411215
18.944113731384277,0.17312326302868986,0.16740588068328974,-0.3228468495082364
18.963555574417114,0.17292786431195314,0.16771036380877397,-0.42539537491801815
18.97914457321167,0.17292786431195314,0.1680337805129591,-0.48345680705652805
18.99413800239563,0.17312326302868986,0.16837506154682877,-0.5103602413706939
19.009190320968628,0.17312326302868986,0.16873191422626937,-0.515994824969279
19.031933307647705,0.17312326302868986,0.16910339488126708,-0.5075183298540862
19.047229051589966,0.17312326302868986,0.16948971240444016,-0.49001838150669363
19.062124490737915,0.17312326302868986,0.1698896252511216,-0.46705765082645634
19.075111389160156,0.17312326302868986,0.170300687589713,-0.44109639525437205
19.088120222091675,0.17312326302868986,0.17072068435240634,-0.41380845248275633
19.10492515563965,0.17312326302868986,0.17114785171428817,-0.38631232412970473
19.116117238998413,0.17312326302868986,0.17158060973547076,-0.3593376765169544
19.138407468795776,0.17312326302868986,0.17201832772512549,-0.33334407663080046
19.152788162231445,0.17312326302868986,0.172461642532951,-0.30860502917141014
19.166345834732056,0.17292786431195314,0.1729097791195429,-0.28526710626066487
19.180519342422485,0.17312326302868986,0.17336082893934843,-0.263391345532497
19.196274280548096,0.17312326302868986,0.17381371483478256,-0.2429820994190805
19.21124577522278,0.17312326302868986,0.17426753438018225,-0.22400704258013493
19.227768898010254,0.17312326302868986,0.1747213702908506,-0.20641097097600614
19.246642112731934,0.17312326302868986,0.1751757767181941,-0.1901252545705615
19.25410223007202,0.17312326302868986,0.17563107354105667,-0.17507425560128081
19.273677825927734,0.17312326302868986,0.17608611133040797,-0.16117963438339233
19.284860372543335,0.17312326302868986,0.1765408980304581,-0.14836318922025088
19.294835329055786,0.17312326302868986,0.17699484133043533,-0.1365486830570914
19.30817198753357,0.17292786431195314,0.17744618095170708,-0.12566297322624154
19.319109678268433,0.17312326302868986,0.17789403180322652,-0.11563666500354208
19.3320951461792,0.17312326302868986,0.17833786896158443,-0.10640444268093713
19.346176147460938,0.17292786431195314,0.17877763646364953,-0.09790518494728637
19.369092226028442,0.17312326302868986,0.17921511298864817,-0.09008193856130525
19.38515615463257,0.17292786431195314,0.17965326898744932,-0.08288180137987428
19.400264263153076,0.17312326302868986,0.1800932852285801,-0.07625574981022193
19.42010807991028,0.17312326302868986,0.1805356524077741,-0.07015843460807358
19.43683099746704,0.17292786431195314,0.1809822459797116,-0.06454796118937292
19.451260328292847,0.17292786431195314,0.18143440954776474,-0.05938566524022297
19.464224338531494,0.17312326302868986,0.18189184044761317,-0.05463589068372418
19.479265451431274,0.17312326302868986,0.18235368463579166,-0.050265774493189225
19.49411153793335,0.17312326302868986,0.18281922006319168,-0.04624504107877789
19.507103443145752,0.17312326302868986,0.18328784848322113,-0.042545807774071215
19.521106004714966,0.1733186617454265,0.18375908737245583,-0.039142402139294846
19.534085512161255,0.1735140604621632,0.1842325622147563,-0.036011191259172015
19.549070358276367,0.17370945917889985,0.1847079993681285,0.518946296495201
19.56423807144165,0.17429565532910984,0.1851853383751593,1.1399225671718094
19.58447813987732,0.17468645276258318,0.18566622621478884,1.6504923237147604
19.59557580947876,0.17507725019605655,0.1861528468375382,2.0086970210789348
19.611369848251343,0.17585884506300323,0.18664548774317788,1.9496385529567233
19.626272439956665,0.1766404399299499,0.18714429567670188,2.0200851515343166
19.638715505599976,0.1772266360801599,0.18764943495179418,2.0946065060410906
19.646696090698242,0.17781283223036992,0.188159211118767,1.8551072368495982
19.667181968688965,0.17878982581405328,0.18867226297034184,1.813775260810138
19.68125033378601,0.17957142068099996,0.18918992514011304,1.5463025658047247
19.692322731018066,0.18035301554794664,0.18971319416321283,1.2382767405536468
19.707085847854614,0.18133000913162997,0.19024178582287354,0.9608583932745238
19.720289945602417,0.1823070027153133,0.19077588342405008,0.7344748391661114
19.73417377471924,0.18308859758226,0.191315710727087,0.5587236656692729
19.75010323524475,0.18426098988268005,0.19186145394779644,0.425964157705733
19.76654052734375,0.18484718603289005,0.19241347951201343,-0.22491601669284975
19.779094457626343,0.18523798346636342,0.1929720679757908,-0.9162648203474717
19.800498723983765,0.18562878089983675,0.1935393273383428,-2.582446510798712
19.808459043502808,0.18562878089983675,0.1941175186743427,-3.3868454324470982
19.82021403312683,0.18562878089983675,0.1947046210664712,-4.272349081595773
19.832128286361694,0.18562878089983675,0.19529802699170526,-4.964454570682136
19.846056699752808,0.18562878089983675,0.1958971987700434,-4.851135635096485
19.862299919128418,0.18582417961657338,0.19650275417988164,-4.165748645227876
19.874067783355713,0.18601957833331006,0.19711545278582285,-3.100351926533777
19.89042568206787,0.18621497705004675,0.19773526336717645,-2.077813228591344
19.90476965904236,0.1866057744835201,0.1983632440765856,-0.962385047518233
19.92041015625,0.1871919706337301,0.19900111177347687,0.2586091729679634
19.93041157722473,0.1873873693504668,0.19964882414345608,1.0024650864985079
19.942238330841064,0.18797356550067676,0.20030378737901533,1.7153586202592195
19.955222129821777,0.18875516036762346,0.20096342546742302,2.262248192876404
19.97559666633606,0.18953675523457011,0.20162959746350193,2.624628492893585
19.99058222770691,0.1905137488182535,0.20230688387703616,2.8272490082155772
20.001477479934692,0.19149074240193684,0.20299574619701227,2.6299636271772773
20.019145965576172,0.19266313470235683,0.20369422218718322,2.5858715660607947
20.03316307067871,0.19364012828604024,0.20440260371334615,2.5684547867785357
20.047067880630493,0.19481252058646023,0.2051210966803077,2.5321151788691862
20.062097311019897,0.19598491288688025,0.20584883770279705,2.1901632038195817
20.080373764038086,0.19735270390403695,0.20658629912148216,2.0645313230430773
20.099059581756592,0.1989158936379303,0.2073364318924018,1.7316118344148557
20.114132404327393,0.20028368465508697,0.20810179763125924,1.3744210968847685
20.128133058547974,0.20126067823877036,0.20888190306253765,0.7847498444976875
20.144255876541138,0.20223767182245372,0.2096748868408859,0.22284040614622996
20.158199310302734,0.20262846925592706,0.21047958182684345,-1.054156098708772
20.169119358062744,0.20321466540613706,0.2112949235328878,-2.3061314298709554
20.184074878692627,0.2034100641228737,0.21211895202839354,-3.560539412703469
20.20623469352722,0.2034100641228737,0.21295269418320467,-4.810705079361895
20.221734046936035,0.2034100641228737,0.21380019216225424,-5.0
20.234106302261353,0.2034100641228737,0.21466203191941022,-5.0
20.24910545349121,0.2036054628396104,0.2155358476234061,-4.720470712046797
20.262070178985596,0.2036054628396104,0.2164195197313001,-3.6236407393740384
20.275851011276245,0.20399626027308376,0.2173111600286356,-2.428553952156919
20.293035984039307,0.20458245642329373,0.21820971709019246,-0.8476755934445241
20.304059982299805,0.2047778551400304,0.21911423975579197,0.2911945105766425
20.31710433959961,0.20536405129024043,0.22002263499660557,1.6199350220536592
20.340200185775757,0.20653644359066042,0.22093592871065373,2.4618755276075017
20.352476119995117,0.20731803845760713,0.22185777581930333,2.957555228867558
20.366971015930176,0.2080996333245538,0.22278840188589377,3.2120691451591967
20.382116079330444,0.20927202562497385,0.2237263865772327,3.3020252048536864
20.396071195602417,0.21024901920865718,0.22467049137252273,3.5583160406023686
20.412220239639282,0.21161681022581388,0.22561902542999546,3.5007332632823482
20.427187204360962,0.21298460124297056,0.22657057350789334,3.587053470764299
20.440112590789795,0.21435239226012726,0.22752397806209942,3.3842265986030675
20.46221399307251,0.2166971768609673,0.22848129386397664,3.0862207533241257
20.470815896987915,0.217478771727914,0.2294445168715071,2.501115380585711
20.489368438720703,0.2194327588952807,0.23041242074710566,1.9047205962586105
20.497557163238525,0.22021435376222737,0.23138434357372997,1.3951489832670014
20.51203680038452,0.22177754349612072,0.2323578312414246,0.9936112501146254
20.529491662979126,0.2239269293802241,0.2333326099653229,0.6912292605680628
20.543389081954956,0.22529472039738077,0.23431237678085579,0.4699332473495936
20.55559492111206,0.2266625114145375,0.23529766694496843,0.3111539620520811
20.570820569992065,0.22842109986516748,0.23628700051277174,0.4749776394857165
20.587221145629883,0.22998428959906086,0.23727983244125334,0.15377652117517965
20.602174758911133,0.2311566818994809,0.23827571256611987,-0.8164964064974375
20.626198530197144,0.2325244729166376,0.23927710421542137,-2.3536973630062277
20.638628244400024,0.23271987163337426,0.24028925047440913,-3.7531365947075352
20.6535062789917,0.23291527035011095,0.2413133118117327,-5.0
20.66510844230652,0.2331106690668476,0.2423469661276773,-5.0
20.673025131225586,0.23330606778358423,0.24338494071848948,-5.0
20.684074640274048,0.23330606778358423,0.24441893509159127,-5.0
20.699014902114868,0.23330606778358423,0.24544519453177793,-5.0
20.721027851104736,0.23389226393379428,0.24646825967997246,-4.802537365499442
20.73609232902527,0.23428306136726765,0.24749523638800913,-3.6156019300125184
20.751079559326172,0.23467385880074096,0.24852828549124797,-1.74011004283299
20.766034841537476,0.23526005495095098,0.24956630520363027,0.021634883741450395
20.78754997253418,0.23623704853463434,0.2506115200665568,1.4117621343469944
20.803101062774658,0.23721404211831768,0.25166822610898315,2.401163170063357
20.81700849533081,0.238191035702001,0.2527366987394901,3.0447302097585167
20.83010172843933,0.2391680292856844,0.25381416987226646,3.418124202675682
20.844176530838013,0.24034042158610439,0.254898197250663,3.868598485122627
20.8670597076416,0.24190361131999777,0.2559898966896999,3.9358409656331066
20.882317781448364,0.2434668010538911,0.25709339432821404,3.8196766430354354
20.89618682861328,0.24483459207104782,0.25820883552202206,3.6206904314140917
20.910106658935547,0.24639778180494118,0.2593329981080951,3.3893946665581964
20.91817855834961,0.24717937667188783,0.2604598023402131,3.427007044563397
20.941076517105103,0.24952416127272792,0.2615841350172128,2.9508606888567437
20.964115142822266,0.2520643445903046,0.2627117229637667,2.6403798598915507
20.977129459381104,0.2534321356074613,0.2638508244067245,1.8584734103644265
20.987104415893555,0.25440912919114467,0.265000367526886,1.3270668151808127
21.001694440841675,0.2561677176417747,0.2661560796140683,0.9613636243985323
21.010700941085815,0.257144711225458,0.2673143354585982,0.706964172589331
21.03029203414917,0.2594894958262981,0.268472152231709,0.25221849082347086
21.046046495437622,0.26124808427692814,0.2696313884058653,0.09237474033586487
21.058048725128174,0.26281127401082144,0.2707937207388788,0.05675122742848064
21.072018146514893,0.26437446374471485,0.2719578297309853,-0.2088242759335017
21.086101770401,0.2657422547618715,0.27312270220473517,-0.7715174429505721
21.102100610733032,0.26691464706229157,0.27428759634473543,-1.8657893059732793
21.126089334487915,0.26808703936271155,0.275455713723625,-3.453005102821156
21.140082836151123,0.2684778367961849,0.2766335733269871,-4.855941783725818
21.15309429168701,0.2684778367961849,0.27782302369897904,-5.0
21.168075561523438,0.2686732355129216,0.27902190332658755,-5.0
21.181992530822754,0.26886863422965823,0.2802283577300296,-5.0
21.195013284683228,0.2690640329463949,0.2814408082007249,-5.0
21.210967302322388,0.2692594316631316,0.28265863484565973,-4.554193811938497
21.224379777908325,0.2694548303798682,0.28388160106608384,-3.2713835015812744
21.24603271484375,0.27023642524681496,0.28511195918463783,-1.647496861115049
21.26216959953308,0.27082262139702495,0.2863548927846522,0.07348621796975419
21.275009393692017,0.27160421626397163,0.2876115171840507,1.4978657306479808
21.289413690567017,0.2721904124141816,0.2888789020974569,2.81417075844534
21.31339192390442,0.27394900086481166,0.29015838183200654,3.8118077977282203
21.32657551765442,0.274925994448495,0.2914551706300889,4.1955026539942635
21.34110164642334,0.2759029880321784,0.29276956335919185,4.2582600727904065
21.355841398239136,0.2772707790493351,0.2940975354817104,4.430690965955178
21.371997594833374,0.2786385700664918,0.295435518184511,4.55250655657387
21.393993139266968,0.2807879559505952,0.29678430155546925,4.580248978876286
21.407987117767334,0.2823511456844885,0.29814834238230503,4.241427433318218
21.42200016975403,0.2837189367016452,0.29952726407892805,3.7980512545652836
21.43714952468872,0.28567292386901194,0.30091660089120476,3.3596733428318712
21.45295739173889,0.2876269110363786,0.30231241454160623,3.2419189558727943
21.474260807037354,0.29036249307069195,0.3037151471248479,2.6587989305854447
21.48363947868347,0.29153488537111205,0.3051259081044151,2.004718387393962
21.49872326850891,0.29368427125521535,0.30653957563671075,1.428007239995
21.509416103363037,0.29505206227237213,0.30795086970815155,0.9686480691670859
21.521775245666504,0.2968106507230021,0.3093564720312886,0.6227307004223708
21.53196954727173,0.29837384045689547,0.31075275299180755,0.6476314832835292
21.546973705291748,0.3007186250577355,0.31213658806285055,0.22735626506141288
21.559832096099854,0.3024772135083655,0.31350617074721193,0.016896750450631964
21.58206081390381,0.30579899169288893,0.3148649227091971,-0.08621756082669703
21.59814143180847,0.30833917501046565,0.316219921750708,-0.41017874643669916
21.61105990409851,0.3102931621778323,0.3175733444337022,-0.7387778553586761
21.625964403152466,0.3122471493451991,0.3189230639817043,-0.9975712106276174
21.645643949508667,0.3143965352293024,0.3202692556285705,-1.4487838808703466
21.657914638519287,0.31537352881298575,0.32161347998276724,-2.410916475975429
21.673521995544434,0.3165459211134058,0.3229552352557943,-3.325829096104522
21.682002305984497,0.31693671854687916,0.32429131807239975,-4.287831896992235
21.693968772888184,0.31752291469708915,0.3256168538235578,-5.0
21.708967208862305,0.31791371213056246,0.32692924301491216,-5.0
21.722033262252808,0.31791371213056246,0.3282285466427344,-5.0
21.73406219482422,0.31830450956403583,0.32951499340337104,-5.0
21.750014543533325,0.3184999082807725,0.33078895702726197,-5.0
21.77301335334778,0.3190861044309825,0.33205470617012883,-4.7805827692994525
21.788968086242676,0.3194769018644558,0.3333197443609187,-3.466277691493028
21.80498194694519,0.32006309801466587,0.3345866492589848,-1.4554646400464626
21.82302188873291,0.32104009159834923,0.3358565337507922,0.13899671513925493
21.831926584243774,0.32143088903182254,0.33713023713286727,1.5708155657407126
21.852236032485962,0.3227986800489792,0.33840644418496046,2.6593681614628606
21.862778425216675,0.32338487619918926,0.3396852118159813,3.3986516119891204
21.880780696868896,0.32475266721634594,0.34096538422710876,3.844222722818433
21.89496946334839,0.325925059516766,0.34224655184069225,4.064429276533952
21.906188011169434,0.327097451817186,0.3435273470305304,4.121456046334468
21.916373014450073,0.32787904668413265,0.3448021237493374,4.065646366896241
21.925946474075317,0.3290514389845527,0.3460641460109688,3.9353194334936363
21.9429874420166,0.33081002743518273,0.3473090622167701,3.758536228459092
21.964110851287842,0.3331548120360227,0.3485389357957938,3.8313188378527867
21.97908043861389,0.3349134004866528,0.3497584706638175,3.924657117653345
22.000831127166748,0.33764898252096615,0.35097131198345527,3.6837458050722685
22.010637044906616,0.33862597610464956,0.3521791843514862,3.060735963795185
22.030107021331787,0.3411661594222262,0.3533804146373139,2.672371794233756
22.043955326080322,0.3429247478728562,0.35457408501817667,2.1252459019719634
22.05906367301941,0.34487873504022304,0.35575948143224345,1.6054497037067317
22.071047067642212,0.3464419247741163,0.3569343437449697,0.8979111884556229
22.083978176116943,0.34839591194148306,0.35809693038660534,0.5296153904499881
22.0990948677063,0.3505452978255864,0.35924599272959284,0.6102149240117339
22.112948417663574,0.35269468370968976,0.3603807445770591,0.2606455445159456
22.13116693496704,0.3548440695937931,0.36150220419434065,-0.1641477894143464
22.14211940765381,0.3562118606109498,0.3626115495807058,-1.082559449110188
22.164077758789062,0.3579704490615799,0.3637105515809205,-2.248465640649705
22.17905831336975,0.35894744264526324,0.36480428389593017,-3.797638026719917
22.19405245780945,0.3595336387954733,0.36589558415962276,-5.0
22.206058740615845,0.3599244362289466,0.36698382358437376,-5.0
22.219943046569824,0.3601198349456833,0.3680687381051701,-5.0
22.231703281402588,0.3601198349456833,0.3691506297325395,-5.0
22.24593424797058,0.3601198349456833,0.3702300215238542,-5.0
22.2601056098938,0.3603152336624199,0.37130748432529265,-5.0
22.275051832199097,0.3603152336624199,0.3723837369379432,-4.7192692686744095
22.287155628204346,0.3605106323791566,0.373459598660884,-3.6550386818489606
22.302010774612427,0.36090142981262996,0.3745359438343782,-1.9447877695098206
22.31609845161438,0.36109682852936664,0.3756136591958418,-0.6041668921442812
22.334906339645386,0.36187842339631326,0.3766955753754579,1.198080229002074
22.34853982925415,0.3624646195465233,0.37778639276440534,2.2400903655226623
22.36555576324463,0.36324621441346994,0.37888992546645284,3.0884795423472555
22.380078315734863,0.36402780928041667,0.38000858448267333,3.952305431723578
22.39508318901062,0.36520020158083666,0.38114238430095776,4.333508998700681
22.411097764968872,0.36617719516452,0.38228957493577054,4.986954111512554
22.43329429626465,0.36793578361515006,0.3834522806973161,4.991986261953452
22.447177171707153,0.36930357463230673,0.3846358614505577,4.727369494783673
22.463157892227173,0.3706713656494634,0.3858407376198721,4.645512887646806
22.47791838645935,0.37203915666662013,0.38706315758350035,4.3062732930660825
22.49010944366455,0.37340694768377686,0.38829970040291434,3.6208982603033126
22.504923343658447,0.37497013741767016,0.3895472713391991,3.1868764532258984
22.517918586730957,0.3763379284348269,0.390803091106884,2.8780120107251577
22.53092312812805,0.3779011181687203,0.39206467906729586,2.3575579798858595
22.54294729232788,0.37926890918587697,0.39332983129837984,1.8395676717023866
22.55493688583374,0.3808320989197703,0.3945961810854205,1.3987140287085174
22.569993019104004,0.38278608608713705,0.39586165499170983,1.3257143754087224
22.57913827896118,0.383958478387557,0.39712335499552587,1.0930867087337877
22.596200704574585,0.3861078642716604,0.39837879109037805,0.8401410379154876
22.610937356948853,0.3880618514390271,0.3996292434076461,0.8946693144422093
22.62602686882019,0.3900158386063938,0.40087573417130723,0.7510694380219508
22.641064167022705,0.39216522449049723,0.40211712105949654,0.5619434396163554
22.658097982406616,0.3945100090913372,0.40335400571251356,0.1113102886744558
22.66700005531311,0.3956824013917572,0.4045867611478369,-0.3392435901692657
22.68790316581726,0.3986133821428072,0.40581454032589676,-0.42405742365633314
22.69593119621277,0.3997857744432273,0.40703644262752103,-0.6459380047708245
22.717607498168945,0.4025213564775407,0.4082516488598877,-0.8620455121523681
22.72609829902649,0.4033029513444874,0.40946039906753356,-1.3009274769222285
22.74502205848694,0.40486614107838076,0.4106616505459945,-2.2646208332991646
22.760940551757812,0.4058431346620641,0.41185485216449347,-4.567218068455782
22.78303837776184,0.4066247295290108,0.41304164796427434,-5.0
22.793111324310303,0.4068201282457474,0.41422206266960115,-5.0
22.807727098464966,0.4068201282457474,0.415391857848741,-5.0
22.81905245780945,0.40701552696248405,0.41654625838902354,-5.0
22.830892086029053,0.40701552696248405,0.4176817571952386,-5.0
22.853679895401,0.40701552696248405,0.4187967734695856,-5.0
22.86902952194214,0.4074063243959575,0.419892928150802,-4.289893130634571
22.881999254226685,0.4076017231126941,0.42096998705395483,-2.850870073872689
22.903598070144653,0.4079925205461675,0.42202698866355853,-1.1403015849887388
22.911805391311646,0.40838331797964084,0.42306343680413283,0.34638013917041355
22.925945520401,0.4087741154131142,0.4240765327389212,2.0264209551852614
22.93790054321289,0.4093603115633242,0.4250636803427801,2.873121872915239
22.95192813873291,0.40994650771353414,0.4260237591881475,3.5321750662324796
22.964988946914673,0.41072810258048087,0.4269564055174895,3.963199484763777
22.980061292648315,0.4117050961641642,0.4278616347141455,4.46738396415455
23.00121784210205,0.4134636846147942,0.42874177624404813,4.569683964809303
23.017045497894287,0.41463607691521426,0.4296016927240468,4.468303955608926
23.039122343063354,0.4165900640825809,0.4304461452753763,4.819058256873342
23.05382227897644,0.4179578550997376,0.4312797108659491,4.638851070427338
23.069071769714355,0.4197164435503677,0.4321049947371021,4.266247437518182
23.081849336624146,0.4208888358507877,0.43292207563083906,3.8512918698504195
23.091530561447144,0.4220612281512078,0.43372907447313536,3.1792866749303728
23.11006450653076,0.42401521531857445,0.434524983119333,2.7900794066494257
23.124967098236084,0.42577380376920443,0.43531268308328586,2.2563631391611576
23.138057231903076,0.42714159478636116,0.4360945884145476,1.7504447070809808
23.156299829483032,0.4290955819537278,0.4368716897466194,1.3285963436124606
23.170246839523315,0.4306587716876212,0.4376453878214545,0.998026575172569
23.190027952194214,0.43261275885498784,0.4384179159410371,0.4716420917547214
23.2060227394104,0.43378515115540794,0.4391922635373103,-0.5755181024950395
23.219903469085693,0.4345667460223547,0.43996893862194386,-1.5845014214952946
23.22792077064514,0.434957543455828,0.44074412650171346,-2.3704709389972245
23.248995542526245,0.435543739606038,0.44151423346167107,-4.839118670574114
23.26302456855774,0.43573913832277467,0.4422799726118222,-5.0
23.28405523300171,0.43593453703951135,0.44304290533802215,-5.0
23.298890352249146,0.43593453703951135,0.4438029061139316,-5.0
23.312049865722656,0.43593453703951135,0.44455721334789194,-5.0
23.327887535095215,0.43593453703951135,0.44530099173744464,-4.614073702195471
23.343775272369385,0.43593453703951135,0.44602941311602673,-3.9022965389060227
23.357420444488525,0.43593453703951135,0.44673756670028253,-2.621928780131207
23.367859363555908,0.43593453703951135,0.4474203796065021,-1.3702815784157338
23.385643482208252,0.4361299357562479,0.4480726428169684,-0.34925198545832137
23.39762258529663,0.43632533447298466,0.44868924390471293,0.6837524983212715
23.409953355789185,0.43691153062319465,0.4492655994853209,1.7921753747263012
23.424022912979126,0.437302328056668,0.4497975196476545,2.4167381628643803
23.44419288635254,0.437888524206878,0.45027998133765634,3.2899069342372442
23.456110954284668,0.43847472035708807,0.4507074314415283,3.4856691630826666
23.47246766090393,0.4392563152240347,0.45107541057630973,3.6603219914753025
23.48703694343567,0.44003791009098137,0.45138055844465746,3.7510696916298416
23.499934673309326,0.4408195049579281,0.4516208847040727,3.7525450411627856
23.514888763427734,0.4416010998248747,0.45179579237197115,3.6799638368903738
23.527875900268555,0.4425780934085581,0.4519054257776083,3.2771289253830242
23.541874408721924,0.44355508699224144,0.4519506392807342,2.8051654062278226
23.556031703948975,0.44453208057592475,0.4519329495831453,2.3669535591747746
23.57004141807556,0.4453136754428715,0.45185447592977596,2.270504918447275
23.5840425491333,0.44589987159308153,0.45171787306397515,1.4470681338374245
23.596949577331543,0.44629066902655484,0.4515262616833503,0.5286293383672779
23.61098313331604,0.44648606774329147,0.45128316040744293,-0.528278645199656
23.623714208602905,0.44668146646002815,0.4509924220662234,-1.6986602063923142
23.637946128845215,0.44668146646002815,0.4506581757313712,-3.490938919513175
23.661426305770874,0.4468768651767649,0.45028328087793046,-4.548967573670447
23.669805765151978,0.44668146646002815,0.44987086472813415,-4.5628779343101495
23.688899517059326,0.44668146646002815,0.44942615930263796,-3.9071463410252516
23.70378804206848,0.44668146646002815,0.44895360400927703,-3.1134932852084596
23.717004776000977,0.4468768651767649,0.4484579123079578,-2.1128233199604036
