t_s,q_rad,q_des_rad,K,B,Kff,jerk,tau_Nm,reward
0.005372524261474609,0.0,-0.0022274814546108246,9.825212432529046,0.9781515540661307,1.9737818648793566,0.0,-5.9399999999999995,1.4990081574751544
0.06377720832824707,0.0,-0.0022274814546108246,9.650424865058092,0.9563031081322615,1.9475637297587132,0.0,-5.9994,1.4990081574751544
0.12895798683166504,0.0,-0.0022274814546108246,9.475637297587138,0.9344546621983922,1.92134559463807,0.0,-5.999993999999999,1.4990081574751544
0.19181299209594727,0.0,-0.0022274814546108246,9.300849730116184,0.9126062162645229,1.8951274595174268,0.0,-5.282297892987295,1.4990081574751544
0.25583410263061523,0.0,-0.0022274814546108246,9.12606216264523,0.8907577703306536,1.8689093243967834,0.0,-3.663545824600015,1.4990081574751544
0.32100439071655273,0.0,-0.0022274814546108246,8.951274595174274,0.8689093243967844,1.84269118927614,0.0,-0.1003275324517548,1.4990081574751544
0.38500213623046875,0.0,-0.0022274814546108246,8.77648702770332,0.847060878462915,1.8164730541554968,0.0,1.629019871747376,1.4990081574751544
0.44931983947753906,0.0017585884506300322,-0.0022274814546108246,8.601699460232366,0.8252124325290457,1.7902549190348536,3.0364219564654906,2.276488823289124,1.490010915268341
0.5117237567901611,0.02442483959208378,-0.0022274814546108246,8.426911892761412,0.8033639865951765,1.7640367839142101,5.0,2.1570093268374984,1.3492932436135074
0.5757851600646973,0.0498266727678509,-0.0022274814546108246,8.252124325290458,0.7815155406613071,1.7378186487935667,5.0,1.8155258781237167,1.0633584431674752
0.6397020816802979,0.07542390466035472,-0.0022274814546108246,8.077336757819502,0.7596670947274378,1.7116005136729235,5.0,1.3687148696438614,0.7811402220472559
0.7044107913970947,0.1010211365528585,-0.0022274814546108246,7.902549190348549,0.7378186487935685,1.6853823785522803,5.0,0.8991195332662111,0.6003253457978223
0.7681164741516113,0.12642296972862566,-0.0022274814546108246,7.727761622877595,0.7159702028596993,1.659164243431637,5.0,0.4509844303845603,0.5182413817804636
0.832406759262085,0.15202020162112945,-0.0022274814546108246,7.55297405540664,0.6941217569258299,1.6329461083109935,2.0332977908653382,0.04118108247744959,0.5055106057100182
0.8956849575042725,0.17703123736342324,-0.0022274814546108246,7.378186487935686,0.6722733109919605,1.6067279731903503,-1.7406045771170342,-0.38095901768822094,0.499367485105235
0.9596798419952393,0.1969619064705636,-0.0022274814546108246,7.203398920464732,0.6504248650580913,1.5805098380697071,-5.0,-0.7094017877596608,0.48208995299323243
1.0237503051757812,0.20145607695550702,-0.0022274814546108246,7.028611352993777,0.6285764191242219,1.5542917029490637,-5.0,-0.8699632566370662,0.4819812263358357
1.0877716541290283,0.1844563885994167,-0.0022274814546108246,6.853823785522822,0.6067279731903527,1.5280735678284203,-5.0,-0.8347296852176952,0.48267155204450835
1.1519129276275635,0.15905455542364957,-0.0022274814546108246,6.679036218051868,0.5848795272564833,1.501855432707777,-5.0,-0.7233108257406312,0.48723551777460367
1.2169806957244873,0.13248032994746242,-0.002225968986749649,6.504248650580913,0.563031081322614,1.475637297587134,-5.0,-0.5960046315195621,0.5082705986310468
1.2797181606292725,0.1070784967716953,-0.00203641876578331,6.329461083109958,0.5411826353887447,1.4494191624664907,-5.0,-0.26835770421829047,0.574170447675813
1.3437302112579346,0.0806996700122448,-0.0014938898384571075,6.154673515639004,0.5193341894548753,1.4232010273458477,-5.0,0.509475701942664,0.7406727478408057
1.4076423645019531,0.05588403298668769,-0.0007480047643184662,5.97988594816805,0.5,1.3969828922252046,-3.617890332872218,1.6181523838269436,1.0168857321774747
1.4734504222869873,0.0472864894502742,-4.145875573158264e-05,5.805098380697095,0.5,1.3707647571045614,5.0,2.631222863786997,1.1206450926834999
1.5373921394348145,0.06995274059172794,0.0002466849982738495,5.63031081322614,0.5,1.3445466219839184,5.0,2.9338739412817003,0.8601383453283116
1.5996501445770264,0.09496377633402173,0.00029851868748664856,5.455523245755186,0.5,1.3183284868632752,5.0,2.5439750471788747,0.6483082980278289
1.6637091636657715,0.11997481207631551,0.0002991817891597748,5.280735678284231,0.5,1.292110351742632,5.0,1.4971485108504523,0.5387464686548799
1.7290780544281006,0.1465490375525027,0.0002996586263179779,5.105948110813277,0.5,1.2658922166219888,5.0,0.05302613419698907,0.4956055422299459
1.791656255722046,0.17097387714458645,0.00029854103922843933,5.0,0.5,1.2396740815013456,5.0,-1.3930404019139753,0.48468187344117014
1.8558869361877441,0.1909045462517268,0.00029854103922843933,5.0,0.5,1.2134559463807026,-2.5828444280923035,-2.3225138383391615,0.49575743110651666
1.920072078704834,0.17605424377973988,0.0003962405025959015,5.0,0.5,1.1872378112600595,-5.0,-2.443655185571322,0.48382090122145033
1.9836714267730713,0.15065241060397278,0.00047705695033073425,5.0,0.5,1.1610196761394163,-5.0,-2.1749797926558627,0.4927247235819721
2.0488064289093018,0.12368738769431226,0.0005380623042583466,5.0,0.5,1.1348015410187733,-5.0,-1.778850782287087,0.5298956843340856
2.111719846725464,0.0984809532352818,0.0005853138864040375,5.0,0.5,1.10858340589813,-5.0,-1.371708051697017,0.6288219729794469
2.1763832569122314,0.07190672775909465,0.0006218962371349335,5.0,0.5,1.082365270777487,-5.0,-0.9869183458767892,0.8436617056222274
2.239626169204712,0.046504894583327516,0.0006325654685497284,5.0,0.5,1.0561471356568437,-5.0,-0.7407317980277993,1.1382179275398667
2.3036558628082275,0.020712263974087045,0.0006365962326526642,5.0,0.5,1.0299290005362005,-3.301964671030697,-0.5580806973470868,1.4145059981754555
2.3676068782806396,-0.004689569201680086,0.0006365962326526642,5.0,0.5,1.0037108654155575,0.9849492314696129,-0.4007129648777517,1.493620816577347
2.431609869003296,-0.02305704857492709,0.0006365962326526642,5.0,0.5,0.9774927302949143,5.0,-0.28566580671284725,1.37552802361327
2.4960062503814697,-0.03360857927870728,0.0006365962326526642,5.0,0.5,0.9512745951742712,5.0,-0.2086883699872893,1.2726615887879844
2.5597405433654785,-0.03790735104691403,0.0006365962326526642,5.0,0.5,0.9250564600536281,5.0,-0.14648056122717076,1.2246815843342647
2.6236512660980225,-0.03868894591386071,0.0006417892873287201,5.0,0.5,0.898838324932985,5.0,-0.08950636032960553,1.215632908412331
2.6877169609069824,-0.03868894591386071,0.0006478093564510345,5.0,0.5,0.8726201898123418,5.0,-0.03181202575880987,1.2155633990041417
2.751737594604492,-0.03868894591386071,0.0006511174142360687,5.0,0.5,0.8464020546916986,5.0,0.020721607375003406,1.2155252015143505
2.8156402111053467,-0.03868894591386071,0.0006539337337017059,5.0,0.5,0.8201839195710555,5.0,0.06503364482966453,1.2154926810654914
2.879714250564575,-0.03868894591386071,0.0006561018526554108,5.0,0.5,0.7939657844504124,5.0,0.10047456687229427,1.2154676448778239
2.9445598125457764,-0.03790735104691403,0.0006672404706478119,5.0,0.5,0.7677476493297692,5.0,0.12617083177545357,1.22433051387124
3.008352518081665,-0.03556256644607399,0.0014394037425518036,5.0,0.5,0.741529514209126,5.0,0.5652443456793086,1.2421940439413561
3.072730302810669,-0.030482199810920558,0.007607441395521164,5.0,0.5,0.715311379088483,5.0,4.032825125112597,1.2298728097394849
3.1356570720672607,-0.012896315304620235,0.024544838815927505,5.0,0.5,0.6890932439678399,5.0,5.980328251251126,1.2372377230262743
3.2006332874298096,0.013091714021356905,0.05385809764266014,5.0,0.5,0.6628751088471967,5.0,5.999803282512511,1.1989470736638257
3.264336585998535,0.038493547197124035,0.09468254446983337,5.0,0.5,0.6366569737265535,5.0,5.999998032825125,1.0135571196788162
3.327644109725952,0.06409077908962785,0.13906756043434143,5.0,0.5,0.6104388386059104,5.0,5.99999998032825,0.8066107130435299
3.3919248580932617,0.09007880841560498,0.1944328248500824,5.0,0.5,0.5842207034852673,4.403291167572085,5.999999999803282,0.5990464242136803
3.455557107925415,0.11548064159137211,0.24223224818706512,5.0,0.5,0.5580025683646241,0.7862677585427291,5.999999999998033,0.5397679323602058
3.519566535949707,0.1416640696340859,0.2911897301673889,5.0,0.5,0.531784433243981,-2.5734209901818774,5.99999999999998,0.5065236243355351
3.583789825439453,0.16765209896006306,0.3511064946651459,5.0,0.5,0.5055662981233379,-5.0,5.999999999999999,0.4829252781661642
3.648460626602173,0.19344472956930353,0.41142645478248596,5.0,0.5,0.4793481630026947,-5.0,5.999999999999999,0.4818066743254179
3.711643934249878,0.21962815761201734,0.4731326401233673,5.0,0.5,0.4531300278820516,-5.0,5.999999999999999,0.48173468063543745
3.776860237121582,0.24600698437146784,0.5498242378234863,5.0,0.5,0.42691189276140845,-5.0,3.03,0.48173207172890997
3.839568614959717,0.27160421626397163,0.643055260181427,5.0,0.5,0.4006937576407653,-5.0,3.0002999999999997,0.481732062124972
3.9035701751708984,0.29759224558994873,0.7494766712188721,5.0,0.5,0.3744756225201221,-5.0,3.0000029999999995,0.4817320621239355
3.9675612449645996,0.32338487619918926,0.8899756669998169,5.0,0.5,0.3482574873994789,-5.0,3.00000003,0.4817320621239355
4.032347202301025,0.34937290552516637,1.054679274559021,5.0,0.5,0.3220393522788358,-5.0,3.0000000002999996,0.4817320621239355
4.095558404922485,0.37497013741767016,1.23735511302948,5.0,0.5,0.2958212171581926,-5.0,3.000000000003,0.4817320621239355
4.160794019699097,0.40154436289385737,1.4361181259155273,5.0,0.5,0.2696030820375494,-5.0,3.0000000000000298,0.4817320621239355
4.224791049957275,0.42714159478636116,1.6409494876861572,5.0,0.5,0.24338494691690624,-5.0,3.0,0.4817320621239355
4.287615776062012,0.4525434279621283,1.829163670539856,5.0,0.5,0.21716681179626307,-5.0,2.9999999999999996,0.4817320621239355
4.351560354232788,0.47853145728810537,2.0481293201446533,5.0,0.5,0.19094867667561988,-5.0,2.9999999999999996,0.4817320621239355
4.415587425231934,0.504324087897346,2.1960487365722656,5.0,0.5,0.16473054155497668,-5.0,2.9999999999999996,0.4817320621239355
4.480740308761597,0.5307029146567964,2.2657899856567383,5.0,0.5,0.13851240643433352,-5.0,2.9999999999999996,0.4817320621239355
4.5436248779296875,0.5564955452660368,2.2977659702301025,5.0,0.5,0.11229427131369034,-5.0,2.9999999999999996,0.4817320621239355
4.607750415802002,0.5822881758752773,2.317310094833374,5.0,0.5,0.08607613619304716,-5.0,-3.170069541352044,0.4817320621239355
4.671602249145508,0.6053452244502044,2.3293144702911377,5.0,0.5,0.05985800107240398,-5.0,-5.97170069541352,0.4817320621239355
4.736734628677368,0.5830697707422241,2.337430715560913,5.0,0.5,0.0336398659517608,-5.0,-5.999717006954135,0.4817320621239355
4.799525499343872,0.5578633362831935,2.3424808979034424,5.0,0.5,0.0074217308311176206,-5.0,4.68734605640912,0.4817320621239355
4.863667964935303,0.5361740787254231,2.3473317623138428,5.0,0.5,0.0,-5.0,5.986873460564091,0.4817320621239355
4.928982257843018,0.561771310617927,2.3509654998779297,5.0,0.5,0.0,5.0,5.9998687346056405,0.4817320621239355
4.991551160812378,0.5867823463602206,2.3534042835235596,5.0,0.5,0.0,5.0,5.999998687346056,0.4817320621239355
5.05660605430603,0.6135519705531445,2.355550527572632,5.0,0.5,0.0,5.0,5.99999998687346,0.4817320621239355
5.119606971740723,0.6389538037289116,2.357316255569458,5.0,0.5,0.0,5.0,5.999999999868734,0.4817320621239355
5.183583498001099,0.6651372317716254,2.3586959838867188,5.0,0.5,0.0,5.0,5.999999999998687,0.4817320621239355
5.249526500701904,0.6917114572478126,2.3600637912750244,5.0,0.5,0.0,5.0,5.999999999999987,0.4817320621239355
5.311594009399414,0.716331695556633,2.3610031604766846,5.0,0.5,0.0,5.0,3.03,0.4817320621239355
5.375563383102417,0.7423197248826102,2.3619577884674072,5.0,0.5,0.0,3.9343274844051512,3.0002999999999997,0.48860922877210605
5.441446781158447,0.7683077542085874,2.362800359725952,5.0,0.5,0.0,2.082917282672474,3.0000029999999995,0.496780793222194
5.50353479385376,0.7937095873843545,2.3634390830993652,5.0,0.5,0.0,0.30527247694057347,3.00000003,0.49993063316985614
5.56752872467041,0.8193068192768583,2.3640596866607666,5.0,0.5,0.0,-1.1145306279132923,3.0000000002999996,0.4990761761505766
5.63156795501709,0.8452948486028355,2.364631414413452,5.0,0.5,0.0,-2.135971747627242,3.000000000003,0.4966152737286139
5.695536851882935,0.8706966817786026,2.3651678562164307,5.0,0.5,0.0,-2.809434834408992,3.0000000000000298,0.49415888974190786
5.76103138923645,0.8970755085380532,2.365677833557129,5.0,0.5,0.0,-3.48521614976374,3.0,0.491039234264661
5.826258897781372,0.9224773417138202,2.366154670715332,5.0,0.5,0.0,-3.9915228910044833,2.9999999999999996,0.4882795744213511
5.887526035308838,0.9472929787393772,2.366607666015625,5.0,0.5,0.0,-4.299162263852768,2.9999999999999996,0.48642897139768676
5.952677488327026,0.9726948119151444,2.3670291900634766,5.0,0.5,0.0,-4.43278931607122,2.9999999999999996,0.4855846950084041
6.015533685684204,0.9979012463741749,2.367393732070923,5.0,0.5,0.0,-4.1557634296537955,2.9999999999999996,0.48730779870544927
6.079657554626465,1.023303079549942,2.3677480220794678,5.0,0.5,0.0,-3.7492730542591355,2.9999999999999996,0.48964466263024237
6.143946170806885,1.048704912725709,2.3680331707000732,5.0,0.5,0.0,-3.3333370080876508,2.9999999999999996,0.4917969007367407
6.2075135707855225,1.073715948468003,2.368281364440918,5.0,0.5,0.0,-3.2294256202802245,2.9999999999999996,0.4922964666346649
6.273319482803345,1.0998993765107168,2.368535280227661,5.0,0.5,0.0,-2.654899509348771,2.9999999999999996,0.49478053316395354
6.336657762527466,1.1251058109697472,2.368743896484375,5.0,0.5,0.0,-2.282174984214802,2.9999999999999996,0.4961379147950033
6.399658918380737,1.149530650561831,2.3688786029815674,5.0,0.5,0.0,-2.017862129672532,2.9999999999999996,0.496978142630028
6.464698314666748,1.175127882454335,2.369051218032837,5.0,0.5,0.0,-1.5384245701890966,2.9999999999999996,0.49824129025328573
6.527487516403198,1.199943519479892,2.36918568611145,5.0,0.5,0.0,-1.3383872568528332,2.9999999999999996,0.4986683463353444
6.591455936431885,1.2251499539389223,2.3693225383758545,5.0,0.5,0.0,-0.9742249055488819,2.9999999999999996,0.49929397784564133
6.657986402511597,1.2511379832648997,2.3694844245910645,5.0,0.5,0.0,-0.8907527995792157,2.9999999999999996,0.4994097111472144
6.719619274139404,1.2759536202904564,2.369598865509033,5.0,0.5,0.0,-0.626795259467742,2.9999999999999996,0.4997076311654138
6.783715009689331,1.3015508521829606,2.3697543144226074,5.0,0.5,0.0,-0.8994285184276936,2.9999999999999996,0.49939816356339867
6.847650766372681,1.3269526853587275,2.3699982166290283,5.0,0.5,0.0,-0.7301738339076209,2.9999999999999996,0.49960327747859584
6.911518573760986,1.3523545185344947,2.3702516555786133,5.0,0.5,0.0,-1.2701426146750083,2.9999999999999996,0.49880052775155986
6.976020574569702,1.3779517504269985,2.3704025745391846,5.0,0.5,0.0,-1.3685688521856627,2.9999999999999996,0.49860769428788243
7.0394346714019775,1.4031581848860288,2.3707005977630615,5.0,0.5,0.0,-1.2896945794144625,2.9999999999999996,0.49876336138163413
7.103859901428223,1.4285600180617963,2.3710243701934814,5.0,0.5,0.0,-1.4292776788846027,2.9999999999999996,0.4984816229201588
7.16753888130188,1.4537664525208267,2.3713223934173584,5.0,0.5,0.0,-1.3194935714919298,2.9999999999999996,0.49870562985384953
7.231614112854004,1.4791682856965935,2.3716094493865967,5.0,0.5,0.0,-1.1344382810360822,2.9999999999999996,0.49904291076572554
7.295550346374512,1.5039839227221508,2.3718957901000977,5.0,0.5,0.0,-0.9466929154481605,2.9999999999999996,0.4993332926833384
7.359452486038208,1.5289949584644444,2.3721258640289307,5.0,0.5,0.0,-0.7823926501439481,2.9999999999999996,0.4995445315313987
7.424421310424805,1.5543967916402117,2.37239408493042,5.0,0.5,0.0,-0.9235084054158897,4.068954425545632,0.49936552766991454
7.489429712295532,1.579798624815979,2.3726353645324707,5.0,0.5,0.0,-0.5729973055892804,3.954350600064295,0.4997556537405431
7.551514625549316,1.604028065691326,2.372845411300659,5.0,0.5,0.0,-0.3999418593996683,3.8328705762472897,0.49988094471254946
7.615435361862183,1.6286483040001465,2.373059034347534,5.0,0.5,0.0,-0.3121083661444231,3.7099493479102317,0.4999274919869887
7.680031061172485,1.6534639410257037,2.3732569217681885,5.0,0.5,0.0,-0.26465940505871743,3.5857725946164205,0.499947861480538
7.744459867477417,1.6784749767679974,2.3734500408172607,5.0,0.5,0.0,-0.23605365307721982,3.4607793201584203,0.49995852273484936
7.80755090713501,1.7032906137935544,2.3736417293548584,5.0,0.5,0.0,-0.49215622314560137,3.33710938601955,0.49981972548604353
7.871447563171387,1.727910852102375,2.373817205429077,5.0,0.5,0.0,-0.785369509923221,3.2141315410588347,0.49954106058483466
7.936166048049927,1.7531172865614053,2.374006986618042,5.0,0.5,0.0,-1.025397488874309,3.089076460739678,0.4992179197841459
8.001396894454956,1.778128322303699,2.3741867542266846,5.0,0.5,0.0,-0.9143513531595088,2.9645688946229636,0.49937803972741923
8.063488483428955,1.8021623644623095,2.3743577003479004,5.0,0.5,0.0,-0.9764242617487937,2.844817178248197,0.49929078875876404
8.128602504730225,1.82678260277113,2.3745193481445312,5.0,0.5,0.0,-0.7946921991524079,2.721963418272181,0.49953010543413034
8.19204044342041,1.851793638513424,2.3746583461761475,5.0,0.5,0.0,-0.2834093616590142,2.5963720955757847,0.4999402126791513
8.256691932678223,1.8762184781055076,2.3748013973236084,5.0,0.5,0.0,-0.03579236111132686,2.474187638224462,0.49999904635451276
8.320143461227417,1.9010341151310648,2.37493634223938,5.0,0.5,0.0,0.08030651816912156,2.350050951904147,0.4999951992821315
8.38499903678894,1.9258497521566218,2.375063180923462,5.0,0.5,0.0,-0.14500426255844218,2.225984124557543,0.49998434830357863
8.449223756790161,1.9502745917487057,2.3751823902130127,5.0,0.5,0.0,0.11637686503766914,2.1036042187945116,0.4999899182574074
8.511407136917114,1.9741132351905792,2.375284433364868,5.0,0.5,0.0,0.2073754908116672,1.9838109063509097,0.49996798838196693
8.57642149925232,1.9989288722161365,2.37539005279541,5.0,0.5,0.0,0.223732706212092,1.8596610246899854,0.4999627394347762
8.639491319656372,2.0227675156580105,2.37548565864563,5.0,0.5,0.0,0.21026272407163035,1.74015153531748,0.49996709084359225
8.703591108322144,2.0469969565333574,2.375589609146118,5.0,0.5,0.0,-0.08881383143786171,1.6194095525608962,0.4999941286983863
8.767493963241577,2.0712263974087044,2.3756959438323975,5.0,0.5,0.0,0.13011132730926922,1.4986058282332555,0.49998740710604606
8.83136510848999,2.0956512370007885,2.3757996559143066,5.0,0.5,0.0,-0.07940079740008957,1.3769564176554085,0.49999545937861295
8.897320985794067,2.1204668740263455,2.3759005069732666,5.0,0.5,0.0,-0.11007125444009233,1.2532593350432566,0.4999931328278303
8.96101188659668,2.144110118751483,2.3759982585906982,5.0,0.5,0.0,-0.07600645259974428,1.1352698174373854,0.5000170504195351
9.023513317108154,2.1677533634766197,2.376089334487915,5.0,0.5,0.0,-0.3026954919970054,1.017303644867907,0.5001016186246476
9.087908744812012,2.1915920069184933,2.376194715499878,5.0,0.5,0.0,-0.5666440048833201,0.899038601278317,0.5008575409414535
9.153546571731567,2.217189238810997,2.37628436088562,5.0,0.5,0.0,-0.2335634033687836,0.7712153639256968,0.5062906813041377
9.216670274734497,2.2408324835361344,2.3763797283172607,5.0,0.5,0.0,-0.32079869982190257,0.6534293524926964,0.5252826637454449
9.279442310333252,2.264671126978008,2.376462697982788,5.0,0.5,0.0,0.029125294660821338,0.5341628267411778,0.5821277959023221
9.343960523605347,2.2890959665700916,2.3765437602996826,5.0,0.5,0.0,0.17694115865833648,0.41207896427912477,0.7166372686183099
9.407349824905396,2.312348413861755,2.3766117095947266,5.0,0.5,0.0,-0.32260682278094344,0.2957250258425996,0.9377395448465227
9.471360683441162,2.3336468739860523,2.376685380935669,5.0,0.5,0.0,-3.6922041608910137,0.19106479097513285,1.1803692026716974
9.53549075126648,2.35025576490867,2.3767647743225098,5.0,0.5,0.0,-5.0,0.11265328960580505,1.350616178009335
9.600168704986572,2.3598303020287665,2.3768503665924072,5.0,0.5,0.0,-5.0,0.07228777865890731,1.425441914785331
9.664628028869629,2.3621750866296063,2.3769476413726807,5.0,0.5,0.0,-5.0,0.0699574022707556,1.4390251526469617
9.728527545928955,2.3610026943291866,2.3770432472229004,5.0,0.5,0.0,-5.0,0.08327255458663829,1.4315738309151556
9.791546106338501,2.35904870716182,2.3771674633026123,5.0,0.5,0.0,-5.0,0.09898207281433351,1.4181832645156194
9.855451583862305,2.3567039225609796,2.377276659011841,5.0,0.5,0.0,-5.0,0.11397807840546208,1.400568181920229
9.919354915618896,2.354163739243403,2.377417802810669,5.0,0.5,0.0,-4.034622457631096,0.12975132275448348,1.3855208678581183
9.983449220657349,2.352405150792773,2.3775694370269775,5.0,0.5,0.0,-0.221233662645397,0.14065359535059072,1.3810070831921728
10.047873258590698,2.351428157209089,2.3777337074279785,5.0,0.5,0.0,4.339402407944801,0.14694245227283168,1.3569307551103245
10.111362218856812,2.351428157209089,2.3778700828552246,5.0,0.5,0.0,5.0,0.14677987437024087,1.3512336783630352
10.176852226257324,2.351428157209089,2.3780031204223633,5.0,0.5,0.0,5.0,0.14688360270024275,1.3500079827258955
10.23935842514038,2.351428157209089,2.3781189918518066,5.0,0.5,0.0,5.0,0.1466497542984795,1.3489368469233491
10.303365707397461,2.351428157209089,2.3782246112823486,5.0,0.5,0.0,5.0,0.1463441162724312,1.34795758077049
10.369429349899292,2.351428157209089,2.3783133029937744,5.0,0.5,0.0,5.0,0.14572140601610253,1.3471331338520527
10.431356430053711,2.351428157209089,2.3784008026123047,5.0,0.5,0.0,5.0,0.14538277910557798,1.3463178713350072
10.496116161346436,2.351428157209089,2.378486394882202,5.0,0.5,0.0,5.0,0.14521605945180752,1.3455185638519107
10.560413122177124,2.351428157209089,2.378567934036255,5.0,0.5,0.0,5.0,0.14508951471397066,1.3447554416741885
10.625046014785767,2.351428157209089,2.37864089012146,5.0,0.5,0.0,5.0,0.14482599002594415,1.3440712756871078
10.688809633255005,2.351428157209089,2.3787178993225098,5.0,0.5,0.0,5.0,0.14488917143652877,1.3433476987692097
10.751405954360962,2.351428157209089,2.3787944316864014,5.0,0.5,0.0,5.0,0.14503405512483908,1.3426271804600352
10.817137956619263,2.351428157209089,2.378871440887451,5.0,0.5,0.0,4.935268459725808,0.14526681715600856,1.3423622193294875
10.879424571990967,2.351428157209089,2.3789408206939697,5.0,0.5,0.0,4.709533705030817,0.1452812272459161,1.3432720362664492
10.944411993026733,2.351428157209089,2.3790156841278076,5.0,0.5,0.0,4.4183311142240145,0.1455828505704184,1.344481414229812
11.007442712783813,2.351428157209089,2.379089117050171,5.0,0.5,0.0,4.108356399071796,0.14585854223907208,1.3456997517699767
11.071354389190674,2.351428157209089,2.3791494369506836,5.0,0.5,0.0,3.801931978970428,0.14570698068955304,1.346889374412335
11.135476350784302,2.351428157209089,2.37920880317688,5.0,0.5,0.0,3.5092482099470432,0.14565397513920886,1.3478859438105661
11.199431657791138,2.351428157209089,2.379265308380127,5.0,0.5,0.0,3.2344878681658455,0.14560644372076398,1.3487035937523857
11.264497518539429,2.351428157209089,2.379321813583374,5.0,0.5,0.0,2.9788894804770694,0.1456569743623341,1.3493296797916405
11.328734397888184,2.351428157209089,2.3793742656707764,5.0,0.5,0.0,2.7422782619011983,0.14563667619620688,1.3498239270193304
11.391644477844238,2.351428157209089,2.3794150352478027,5.0,0.5,0.0,2.5238297041662827,0.14529506011925153,1.3502814258426556
11.455360174179077,2.351428157209089,2.3794610500335693,5.0,0.5,0.0,2.3224487927417945,0.14529491107919817,1.3505609082569099
11.520278453826904,2.351428157209089,2.3795130252838135,5.0,0.5,0.0,2.1369566510870164,0.14557203142720015,1.3506737568067595
11.584278345108032,2.351428157209089,2.379560947418213,5.0,0.5,0.0,1.9661807203994437,0.1457055483771702,1.350732050614677
11.647354364395142,2.351428157209089,2.379603147506714,5.0,0.5,0.0,1.8089966678291658,0.1456713234793128,1.3507658670952485
11.711374759674072,2.351428157209089,2.3796489238739014,5.0,0.5,0.0,1.6643462099870499,0.14583265935642684,1.3506977835672718
11.775573492050171,2.351428157209089,2.3796894550323486,5.0,0.5,0.0,1.5312430021175647,0.14583369729770623,1.3506228555425421
11.840363025665283,2.351428157209089,2.3797268867492676,5.0,0.5,0.0,1.4087727022090566,0.14578610651500437,1.3505291866990399
11.904214143753052,2.351428157209089,2.379770278930664,5.0,0.5,0.0,1.2960902832200898,0.146014406687432,1.350336751589274
11.967352867126465,2.351428157209089,2.379807472229004,5.0,0.5,0.0,1.1924161380964808,0.1460264975135275,1.3501691243811982
12.031363725662231,2.351428157209089,2.3798444271087646,5.0,0.5,0.0,1.0970317510738434,0.1460804545295318,1.349974118968321
12.09673023223877,2.351428157209089,2.3798811435699463,5.0,0.5,0.0,1.0092753186811314,0.14616529632315867,1.3497562328032695
12.160093784332275,2.351428157209089,2.3799073696136475,5.0,0.5,0.0,0.9285375060097016,0.14591621072145677,1.3496185912411378
12.224440336227417,2.351428157209089,2.3799355030059814,5.0,0.5,0.0,0.854257423223977,0.14584379446192353,1.3494444646483377
12.287502765655518,2.351428157209089,2.379957437515259,5.0,0.5,0.0,0.7859188561120496,0.14562111806092637,1.3493151666330063
12.35315203666687,2.351428157209089,2.3799784183502197,5.0,0.5,0.0,0.7230467585250065,0.14546305162278944,1.3491822196753525
12.41531777381897,2.351428157209089,2.3799965381622314,5.0,0.5,0.0,0.6652040015642154,0.14528440698278286,1.3490661127998975
12.479411840438843,2.351428157209089,2.380017042160034,5.0,0.5,0.0,0.6119883680888568,0.14526819243797887,1.3489176095381596
12.543264389038086,2.351428157209089,2.3800337314605713,5.0,0.5,0.0,0.5630297783190592,0.14515620263098436,1.3487983086625805
12.607256889343262,2.351428157209089,2.380047082901001,5.0,0.5,0.0,0.5179877313388854,0.14498593167876017,1.3487048111313773
12.671337842941284,2.351428157209089,2.380063056945801,5.0,0.5,0.0,0.47654894728713537,0.14497652128345312,1.3485802151494133
12.735374450683594,2.351428157209089,2.3800785541534424,5.0,0.5,0.0,0.43842519550072645,0.1449782309956826,1.3484554892987317
12.801468133926392,2.351428157209089,2.380096197128296,5.0,0.5,0.0,0.40335129459716534,0.1450768738422355,1.3483058467479294
12.863626718521118,2.351428157209089,2.380112886428833,5.0,0.5,0.0,0.37108327131439206,0.1451400537742244,1.3481620412581707
12.927391290664673,2.351428157209089,2.3801331520080566,5.0,0.5,0.0,0.34139666579346684,0.14533292084465488,1.3479804936844608
12.991416931152344,2.351428157209089,2.3801558017730713,5.0,0.5,0.0,0.3140849718513107,0.14558211907008314,1.3477732074960254
13.055351972579956,2.351428157209089,2.3801753520965576,5.0,0.5,0.0,0.28895820162431207,0.14568394081714708,1.3475939700606516
13.120780944824219,2.351428157209089,2.380202054977417,5.0,0.5,0.0,0.26584156475723253,0.14603135314481278,1.3473431595914511
13.183581352233887,2.351428157209089,2.3802266120910645,5.0,0.5,0.0,0.24457425305970493,0.14624260729609803,1.347111661817907
13.2476487159729,2.351428157209089,2.3802554607391357,5.0,0.5,0.0,0.22500832225258707,0.14657533066930173,1.3468368807307245
13.312519788742065,2.351428157209089,2.380284547805786,5.0,0.5,0.0,0.2070076630785026,0.14686118608817775,1.3465585312829753
13.37545132637024,2.351428157209089,2.3803131580352783,5.0,0.5,0.0,0.1904470546563883,0.1470884864943507,1.3462837643705834
13.439973592758179,2.351428157209089,2.3803446292877197,5.0,0.5,0.0,0.17521129352073406,0.14738948564519536,1.3459800650846288
13.504157543182373,2.351428157209089,2.3803741931915283,5.0,0.5,0.0,0.16119439230484506,0.14758225138196973,1.3456941830038975
13.568799257278442,2.351428157209089,2.380401611328125,5.0,0.5,0.0,0.14829884250648157,0.1476865625064511,1.345428590374386
13.63290548324585,2.351428157209089,2.380424737930298,5.0,0.5,0.0,0.1364349362161724,0.14765129364499138,1.3452044461663013
13.696792840957642,2.351428157209089,2.3804471492767334,5.0,0.5,0.0,0.1255201420960215,0.14763508233347603,1.3449868112985537
13.759318351745605,2.351428157209089,2.3804709911346436,5.0,0.5,0.0,0.11547853127233774,0.14770666551786946,1.344754698501472
13.824678182601929,2.351428157209089,2.3804943561553955,5.0,0.5,0.0,0.10624024915134853,0.14777648625296952,1.3445268638158814
13.889212131500244,2.351428157209089,2.3805205821990967,5.0,0.5,0.0,0.0977410294857986,0.14795938647240828,1.3442705646763298
13.95168137550354,2.351428157209089,2.380549430847168,5.0,0.5,0.0,0.08992174731352509,0.14821857284518505,1.3439881308971144
14.01550841331482,2.351428157209089,2.380585193634033,5.0,0.5,0.0,0.08272800765905619,0.14868372072720504,1.3436373191035071
14.079731464385986,2.351428157209089,2.3806312084198,5.0,0.5,0.0,0.07610976713776077,0.14942048112117734,1.3431851152754644
14.1450355052948,2.351232758492353,2.380687713623047,5.0,0.5,0.0,0.07002098583074029,0.15133934070102145,1.3406976319035846
14.207951784133911,2.351428157209089,2.3807544708251953,5.0,0.5,0.0,0.06441930700908138,0.15149138547346355,1.341970582503456
14.271525621414185,2.351428157209089,2.3808224201202393,5.0,0.5,0.0,0.059265762479714934,0.15240337722863262,1.341299426354131
14.336048603057861,2.351428157209089,2.380905866622925,5.0,0.5,0.0,0.05452450150328994,0.15368760220246452,1.340473627703759
14.400148630142212,2.351428157209089,2.3809993267059326,5.0,0.5,0.0,0.050162541398393226,0.15506379157232933,1.3395468103809367
14.463215112686157,2.351232758492353,2.3810927867889404,5.0,0.5,0.0,0.04614953809727824,0.15713786916259415,1.3366694968215769
14.529267311096191,2.351232758492353,2.3811798095703125,5.0,0.5,0.0,0.042457575057025576,0.15783956162680163,1.3357992894040267
14.591227293014526,2.351232758492353,2.381258487701416,5.0,0.5,0.0,0.03906096905773418,0.15816342097729658,1.335011114787227
14.655234575271606,2.351428157209089,2.3813529014587402,5.0,0.5,0.0,0.03593609153680491,0.15808312388822973,1.3360229504746497
14.719843864440918,2.351428157209089,2.3814640045166016,5.0,0.5,0.0,0.03306120421644317,0.15941915507333204,1.3349099541853602
14.783728122711182,2.351428157209089,2.381556272506714,5.0,0.5,0.0,0.030416307880935557,0.15988089971259925,1.333983640892775
14.847212314605713,2.351232758492353,2.381662130355835,5.0,0.5,0.0,0.027983003251726285,0.16177431377517829,1.330946359214408
14.912367582321167,2.351428157209089,2.3817734718322754,5.0,0.5,0.0,0.025744362992474,0.1618182297821771,1.3317958698087127
14.975283145904541,2.351428157209089,2.3818912506103516,5.0,0.5,0.0,0.023684813953696208,0.16290147547186443,1.330605343367663
15.040231704711914,2.351232758492353,2.3820157051086426,5.0,0.5,0.0,0.021790028837834565,0.1650435571747055,1.3273575035776197
15.103279829025269,2.351428157209089,2.382136583328247,5.0,0.5,0.0,0.02004682653111163,0.16497352543949084,1.3281161570100866
15.167176008224487,2.351428157209089,2.3822715282440186,5.0,0.5,0.0,0.018443080408835393,0.1662524444470352,1.3267416610208882
15.231309413909912,2.351428157209089,2.382413148880005,5.0,0.5,0.0,0.01696763397627746,0.16759246696226993,1.3252951480205766
15.29583191871643,2.351428157209089,2.382553815841675,5.0,0.5,0.0,0.015610223258279467,0.16871218621771997,1.323854332834645
15.359150171279907,2.351428157209089,2.38268780708313,5.0,0.5,0.0,0.014361405397690093,0.16947556565008587,1.3224781774089485
15.423323392868042,2.351428157209089,2.3828351497650146,5.0,0.5,0.0,0.01321249296592595,0.17067092682899407,1.320960736579432
15.487266063690186,2.351428157209089,2.382972478866577,5.0,0.5,0.0,0.012155493528687613,0.1713864235560709,1.3195425338285829
15.553288698196411,2.351428157209089,2.3831522464752197,5.0,0.5,0.0,0.011183054046417612,0.1735590290407015,1.3176804375859819
15.61537504196167,2.351428157209089,2.38328218460083,5.0,0.5,0.0,0.01028840972272171,0.17363867625106247,1.3163305594038548
15.681490182876587,2.351428157209089,2.383446216583252,5.0,0.5,0.0,0.009465336944916245,0.17505310027582882,1.3146218125761526
15.743412971496582,2.351428157209089,2.383579730987549,5.0,0.5,0.0,0.008708109989331518,0.17524404121300463,1.3132271520045073
15.807646989822388,2.351428157209089,2.383714199066162,5.0,0.5,0.0,0.008011461190191013,0.17560096691986415,1.31181909048461
15.87138843536377,2.351428157209089,2.3838396072387695,5.0,0.5,0.0,0.007370544294979941,0.17573908703509064,1.3105028118780206
15.935216903686523,2.351428157209089,2.3839595317840576,5.0,0.5,0.0,0.006780900751384479,0.17583101646492932,1.3092413228892954
16.000625133514404,2.351428157209089,2.384075403213501,5.0,0.5,0.0,0.006238428691275786,0.17593305465233666,1.3080199176658602
16.063255548477173,2.351232758492353,2.3841724395751953,5.0,0.5,0.0,0.005739354395975175,0.17649195644006274,1.3049263081447817
16.127514839172363,2.351428157209089,2.3842883110046387,5.0,0.5,0.0,0.005280206044298167,0.17604003936651405,1.3057691698552991
16.193167448043823,2.351428157209089,2.3843870162963867,5.0,0.5,0.0,0.004857789560755025,0.1759699598019043,1.304722887227551
16.255120515823364,2.351428157209089,2.38446307182312,5.0,0.5,0.0,0.004469166395895118,0.17528551957801933,1.3039154836185725
16.321241855621338,2.351428157209089,2.3845391273498535,5.0,0.5,0.0,0.004111633084223855,0.17491292227601363,1.3031070314808424
16.383225202560425,2.351428157209089,2.3845973014831543,5.0,0.5,0.0,0.003782702437486185,0.1741467054614761,1.3024879500153845
16.447130918502808,2.351428157209089,2.384657859802246,5.0,0.5,0.0,0.003480086242487462,0.17377421463186368,1.3018428498536352
16.51121234893799,2.351428157209089,2.3847172260284424,5.0,0.5,0.0,0.0032016793430885834,0.17356371989610067,1.3012098108298762
16.575235605239868,2.351428157209089,2.384767532348633,5.0,0.5,0.0,0.0029455449956415835,0.1731911635241482,1.3006728878746916
16.639106273651123,2.351232758492353,2.3848209381103516,5.0,0.5,0.0,0.0027099013959903133,0.17407740985134623,1.2980107831850423
16.703123569488525,2.351428157209089,2.3848631381988525,5.0,0.5,0.0,0.0024931092843111288,0.17275606018008136,1.2996512398598479
16.768310546875,2.351428157209089,2.3848989009857178,5.0,0.5,0.0,0.0022936605415662704,0.17232838455037272,1.2992686613868418
16.831997871398926,2.351232758492353,2.3849265575408936,5.0,0.5,0.0,0.0021101676982409894,0.17277344945514986,1.2968774126312335
16.896040439605713,2.351428157209089,2.3849523067474365,5.0,0.5,0.0,0.001941354282381721,0.17142313137349968,1.298696924285905
16.959463834762573,2.351232758492353,2.384974241256714,5.0,0.5,0.0,0.0017860459397911936,0.17201162893242333,1.2963650961319546
17.023194789886475,2.351232758492353,2.3849925994873047,5.0,0.5,0.0,0.001643162264607906,0.17167051256459379,1.2961677490519388
17.087192058563232,2.351428157209089,2.385009527206421,5.0,0.5,0.0,0.001511709283439276,0.17043466932380935,1.2980837921814485
17.151775360107422,2.351232758492353,2.385026693344116,5.0,0.5,0.0,0.0013907725407641366,0.17123728519796738,1.2958010923372756
17.215085744857788,2.351232758492353,2.3850443363189697,5.0,0.5,0.0,0.0012795107375030083,0.1711807497077709,1.2956112748819117
17.28039789199829,2.351232758492353,2.3850622177124023,5.0,0.5,0.0,0.0011771498785027707,0.17116945172403272,1.2954188374327333
17.343141555786133,2.351428157209089,2.3850786685943604,5.0,0.5,0.0,0.001082977888222549,0.17017158965846094,1.2973421584163707
17.407249927520752,2.351428157209089,2.3850903511047363,5.0,0.5,0.0,0.000996339657164746,0.16999945101814218,1.2972167654062423
17.471290349960327,2.351232758492353,2.385101556777954,5.0,0.5,0.0,0.0009166324845915672,0.1708522670118286,1.2949952809567429
17.536174058914185,2.351232758492353,2.3851139545440674,5.0,0.5,0.0,0.0008433018858242441,0.1708398605350369,1.2948617412375794
17.600837469100952,2.351428157209089,2.38512921333313,5.0,0.5,0.0,0.0007758377349583044,0.16997540267603597,1.2967994704263859
17.66308355331421,2.351428157209089,2.385140895843506,5.0,0.5,0.0,0.0007137707161616396,0.16993752345080274,1.2966739745252318
17.72722554206848,2.351428157209089,2.385158061981201,5.0,0.5,0.0,0.000656669058868709,0.17012403476604593,1.2964895293131742
17.792463779449463,2.351428157209089,2.385169744491577,5.0,0.5,0.0,0.0006041355341592131,0.1700922088517156,1.2963639748505502
17.856631994247437,2.351232758492353,2.385181188583374,5.0,0.5,0.0,0.0005558046914264764,0.1710446178353617,1.2941370850678438
17.91935443878174,2.351232758492353,2.3851912021636963,5.0,0.5,0.0,0.0005113403161123571,0.17101142201808014,1.29402909124301
17.984203577041626,2.351232758492353,2.38519549369812,5.0,0.5,0.0,0.00047043309082336947,0.17079778842335872,1.2939828029371416
18.04803490638733,2.351232758492353,2.3852033615112305,5.0,0.5,0.0,0.0004327984435574999,0.17077663109994382,1.2938979328317388
18.11115050315857,2.351428157209089,2.385206460952759,5.0,0.5,0.0,0.0003981745680728992,0.1696423413190857,1.2959692210498113
18.175145387649536,2.351232758492353,2.3852105140686035,5.0,0.5,0.0,0.0003663206026270672,0.17051907113060188,1.2938207690226697
18.23907732963562,2.351232758492353,2.38521409034729,5.0,0.5,0.0,0.000337014954416902,0.17046192922318498,1.2937821838348886
18.303045988082886,2.351232758492353,2.38521671295166,5.0,0.5,0.0,0.00031005375806355,0.17038748732932377,1.2937538866434
18.367455005645752,2.351428157209089,2.3852195739746094,5.0,0.5,0.0,0.0002852494574184663,0.1693799656704992,1.2958281809778116
18.431140184402466,2.351232758492353,2.385220527648926,5.0,0.5,0.0,0.0002624295008249889,0.17024758560639497,1.2937127249961538
18.495646476745605,2.351428157209089,2.3852901458740234,5.0,0.5,0.0,0.0002414351407589894,0.1716069881962672,1.295068618619659
18.560784816741943,2.351232758492353,2.385305166244507,5.0,0.5,0.0,0.00022212032949827032,0.17242196078483174,1.2927988123184875
18.62322998046875,2.351428157209089,2.385266065597534,5.0,0.5,0.0,0.00020435070313840894,0.16949381914790787,1.295327890195881
18.687175035476685,2.351428157209089,2.38525652885437,5.0,0.5,0.0,0.00018800264688733585,0.16905250370420755,1.2954305443769425
18.752935647964478,2.351428157209089,2.385256052017212,5.0,0.5,0.0,0.0001729624351363489,0.16905943038153912,1.2954356766779727
18.81651258468628,2.351428157209089,2.38525652885437,5.0,0.5,0.0,0.00015912544032544118,0.16909977424202685,1.2954305443844043
18.879035472869873,2.351428157209089,2.3852574825286865,5.0,0.5,0.0,0.00014639540509940604,0.1691456004073799,1.2954202796756364
18.943103313446045,2.351428157209089,2.385258197784424,5.0,0.5,0.0,0.00013468377269145354,0.16917100958042788,1.295412581041369
19.007054805755615,2.351232758492353,2.385261058807373,5.0,0.5,0.0,0.0001239090708761371,0.17023136594478172,1.2932752289547966
19.07104778289795,2.351428157209089,2.385265350341797,5.0,0.5,0.0,0.00011399634520604625,0.16939357672813263,1.2953355898246053
19.135082006454468,2.351232758492353,2.385267496109009,5.0,0.5,0.0,0.00010487663758956263,0.17036762619372178,1.2932057185161
19.199960947036743,2.351232758492353,2.3852717876434326,5.0,0.5,0.0,9.64865065823976e-05,0.17046554656284413,1.2931593743026433
19.263153314590454,2.351232758492353,2.3852741718292236,5.0,0.5,0.0,8.876758605580573e-05,0.17046853499605172,1.293133626163044
19.327035903930664,2.351428157209089,2.385277509689331,5.0,0.5,0.0,8.166617917134127e-05,0.16953933301245888,1.2952046845109138
19.390979290008545,2.351232758492353,2.3852791786193848,5.0,0.5,0.0,7.513288483763408e-05,0.17047098720233167,1.2930795519203993
19.455000400543213,2.351232758492353,2.385279893875122,5.0,0.5,0.0,6.91222540506233e-05,0.17043134308858154,1.2930718266807941
19.519680500030518,2.351232758492353,2.3853542804718018,5.0,0.5,0.0,6.359247372657359e-05,0.17295042364196372,1.2922679272108755
19.58299946784973,2.351232758492353,2.3853511810302734,5.0,0.5,0.0,5.850507582844765e-05,0.17216485602675524,1.2923014417595322
19.647029399871826,2.351232758492353,2.3852975368499756,5.0,0.5,0.0,5.382466976217178e-05,0.1698334866682721,1.292881243213165
19.711007833480835,2.351428157209089,2.385235071182251,5.0,0.5,0.0,4.951869618119807e-05,0.16683117889088311,1.2956614589112025
19.775017738342285,2.351428157209089,2.3851706981658936,5.0,0.5,0.0,4.5557200486702216e-05,0.16523410962083815,1.2963537247272576
19.839012384414673,2.351232758492353,2.3851568698883057,5.0,0.5,0.0,4.191262444776608e-05,0.16674413473981514,1.294399284602231
19.90402626991272,2.351232758492353,2.3851497173309326,5.0,0.5,0.0,3.855961449194479e-05,0.16736115600602391,1.294476382751964
19.96707272529602,2.351232758492353,2.385148763656616,5.0,0.5,0.0,3.547484533258921e-05,0.16799284404382553,1.2944866618423483
20.03105354309082,2.351232758492353,2.3851492404937744,5.0,0.5,0.0,3.263685770598208e-05,0.16848517854012404,1.29448152231689
20.095046758651733,2.351232758492353,2.385148763656616,5.0,0.5,0.0,3.0025909089503516e-05,0.1687979794032766,1.294486661842614
20.159082889556885,2.351428157209089,2.3851492404937744,5.0,0.5,0.0,2.762383636234323e-05,0.1680817352188063,1.2965843204019611
20.224416255950928,2.351232758492353,2.3851513862609863,5.0,0.5,0.0,2.5413929453355733e-05,0.1692738291683561,1.2944583939692644
20.289048194885254,2.351232758492353,2.3851542472839355,5.0,0.5,0.0,2.338081509708731e-05,0.16947614321090956,1.2944275549434703
20.350937604904175,2.351428157209089,2.385155439376831,5.0,0.5,0.0,2.151034988932034e-05,0.1685906380995493,1.2965177120846016
20.415788173675537,2.351232758492353,2.3851563930511475,5.0,0.5,0.0,1.9789521898174718e-05,0.16959830252999694,1.2944044247528617
20.478984355926514,2.351428157209089,2.385157823562622,5.0,0.5,0.0,1.8206360146320726e-05,0.16869360122407295,1.2964920917242486
20.542951107025146,2.351428157209089,2.3851587772369385,5.0,0.5,0.0,1.674985133461506e-05,0.16870686810121216,1.296481843303776
20.60704493522644,2.351232758492353,2.3851969242095947,5.0,0.5,0.0,1.5409863227845847e-05,0.17098000506727487,1.2939673729563075
20.67097520828247,2.351232758492353,2.3852016925811768,5.0,0.5,0.0,1.4177074169618167e-05,0.1708168661362153,1.2939159366106088
20.73512864112854,2.351232758492353,2.3851258754730225,5.0,0.5,0.0,1.3042908236048698e-05,0.16789992797162115,1.2947333131734253
20.799674034118652,2.351232758492353,2.3850159645080566,5.0,0.5,0.0,1.1999475577164802e-05,0.1645362490047316,1.2959164971327488
20.86311674118042,2.351428157209089,2.384887456893921,5.0,0.5,0.0,1.1039517530991627e-05,0.16039399605141416,1.2993911152179387
20.927056312561035,2.351428157209089,2.3849260807037354,5.0,0.5,0.0,1.0156356128512313e-05,0.1637530173122331,1.2989777541722716
20.992566108703613,2.351232758492353,2.3849260807037354,5.0,0.5,0.0,9.34384763823133e-06,0.1658534906986357,1.2968825371242396
21.056739330291748,2.351428157209089,2.384925127029419,5.0,0.5,0.0,8.596339827172824e-06,0.16564401128415823,1.2989879637844526
21.12016725540161,2.351232758492353,2.3849260807037354,5.0,0.5,0.0,7.908632640998983e-06,0.16718953781337734,1.296882537124258
21.183010578155518,2.351232758492353,2.38492751121521,5.0,0.5,0.0,7.27594202971907e-06,0.16762921296661382,1.2968671734703783
21.24762511253357,2.351232758492353,2.3849267959594727,5.0,0.5,0.0,6.693866667341543e-06,0.16785833827350308,1.2968748553418366
21.310980319976807,2.351232758492353,2.3849353790283203,5.0,0.5,0.0,6.158357333954224e-06,0.1683390643722589,1.2967826670104288
21.37496852874756,2.351232758492353,2.384855031967163,5.0,0.5,0.0,5.665688747237885e-06,0.16561012319042903,1.2976451499135848
21.439407110214233,2.351428157209089,2.384676694869995,5.0,0.5,0.0,5.2124336474588556e-06,0.1591879354417543,1.301642082967366
21.503715753555298,2.351232758492353,2.3844873905181885,5.0,0.5,0.0,4.795438955662152e-06,0.15564785206288176,1.3015771053618377
21.56691598892212,2.351428157209089,2.3843300342559814,5.0,0.5,0.0,4.411803839209186e-06,0.1523609534740489,1.3053271370852648
21.630944967269897,2.351232758492353,2.384281873703003,5.0,0.5,0.0,4.058859532072451e-06,0.15524398086652216,1.3037646285349724
21.69491171836853,2.351232758492353,2.3842694759368896,5.0,0.5,0.0,3.7341507695066547e-06,0.15780450182215025,1.3038963468826523
21.76055359840393,2.351428157209089,2.3842685222625732,5.0,0.5,0.0,3.4354187079461192e-06,0.15901348593828082,1.3059787388920836
21.822906970977783,2.351428157209089,2.384268045425415,5.0,0.5,0.0,3.1605852113104347e-06,0.1605462722925599,1.3059837873629152
21.88737392425537,2.351232758492353,2.384268283843994,5.0,0.5,0.0,2.9077383944055935e-06,0.16261744560458077,1.3039090106411668
21.951504230499268,2.351428157209089,2.3842673301696777,5.0,0.5,0.0,2.675119322853148e-06,0.16239203881380254,1.305991359991009
22.016438007354736,2.351428157209089,2.3842601776123047,5.0,0.5,0.0,2.461109777024897e-06,0.16267835951948506,1.3060670811129325
22.081262350082397,2.351232758492353,2.38425350189209,5.0,0.5,0.0,2.2642209948629017e-06,0.16385635052596678,1.3040660198490417
22.143782377243042,2.351232758492353,2.384248971939087,5.0,0.5,0.0,2.0830833152738705e-06,0.16407810084351349,1.304114127643242
22.207550287246704,2.351232758492353,2.384249687194824,5.0,0.5,0.0,1.9164366500519627e-06,0.16440231700357927,1.3041065319231835
22.27294659614563,2.351428157209089,2.384249687194824,5.0,0.5,0.0,1.7631217180478048e-06,0.16364001363436564,1.3061781217849036
22.33661985397339,2.351428157209089,2.3842499256134033,5.0,0.5,0.0,1.622071980603979e-06,0.16378182661843368,1.3061755983575043
22.399210691452026,2.351232758492353,2.384249687194824,5.0,0.5,0.0,1.4923062221556614e-06,0.16483890530738585,1.3041065319231846
22.46294593811035,2.351428157209089,2.384251117706299,5.0,0.5,0.0,1.3729217243832109e-06,0.16400163266629286,1.3061629810640347
22.52693223953247,2.351428157209089,2.384251117706299,5.0,0.5,0.0,1.2630879864325531e-06,0.16402938319307972,1.306162981064035
22.591970682144165,2.351232758492353,2.384251832962036,5.0,0.5,0.0,1.162040947517948e-06,0.16504695423522164,1.3040837442062356
22.65491271018982,2.351232758492353,2.3842544555664062,5.0,0.5,0.0,1.0690776717165133e-06,0.165159330653227,1.3040558914181444
22.71896457672119,2.351428157209089,2.384255886077881,5.0,0.5,0.0,9.835514579791927e-07,0.16422735981312106,1.3061125092826125
22.78302788734436,2.351428157209089,2.3842570781707764,5.0,0.5,0.0,9.048673413408553e-07,0.16423579354096457,1.3060998906854635
22.846968173980713,2.351428157209089,2.3842577934265137,5.0,0.5,0.0,8.324779540335882e-07,0.16423355313463,1.3060923194020462
22.911552667617798,2.351232758492353,2.3842613697052,5.0,0.5,0.0,7.658797177109e-07,0.16529932365016198,1.3039824553623514
22.9750657081604,2.351428157209089,2.3842616081237793,5.0,0.5,0.0,7.04609340294028e-07,0.1643014101291832,1.3060519376390467
23.03887963294983,2.351428157209089,2.384263515472412,5.0,0.5,0.0,6.482405930705054e-07,0.16432067016154006,1.3060317457567647
23.103172779083252,2.351428157209089,2.3842687606811523,5.0,0.5,0.0,5.96381345624865e-07,0.16445981941959004,1.3059762146410467
23.167003631591797,2.351232758492353,2.3842711448669434,5.0,0.5,0.0,5.486708379748768e-07,0.16543435893085878,1.303878617188209
23.23327875137329,2.351232758492353,2.3842761516571045,5.0,0.5,0.0,5.047771709368872e-07,0.16554266510638063,1.3038254250775518
23.29493999481201,2.351232758492353,2.384291172027588,5.0,0.5,0.0,4.643949972619363e-07,0.16596714586297856,1.3036658215117587
23.358891487121582,2.351232758492353,2.384320020675659,5.0,0.5,0.0,4.2724339748098114e-07,0.16676922059146124,1.3033591668666022
23.424139738082886,2.351428157209089,2.3843772411346436,5.0,0.5,0.0,3.930639256825028e-07,0.16739439456284583,1.3048266017596335
23.4869704246521,2.351428157209089,2.3844504356384277,5.0,0.5,0.0,3.6161881162790204e-07,0.16914811533270427,1.3040497170943748
23.55105471611023,2.351428157209089,2.384544849395752,5.0,0.5,0.0,3.326893066976698e-07,0.17123266929960784,1.3030461776484916
23.615829467773438,2.351428157209089,2.384653329849243,5.0,0.5,0.0,3.0607416216185645e-07,0.17332783097206117,1.3018911372701871
23.678938627243042,2.351428157209089,2.384760618209839,5.0,0.5,0.0,2.815882291889078e-07,0.17492049197957285,1.300746716306803
23.744913578033447,2.351428157209089,2.3848860263824463,5.0,0.5,0.0,2.590611708537952e-07,0.176823468904215,1.2994064198318038
23.806929111480713,2.351232758492353,2.3849899768829346,5.0,0.5,0.0,2.3833627718549148e-07,0.1785736460689496,1.2961959471309996
23.873230695724487,2.351428157209089,2.3850982189178467,5.0,0.5,0.0,2.1926937501065243e-07,0.17846166244035822,1.2971323042910294
23.934933185577393,2.351428157209089,2.3852016925811768,5.0,0.5,0.0,2.0172782500980006e-07,0.1790425523044811,1.2960205011101316
24.000148057937622,2.351428157209089,2.3853015899658203,5.0,0.5,0.0,1.855895990090159e-07,0.1794855699188465,1.2949453654887644
24.064777374267578,2.351428157209089,2.385406970977783,5.0,0.5,0.0,1.7074243108829475e-07,0.18013430653877435,1.2938093522952478
24.127701997756958,2.351428157209089,2.385510206222534,5.0,0.5,0.0,1.570830366012311e-07,0.1806739854154927,1.292694630385748
24.19236397743225,2.351428157209089,2.3856189250946045,5.0,0.5,0.0,1.4451639367313276e-07,0.18139582970402668,1.2915187413120461
24.254958868026733,2.351428157209089,2.3857455253601074,5.0,0.5,0.0,1.329550821792822e-07,0.18268524531936303,1.290146939568912
24.318852186203003,2.351428157209089,2.3858819007873535,5.0,0.5,0.0,1.2231867560493993e-07,0.1841221314858578,1.288666220124165
24.38461995124817,2.351428157209089,2.386014699935913,5.0,0.5,0.0,1.1253318155654453e-07,0.18521194051775838,1.2872213693734391
24.44695234298706,2.351818954642563,2.3861396312713623,5.0,0.5,0.0,0.27603846320920805,0.18382368494764678,1.2900543358499315
24.51220178604126,2.352991346942983,2.38627552986145,5.0,0.5,0.0,1.4133164968029315,0.17840572080956574,1.2997772379203039
24.5749831199646,2.3549453341103495,2.3864188194274902,5.0,0.5,0.0,2.8709094436303917,0.16883312586849256,1.3141767009690877
24.63891339302063,2.357680916144663,2.3865716457366943,5.0,0.5,0.0,3.568173499940971,0.1556263894966559,1.336866397134808
24.70297336578369,2.36080729561245,2.386718511581421,5.0,0.5,0.0,3.569275041128132,0.14024437734568554,1.3649526802090333
24.766873836517334,2.3637382763635,2.3868892192840576,5.0,0.5,0.0,3.0271332994477724,0.12679256701188943,1.3915770449126148
24.83089327812195,2.3660830609643404,2.387066602706909,5.0,0.5,0.0,0.9965567536165616,0.11705626436526936,1.4149655432636976
24.894862174987793,2.3672554532647596,2.3872334957122803,5.0,0.5,0.0,-1.6915216558440502,0.11325100565095397,1.42115304401504
24.960389137268066,2.3672554532647596,2.3874258995056152,5.0,0.5,0.0,-4.060282507725689,0.11646236696891764,1.409730385855194
25.022860288619995,2.3672554532647596,2.387580156326294,5.0,0.5,0.0,-4.171204996044592,0.11746312508346449,1.407916655223234
25.08707571029663,2.3672554532647596,2.3877437114715576,5.0,0.5,0.0,-3.4839737985631656,0.11856627151065621,1.4105193494446167
25.150871753692627,2.3672554532647596,2.3878819942474365,5.0,0.5,0.0,-2.628503356192749,0.11864289697725394,1.4133121271703162
25.214953660964966,2.3672554532647596,2.388025999069214,5.0,0.5,0.0,-1.8498572207441413,0.11905897825547346,1.414793643901435
25.280030965805054,2.3672554532647596,2.3881657123565674,5.0,0.5,0.0,-1.2216929912106629,0.11940218132757821,1.415156901955965
25.343255758285522,2.3672554532647596,2.3882856369018555,5.0,0.5,0.0,-0.7466748230986895,0.11915691512816584,1.414930619144555
25.40760564804077,2.3672554532647596,2.388402223587036,5.0,0.5,0.0,-0.40226304082852987,0.11903859111746548,1.4143252686260535
25.47116231918335,2.3672554532647596,2.3885066509246826,5.0,0.5,0.0,-0.16051759694082335,0.11870626620274087,1.413617145388571
25.53580069541931,2.3672554532647596,2.3886008262634277,5.0,0.5,0.0,0.004163862812358157,0.1182700985815369,1.412903587323446
25.599111318588257,2.3672554532647596,2.3886892795562744,5.0,0.5,0.0,0.11269127596737122,0.11790384488293947,1.4122035299636875
25.663328170776367,2.3672554532647596,2.388759136199951,5.0,0.5,0.0,0.18116458230671317,0.11713382900734785,1.4116414851386598
25.72724223136902,2.3672554532647596,2.388845205307007,5.0,0.5,0.0,0.2215565630592523,0.11725474359073684,1.410953351470616
25.791618824005127,2.3672554532647596,2.3889191150665283,5.0,0.5,0.0,0.24257320187314838,0.11705256395561933,1.4103638175018212
25.856234073638916,2.3672554532647596,2.3889822959899902,5.0,0.5,0.0,0.25044694078568247,0.11664623909271889,1.4098618971022767
25.920335292816162,2.3672554532647596,2.38903546333313,5.0,0.5,0.0,0.24958729224716947,0.1161060625637588,1.409441364536704
25.982948064804077,2.3672554532647596,2.389078378677368,5.0,0.5,0.0,0.24308377866477046,0.11544913547525322,1.409103440080178
26.046836376190186,2.3672554532647596,2.3891146183013916,5.0,0.5,0.0,0.2330816027749185,0.11481891271220829,1.40881919051866
26.110847234725952,2.3670600545480234,2.3891468048095703,5.0,0.5,0.0,0.22105629180783942,0.11525664175103112,1.4070070913239672
26.17485237121582,2.3670600545480234,2.3891701698303223,5.0,0.5,0.0,0.20801166492794393,0.1146369265025653,1.4068239431907106
26.241263389587402,2.3670600545480234,2.389192819595337,5.0,0.5,0.0,0.19462115745216713,0.1142037636186355,1.4066462241151132
26.302873849868774,2.3670600545480234,2.3892104625701904,5.0,0.5,0.0,0.18132801895548784,0.11376070621873142,1.4065082805913267
26.366844415664673,2.3670600545480234,2.3892223834991455,5.0,0.5,0.0,0.1684159933569807,0.11327709888245971,1.4064158721358817
26.430755615234375,2.3670600545480234,2.3900272846221924,5.0,0.5,0.0,0.15605897905511817,0.14039916538962524,1.3998574852745584
26.494920253753662,2.3670600545480234,2.390050172805786,5.0,0.5,0.0,0.14435580335946727,0.13380005549143426,1.3996708099941475
26.558934211730957,2.3670600545480234,2.3900389671325684,5.0,0.5,0.0,0.13335449743687675,0.1277720123400198,1.3997657771708658
26.623817682266235,2.3670600545480234,2.390037775039673,5.0,0.5,0.0,0.12306918773726139,0.123865320631643,1.399777599258825
26.686866521835327,2.3670600545480234,2.390038251876831,5.0,0.5,0.0,0.11349180741152373,0.12118888127487452,1.3997753422691361
26.751032829284668,2.3670600545480234,2.390040636062622,5.0,0.5,0.0,0.10460018091712661,0.11938243925474804,1.3997570673406057
26.81481623649597,2.3670600545480234,2.3900415897369385,5.0,0.5,0.0,0.09636357401935107,0.11807247537437458,1.3997504116706911
26.879273653030396,2.3670600545480234,2.390040636062622,5.0,0.5,0.0,0.08874647585403284,0.11709033690240539,1.3997593490904698
26.944685220718384,2.3670600545480234,2.390042543411255,5.0,0.5,0.0,0.081711150441728,0.11649989112924825,1.3997444658714973
27.006812572479248,2.3670600545480234,2.3900437355041504,5.0,0.5,0.0,0.0752193338789306,0.11606559469461016,1.399735363762941
27.0708327293396,2.3670600545480234,2.390047311782837,5.0,0.5,0.0,0.06923334030605888,0.11584575782507736,1.399706423605524
27.135743141174316,2.3670600545480234,2.3896563053131104,5.0,0.5,0.0,0.06371676043111618,0.10202826920038857,1.402919879265554
27.199822425842285,2.3670600545480234,2.3771817684173584,5.0,0.5,0.0,0.0586348808179724,-0.2235357463825472,1.4797161123162734
27.262816190719604,2.3658876622476037,2.3456695079803467,5.0,0.5,0.0,-1.3262368851475954,-0.46229432220955474,1.420190309713426
27.327377796173096,2.356508523844243,2.2968344688415527,5.0,0.5,0.0,-5.0,-0.9851081998611783,0.9722965336997063
27.390816688537598,2.3336468739860523,2.305030107498169,5.0,0.5,0.0,-5.0,-0.5536135176032652,1.3306575468187658
27.45604133605957,2.306681851076392,2.3015551567077637,5.0,0.5,0.0,-5.0,-0.3387764217708104,1.4764892548342863
27.518869638442993,2.280693821750415,2.3002665042877197,5.0,0.5,0.0,-5.0,-0.1294721105997048,1.4079756914267048
27.58276057243347,2.2541195962742275,2.300475597381592,5.0,0.5,0.0,-5.0,0.004137490125964717,1.1323870383311982
27.64676308631897,2.2277407695147775,2.3013322353363037,5.0,0.5,0.0,-4.014463470277095,0.12436674273024907,0.8266766873674325
27.710750818252563,2.2064423093904804,2.302426815032959,5.0,0.5,0.0,5.0,0.31279849064568893,0.6401362969911771
27.77471685409546,2.1913966082017566,2.303480386734009,5.0,0.5,0.0,5.0,0.4698290875885289,0.5627929518246195
27.83989453315735,2.1861208428498666,2.304447889328003,5.0,0.5,0.0,5.0,0.5546346304514321,0.5425264386492353
27.90291404724121,2.189833418467863,2.3052828311920166,5.0,0.5,0.0,5.0,0.5706489269330324,0.5512817825990343
27.967162370681763,2.2011665440385904,2.306520462036133,5.0,0.5,0.0,5.0,0.5503432941507297,0.5903531612432041
28.03221869468689,2.218947827261627,2.308619737625122,5.0,0.5,0.0,5.0,0.5157614309399965,0.6819777350457206
28.096189260482788,2.2396600912357143,2.3114354610443115,5.0,0.5,0.0,5.0,0.4747341366186602,0.8386173960672763
28.15880846977234,2.260958551360011,2.314150094985962,5.0,0.5,0.0,5.0,0.41120854197550405,1.049599050736397
28.222997426986694,2.2816708153340985,2.316756010055542,5.0,0.5,0.0,5.0,0.33860266641568415,1.2635024699082842
28.288573503494263,2.299061301123662,2.318831205368042,5.0,0.5,0.0,-1.3016991744516004,0.2642970471243302,1.4235476217711944
28.351144790649414,2.309808230544179,2.320399045944214,5.0,0.5,0.0,-5.0,0.21118598227509008,1.4595487383225325
28.41559076309204,2.3137162048789124,2.3215928077697754,5.0,0.5,0.0,-5.0,0.18687660518205793,1.4694005514882638
28.478769540786743,2.3137162048789124,2.322479486465454,5.0,0.5,0.0,-5.0,0.17676764939271047,1.4664903894987162
28.542765378952026,2.3137162048789124,2.3232648372650146,5.0,0.5,0.0,-5.0,0.16604465615935265,1.463662042657341
28.606690645217896,2.3135208061621757,2.3239152431488037,5.0,0.5,0.0,-5.0,0.1552587689490654,1.4603549969340341
28.67070746421814,2.3137162048789124,2.3273942470550537,5.0,0.5,0.0,-5.0,0.23533503396644856,1.4450056889339906
28.735386848449707,2.3137162048789124,2.32234787940979,5.0,0.5,0.0,-5.0,0.01913037470696746,1.4669413739772192
28.79875683784485,2.3137162048789124,2.301375389099121,5.0,0.5,0.0,-5.0,-0.2531911136345157,1.4517321209666199
28.8643319606781,2.311566818994809,2.261990547180176,5.0,0.5,0.0,-5.0,-0.7329775777512033,1.0934026812428406
28.927382230758667,2.2998428959906088,2.196145534515381,5.0,0.5,0.0,-5.0,-1.4444091760111226,0.5981430261583873
28.991247177124023,2.2740502653813683,2.1154606342315674,5.0,0.5,0.0,-5.0,-2.160091494197639,0.4882699951034642
29.054726600646973,2.2472806411884445,2.0352766513824463,5.0,0.5,0.0,-5.0,-2.7334598181456373,0.4818568196696176
29.12006425857544,2.220315618278784,1.9807178974151611,5.0,0.5,0.0,-5.0,-2.859249652808966,0.4817423822604628
29.185516119003296,2.19237360178544,1.9615117311477661,5.0,0.5,0.0,-5.0,-2.490931011351119,0.4817555402667442
29.247197151184082,2.1671671673264097,1.9661670923233032,5.0,0.5,0.0,-3.3015183691151617,-1.8985497935514277,0.4922611059411981
29.310678958892822,2.1405929418502225,1.9821248054504395,5.0,0.5,0.0,-0.3481296706385184,-1.2727778015164042,0.5064982879197022
29.374635219573975,2.1146049125242454,1.9995437860488892,5.0,0.5,0.0,3.0044495262971544,-0.7526848413214378,0.5641313842240873
29.438719987869263,2.0878352883313216,2.0125439167022705,5.0,0.5,0.0,4.984409542967231,-0.3788215701101092,0.8036652503049528
29.50478768348694,2.060870265421661,2.0239105224609375,5.0,0.5,0.0,5.0,0.0982607950338679,1.2426692070147103
29.568830490112305,2.034296039945474,2.03267502784729,5.0,0.5,0.0,5.0,0.2832632092969044,1.481206664149323
29.630643844604492,2.0157331618554903,2.040882110595703,5.0,0.5,0.0,5.0,0.34721399543325426,1.3629115652153416
29.696518898010254,2.0055724285851833,2.045389175415039,5.0,0.5,0.0,5.0,0.45086455134145914,1.2100084380105265
29.758731603622437,2.0049862324349736,2.0469024181365967,5.0,0.5,0.0,5.0,0.49867071540373986,1.1854389761898765
29.822715282440186,2.01221598495423,2.0478553771972656,5.0,0.5,0.0,5.0,0.4414300833367203,1.2573980682776469
29.88684391975403,2.0256984964090607,2.0503156185150146,5.0,0.5,0.0,5.0,0.3667247435746152,1.3675883541437683
29.950673580169678,2.043675178348834,2.0545687675476074,5.0,0.5,0.0,5.0,0.3073329451936702,1.4582774426362861
