t_s,q_rad,q_des_rad,jerk
0.005093812942504883,-0.05529783683647768,0.002293124426569244,0.0
0.01418757438659668,-0.05529783683647768,0.011100490538786461,0.0
0.022742033004760742,-0.05529783683647768,0.02764198440752854,0.0
0.03222990036010742,-0.054907039403004336,0.050555997067112765,0.0
0.04124045372009277,-0.05412544453605766,0.07859940018764439,0.552076719357362
0.050195932388305664,-0.053343849669110974,0.11066396701409252,1.1704026450376073
0.0582118034362793,-0.05217145736869095,0.1457699082356843,1.9545724172128045
0.0663290023803711,-0.050608267634797595,0.1830399686823518,3.1717735015968964
0.07550406455993652,-0.04826348303395755,0.2217043540966804,5.0
0.0856630802154541,-0.04494170484943416,0.2611129038667809,5.0
0.093597412109375,-0.0420107240983841,0.30071563099579746,5.0
0.10135793685913086,-0.038884344630597374,0.34003553022379335,5.0
0.11076831817626953,-0.03517176901260064,0.37866344672693486,5.0
0.11922836303710938,-0.031459193394603915,0.41626230622065963,5.0
0.1282367706298828,-0.027746617776607176,0.45256035019132373,5.0
0.13622021675109863,-0.02442483959208378,0.4873633642897708,5.0
0.1457362174987793,-0.020712263974087045,0.5205451917643824,5.0
0.15538859367370605,-0.016999688356090312,0.5520106123535721,5.0
0.16620516777038574,-0.012896315304620235,0.5816917683820992,4.6530096041080915
0.17419052124023438,-0.009379138403360172,0.6095541898445089,2.6072840509356143
0.1821751594543457,-0.0062527589355734475,0.63558280026237,0.3719662236103394
0.191162109375,-0.002540183317576713,0.6597791077014629,-1.780191883162359
0.2011089324951172,0.0015631897338933619,0.6821862775095117,-3.751338576711025
0.21009612083435059,0.005080366635153426,0.7028820350425103,-5.0
0.21888494491577148,0.008988340969886831,0.7219446396791385,-5.0
0.2275090217590332,0.012114720437673556,0.7394517845342427,-5.0
0.23751544952392578,0.016022694772406962,0.7554888633868445,-5.0
0.24639320373535156,0.019735270390403698,0.7701466538154502,-5.0
0.2541677951812744,0.022666251141453746,0.7835016289141732,-5.0
0.26384997367858887,0.026574225476187156,0.7956173944593987,-5.0
0.2711918354034424,0.029700604943973877,0.8065637593739952,-5.0
0.2792794704437256,0.03321778184523394,0.8164059770865996,-5.0
0.28724217414855957,0.036344161313020665,0.8252221661495248,-5.0
0.29628515243530273,0.03986133821428073,0.8331179057441368,-4.928641929873665
0.3062567710876465,0.04396471126575081,0.8402029059094924,-4.708268807658232
0.31444621086120605,0.04709109073353753,0.8465801551476572,-4.425284506199084
0.32364892959594727,0.050608267634797595,0.8523456828375604,-4.122803008226381
0.3311638832092285,0.05412544453605766,0.8575797995071555,-3.8220412614924415
0.3391718864440918,0.05744722272058106,0.8623485159368133,-3.533113511398805
0.3481314182281494,0.06115979833857779,0.8667221883653893,-3.2604952186045058
0.35944056510925293,0.06584936754025787,0.870782514832877,-3.005800104068139
0.36757993698120117,0.0689757470080446,0.874611088016221,-2.7691987234438793
0.3771240711212158,0.07268832262604133,0.8782712129356425,-2.5501474027767377
0.38757967948913574,0.07698709439424807,0.8818185107517659,-2.347765183509146
0.39516592025756836,0.08011347386203481,0.8853100048545829,-2.1610298543509225
0.4037306308746338,0.08363065076329486,0.888786066228344,-1.9888801780958192
0.41260647773742676,0.08714782766455492,0.8922639018335261,-1.8302689584267642
0.42016148567199707,0.08988340969886832,0.8957409017689429,-1.6841900260145217
0.4281575679779053,0.09359598531686505,0.8992148408538513,-1.5496912069450648
0.43622279167175293,0.09691776350138845,0.9027009467886731,-1.4258796655118355
0.4441642761230469,0.10004414296917516,0.9062119285772665,-1.311923064363702
0.4535231590270996,0.1037567185871719,0.9097496725364853,-1.2070484314330572
0.4615178108215332,0.10727389548843196,0.9133239913563075,-1.1105397913481365
0.46913790702819824,0.11000947752274534,0.9169427498249325,-1.0217351650794564
0.4771726131439209,0.11372205314074207,0.9206035677244638,-0.9400232882697213
0.48630833625793457,0.11723923004200215,0.9243126091194951,-0.8648402539203826
0.49414968490600586,0.12036560950978886,0.9280745989715615,-1.0717045600013009
0.5047037601470947,0.12505517871146896,0.9318844503390062,-1.0411850771467224
0.5151000022888184,0.12896315304620237,0.9357461793953028,-0.9275324950714533
0.52410888671875,0.13248032994746242,0.9396715654671015,-0.7975746557006653
0.5341556072235107,0.13638830428219584,0.9436702633500295,-0.6774876170926956
0.5434997081756592,0.14010087990019257,0.9477590811629794,-0.8513040219393615
0.5516493320465088,0.14361805680145262,0.9519517035335467,-0.8004782107156347
0.5591254234313965,0.1465490375525027,0.956231893073375,-0.677368771521252
0.5677778720855713,0.1502616131704994,0.9605762811049289,-0.5462463723089624
0.575127124786377,0.1529971952048128,0.9649737087874367,-0.43090209935352425
0.5833718776702881,0.15651437210607286,0.9694051571288553,-0.3373829697220367
0.593505859375,0.16061774515754293,0.9738640326178046,-0.264611575234216
0.602799654006958,0.16452571949227635,0.978373174995257,-0.20917217751252815
0.6116459369659424,0.16843369382700976,0.9829521550598045,0.10870125749205459
0.6201372146606445,0.17156007329479647,0.9875983908567879,0.17333972508239412
0.6281139850616455,0.1748818514793199,0.9922998407387945,0.14207514762222082
0.636483907699585,0.17859442709731663,0.9970461319192573,0.08416515760169531
0.6441490650177002,0.18152540784836665,1.0018183920565515,0.02766826094942599
0.6530749797821045,0.18523798346636342,1.006600869403568,-0.017971228405763585
0.6629860401153564,0.1891459578010968,1.011400783405029,-0.051227474892871536
0.6730856895446777,0.1930539321358302,1.0162349607116496,-0.07356290064516226
0.6824660301208496,0.19715730518730026,1.0211181886981504,-0.08725533642025138
0.6922187805175781,0.20126067823877036,1.0260633309517255,-0.09451610258832158
0.7005846500396729,0.20458245642329373,1.0310814892351552,-0.09719213233995516
0.7080929279327393,0.2075134371743438,1.0361712637045541,-0.09671712572460628
0.7181951999664307,0.21181220894255054,1.0413205713897988,-0.37019549082599656
0.7282066345214844,0.2161109807107573,1.0465300840668375,-0.3994452466822942
0.7363646030426025,0.21923736017854403,1.0518113951925128,-0.06366423411015823
0.7443842887878418,0.22236373964633074,1.0571744499623958,0.050583904637912985
0.7520720958709717,0.22529472039738077,1.062616173685735,-0.2048540548818495
0.7600748538970947,0.2286164985819042,1.0681108260330485,-0.25230111739779437
0.7680964469909668,0.23213367548316424,1.0736364977421329,-0.22073255579177684
0.7764813899993896,0.23565085238442432,1.0791978600555936,-0.1670701992540728
0.7850682735443115,0.23877723185221103,1.0848107601428445,-0.11448464609947062
0.7930803298950195,0.24190361131999777,1.0904888263624215,-0.07086326298044461
0.801513671875,0.24542078822125782,1.0962436284072088,-0.03756604624973375
0.8105635643005371,0.2487425664057812,1.1020848297475256,-0.013468889719915281
0.8185405731201172,0.2520643445903046,1.108008047564916,0.0032490143612526334
0.8268287181854248,0.25577692020830134,1.1139969058361427,0.29041376888473125
0.835075855255127,0.25909869839282473,1.1200370641931905,0.3305777809860164
0.8445906639099121,0.2632020714442948,1.1261160265518984,0.2796094583562156
0.8520805835723877,0.2661330521953449,1.1322229708308897,0.20562519174245927
0.8630669116973877,0.27101802011376164,1.138360961491089,0.1358192995215568
0.8715882301330566,0.27414439958154835,1.144557130324073,0.0789921317828328
0.8804328441619873,0.27785697519954505,1.1508337123256993,0.03619336961634713
0.888268232345581,0.2811787533840685,1.1571837161288818,0.005609198420381628
0.896122932434082,0.2843051328518552,1.163587810588858,-0.015298192336934215
0.9040236473083496,0.2876269110363786,1.170028736131953,-0.028933677241044897
0.9125373363494873,0.29114408793763863,1.1764911777009452,-0.03728966220174003
0.9203433990478516,0.29407506868868866,1.1829738651816097,-0.0419105350917057
0.929023027420044,0.2973968468732121,1.1894751448831384,-0.0439478096246892
0.9380438327789307,0.3011094224912088,1.1959807039509611,-0.04423870961000793
0.9462711811065674,0.3046265993924689,1.2024779787455937,-0.043381141478428004
0.9543800354003906,0.3075575801435189,1.208956022503151,-0.041796130860492386
0.9649875164031982,0.31185635191172567,1.2154171603967996,0.2362618774697276
0.973283052444458,0.31537352881298575,1.2218747610355625,-0.004398692406478208
0.9811465740203857,0.3186953069975092,1.2283277245414426,-0.09026999220109985
0.9911422729492188,0.3227986800489792,1.2347628763959646,-0.10890036016210669
1.0010111331939697,0.3269020531004493,1.2411801986009325,-0.10103257383812303
1.0102777481079102,0.33041923000170936,1.2475906072649516,-0.0849148703499018
1.018479585647583,0.33335021075275945,1.2540025760653801,-0.06818407875333268
1.028026819229126,0.33745358380422946,1.26042247876123,-0.053616514244147005
1.0360639095306396,0.34057996327201623,1.26684379413253,-0.041869947942974294
1.0454607009887695,0.3444879376067496,1.2732493545900498,0.2432772083920109
1.0557193756103516,0.3487867093749564,1.2796353901472544,0.28332370883491925
1.0630083084106445,0.35171769012600645,1.2859986498593703,0.233439078490284
1.0718045234680176,0.35543026574400316,1.292325405183041,0.16127343485572018
1.0820541381835938,0.3595336387954733,1.2986150191301495,0.369747855692861
1.0923926830291748,0.36383241056368,1.30488865807072,0.34850290338368983
1.1000356674194336,0.3671541887482034,1.311164076870419,0.2531428190196513
1.10955810546875,0.3712575617996735,1.3174344738322352,0.14899836433482672
1.1174390316009521,0.3743839412674602,1.3236938822853646,0.060024808424817895
1.1251072883605957,0.37731492201851025,1.3299373209051455,-0.007879040157866491
1.1351053714752197,0.3814182950699803,1.3361500123575565,-0.0560021632686045
1.1463494300842285,0.3861078642716604,1.3423303114534195,-0.08794047342707564
1.1590461730957031,0.39099283219007713,1.3484982531031808,-0.10754370920374565
1.1681394577026367,0.3945100090913372,1.3546813714709705,-0.11815991172141034
1.1770215034484863,0.3980271859925973,1.3608816016229106,-0.12244729211062191
1.1863608360290527,0.40173976161059405,1.3670792640942184,-0.12241282199527065
1.1955087184906006,0.4058431346620641,1.3732683487316413,-0.11952431147538377
1.2030956745147705,0.4087741154131142,1.3794439397916396,-0.11483132520627362
1.2141172885894775,0.4134636846147942,1.3856021604970008,-0.10907098923466246
1.223038911819458,0.4169808615160543,1.391761264774477,-0.10275257862253616
1.230987548828125,0.420107240983841,1.3979262312063876,-0.09622193504907761
1.2390408515930176,0.42342901916836445,1.4040801221879278,-0.08970911152039482
1.2470293045043945,0.4267507973528878,1.410219507374241,-0.08336295317836162
1.2580103874206543,0.4314403665545679,1.416352458343608,-0.07727587567325883
1.266716480255127,0.434957543455828,1.4224860393414485,-0.3475398160942511
1.2740254402160645,0.437888524206878,1.4286263461589972,-0.3752297981356267
1.2819921970367432,0.44101490367466467,1.434757091389343,-0.31504711141327013
1.290574073791504,0.4443366818591881,1.4408432580159443,-0.23422357048925047
1.2988195419311523,0.44765846004371157,1.4468665925935396,-0.15929946444207452
1.3088035583496094,0.4515664343784449,1.4528232518603388,-0.09859896300079095
1.3183889389038086,0.45566980742991503,1.4587217104806438,-0.052828369960522335
1.3260126113891602,0.45879618689770174,1.464569970817599,-0.019927679663465304
1.336503267288208,0.4634857560993818,1.4703756271427344,0.27885526262849475
1.346036672592163,0.46719833171737857,1.4761566305961287,0.32709890819707615
1.3552663326263428,0.4707155086186386,1.4819178426419415,0.005539060985644467
1.3629822731018066,0.47384188808642536,1.4876529666756297,-0.09802924898389073
1.3720014095306396,0.47755446370442206,1.4933571931639291,-0.1105499540795002
1.3803560733795166,0.48107164060568214,1.4990380748286931,-0.09004779698861244
1.3900327682495117,0.4849796149404155,1.5047135885837648,-0.061727114557041274
1.4016509056091309,0.4898645828588323,1.5104105851168919,-0.03552907125314071
1.4114220142364502,0.4935771584768291,1.5161631806055613,-0.014565797121040143
1.4190123081207275,0.4967035379446158,1.5219889783635598,0.2769420084967906
1.4269680976867676,0.49963451869566583,1.527879962307888,0.3208170064050373
1.4372808933258057,0.5039332904638726,1.5338289671069263,0.2727681865512874
1.4452691078186035,0.5070596699316593,1.5398408762950733,-0.07506240476689818
1.4545366764068604,0.510772245549656,1.5459079646227045,-0.1763958056102076
1.4645748138427734,0.5150710173178628,1.5520234461961961,-0.17698701529315888
1.4725995063781738,0.5185881942191228,1.5581928354542172,-0.14290306539918624
1.480921983718872,0.5221053711203829,1.5644089220904283,-0.3784531874951784
1.4902684688568115,0.5258179467383796,1.5706537475063649,-0.37549115964500224
1.4989087581634521,0.529139724922903,1.5769237704334673,-0.29178511088806325
1.509507656097412,0.5334384966911098,1.5832277627111873,-0.19448221533217827
1.5172758102416992,0.5363694774421598,1.5895731978683123,-0.10895489867876793
1.5259032249450684,0.5396912556266832,1.5959544193093274,-0.3182004094905272
1.5350427627563477,0.5435992299614166,1.6023546873952579,-0.30274935909943057
1.5433769226074219,0.5471164068626767,1.6087719411348675,-0.2142487232659996
1.550978422164917,0.5502427863304634,1.6152045430794906,-0.11647025704939658
1.5589263439178467,0.5531737670815134,1.6216393302604268,0.24315376473274228
1.5679292678833008,0.5564955452660368,1.628077750328007,0.06376892673429801
1.5764622688293457,0.5600127221672969,1.6345336841000766,0.020179487664005326
1.5845887660980225,0.5635298990685569,1.6410068901601378,0.3043943662985949
1.5922505855560303,0.5668516772530804,1.6474850947730522,0.3604703162194215
1.600952386856079,0.570564252871077,1.653958284427246,0.32810545681476644
1.6092205047607422,0.5740814297723372,1.6604185426583324,0.26947471461245676
1.6169569492340088,0.5772078092401239,1.6668597497687427,0.21029250259237836
1.625983715057373,0.5807249861413839,1.6732773222220287,0.15965382754366814
1.6341934204101562,0.584242163042644,1.6796809412747382,0.1194716737284727
1.641939401626587,0.5873685425104307,1.68607947146915,0.08885746889064117
1.650635004043579,0.5906903206949541,1.692468265864668,0.06607455291593782
1.6583805084228516,0.5938167001627408,1.6988571144943025,0.04934917135545073
1.667957067489624,0.5981154719309476,1.705268038151208,0.03715994831651845
1.675903558731079,0.6012418513987344,1.7117069403767704,0.028301401319219
1.6859607696533203,0.6051498257334678,1.7181659257120885,0.02185883912092496
1.6972615718841553,0.6096439962184113,1.724665776777293,0.017156004776052163
1.7060861587524414,0.6131611731196712,1.7312377868752733,0.013701029268287476
1.7146527767181396,0.6166783500209313,1.7378812580475642,0.011139897301314114
1.723034143447876,0.6200001282054547,1.7445956846818396,0.009219519260558083
1.7328996658325195,0.6241035012569247,1.751394389193932,0.007759701580730926
1.7410869598388672,0.6274252794414481,1.758288521842405,0.006632433277281288
1.748889684677124,0.6305516589092349,1.7652729190496823,-0.27029152202729323
1.7578845024108887,0.6344596332439683,1.7723286652441348,-0.3041246010953835
1.765897274017334,0.6377814114284917,1.7794538418534034,0.026433721899369184
1.7749171257019043,0.6412985883297517,1.7866609834158778,0.135164430647882
1.7833125591278076,0.6446203665142752,1.7939458690850045,0.15018583977921018
1.7909257411956787,0.6477467459820617,1.8012752747329774,0.13037655662144873
1.7991681098937988,0.6510685241665852,1.8086210671400276,0.10155103566711438
1.8085002899169922,0.6549764985013187,1.8159893356355716,0.07408052269564833
1.8169569969177246,0.6582982766858421,1.82340051567936,0.051376753486840024
1.8250782489776611,0.6614246561536288,1.830872229374653,0.0339050708774923
1.8331263065338135,0.6647464343381523,1.8384041921995726,0.021030878998317123
1.8410060405731201,0.6678728138059389,1.8459808436071055,0.011830805043420909
1.850426197052002,0.671976186857409,1.853604318919111,0.0054198414510584075
1.8589205741882324,0.6749071676084589,1.8612759439162152,0.001060016380534635
1.8683886528015137,0.6788151419431923,1.8689811522524675,-0.0018236955191273027
1.8765668869018555,0.6819415214109791,1.8767233487738855,-0.003662309370669715
1.8851847648620605,0.6858494957457124,1.8845050895857398,-0.004771117306366633
1.8931939601898193,0.689171273930236,1.8923125270661172,-0.00537700082178575
1.900975227355957,0.6921022546812859,1.9001338219975243,-0.005641300796001093
1.9089057445526123,0.6952286341490728,1.9079433340499004,-0.005677698265339188
1.9178552627563477,0.6989412097670694,1.9157195780200011,-0.005565663229775145
1.9258739948272705,0.7022629879515929,1.923475876232172,-0.005360331625622487
1.933837890625,0.7053893674193795,1.9312235862516387,-0.005099647551635861
1.9420583248138428,0.7087111456039029,1.9389564937264776,-0.004809474185810511
1.9521489143371582,0.7126191199386365,1.946699375510683,-0.004507224517310169
1.9609453678131104,0.716331695556633,1.9544871750031452,-0.00420442702213917
1.9705450534820557,0.7202396698913666,1.9623170693798861,-0.003908531526610361
1.9782631397247314,0.72356144807589,1.9701844653390703,0.2724141834379089
1.985966444015503,0.7262970301102033,1.9780836330215996,0.3058088885482131
1.994866132736206,0.7300096057282001,1.9859929344031175,0.2509660738519804
2.0028696060180664,0.7329405864792501,1.9938925988991016,0.17511931968404998
2.010876417160034,0.7362623646637734,2.0017645947153344,0.10481874846196765
2.0199825763702393,0.7401703389985068,2.0096056471244035,0.048403331699037044
2.0288631916046143,0.743687515899767,2.0174245567684594,0.00659702387659512
2.039651870727539,0.7481816863847104,2.0252381802177455,-0.02264111666731132
2.0479576587677,0.7516988632859705,2.033057481039549,-0.04200536724412943
2.0578529834747314,0.7556068376207038,2.040864249765554,-0.0540069532350334
2.0668444633483887,0.7593194132387007,2.048629199303976,-0.06070937645220083
2.075847864151001,0.7630319888566973,2.0563259344088625,-0.06370349632755688
2.08426833152771,0.7665491657579574,2.063941217124223,-0.06417021779459464
2.094451665878296,0.7706525388094273,2.0714731251452703,-0.06296439728183503
2.102837562561035,0.7741697157106875,2.0789082675844823,-0.060693551381716185
2.111534595489502,0.7776868926119475,2.0862147077255027,0.21825545426745005
2.121596097946167,0.7813994682299443,2.093365258726621,0.2546370911526054
2.1318347454071045,0.7853074425646777,2.1003559290332174,-0.0730944804850179
2.1409332752227783,0.7890200181826744,2.107192050933271,-0.17888601321129421
2.1536824703216553,0.7944911822513011,2.1138846998714316,0.08507252964714437
2.163947105407715,0.7985945553027713,2.1204491124085076,0.14087924366622567
2.1720328330993652,0.8019163334872947,2.126888253900031,-0.15867111746730275
2.180417776107788,0.8052381116718181,2.1331954370757096,-0.23778947509624027
2.188958168029785,0.808755288573078,2.1393636771634883,-0.22804276594599993
2.196944236755371,0.8122724654743383,2.145379800946509,0.08724149283853852
2.2048017978668213,0.815398844942125,2.1512263331898636,0.16391957584358974
2.21286940574646,0.8183298256931749,2.1568893216733724,0.1472305995665099
2.220850944519043,0.8214562051609617,2.162357994216603,0.10188156849842422
2.22981858253479,0.8251687807789585,2.167629552932605,0.054697736868623226
2.238800048828125,0.828881356396955,2.1727077664927443,0.015231654625175301
2.2478044033050537,0.8327893307316886,2.177596145997232,-0.01443353654508406
2.2572436332702637,0.8366973050664219,2.182298054297476,-0.3111716117076293
2.266223669052124,0.840214481967682,2.186816817351651,-0.35775450221563576
2.274963617324829,0.8437316588689421,2.1911558235028044,-0.3106436200417353
2.282835006713867,0.8466626396199921,2.1953148493774886,0.037451672441925404
2.2907986640930176,0.8499844178045155,2.1992872552656975,-0.1362002999533159
2.29990291595459,0.8536969934225123,2.2030690161413284,-0.16718825360633827
2.3081836700439453,0.8572141703237723,2.206665790508739,-0.14434442298703576
2.317092180252075,0.8613175433752424,2.2100871812870397,-0.10677495257377445
2.325930595397949,0.8648347202765025,2.213342014453475,-0.0703207260945927
2.3337976932525635,0.8677657010275525,2.2164356274618213,-0.04030806248002072
2.3428335189819336,0.871087479212076,2.2193708551319937,-0.2936266511235513
2.3528037071228027,0.8753862509802827,2.222154537059151,-0.3104854916598276
2.3607828617095947,0.8785126304480694,2.2247940102931487,-0.2442752877036876
2.36940336227417,0.8818344086325928,2.227293928466155,-0.16096548672018868
2.378112554550171,0.8851561868171162,2.2296620430977647,-0.08604689184018255
2.3858802318573,0.8884779650016396,2.2319061155411615,-0.02703223565056699
2.3951804637908936,0.8921905406196363,2.2340311564335598,0.015972954432542867
2.402776002883911,0.8957077175208964,2.236042497909931,0.04546043486028312
2.4137349128723145,0.9002018880058399,2.2379479658516486,0.34048542595820996
2.4219446182250977,0.9033282674736265,2.2397595162064587,0.3848345623930593
2.431253671646118,0.9072362418083599,2.241487869209278,0.33542172295512285
2.439798593521118,0.91075341870962,2.243138290523515,0.26118090610383254
2.4495980739593506,0.9146613930443533,2.244713761697119,0.18991706485395143
2.4597818851470947,0.919155563529297,2.2462194080793783,0.13087293480696077
2.4689974784851074,0.9228681391472936,2.2476620837602166,-0.19062689842011096
2.4779510498046875,0.9263853160485537,2.249047969761833,-0.25722661729832397
2.48588490486145,0.9295116955163404,2.2503808095753732,-0.2260078333617342
2.4941465854644775,0.9330288724176004,2.2516623141245824,-0.1665109664663958
2.502788782119751,0.9361552518853872,2.2528943883279604,-0.1072148299709512
2.510793924331665,0.9394770300699106,2.254079062579119,-0.3340013763172587
2.5198168754577637,0.9431896056879073,2.255220074753787,-0.32977072653844164
2.5303478240966797,0.9474883774561141,2.2563241071487927,-0.24799911434685173
2.5398178100585938,0.9512009530741107,2.2573984880347795,-0.15381992920249887
2.548769474029541,0.9547181299753709,2.2584478204179406,-0.07169371159445989
2.5567684173583984,0.9580399081598941,2.259472923869212,-0.008192206339481381
2.5652315616607666,0.9615570850611541,2.260471656527777,0.03734516201543283
2.5732953548431396,0.9648788632456776,2.2614423958725562,0.06799783635697419
2.580779552459717,0.9682006414302011,2.262385438928601,0.0872176570649296
2.589498996734619,0.9715224196147245,2.2633012396899472,0.098057721083633
2.5967652797698975,0.9746487990825112,2.2641903952245124,0.10296319863183334
2.605515241622925,0.9783613747005078,2.2650535973238943,0.10379014021882824
2.615737199783325,0.982464747751978,2.2658929223356408,0.10190119264212336
2.6257529258728027,0.986568120803448,2.26671280745004,0.37431217416117873
2.635725259780884,0.990671493854918,2.267516998893384,0.40275954059197777
2.6457042694091797,0.9941886707561782,2.2683061252954717,0.06637414917668963
2.655754327774048,0.9984874425243848,2.269080680997896,-0.048332296007557715
2.665300130844116,1.0023954168591185,2.2698423120974778,0.20675445131024767
2.6735281944274902,1.0059125937603783,2.2705923572061715,0.2539287115289582
2.6817123889923096,1.0092343719449017,2.2713307865339365,-0.0538934627567155
2.6920669078826904,1.0137285424298452,2.2720575415945197,-0.1408531946068358
2.701733112335205,1.0176365167645787,2.272773668493261,0.13755572707274677
2.7132489681243896,1.022130687249522,2.2734799965101757,0.20302663166632012
2.722224235534668,1.0258432628675187,2.274178185458717,0.18505570330531385
2.7323451042175293,1.0297512372022521,2.274869570657196,0.14141031268194693
2.7407219409942627,1.033463812820249,2.2755531958677557,0.09609344567629965
2.7524023056030273,1.0381533820219289,2.276228204726844,0.057695446658538777
2.7607262134552,1.0414751602064523,2.276894811639308,0.028128597586392707
2.769195079803467,1.044601539674239,2.27755217016354,0.006685536949332419
2.7779834270477295,1.047727919142026,2.278199435687453,-0.008147708733934184
2.786710023880005,1.0516358934767591,2.278835952908258,-0.017936504817491296
2.7957820892333984,1.055348469094756,2.2794603509971583,-0.024025878816232905
2.8040108680725098,1.0592564434294893,2.280072338858836,-0.027478747298111554
2.8129723072052,1.0625782216140127,2.280672558455617,-0.029096871024386108
2.822328805923462,1.0664861959487462,2.2812616363901896,-0.029467600979127935
2.830740451812744,1.0700033728500062,2.281839360459854,-0.029012620236295736
2.8387811183929443,1.0733251510345296,2.2824039910910403,-0.028030055547097324
2.848257064819336,1.0770377266525264,2.2829541519412055,-0.026727935451591488
2.857057571411133,1.0803595048370498,2.2834903984915154,-0.02524958610791172
2.8654415607452393,1.08446287788852,2.2840133398100204,-0.023692382288367446
2.8770577907562256,1.0889570483734634,2.284523554441584,-0.02212134746592443
2.885237693786621,1.0922788265579866,2.2850223759824573,-0.02057889950709451
2.8948895931243896,1.0957960034592467,2.2855102636179203,-0.019091774836477216
2.9032399654388428,1.0993131803605067,2.2859876237553114,-0.017675916654110564
2.911689281463623,1.1024395598282934,2.2864548762214967,-0.01633990833573763
2.9197559356689453,1.1059567367295535,2.28691173406501,-0.015087374354012702
2.931009292602539,1.110450907214497,2.287359405786464,-0.013918652072951359
2.9406821727752686,1.1141634828324936,2.2878003025246954,-0.01283195056803992
2.9489588737487793,1.1176806597337539,2.2882357394919466,-0.01182414963213547
2.9586784839630127,1.1217840327852238,2.2886661259323575,-0.0108913470617541
2.969161033630371,1.1262782032701673,2.2890917984500865,-0.01002923028866927
2.9796876907348633,1.1301861776049007,2.2895130533418326,-0.009233325765729349
2.9886586666107178,1.1337033545061608,2.289930111145126,-0.008499163537475945
2.997677803039551,1.1372205314074209,2.290343093045169,-0.007822383189083331
3.006753921508789,1.141128505742154,2.2907520732475826,0.2688395602047949
3.0177040100097656,1.1456226762270976,2.2911571053443467,0.302538522453342
3.027905225753784,1.1497260492785677,2.2915587923263803,0.24797013967640513
3.038264274597168,1.1538294223300378,2.2919581646284795,0.17237202285273356
3.045970916748047,1.1571512005145612,2.2923549237083733,0.10229750958827163
3.054213047027588,1.1604729786990846,2.292747670351428,0.04608818407515346
3.0626718997955322,1.163794756883608,2.293135240866936,0.004470162656482136
3.0719261169433594,1.1677027312183414,2.293516692758129,-0.024595676726084315
3.081019401550293,1.171610705553075,2.2938917908593903,-0.04380205588966421
3.090343475341797,1.1757140786045446,2.294260898886456,-0.055658852150907774
3.097632884979248,1.1782542619221215,2.294623800512428,-0.062228385202161784
3.105677366256714,1.1815760401066449,2.294979306024523,-0.06510046759767157
3.1149826049804688,1.1852886157246416,2.295326512881275,-0.06545506961569622
3.123399019241333,1.1886103939091652,2.2956657691425475,-0.0641462077333909
3.1319267749786377,1.1919321720936886,2.295997916120989,-0.06178063973994005
3.139698028564453,1.1948631528447384,2.2963232168653183,0.2172554570580431
3.1476526260375977,1.1979895323125254,2.29664143969394,0.2537171805760958
3.1557366847991943,1.2013113104970485,2.296952434048009,-0.07394073741599189
3.167081594467163,1.2060008796987287,2.2972561554387356,-0.17966452702819316
3.174689292907715,1.2095180565999888,2.297552640385597,0.08435632672732864
3.185244083404541,1.2138168283681954,2.297842413484984,0.14022035783422038
3.1943304538726807,1.2173340052694557,2.2981268948160523,0.11676108184400316
3.205623149871826,1.2216327770376625,2.2984073337382496,-0.20522252925422302
3.2136390209198,1.2249545552221854,2.298684295545095,-0.2836530601188445
3.2248470783233643,1.2296441244238658,2.2989586724027373,0.010684498116191904
3.233612060546875,1.2333567000418626,2.2992312337224545,0.0929626713206338
3.24507474899292,1.237850870526806,2.2995017409996974,-0.1858290420982703
3.2556891441345215,1.2421496422950127,2.2997703820602466,-0.24964652527638775
3.2638792991638184,1.245471420479536,2.300037749149577,-0.22912122620976294
3.271716833114624,1.2485977999473228,2.3003030793879984,-0.18258790336855263
3.28029465675354,1.2519195781318462,2.3005652961552565,-0.1343302733713098
3.289625644683838,1.2556321537498432,2.3008243215641424,-0.09307440288880159
3.298720121383667,1.2595401280845764,2.3010805248847244,-0.060794821527082224
3.309030055999756,1.263838899852783,2.3013342240613133,-0.036809187862651874
3.320369243621826,1.2683330703377265,2.301586072498921,-0.019609765498598566
3.329159736633301,1.2716548485222499,2.301836639772446,-0.007628076236483592
3.3372650146484375,1.2751720254235102,2.302085618019841,-0.27554984075694644
3.3470711708068848,1.2790799997582434,2.3023327335095822,-0.3033504243686184
3.3608829975128174,1.2847465625436068,2.3025785047070957,0.03112868792964113
3.3690688610076904,1.2880683407281304,2.302823333414805,-0.1337394326383026
3.379612445831299,1.2919763150628636,2.3030667871273134,-0.150429186410935
3.3909950256347656,1.2966658842645435,2.303308853792816,0.16160905705703058
3.4016387462615967,1.3009646560327504,2.303549892513146,0.2422327810141045
3.410597324371338,1.3044818329340107,2.3037894651218016,0.23011572876465464
3.4213712215423584,1.3089760034189541,2.3040275312514793,-0.08836136191976596
3.4309046268463135,1.3128839777536871,2.3042647410963237,0.10816131795023945
3.439960479736328,1.3167919520884206,2.3045012625619705,0.1558383192693697
3.4486143589019775,1.3201137302729442,2.304736530005996,0.1446583220132876
3.4582924842834473,1.324412502041151,2.304969713028425,-0.16112368884828648
3.466655969619751,1.3275388815089375,2.3052001163320512,-0.22569712208220732
3.4751579761505127,1.3318376532771445,2.305427513023742,-0.19762407554064898
3.485797882080078,1.3353548301784044,2.3056523941484044,-0.14268125244773144
3.4950451850891113,1.3386766083629278,2.3058751689364545,-0.08781332266355438
3.5025858879089355,1.3418029878307145,2.306095526619466,-0.31837901499049925
3.5135724544525146,1.3464925570323945,2.306313217178276,-0.31718794423655683
3.522012948989868,1.3500097339336545,2.306528373365638,-0.23779124388301215
3.5307998657226562,1.3533315121181781,2.306740808253149,0.13059415073970673
3.539130449295044,1.3564578915859649,2.306950369677061,-0.03160316922738288
3.5475549697875977,1.3595842710537516,2.3071569453369585,-0.05741303478925883
3.5585508346557617,1.3642738402554317,2.3073601592781587,-0.03371330915848504
3.567678451538086,1.3685726120236386,2.307560350978977,0.0018301166764366425
3.5787770748138428,1.3730667825085818,2.307758442763341,0.034412001668278444
3.5868937969207764,1.3763885606931052,2.307954604003407,0.05943676834020578
3.5962517261505127,1.3802965350278384,2.3081483744127125,0.07656019602542205
3.6086230278015137,1.3851815029462553,2.3083396891382106,0.3630055786229843
3.6167995929718018,1.3885032811307787,2.3085288154748755,0.40135358138675614
3.624715805053711,1.3918250593153023,2.308715695090892,0.3477118643421965
3.6325643062591553,1.3947560400663521,2.3088997093524237,0.27046884138574734
3.643615245819092,1.3992502105512956,2.3090806540657245,-0.07898161348782035
3.653164863586426,1.4033535836027657,2.3092592449045015,0.10333722370631127
3.6631247997283936,1.4070661592207623,2.309436095175856,0.1449667875163147
3.6705610752105713,1.4101925386885492,2.309611173910272,0.13164518672252914
3.6795589923858643,1.413709715589809,2.309784181364863,0.10158067283643576
3.689035177230835,1.4176176899245425,2.309955159601359,0.07061823049900642
3.6988425254821777,1.4217210629760126,2.3101247271914107,0.044402100478283774
3.709235668182373,1.4260198347442192,2.3102936818528317,0.024162522521791917
3.717534065246582,1.4293416129287426,2.3104621401314294,0.009402963871497576
3.7275869846343994,1.4334449859802127,2.3106296387168124,-0.0009005479851531602
3.7390716075897217,1.4385253526153663,2.310796322529949,-0.00780073894569846
3.747581720352173,1.4418471307998897,2.310962592611065,-0.012200415427792547
3.7555253505706787,1.44477811155094,2.3111279734419,-0.014812582731160585
3.7648301124572754,1.4484906871689365,2.3112918003115976,-0.016175109298518328
3.7736122608184814,1.4520078640701966,2.3114540701968473,-0.01668227018951057
3.7829997539520264,1.4561112371216667,2.311615043163679,-0.01661745552110381
3.790560245513916,1.4588468191559802,2.311774660205826,-0.016181370043364604
3.802518367767334,1.4637317870743967,2.311932890534395,-0.015514415165280411
3.811497926712036,1.4672489639756567,2.3120902480455467,-0.01471366878513776
3.821526050567627,1.4711569383103904,2.3122471492786194,-0.013845419328127734
3.829909324645996,1.4746741152116503,2.312403672101142,-0.012954256245180859
3.8385636806488037,1.4781912921129103,2.3125598749092324,-0.012069584885606641
3.84660267829895,1.481317671580697,2.3127152954394474,-0.011210256400600267
3.8547773361206055,1.4846394497652204,2.3128690463890362,-0.010387837656555418
3.862523317337036,1.4879612279497438,2.3130209117457947,-0.00960890935863999
3.8713321685791016,1.491478404851004,2.3131712336153214,-0.008876674448581904
3.8795106410980225,1.4948001830355275,2.313320032511173,-0.008192079349018538
3.8880186080932617,1.4983173599367874,2.3134670829811856,-0.007554592385129979
3.8986122608184814,1.5024207329882575,2.3136124803233145,-0.006962741655449309
3.9077208042144775,1.506328707322991,2.313756557411857,-0.0064144845319774975
3.917318820953369,1.5100412829409877,2.313899591995684,-0.005907459588777524
3.9257700443267822,1.5135584598422478,2.3140418270518897,-0.005439156631781068
3.9336671829223633,1.5164894405932978,2.3141834637396324,-0.005007029836560121
3.941511869430542,1.5198112187778212,2.3143241857482937,-0.0046085714984741575
3.951157331466675,1.5239145918292911,2.314463500392507,-0.004241358629886931
3.959476947784424,1.5268455725803411,2.314601487995311,-0.0039030809438879432
3.9689738750457764,1.5307535469150746,2.3147382197739805,-0.0035915561757088434
3.9774022102355957,1.534075325099598,2.314873765272249,-0.0033047368789732214
3.986598253250122,1.5377879007175947,2.3150082017555884,-0.003040711567854506
3.9962270259857178,1.5418912737690649,2.31514159194268,0.2732406574883503
4.003579378128052,1.544626855803378,2.3152742201697323,0.30658890354121726
4.011546850204468,1.5481440327046383,2.3154058657479393,0.2516974503944469
4.01997447013855,1.5514658108891617,2.3155361154181606,0.17580182079854628
4.027930736541748,1.5549829877904218,2.315665099534304,0.10545339415967747
4.037067890167236,1.5583047659749452,2.3157931755947816,0.04899192720440872
4.045602321624756,1.5616265441594686,2.315920411366233,0.00714183686236388
4.053516864776611,1.564948322343992,2.316046400172776,-0.02213757508760603
4.062475204467773,1.5688562966787254,2.3161708204416485,-0.04154048942381213
4.070505142211914,1.5721780748632488,2.3162938722593824,-0.05357813193136818
4.078925848007202,1.5756952517645089,2.3164159610721495,-0.060314067250516794
4.0870521068573,1.5788216312322956,2.3165374383580937,-0.0633392563373837
4.097386837005615,1.5825342068502923,2.3166585969107802,-0.063834728134846
4.108807325363159,1.5872237760519723,2.316779670699462,-0.06265547458601076
4.1164891719818115,1.5901547568030223,2.3169006146800823,-0.060409151954920845
4.12569785118103,1.5942581298544924,2.3170209538657662,-0.057521124555779665
4.134534597396851,1.5977753067557523,2.3171403052307973,-0.054284939932486787
4.142788410186768,1.601097084940276,2.3172587838907384,-0.050900104482279496
4.150446176528931,1.6042234644080626,2.317376504675059,-0.04749972094756781
4.159578561782837,1.6077406413093227,2.3174933629394534,-0.04417040714985675
4.169659852981567,1.6120394130775293,2.3176094628189565,-0.040966502543220096
4.1796488761901855,1.615947387412263,2.317725096007177,-0.03792012354079507
4.187478542327881,1.618878368163313,2.317840302107752,-0.035048238310967365
4.201531648635864,1.624740329665413,2.3179551216882692,-0.03235761940980836
4.212474584579468,1.6290391014336199,2.3180700241452494,-0.029848294424819802
4.222963571548462,1.6333378732018264,2.318185594523105,-0.02751593829493143
4.233980417251587,1.6380274424035066,2.3183022864794456,-0.025353522541415006
4.2415783405303955,1.6409584231545566,2.318420049844777,-0.023352444311824795
4.252519130706787,1.6456479923562366,2.318538419850439,-0.021503292296852362
4.264827013015747,1.65014216284118,2.3186574002111504,-0.01979635989820276
4.275588274002075,1.6548317320428605,2.3187775853443373,-0.018221983052987445
4.28560996055603,1.659130503811067,2.3188992453371093,-0.016770756899946344
4.29549503326416,1.6632338768625372,2.319021960957153,-0.015433669156083782
4.305998802185059,1.6671418511972707,2.319145542372561,-0.014202176621374305
4.318186521530151,1.6718314203989504,2.3192704247412914,-0.2891066028849735
4.327632188796997,1.6757393947336838,2.3193969738703166,-0.32118731509809473
4.337444543838501,1.6798427677851542,2.319525058237146,-0.26512920828532527
4.345764636993408,1.682969147252941,2.319654328215854,-0.18815989154126125
4.355252265930176,1.6866817228709376,2.3197844666108343,-0.11682341668219746
4.363420486450195,1.690003501055461,2.3199149877751033,-0.05945276613314616
4.3724365234375,1.6939114753901945,2.320045287662099,-0.01676610142256092
4.381354093551636,1.697624051008191,2.3201750513648487,0.01328304677003783
4.3904337882995605,1.701336626626188,2.320304207932526,0.03339417992597743
4.398632049560547,1.7044630060939745,2.320432518372387,0.04608342678145905
4.4074273109436035,1.7079801829952348,2.320559591557388,0.053418868224220956
4.416991710662842,1.711888157329968,2.320685288809217,0.05699562403125506
4.425503730773926,1.7156007329479648,2.3208096836396015,0.05799855197191324
4.4355785846710205,1.7198995047161716,2.3209328458197818,0.05728616840722031
4.445438385009766,1.7238074790509048,2.321054856496884,0.05546937339415274
4.454766511917114,1.7277154533856383,2.321175613123209,-0.22306184321207503
4.463404655456543,1.7310372315701616,2.3212946576095197,-0.2590590706190457
4.475418567657471,1.735531402055105,2.321411803119518,-0.20701217144907574
4.484944820404053,1.7392439776731017,2.3215274837810793,-0.13401982830621983
4.492861032485962,1.742565755857625,2.3216420702458413,-0.3425817191402457
4.500699996948242,1.7460829327588854,2.321755499424035,-0.3220279737480165
4.508551359176636,1.7490139135099352,2.3218675623124714,0.04829849024827254
4.516440391540527,1.7521402929777221,2.32197810141232,0.18427179991407494
4.524775266647339,1.7554620711622455,2.3220869762501923,0.2167372034499992
4.533808946609497,1.7589792480635058,2.3221942671878057,-0.0689345715799059
4.544392108917236,1.7632780198317124,2.3223002557368897,-0.12590330631463087
4.55357813835144,1.7671859941664456,2.3224051921953657,0.17914359687984532
4.561816930770874,1.7707031710677057,2.322509121946443,0.2646125410392791
4.569832801818848,1.774024949252229,2.3226119056902292,-0.016075427172110773
4.578710079193115,1.7777375248702258,2.3227135964471177,-0.08510394240189018
4.5879552364349365,1.781645499204959,2.3228144315775663,0.20419691110952293
4.5987231731414795,1.7859442709731659,2.322914800481359,0.2754239365764875
4.6075053215026855,1.7892660491576893,2.3230152014144805,0.2595929673354751
4.6163904666900635,1.7927832260589496,2.323115705529174,0.21562209234621418
4.624494791030884,1.7957142068099994,2.3232158535504737,0.16835716884586557
4.633357524871826,1.7994267824279964,2.323315255530443,0.12699161116391916
4.642653703689575,1.8033347567627296,2.323413928030218,0.0938612059010178
4.65068244934082,1.806656534947253,2.3235120558824955,0.06855096224619799
4.6594555377960205,1.81036911056525,2.3236096387514915,0.04974514537665846
4.66934061050415,1.8142770848999832,2.323706514313896,0.03600991739267513
4.679343223571777,1.8185758566681898,2.3238027042602036,0.02608499333804233
4.691809177398682,1.8236562233033433,2.3238985701525032,0.018959702799004108
4.699385166168213,1.8265872040543936,2.3239944180813334,0.013862183020856518
4.7076921463012695,1.8297135835221803,2.3240901612034497,0.010219787989290166
4.717819929122925,1.8342077540071235,2.324185727437969,0.007615360726249092
4.725944519042969,1.8373341334749105,2.3242812179550727,0.005748615935902669
4.734343767166138,1.840460512942697,2.324376547101873,0.004405103020778848
4.742476224899292,1.8435868924104835,2.324471479298276,0.003432476986997633
4.750365734100342,1.8467132718782704,2.324565975670032,0.002722885751649811
4.7588324546813965,1.8500350500627938,2.324660006672731,0.002200139427103821
4.768378019332886,1.8541384231142637,2.3247533942894236,0.0018104772923312144
4.778348207473755,1.8584371948824707,2.3248461515162973,0.0015159783447744506
4.788251638412476,1.8627359666506773,2.324938455799137,0.001289885003456301
4.798374176025391,1.866643940985411,2.3250304622896367,0.0011132973821059977
4.809391021728516,1.8711381114703542,2.3251222906059827,0.0009728426820066668
4.821137189865112,1.8756322819552977,2.3252141847408936,0.0008590350634748694
4.829859972000122,1.8793448575732945,2.3253065053737734,0.0007651228319371852
4.837323904037476,1.882471237041081,2.3253994021907616,0.0006862787649772207
4.8453209400177,1.8857930152256044,2.3254925279348275,0.0006190316745839242
4.854322671890259,1.8895055908436014,2.325585264000454,0.000560867377781436
4.8643317222595215,1.8934135651783346,2.3256773849569257,0.0005099485483110006
4.873359441757202,1.8969307420795947,2.325769017767463,0.00046491795437444375
4.8829345703125,1.9008387164143281,2.325860287703715,0.00042476016960197314
4.890587329864502,1.9037696971653784,2.325951299224761,0.0003887042865018445
4.899338006973267,1.9072868740666384,2.326041988812835,0.2763945150607077
4.9083263874053955,1.910804050967898,2.3261321540405895,0.3094896089921886
4.916335105895996,1.913930430435685,2.3262217633276183,-0.021672850733298638
4.924402952194214,1.9174476073369449,2.326310788676407,-0.13090694150106097
4.932638645172119,1.9207693855214683,2.326399060319125,-0.1463547369204517
4.940433979034424,1.9240911637059919,2.3264864336461994,0.14912635241360603
4.950576066970825,1.9281945367574618,2.326572959384218,0.2107572597572701
4.959302186965942,1.9315163149419852,2.32665886205348,0.1828494489875374
4.96832799911499,1.9350334918432452,2.3267441805286,0.12921846164381962
4.978304624557495,1.9391368648947156,2.3268289359480363,0.0759438774987926
4.9869444370269775,1.9426540417959755,2.3269132886064865,0.03199489964127697
4.995889186859131,1.9461712186972357,2.326997375413245,-0.0009848659943341477
5.003324747085571,1.9492975981650225,2.327081170426118,-0.0241545714318471
5.013353586196899,1.953205572499756,2.327164646993652,-0.03947333859525946
5.023306608200073,1.9573089455512258,2.327248080117737,-0.04887985781021337
5.031785488128662,1.9608261224524859,2.3273315631573825,-0.05400883624125652
5.039391994476318,1.9637571032035361,2.327414737381709,-0.05613783460301046
5.0492918491363525,1.967860476255006,2.3274972926221076,-0.05622267567856051
5.057272434234619,1.9711822544395294,2.327579254892352,-0.05495850619534244
5.066385507583618,1.9752856274909993,2.3276607959467412,-0.05284064543972494
5.074316740036011,1.9782166082420496,2.327741923638679,-0.05021620189273211
5.0833070278167725,1.9819291838600464,2.3278225117506492,-0.047324688538082346
5.094335317611694,1.9862279556282532,2.327902733875909,-0.044328669980340074
5.103286504745483,1.989745132529513,2.3279828774510904,-0.04133630023334907
5.113686800003052,1.9938485055809834,2.3280630529825155,0.23762073962616173
5.122371673583984,1.9971702837655065,2.3281433519610903,0.27354675713437643
5.130832672119141,2.0002966632332932,2.3282236988164904,0.22110828103327382
5.140713453292847,2.004400036284763,2.3283040213013697,0.14752644907670803
5.149297714233398,2.008308010619497,2.3283843814065186,0.07934668721764991
5.157264947891235,2.0114343900872833,2.3284646889925242,0.02490838643647532
5.167050838470459,2.015342364422017,2.328544749603754,-0.015060787366365277
5.1753010749816895,2.0184687438898035,2.3286245332633966,-0.042596029811233053
5.183708667755127,2.0217905220743266,2.3287040058551556,-0.060384697936627166
5.193834543228149,2.0262846925592704,2.328783002028436,-0.07093050581203637
5.202316045761108,2.029606470743794,2.3288615016319874,-0.0762892431209082
5.211685419082642,2.033514445078527,2.3289396191449105,-0.07804411270124509
5.22096061706543,2.037617818129997,2.329017478717836,-0.07736858230029148
5.229512691497803,2.0405487988810473,2.329095191768208,-0.07511039089389675
5.2383222579956055,2.0440659757823076,2.3291727100230726,-0.07187031432025813
5.247338056564331,2.0475831526835675,2.329249862375508,-0.06806724149989535
5.255364656448364,2.0507095321513544,2.3293266416783567,-0.06398866082607074
5.2656755447387695,2.0552037026362977,2.329403179528871,-0.059828433021442015
5.274286508560181,2.0587208795375576,2.3294794451766734,-0.05571441692734978
5.283855199813843,2.062824252589028,2.329555397612644,-0.05172837105874638
5.291249990463257,2.0659506320568144,2.3296310988722295,-0.04792013986512002
5.299268484115601,2.0688816128078646,2.3297063174321075,-0.04431768724527382
5.309147357940674,2.072594188425861,2.3297809046823024,-0.3169725087556921
5.317260980606079,2.076111365327121,2.329855027278294,-0.34693572666531136
5.326723337173462,2.079823940945118,2.329928710172271,-0.28889600809261523
5.3363037109375,2.0837319152798512,2.3300019909710157,-0.21008013840438444
5.347257852554321,2.088226085764795,2.330075025595443,-0.13702840163680946
5.357289791107178,2.092134060099528,2.3301479359619743,-0.0780682048359464
5.36686897277832,2.096042034434262,2.33022081056336,-0.03391110283840397
5.374817371368408,2.0989730151853117,2.3302937270128345,-0.002503513513042916
5.383237600326538,2.1022947933698353,2.330366630719409,0.01886133292214693
5.392464876174927,2.106007368987832,2.330439295002104,0.03270675932904982
5.40421986579895,2.110696938189512,2.3305117258507906,0.04110782035753417
5.415248870849609,2.1157773048246655,2.3305842301740736,0.04566630029449197
5.425243616104126,2.1198806778761354,2.3306569924302702,0.04757336232841233
5.434245824813843,2.1235932534941324,2.3307299089129074,0.04769344566315882
5.4448535442352295,2.1276966265456023,2.330802884520167,-0.22939537500345147
5.45394229888916,2.131409202163599,2.3308758380637076,-0.26430748265317827
5.463672876358032,2.1349263790648587,2.330948450998506,-0.21143369846609217
5.474266529083252,2.139029752116329,2.3310205718658117,-0.13780167172152577
5.487693786621094,2.1446963149016924,2.3310925206253996,-0.06982195589433997
5.496875762939453,2.1484088905196894,2.331164773925065,-0.015740566718963858
5.5059027671813965,2.152121466137686,2.331237528593263,0.02377898413186893
5.513316631317139,2.1548570481719995,2.3313107361035614,0.05081556057100142
5.525520324707031,2.159351218656943,2.33138434569279,0.06808588299918261
5.534236431121826,2.1630637942749393,2.3314581926310343,0.07811307977854284
5.542736053466797,2.166385572459463,2.33153201099762,0.08296546575363833
5.55226993560791,2.170879742944406,2.331605683615935,0.08423402372535554
5.5635411739349365,2.1753739134293495,2.3316793379777776,0.083096754780691
5.572033882141113,2.17889109033061,2.3317530852210764,-0.19563463006772686
5.581195592880249,2.18240826723187,2.3318267579137335,-0.23240638187635804
5.5891852378845215,2.1857300454163933,2.3319000525111737,0.09454673725871135
5.597450017929077,2.189051823600917,2.3319727372960304,0.19932525167614157
5.605477571487427,2.19237360178544,2.33204477015234,0.21026372261502643
5.613270998001099,2.1953045825364903,2.332116128543136,0.18638422540416463
5.621257543563843,2.1986263607210135,2.3321866940474334,0.1535938362142215
5.629180431365967,2.2017527401888004,2.3322563706172996,0.12232118771854936
5.638192176818848,2.2052699170900603,2.3323250900901464,0.09601120068794765
5.6471898555755615,2.20878709399132,2.3323929353989366,0.07514595377667091
5.6573381423950195,2.213085865759527,2.3324602041998372,0.05909655865168262
5.665582895278931,2.2162122452273136,2.332527138685599,0.0469380941717302
5.67488431930542,2.2201202195620473,2.3325937109484003,0.03777936048066279
5.6832873821258545,2.223441997746571,2.3326598982197906,0.03087334717914124
5.691424608230591,2.226763775931094,2.3327256692459244,0.025634372204222832
5.699666261672974,2.230280952832354,2.3327908585986217,0.021619976349217813
5.707262277603149,2.233407332300141,2.332855362488822,0.018503190467085255
5.715169191360474,2.236729110484664,2.3329191360018284,0.016045586028244435
5.723281383514404,2.2400508886691877,2.332982125136622,0.014074635825164382
5.733166933059692,2.2435680655704475,2.333044285895072,0.012465973194712526
5.742204904556274,2.247085242471708,2.3331057192050637,0.011130021384062935
5.750789165496826,2.2507978180897044,2.333166627167324,0.010002153044811005
5.758270263671875,2.2539241975574913,2.3332270801651167,0.009035556731285909
5.766729116439819,2.2574413744587516,2.333287030878661,0.00819611662881587
5.775517702102661,2.2607631526432748,2.3333464319004227,0.007458761046279045
5.783971071243286,2.2640849308277984,2.3334052556663702,0.006804869107230738
5.793175220489502,2.2679929051625316,2.333463595217261,0.0062204335005081515
5.802438735961914,2.2715100820637915,2.3335216351117367,0.0056947603960789675
5.810180425643921,2.2744410628148417,2.333579512910696,0.005219549582503493
5.820018529891968,2.278349037149575,2.333637326966019,0.004788243086152232
5.829228162765503,2.282257011484308,2.3336951844385725,0.004395563097216754
5.837194204330444,2.2851879922353584,2.333753083501003,0.004037183284440263
5.846235990524292,2.2890959665700916,2.3338107958313796,0.003709494093377899
5.854433298110962,2.2924177447546152,2.333868127680738,0.0034094342997121143
5.8629677295684814,2.295934921655875,2.3339251324743544,0.003134369321114724
5.871537685394287,2.2992566998403987,2.333981965411458,0.0028820025871527334
5.879173278808594,2.302187680591449,2.334038664216147,0.002650310336340313
5.888488292694092,2.3059002562094455,2.33409526252724,0.002437493072690351
5.896982431411743,2.309417433110706,2.3341518827502306,0.002241938918164551
5.906158447265625,2.3129346100119657,2.334208528506476,0.002062195507131979
5.9146974086761475,2.316256388196489,2.3342650990604454,0.0018969480574348952
5.923531770706177,2.319968963814486,2.334321481630513,0.0017450019461143394
5.936211824417114,2.3248539317329024,2.334377779402926,-0.27443309107518776
5.946499824523926,2.3283711086341623,2.3344343015680318,-0.5837245686345843
5.955448865890503,2.3314974881019492,2.33449119781221,-0.8379084804551771
5.963612079620361,2.3344284688529995,2.334548484859657,-1.2920362707754132
5.972139596939087,2.336968652170576,2.3346060876269137,-1.7087572745622115
5.980139970779419,2.339508835488153,2.334663739317168,-1.7377128553924175
5.988104820251465,2.3422444175224664,2.3347212020990047,-2.167530574765326
5.997133255004883,2.3447846008400433,2.33477846879001,-2.618750169171089
6.005798578262329,2.3475201828743564,2.3348356400959385,-2.959704442370338
6.013243675231934,2.3494741700417228,2.334892712845233,-3.440893876603409
6.02340841293335,2.3520143533592996,2.3349496732783375,-4.110560673344502
6.031646728515625,2.3537729418099302,2.3350065976945387,-4.388315401673639
6.040145397186279,2.3553361315438233,2.335063461513982,-4.710479620450117
6.048133134841919,2.356508523844243,2.3351201389522456,-5.0
6.057148218154907,2.3580717135781364,2.3351765152447665,-5.0
6.067364454269409,2.359439504595293,2.3352325999375867,-5.0
6.078736066818237,2.3606118968957133,2.335288591739353,-5.0
6.086091756820679,2.3610026943291866,2.335344560284039,-5.0
6.09655499458313,2.361784289196133,2.335400383304998,-5.0
6.1064293384552,2.3619796879128696,2.335456170860326,-5.0
6.1151793003082275,2.3621750866296063,2.3355120056695844,-5.0
6.124400615692139,2.3621750866296063,2.3355678381620386,-5.0
6.134257793426514,2.361784289196133,2.335623834927018,-5.0
6.142143964767456,2.3615888904793962,2.335680048231969,-5.0
6.150454521179199,2.3610026943291866,2.335736314853606,-4.254795891844008
6.1581175327301025,2.3606118968957133,2.3357924852622167,-3.574753465405233
6.166860818862915,2.360025700745503,2.3358484141793534,-2.7259657602393013
6.175160884857178,2.359439504595293,2.335904071447916,-1.6753617905031657
6.184582233428955,2.358267112294873,2.3359594651983095,-1.0153217560179533
6.1935715675354,2.3574855174279263,2.336014516151121,-0.5942670541634789
6.2027740478515625,2.3563131251275062,2.336069242007678,-0.32303481811851786
6.21167254447937,2.35553153026056,2.3361237484284594,0.12833523658335977
6.219973564147949,2.35435913796014,2.336178121430282,0.5504093356603872
6.228107690811157,2.3531867456597197,2.336232444746955,1.152289505852351
6.237072706222534,2.351818954642563,2.336286697174083,1.4078441648579387
6.245402812957764,2.350451163625406,2.3363407605478805,2.0385092134295224
6.253559350967407,2.349278771324986,2.336394625417047,2.369632977972904
6.262103080749512,2.3479109803078297,2.336448281727785,2.512955338060298
6.270441055297852,2.3463477905739363,2.3365016310227524,2.814457293118206
6.279838562011719,2.3447846008400433,2.3365546889927304,2.799795859099533
6.288120746612549,2.34322141110615,2.336607476541214,2.9285562956312257
6.29707407951355,2.341658221372256,2.33665991910258,3.0438914159915464
6.307094097137451,2.339899632921626,2.336712141859862,3.372501574362994
6.315057992935181,2.3385318419044694,2.3367642550652374,3.6668803459911015
6.323365926742554,2.3373594496040493,2.3368159750221196,3.8503020803266197
6.332360744476318,2.3359916585868925,2.336867066145947,4.192980253844948
6.340067625045776,2.3352100637199458,2.3369176238268854,4.74755274444419
6.349026918411255,2.334037671419526,2.3369677348694853,5.0
6.364918947219849,2.3318882855354226,2.3370175479584128,5.0
6.376733779907227,2.330911291951739,2.3370675440130033,5.0
6.385442495346069,2.329934298368056,2.337118136615994,5.0
6.393417835235596,2.329152703501109,2.337169304876644,5.0
6.402125358581543,2.3283711086341623,2.33722083604077,5.0
6.4110448360443115,2.327589513767216,2.337272637377572,5.0
6.4205482006073,2.3268079189002693,2.337324722715467,5.0
6.4290571212768555,2.3262217227500592,2.3373770915757524,5.0
6.437100410461426,2.3256355265998496,2.3374296302364614,4.5922294371828265
6.4467058181762695,2.325049330449639,2.337482155393753,4.314487817849988
6.45462965965271,2.3244631342994295,2.337534611818933,4.079612572178124
6.463117361068726,2.323876938149219,2.3375869521542083,3.5781728849579633
6.47270131111145,2.323290741999009,2.337639036704834,3.3192732731902446
6.480299711227417,2.3228999445655356,2.337690816284274,2.871792852997122
6.4890758991241455,2.3225091471320622,2.3377422601981666,2.690187537770436
6.497176170349121,2.3221183496985893,2.3377931051575875,2.3203784061040595
6.505578994750977,2.321727552265116,2.3378430382104187,2.208425199366183
6.513941526412964,2.3215321535483793,2.337892044343353,1.8982332476643666
6.525813817977905,2.321141356114906,2.3379403799917364,2.112442811292932
6.535053730010986,2.3209459573981692,2.337988361807537,1.877383812675542
6.543014764785767,2.3207505586814325,2.3380361764418733,1.7958313006788527
6.554372072219849,2.320555159964696,2.338083966914002,1.4816145193665688
6.564020395278931,2.320164362531223,2.3381319154797993,1.1344016575516018
6.5730140209198,2.319968963814486,2.338179934850807,0.8289216816689986
6.581571340560913,2.319968963814486,2.3382277117025483,0.5849738302942777
6.5902886390686035,2.319773565097749,2.3382751355553117,0.4001697288087581
6.598009824752808,2.3195781663810124,2.3383221932253315,0.26472065732409683
6.607197046279907,2.3195781663810124,2.3383688690417825,-0.10831577848475213
6.615023851394653,2.3193827676642758,2.338415231141536,-0.2096402737818165
6.624552488327026,2.319187368947539,2.338461335803239,-0.47774454652094595
6.63301420211792,2.319187368947539,2.338507213877915,-0.46684080153905416
6.6434173583984375,2.318991970230803,2.3385528781748897,-0.6386044564577686
6.651895999908447,2.318991970230803,2.3385983322578188,-0.5528503065537477
6.660011529922485,2.3187965715140657,2.338643497699913,-0.6698728679786031
6.668168306350708,2.3187965715140657,2.338688303425517,-0.8219167693648866
6.677626132965088,2.3187965715140657,2.3387327580776023,-0.6704478400443015
6.685043096542358,2.3187965715140657,2.3387767901215755,-0.7180198614051623
6.6930787563323975,2.3187965715140657,2.3388202055534544,-0.8120281464900283
6.7020299434661865,2.318601172797329,2.3388628459860756,-0.617344636891338
6.7140161991119385,2.3187965715140657,2.3389047512140064,-0.6353224602642736
6.725155353546143,2.3187965715140657,2.3389460617034867,-0.4346992172113639
6.7358434200286865,2.318601172797329,2.3389868359950596,-0.4726268160215299
6.74607253074646,2.3187965715140657,2.3390270610465347,-0.2984516606667407
6.755001544952393,2.3187965715140657,2.3390667105517786,-0.3615296377389181
6.763157606124878,2.318601172797329,2.339105703316704,-0.4846799521560024
6.771632671356201,2.3187965715140657,2.3391439112390087,-0.597958840033026
6.779998302459717,2.318601172797329,2.3391814716603205,-0.6793606337871216
6.788591146469116,2.318601172797329,2.339224807480489,-0.7268793348149105
6.796976089477539,2.3187965715140657,2.339289249148183,-0.7457365747717681
6.805522680282593,2.318601172797329,2.3393814546210043,-0.742833109774724
6.814985513687134,2.3187965715140657,2.339491727288923,-0.724560358814662
6.824135780334473,2.318601172797329,2.3396117142832353,-0.696115796151147
6.832988739013672,2.318601172797329,2.339740333845653,-0.661446987471374
6.842357635498047,2.3187965715140657,2.339876300694554,-0.6234236813738647
6.85038948059082,2.318601172797329,2.3400166367533135,-0.5840635710898869
6.857963800430298,2.318601172797329,2.34015801650165,-0.5447426679587415
6.86703896522522,2.318601172797329,2.3402969362667236,-0.5063684491102212
6.8759849071502686,2.3187965715140657,2.340429262052641,-0.4695137427926036
6.8849687576293945,2.3187965715140657,2.340550244490025,-0.4345165487967716
6.892955780029297,2.3187965715140657,2.3406556853098976,-0.4015527420422019
6.9020678997039795,2.318601172797329,2.340742054144189,-0.37068817635817997
6.910245180130005,2.3187965715140657,2.340804915449514,-0.34191557566254094
6.918107509613037,2.3187965715140657,2.340840185837153,-0.31518039491738215
6.9290056228637695,2.318601172797329,2.340843710252087,-0.29039878299884936
6.937041997909546,2.3187965715140657,2.3408104311755493,-0.2674699411110245
6.946531534194946,2.318601172797329,2.3407370905516967,-0.24628453183844312
6.955412149429321,2.3187965715140657,2.3406205240783953,-0.2267303212476987
6.963980197906494,2.318601172797329,2.340458137114731,-0.20869589278977524
6.972318649291992,2.318601172797329,2.3402493066247145,-0.19207302487214784
6.9817798137664795,2.318601172797329,2.339991906009829,-0.1767581480543794
6.991106986999512,2.3187965715140657,2.3396825477524708,-0.16265317318948894
6.998992443084717,2.3187965715140657,2.339320403898723,-0.1496658938994807
7.007269382476807,2.318601172797329,2.338906969955076,-0.1377101049228921
7.015030145645142,2.318601172797329,2.338443967316061,-0.12670553447370195
7.024058818817139,2.318601172797329,2.337933313122752,-0.11657765836199563
7.033046245574951,2.318601172797329,2.337377079111538,-0.1072574423878393
7.042291879653931,2.3187965715140657,2.3367774934192225,-0.09868104470441003
7.052406311035156,2.318601172797329,2.336134877689777,-0.09078949953399329
7.062306642532349,2.3187965715140657,2.335447928689953,-0.08352839646073791
7.071578025817871,2.318601172797329,2.3347159472420733,-0.07684756456915812
7.0799782276153564,2.3187965715140657,2.33394090137209,-0.0707007672826482
7.088987827301025,2.318601172797329,2.3331270887263207,-0.06504541141601569
7.098216772079468,2.318601172797329,2.332276601155965,-0.05984227236425187
7.107596397399902,2.318601172797329,2.331389610295839,-0.0550552362783399
7.117069721221924,2.318601172797329,2.330466683977364,-0.050651059368415255
7.127973318099976,2.3187965715140657,2.3295065549456537,-0.04659914401362335
7.140119314193726,2.318601172797329,2.3285041164556466,-0.04287133106883112
7.147922039031982,2.318601172797329,2.32745738947724,-0.03944170758674338
7.1589086055755615,2.318601172797329,2.3263691356704204,-0.036286429082202226
7.166934967041016,2.318601172797329,2.32524185079792,-0.03338355542730746
7.17505145072937,2.318601172797329,2.324080096814498,-0.030712899463301135
7.183196544647217,2.3184057740805923,2.3228877217067954,-0.028255887435362476
7.190904855728149,2.3184057740805923,2.3216705582614408,-0.025995430390921656
7.198928356170654,2.3184057740805923,2.320438441189744,-0.023915805724919775
7.208930969238281,2.3184057740805923,2.319194707528335,-0.022002548102616593
7.219041109085083,2.3184057740805923,2.3179370521163682,-0.020242349039390577
7.229947328567505,2.3182103753638557,2.3166632843631465,-0.2946613241444086
7.238948345184326,2.3182103753638557,2.3153713520679293,-0.3262960924932339
7.247949600219727,2.3182103753638557,2.31405940995957,-0.2698281871703696
7.256027698516846,2.3182103753638557,2.3127258958239585,-0.19248218469052095
7.265070676803589,2.3182103753638557,2.311372275954825,-0.12079938918100834
7.272923469543457,2.318014976647119,2.310002524720441,-0.06311028479257962
7.280944585800171,2.318014976647119,2.3086171149343073,-0.02013075536142976
7.28997540473938,2.318014976647119,2.307216470139113,0.010187749405894436
7.298630475997925,2.317819577930382,2.30580381438814,0.03054663533280487
7.306542634963989,2.3176241792136456,2.3043789920719897,0.04346377604299527
7.314434051513672,2.317428780496909,2.3029390062715276,-0.22502950693273124
7.323871612548828,2.3170379830634356,2.3014843281455963,-0.5304228684867421
7.33402943611145,2.316451786913226,2.30001840647515,-1.0593466019045386
7.3426337242126465,2.3156701920462788,2.2985413167107893,-1.5470394464902384
7.3508546352386475,2.315083995896069,2.297053272738015,-2.1862681907215187
7.359898090362549,2.3141070023123858,2.295557602513526,-2.726602814946075
7.369341850280762,2.3129346100119657,2.2940514998398767,-3.3757490798251286
7.377776145935059,2.3119576164282822,2.29252989922799,-3.896085913710006
7.38847279548645,2.3103944266943888,2.2909915037283697,-4.229329081412114
7.3961334228515625,2.309417433110706,2.289438207686692,-4.388259937763024
7.404767751693726,2.307854243376812,2.287877631893498,-4.408206247899013
7.414353847503662,2.306095654926182,2.286313248188747,-4.3267112602531785
7.422516584396362,2.3045324651922887,2.2847420422970104,-4.176115687251272
7.430886745452881,2.302773876741659,2.283164492363294,-3.981769496388056
7.438994407653809,2.301015288291029,2.2815870049315636,-4.038518508559516
7.4524006843566895,2.297888908823242,2.2800088058150467,-4.392914001371544
7.462301731109619,2.2955441242224017,2.2784169817394946,-4.17102482994173
7.472271203994751,2.2930039409048253,2.2768036136556074,-4.031717000917096
7.48120379447937,2.290854555020722,2.275168112079986,-3.6210498879719086
7.488884449005127,2.288509770419882,2.2735132117422356,-2.8815408787295453
7.498874187469482,2.2857741883855685,2.2718444585692423,-2.418111359769485
7.507872581481934,2.2830386063512553,2.270166582918253,-2.1026137089654857
7.515905380249023,2.2804984230336784,2.2684867855649316,-1.5934249491742334
7.5256431102752686,2.2773720435658915,2.266807803353782,-1.3755307769380365
7.534857273101807,2.2746364615315784,2.265125364556315,-1.000288625617478
7.546184539794922,2.271119284630318,2.2634356599021905,-0.9097113299539239
7.555854797363281,2.2679929051625316,2.261731963266252,-0.6410509083498839
7.563916206359863,2.2652573231282185,2.260008493106521,-0.0823622297189247
7.572858810424805,2.262326342377168,2.2582670429880403,0.4645530454914834
7.581881284713745,2.2595907603428547,2.2565090907563032,0.8981887459645592
7.590828895568848,2.256855178308541,2.2547324615824063,1.7542560946881294
7.605431795120239,2.2525564065403345,2.2529316628201013,2.562642564754667
7.614213943481445,2.2500162232227576,2.2510984595586407,3.1713306518038875
7.623148441314697,2.247476039905181,2.249233112659819,3.8380475148392845
7.630833148956299,2.2453266540210777,2.2473430678779995,4.626755229266034
7.639848232269287,2.243177268136974,2.245434723111294,5.0
7.6489105224609375,2.2408324835361344,2.2435099824297065,5.0
7.656952619552612,2.2388784963687676,2.241570827462127,5.0
7.6649274826049805,2.236924509201401,2.2396228524590756,5.0
7.675908088684082,2.2339935284503505,2.2376632165209283,5.0
7.684767961502075,2.2318441425662474,2.235685572868555,5.0
7.693687915802002,2.229890155398881,2.233692087495375,5.0
7.701857089996338,2.2277407695147775,2.2316848382074985,4.928853561465621
7.7122790813446045,2.225591383630674,2.2296621027546584,4.6641577010242425
7.7219061851501465,2.2236373964633076,2.227622728032902,4.331461247800461
7.729822397232056,2.2218788080126775,2.2255697526478952,3.988103394839665
7.7382707595825195,2.220315618278784,2.2235097344405905,3.6586933224879683
7.747617721557617,2.218557029828154,2.221444777701053,3.352458029369388
7.7572340965271,2.216603042660787,2.2193732466124523,3.071640224503944
7.766130208969116,2.2148444542101573,2.21729407466344,2.8155025510864533
7.774085283279419,2.2134766631930005,2.2152102354972656,2.3061536476527627
7.784060478210449,2.2117180747423704,2.213128075368632,2.0604115357131265
7.792795181274414,2.210154885008477,2.2110495834748507,1.645478513795854
7.8013670444488525,2.208591695274584,2.2089730757815804,1.2351575508645563
7.809797286987305,2.207223904257427,2.206900813407466,1.1654991229519318
7.818361759185791,2.2058561132402703,2.204838314963116,0.9287447834646478
7.825794219970703,2.20468372093985,2.2027902720904096,0.6720239475513734
7.836211204528809,2.203120531205957,2.20076062714146,0.7256249309204671
7.844390392303467,2.201948138905537,2.198749330676093,0.5842194944086201
7.8546271324157715,2.200384949171643,2.196753030063014,0.6759167493781211
7.863815069198608,2.19882175943775,2.194769048771826,0.541101231889283
7.874804973602295,2.19706317098712,2.1927921709765017,0.352470335208981
7.882899045944214,2.196086177403437,2.1908182514182073,0.17812111277578044
7.891810655593872,2.1947183863862803,2.1888504261636994,0.03935948835920276
7.901083946228027,2.1933505953691235,2.186891662830394,-0.3380888943959022
7.9092864990234375,2.19237360178544,2.1849415205862943,-0.4405837942010896
7.917872905731201,2.1910058107682833,2.183002738659291,-0.4297826360030628
7.9259538650512695,2.1900288171846003,2.1810805833638534,-0.6554333352322254
7.936022758483887,2.1886610261674435,2.1791762667185584,-0.6304443399979267
7.9484803676605225,2.1869024377168134,2.177284747488412,-0.5219319401609497
7.9558234214782715,2.1857300454163933,2.1754019782317653,-0.400879176728973
7.964794874191284,2.1843622543992365,2.173533687067757,-0.5700162508294617
7.975312232971191,2.18240826723187,2.1716847064475777,-1.0696565732050125
7.983049631118774,2.1810404762147133,2.1698498394551464,-1.56795140139532
7.990795850753784,2.17947728648082,2.16802711140215,-2.2283599059637513
8.001174211502075,2.1773279005967163,2.1662204151841955,-3.0647894392650743
8.011781930923462,2.1749831159958766,2.164429850023296,-3.762198659219949
8.021223783493042,2.172833730111773,2.162652297259822,-4.513227562253876
8.029884576797485,2.17068434422767,2.1608878612521716,-4.8086294212370895
8.03982663154602,2.168144160910093,2.159139324980855,-4.84348946577434
8.050777673721313,2.165017781442306,2.157402573810107,-5.0
8.059553384780884,2.1624775981247297,2.155667585293485,-4.563180231418471
8.068778038024902,2.1601328135238895,2.153931681573979,-4.511920626289264
8.076731204986572,2.158178826356523,2.152195165782937,-3.988330951893408
8.0847647190094,2.156420237905893,2.150454687018017,-3.364273061906183
8.093769311904907,2.153880054588316,2.1487136663379367,-2.7860641288532646
8.103196620941162,2.1519260674209493,2.1469777881127845,-2.0230071279882904
8.11183762550354,2.149972080253583,2.145248049337927,-1.045095434237672
8.122340202331543,2.147431896936006,2.143520974520533,-0.1712626059796175
8.131770849227905,2.1452825110519025,2.141785462539966,1.0571604608499034
8.1417715549469,2.1427423277343256,2.140031242107073,1.8776369165929752
8.149748086929321,2.1411791380004326,2.138256491607529,2.3883323939758894
8.159071683883667,2.1392251508330657,2.1364630436593584,2.9496246265750314
8.169068336486816,2.1370757649489627,2.1346432762558925,3.1091296349623847
8.177566766738892,2.135512575215069,2.132785943135552,3.3476820096190636
8.186742305755615,2.1339493854811757,2.1308896833363535,3.2501521412356764
8.195696353912354,2.1319953983138094,2.12895271518906,3.299970999569971
8.205690860748291,2.1300414111464425,2.1269685462855668,3.3481709128290875
8.215740442276001,2.1280874239790757,2.124931235339919,3.0704751316220706
8.224779605865479,2.1265242342451827,2.1228354991352147,2.7037574336468957
8.233004570007324,2.1249610445112888,2.1206820357437994,2.3456059518838455
8.242224931716919,2.1233978547773957,2.1184767713819275,2.030114301853488
8.249798774719238,2.1218346650435023,2.1162250279874275,1.763941159524612
8.2597074508667,2.120076076592872,2.113931605461005,1.5430541798037307
8.270104169845581,2.1181220894255053,2.111590189277621,1.3602012204319758
8.27882695198059,2.116754298408349,2.1091905775587056,1.2080148632481595
8.286804676055908,2.1153865073911917,2.106740573065965,1.0801223814747318
8.297123193740845,2.1134325202238253,2.104247247840526,1.2474289902213689
8.304705619812012,2.1122601279234052,2.1017066724863382,0.9109555832136682
8.313014268875122,2.110696938189512,2.099121541225281,0.7413018511445919
8.322725057601929,2.1091337484556187,2.096494704976293,0.3726642816064516
8.333715677261353,2.1069843625715152,2.093818805217516,0.005523083236271986
8.343435525894165,2.1050303754041484,2.091083501525726,-0.291445732926353
8.350704908370972,2.1034671856702554,2.08829177504758,-0.7819359778308159
8.35985279083252,2.1015131985028885,2.0854628239948214,-1.5082021042029523
8.368180513381958,2.0997546100522584,2.082613750768967,-2.154299075146609
8.375733613967896,2.0978006228848916,2.0797496121516006,-2.3499332049825123
8.383731365203857,2.096042034434262,2.076880124716791,-2.887225336210467
8.393124103546143,2.0933064523999483,2.0740189988354767,-3.3977991349188574
8.400840282440186,2.091157066515845,2.0711684476371666,-3.7619870191823455
8.409775018692017,2.088812281915005,2.0683306820681047,-4.240737456432959
8.419077634811401,2.086272098597428,2.065508119634632,-4.338487243511934
8.427491664886475,2.0837319152798512,2.0626984489807043,-4.242920514768527
8.438120126724243,2.080410137095328,2.0599001060004554,-4.604425219571634
8.44671893119812,2.077479156344278,2.0571164919489497,-4.713129569750682
8.458528280258179,2.0731803845760712,2.054355036323315,-4.939259184048374
8.470727920532227,2.0690770115246013,2.051613312259879,-5.0
8.481669425964355,2.0651690371898677,2.0488805530564393,-5.0
8.490688562393188,2.0618472590053445,2.046151973726998,-4.740582882110898
8.50070071220398,2.057548487237138,2.0434277274574253,-4.049915137264564
8.510757207870483,2.0534451141856676,2.040707634393558,-3.5790509400904194
8.521272659301758,2.049146342417461,2.037986495192168,-3.2254790714486212
8.52968716621399,2.0458245642329373,2.035259298852377,-2.386071519421484
8.538406372070312,2.0425027860484137,2.032534896146393,-1.5210794539963377
8.546932220458984,2.038985609147154,2.029824586175931,-1.069983073918576
8.556707382202148,2.0350776348124207,2.027127508201896,-0.548991260171748
8.565666913986206,2.0313650591944237,2.02444199503543,-0.09789366627323476
8.576782703399658,2.0266754899927437,2.021764706835243,0.5222025296672681
8.584694862365723,2.023549110524957,2.019086190053218,1.0726315678806375
8.594036340713501,2.0196411361902236,2.0164030551003966,1.4831746852307892
8.602226734161377,2.0167101554391738,2.013710733768059,2.0289116072222817
8.609697580337524,2.01397457340486,2.0109979080259315,2.7661823395220044
8.61973524093628,2.0104573965036003,2.0082598539658356,3.6678896912084173
8.629717588424683,2.00694021960234,2.005497709857774,4.407206561222447
8.640670776367188,2.00283684655087,2.002704811173699,5.0
8.649719715118408,1.9999058657998199,1.9998678662708336,5.0
8.659003973007202,1.9971702837655065,1.9969745070106388,5.0
8.668614387512207,1.99404390429772,1.9940133848061232,5.0
8.684499740600586,1.9893543350960396,1.9909589177769396,5.0
8.698441743850708,1.9854463607613064,1.9877658347779463,5.0
8.711637020111084,1.9817337851433097,1.9843954579769993,5.0
8.721987962722778,1.978998203108996,1.980831454859911,5.0
8.73162579536438,1.9766534185081563,1.977085896920696,4.989245189991644
8.740687608718872,1.9743086339073164,1.9731872249610343,4.451051953663452
8.749669075012207,1.971963849306476,1.9691535314405062,3.7918676355186243
8.75861406326294,1.9694236659888995,1.9649940762977487,3.4495051575288143
8.768779516220093,1.9668834826713226,1.960718745547727,2.9567757613179673
8.777635335922241,1.9647340967872193,1.956338061694025,2.473765493584189
8.790662050247192,1.961803116036169,1.9518555833140272,2.3320099098450893
8.803053617477417,1.959067534001856,1.9472618718546884,2.29908777634461
8.810678482055664,1.9573089455512258,1.942566505860453,2.003837806191205
8.820091962814331,1.9551595596671225,1.93780238466742,1.380131353611727
8.82873010635376,1.953205572499756,1.9329919225340764,1.0286429231165446
8.838783025741577,1.9504699904654423,1.9281554186407095,0.5432094227704596
8.84709882736206,1.9485160032980757,1.923311720938639,-0.45171725743243696
8.85566258430481,1.9461712186972357,1.9184776299714053,-1.140205705542826
8.866596221923828,1.943044839229449,1.913668564013315,-2.1376024886692946
8.876670122146606,1.9401138584783988,1.908885599535675,-3.0193111370129095
8.886599779129028,1.9369874790106119,1.904130613257701,-4.488126908162988
8.896673202514648,1.9338610995428254,1.8994125535227018,-5.0
8.905653953552246,1.9307347200750387,1.8947396954922813,-5.0
8.913583517074585,1.9278037393239886,1.8901195826469788,-5.0
8.921642065048218,1.9252635560064117,1.8855644334909825,-5.0
8.929622650146484,1.9221371765386253,1.8810900404384034,-5.0
8.938645124435425,1.9182292022038918,1.8767092032073127,-5.0
8.948703527450562,1.913930430435685,1.8724319952158015,-5.0
8.958151578903198,1.9100224561009516,1.8682608044902693,-5.0
8.96634030342102,1.9067006779164282,1.8641914704739126,-5.0
8.977031469345093,1.902206507431485,1.8602145853898617,-4.9224153754010995
8.984665632247925,1.8992755266804349,1.8563264731690547,-4.687201305128113
8.99450135231018,1.8949767549122283,1.8525383933023174,-4.113636451359628
9.004709959030151,1.891264179294231,1.8488536930678323,-3.2146979704266734
9.014500856399536,1.8869654075260245,1.8452638707808806,-2.0671727576001837
9.028956651687622,1.8803218511569777,1.84175059710301,-1.032826334449802
9.036598682403564,1.8775862691226646,1.8382924053545129,-0.21905538596042207
9.046385526657104,1.8734828960711942,1.83488549020134,0.6477408037854285
9.056682825088501,1.8691841243029876,1.8315309555349326,1.359146955518797
9.065334796905518,1.8654715486849907,1.8282237080501238,1.8690405827165133
9.074119329452515,1.8615635743502574,1.8249586353896172,2.19473890085356
9.084033489227295,1.8576556000155238,1.8217310443966335,2.3729067822168437
9.092587232589722,1.8537476256807905,1.8185414271191502,2.441243084093278
9.102051973342896,1.849448853912584,1.815389336713626,2.4319348030094012
9.110586881637573,1.8461270757280606,1.8122737995261635,2.370210321982078
9.120583295822144,1.8420237026765904,1.809203749172696,2.2748929521043895
9.128583669662476,1.8390927219255402,1.8061808896879998,2.159570256868359
9.138147830963135,1.8349893488740703,1.8031956580943138,2.0338023158793543
9.147542476654053,1.8306905771058632,1.8002394599804978,1.9041612867552917
9.15555477142334,1.8275641976380768,1.7973098448436304,1.775054983344241
9.163549900054932,1.8242424194535536,1.7944096199931123,1.649350399460699
9.171571254730225,1.8209206412690302,1.7915357157426102,1.5288328354094558
9.183568477630615,1.8158402746338766,1.7886751079834462,1.4145378348889435
9.19158411026001,1.8125184964493533,1.7858168315224232,1.3069880959056022
9.199551582336426,1.8086105221146198,1.782961996998577,1.2063609243932372
9.20763373374939,1.8052887439300964,1.780116741494604,1.1126056511010685
9.216529607772827,1.8015761683120999,1.7772862639105116,1.0255253631481878
9.22855019569397,1.7964958016769463,1.77446992172004,0.9448333708277643
9.238107204437256,1.7925878273422127,1.7716621478943768,0.8701918877919592
9.246145486831665,1.7892660491576893,1.768858302840145,0.8012382478690602
9.253573179244995,1.7863350684066395,1.7660594631842355,0.7376024260395326
9.263879537582397,1.7818408979216962,1.7632714451991203,0.6789185186711559
9.272111415863037,1.7785191197371728,1.7604940800811704,0.6248320479351681
9.280523538589478,1.7750019428359125,1.7577220974934396,0.5750043966594487
9.289374589920044,1.771093968501179,1.7549507955956845,0.5291152862324021
9.299158573150635,1.766990595449709,1.7521758860281338,0.4868639335050715
9.306543588638306,1.7636688172651855,1.7493985292793923,0.4479693285730483
9.314532279968262,1.7603470390806621,1.7466296276331583,0.41216993942544145
9.323582649230957,1.7564390647459287,1.743877980623451,0.37922305442524046
9.332549333572388,1.7529218878446686,1.7411401014094057,0.34890390725752907
9.341554164886475,1.749209312226672,1.7384070904661322,0.3210046827466079
9.349522113800049,1.7456921353254118,1.735676128798267,0.5713718294740215
9.360009670257568,1.7411979648404683,1.7329440890534626,0.30483780855081977
9.369551181793213,1.737289990505735,1.7301966483926878,0.19488338159571109
9.381345272064209,1.7326004213040551,1.7274211839109674,0.4299386841192869
9.390510082244873,1.7288878456860584,1.7246180308307097,0.4502289881674253
9.401597261428833,1.7247844726345882,1.7217872502830893,0.668145416757894
9.409568786621094,1.7216580931668013,1.7189289410733761,0.9002755910178324
9.419544696807861,1.717750118832068,1.7160550193469888,1.0820745511817478
9.430626392364502,1.7138421444973346,1.713163572052466,2.0282552423972815
9.442782402038574,1.7099341701626012,1.7102291152854219,2.740415097093181
9.451579332351685,1.7068077906948147,1.707236306402668,3.2090248888724298
9.459532499313354,1.7042676073772378,1.7041907228485471,3.4716674012879505
9.46901822090149,1.701336626626188,1.701091621273075,3.576426363573952
9.477844476699829,1.6987964433086111,1.697926998538828,3.5675255035210913
9.486577987670898,1.6962562599910345,1.6946996779951802,3.756945397721515
9.494515657424927,1.6939114753901945,1.6914250187277406,3.37707473076342
9.504081726074219,1.6907850959224076,1.6881107239225732,3.121581392743806
9.51295256614685,1.6884403113215678,1.6847639211911454,2.9172223121531893
9.522505760192871,1.6860955267207276,1.6813972146095142,2.7331500200210996
9.531594038009644,1.6837507421198874,1.6780216812052224,2.557786009037498
9.540628910064697,1.681601356235784,1.6746469658703926,2.1118134348834907
9.552444458007812,1.6788657742014708,1.6712697096233347,1.9141362909379174
9.56551480293274,1.6757393947336838,1.6678699308704554,2.0870376570565448
9.573901414871216,1.6739808062830537,1.6644315000604142,1.7692928726113497
9.582505464553833,1.6720268191156873,1.6609589438836032,1.6087383819364196
9.591998815536499,1.6702682306650571,1.657468290966928,1.2339612988218978
9.600653409957886,1.6683142434976903,1.653967907518414,0.8466046511476546
9.610526323318481,1.6659694588968506,1.6504651867004416,0.24259753125093275
9.62085223197937,1.6638200730127473,1.6469667725351187,-0.31932085829612344
9.630465745925903,1.6612798896951704,1.6434729335214822,-1.0331286920357838
9.642202138900757,1.657958111510647,1.6399842042140036,-1.6478238940904526
9.65049123764038,1.6554179281930703,1.6365013217880204,-2.6461155729804773
9.661804676055908,1.6522915487252834,1.6330251747906799,-3.5464965115465783
9.670958757400513,1.6493605679742336,1.6295514678905487,-4.4777582149409945
9.679860591888428,1.64662498593992,1.6260768093306146,-4.912252342707189
9.687489032745361,1.6446709987725534,1.622609205721423,-5.0
9.698816776275635,1.6409584231545566,1.6191607533922538,-5.0
9.708569288253784,1.63783204368677,1.6157362048895338,-5.0
9.718927383422852,1.6343148667855099,1.6123286838295505,-5.0
9.729963541030884,1.63021149373404,1.6089267658642354,-5.0
9.738478660583496,1.627085114266253,1.6055258298192243,-5.0
9.750484228134155,1.6225909437813095,1.602127038502075,-5.0
9.759463787078857,1.6192691655967864,1.5987364976450598,-4.917641908321709
9.77129864692688,1.6149703938285795,1.5953589165746729,-4.886362297218609
9.780588626861572,1.6112578182105828,1.591986869740923,-4.542798375725037
9.792459726333618,1.606372850292166,1.5886135161440262,-4.109442470860818
9.802499771118164,1.6022694772406958,1.58523796913951,-3.6801978596251224
9.81043553352356,1.5989476990561724,1.5818647266546826,-3.289671186757106
9.823982954025269,1.5934765349875457,1.5784908745718718,-2.6702973439686204
9.833746671676636,1.589177763219339,1.5750954300674034,-2.0628721744679286
9.841515064239502,1.5858559850348157,1.5716718766574593,-1.5499507938774613
9.849474906921387,1.5827296055670288,1.5682382583810557,-0.8702769264229958
9.858418226242065,1.5794078273825054,1.564815718876454,-0.25560346989760224
9.869627952575684,1.574913656897562,1.5614087709265403,0.5004574988862562
9.878859281539917,1.5708102838460922,1.5580009719685566,0.8763498128830054
9.888556957244873,1.5665115120778854,1.554577223905969,1.0478920826243918
9.896895408630371,1.563189733893362,1.551130169184682,1.3845042615518808
9.90479302406311,1.5598679557088384,1.5476527829102456,1.6936985861023865
9.913679122924805,1.5561553800908419,1.5441456513432406,1.9149930568457783
9.92149043083191,1.553029000623055,1.5406232472300863,2.0429579085398673
9.93282437324524,1.5481440327046383,1.5370901112961688,2.092041806175624
9.941689729690552,1.5444314570866415,1.5335277349061116,2.081295594379791
9.951456308364868,1.5403280840351714,1.5299200289548942,2.0283503204555986
9.961873769760132,1.5356385148334912,1.5262527878124394,1.9475363467262763
9.969440221786499,1.5325121353657045,1.5225140528611822,1.8497328705075178
9.978742837905884,1.5289949584644444,1.518709380421119,1.7428446405226174
9.989490032196045,1.5246961866962379,1.5148437793752907,1.632425747835871
9.99904990196228,1.5207882123615046,1.5109140460299755,1.5222604623955729
10.00650429725647,1.517466434176981,1.5069257605064421,1.4148411171736046
10.015864133834839,1.5135584598422478,1.5028919644153098,1.3117375468879562
10.02346658706665,1.510432080374461,1.4988239967677124,1.2138724839234798
10.034005165100098,1.506133308606254,1.4947234927370339,1.1217221124725412
10.046452760696411,1.500857543254364,1.4905756454797932,1.3114981365936849
10.055495023727417,1.4971449676363673,1.486368061668244,1.2642206781881882
10.065840482711792,1.4928461958681607,1.4820986720585079,1.1344240673679353
10.075414657592773,1.4889382215334273,1.4777661128207675,0.9891045567175376
10.083755254745483,1.4852256459154307,1.4733780143897486,0.8545281246648218
10.091490745544434,1.4819038677309073,1.4689580140599652,0.738726148514551
10.10456132888794,1.476628102379017,1.46451789598477,0.6421072088512577
10.115481853485107,1.4721339318940736,1.4600424207205411,0.5623175189666383
10.124826669692993,1.4682259575593402,1.455510488740498,0.49635907836113335
10.132991790771484,1.4649041793748168,1.4509133575604196,0.44143009479827894
10.140493869781494,1.4617777999070298,1.4462698699023115,0.11915358246382109
10.149378776550293,1.4580652242890333,1.4416050672467178,0.32267057957625767
10.158416509628296,1.4543526486710365,1.436923647973829,0.3769144506456198
10.168398141860962,1.4500538769028297,1.4322216532401049,0.36826306621822924
10.177743196487427,1.4461459025680965,1.427488250268088,0.33658401576745967
10.185713052749634,1.4432149218170465,1.4227152647374768,0.29947006825353867
10.194392919540405,1.4395023461990497,1.4179214748756321,0.2640640930939489
10.203393459320068,1.435789770581053,1.4131318153541443,0.2327664511956516
10.21219801902771,1.4318817962463195,1.4083517899921765,0.20594504715378584
10.221372127532959,1.427973821911586,1.4035788129676645,0.1831897179037702
10.229677438735962,1.424456645010326,1.3988117571639513,0.16386890067948123
10.239971160888672,1.4201578732421194,1.3940508478523495,0.1473585247919042
10.247857093811035,1.416836095057596,1.38929749349447,0.1331217801358352
10.255427360534668,1.4135143168730726,1.38456825561795,0.1207246648593248
10.26458477973938,1.4098017412550756,1.379892057120486,0.10982666616734729
10.273369550704956,1.406089165637079,1.3752792955234785,0.10016408277299041
10.282802104949951,1.4021811913023456,1.3707182338668131,0.09153322495614252
10.290371656417847,1.3990548118345592,1.366199626421467,0.08377604706093658
10.30038070678711,1.3947560400663521,1.3617296162632748,0.07676874533596394
10.308347225189209,1.391434261881829,1.3573202418920531,0.07041306612144962
10.321178674697876,1.3863538952466754,1.352975491564842,0.06462983161255663
10.330374002456665,1.3822505221952053,1.3486865583737646,0.05935418087629591
10.343539714813232,1.3767793581265784,1.344440487522196,0.054532095584153506
10.351371765136719,1.373457579942055,1.34023864909102,0.05011786942351107
10.361655712127686,1.3691588081738484,1.3360940563178263,0.04607226244063492
10.373353481292725,1.3638830428219582,1.3320007564310161,0.04236114901053826
10.38342571258545,1.3593888723370147,1.32794251822642,0.038954520267908604
10.391852378845215,1.3560670941524915,1.3239279831123871,0.03582574081263802
10.400006771087646,1.352745315967968,1.3199806931796971,0.03295098803459682
10.40824842453003,1.3496189365001814,1.3161091458177223,0.030308823017992835
10.417370319366455,1.3457109621654482,1.3123091293971663,0.027879856737613735
10.428726196289062,1.3408259942470313,1.3085766190177242,0.025646485762673088
10.438335180282593,1.3367226211955612,1.3049076774411605,0.023592679132146945
10.447237253189087,1.3335962417277742,1.3012984871598583,0.02170380333075314
10.455609798431396,1.3296882673930412,1.297745461286191,0.2960048356973022
10.467390060424805,1.3251940969080978,1.294245070651269,0.32753140463728037
10.476315259933472,1.3210907238566276,1.290793736995505,-0.005074188279030223
10.484362602233887,1.3177689456721042,1.2873929930811414,-0.11563602472100191
10.494385004043579,1.3134701739038972,1.2840486391801793,0.1437329693211299
10.504303693771362,1.3091714021356906,1.2807598180977158,0.19517642660061463
10.513322353363037,1.3054588265176938,1.2775200341972417,-0.10848687263856552
10.524937391281128,1.3007692573160137,1.2743231700358126,-0.19145831847088235
10.533487558364868,1.2972520804147536,1.2711685585947656,-0.1853049129763451
10.543198823928833,1.2933441060800202,1.2680601224394006,-0.1493987934429167
10.55178952217102,1.2898269291787603,1.2649954592579131,-0.10894167717898176
10.559316396713257,1.2867005497109734,1.2619719396076428,-0.07339869193173362
10.567303657531738,1.28337877152645,1.258991840907907,-0.04531043976576161
10.57632040977478,1.2796661959084534,1.2560513686407258,-0.02441565428628268
10.584319353103638,1.2761490190071934,1.2531416330860836,-0.009514186469483519
10.593003749847412,1.272631842105933,1.2502546142777353,0.0007403244123980182
10.602341175079346,1.2685284690544634,1.2473830972862858,-0.2684970854780665
10.613123893737793,1.2644250960029932,1.2445206225057066,-0.2973154612735417
10.625084638595581,1.2591493306511032,1.241656247344809,-0.2396756311539976
10.634562730789185,1.2550459575996329,1.2387753401859551,-0.16227171887869601
10.644918441772461,1.2505517871146896,1.235870720036108,-0.0912632548550033
10.65226697921753,1.2476208063636394,1.2329416829057673,-0.034710574274550494
10.660813808441162,1.2441036294623793,1.2299931381910978,0.006858861618191211
10.670676708221436,1.2401956551276458,1.2270346959970526,0.035623193562397334
10.678610801696777,1.2370692756598594,1.2240693066592436,0.054371580643037
10.687331676483154,1.233161301325126,1.2210995470041108,0.06568018096457368
10.698277235031128,1.2286671308401824,1.2181329801278682,0.07165637371702895
10.707289218902588,1.2249545552221854,1.2151707877824438,0.07392017812472915
10.716598749160767,1.2208511821707155,1.2122087678534263,0.07367142851038516
10.724298000335693,1.2177248027029288,1.209243546448095,0.07177684178552034
10.734287977218628,1.2138168283681954,1.2062776926004601,0.0688509448874591
10.745602130889893,1.2093226578832519,1.2033137294406593,0.34136103486422065
10.753385543823242,1.2060008796987287,1.200348932534924,0.3706499034220833
10.762853622436523,1.202288304080732,1.197381461254725,0.5876472144946447
10.774039506912231,1.1981849310292618,1.1944053739800198,1.0928437480579332
10.782247543334961,1.1958401464284218,1.1914210991205503,1.857777324588172
10.790276527404785,1.1931045643941083,1.1884394270304957,2.2626771618392096
10.80056619644165,1.1897827862095849,1.185460341766848,2.999639759380085
10.808316707611084,1.1874380016087451,1.182484090137039,3.391469635410182
10.817270278930664,1.1848978182911682,1.1795253318616037,3.8330598227217845
10.825685501098633,1.1825530336903283,1.1765919298509597,3.884735617125695
10.833272933959961,1.180403647806225,1.1736857573208768,3.754423748670896
10.841282367706299,1.1782542619221215,1.1708174313887705,3.8212563824766637
10.850292205810547,1.1759094773212815,1.1679956431646934,3.616977909318898
10.859527349472046,1.1733692940037048,1.1652138697160201,3.320810834706986
10.867268800735474,1.1710245094028648,1.1624618355920935,3.0114776445866673
10.876253128051758,1.1688751235187615,1.1597440052892216,2.7205405396603592
10.8871328830719,1.1663349402011847,1.157063941582671,2.7341968973054103
10.8978431224823,1.1635993581668713,1.1544111447251186,2.5344889194994016
10.905465841293335,1.1618407697162412,1.1517808859508085,1.9975699147486543
10.914365768432617,1.1594959851154014,1.1491820444882663,1.4301127312474686
10.925650358200073,1.1569558017978245,1.1466174895225372,0.9434777662787888
10.933967590332031,1.1546110171969846,1.1440763006978931,0.2879681061476126
10.941947937011719,1.152461631312881,1.1415490305256188,-0.5768663473534079
10.950093746185303,1.1501168467120408,1.139031963192402,-1.3378624419860858
10.959235429763794,1.1477720621112009,1.1365218902842003,-2.18081733745779
10.96724247932434,1.145427277510361,1.1340203061451144,-2.863831728610566
10.977020502090454,1.1424962967593109,1.1315326614685874,-3.6072449219889418
10.986718654632568,1.1399561134417342,1.1290591069734235,-4.185571083878225
10.995610237121582,1.1370251326906842,1.1265952902230876,-4.550630397862479
11.003251791000366,1.1348757468065809,1.1241416520108534,-4.447010592711329
11.011696100234985,1.132530962205741,1.1217026699826265,-4.15879974706473
11.021841049194336,1.1292091840212175,1.1192775843468097,-4.0920434097653615
11.029815912246704,1.1268643994203773,1.1168611829372606,-4.06017460732346
11.037298440933228,1.124715013536274,1.114453165371411,-3.720834208603155
11.048235893249512,1.1210024379182773,1.1120530505004518,-3.578350980813412
11.058239698410034,1.1176806597337539,1.1096514945955076,-3.483387363573656
11.068917989730835,1.1137726853990204,1.1072404287563298,-3.379967499843614
11.076881647109985,1.1112325020814438,1.1048217505609825,-2.9768765291756396
11.086224794387817,1.1083015213303935,1.1024014228274792,-2.5181562281504712
11.09677767753601,1.105175141862607,1.0999753783786486,-2.0984622652072376
11.104438304901123,1.1028303572617668,1.097535585821922,-1.4698567292243987
11.11307978630066,1.1004855726609268,1.0950887224410664,-0.599740078130255
11.12341022491455,1.0975545919098768,1.0926402260852932,0.19001786925942554
11.13429307937622,1.0946236111588266,1.0901807938927068,1.3536428089785262
11.143194675445557,1.09266962399146,1.0877070778860507,2.1242821082946475
11.152435779571533,1.0901294406738833,1.0852254157845407,2.8725055389100387
11.160315990447998,1.0883708522232534,1.082741120578728,3.4368785415200067
11.168214082717896,1.0864168650558865,1.080258573736127,3.5175399336393434
11.178856134414673,1.0838766817383099,1.0777717947935035,3.6609484031530695
11.188199758529663,1.0819226945709433,1.0752708765722225,3.75338244154233
11.196385145187378,1.080164106120313,1.0727569764726639,3.7667996565170823
11.204752922058105,1.0782101189529465,1.070231102045918,3.4309842279502645
11.214194774627686,1.076646929219053,1.0676941886339844,3.281387368534026
11.223196029663086,1.074888340768423,1.0651518880011068,3.180799643250916
11.23266863822937,1.0733251510345296,1.062604159729269,2.80089657156481
11.240591526031494,1.0715665625838997,1.0600461553751002,2.369624783098537
11.248214483261108,1.070198771566743,1.0574786875596964,1.9753184102403913
11.257542133331299,1.0680493856826394,1.0549073429278835,1.6441292911283136
11.266035556793213,1.0662907972320095,1.0523319635733792,0.8243835895028158
11.275190830230713,1.0641414113479062,1.0497475021939184,-0.006818251457195945
11.28604006767273,1.0617966267470662,1.0471496283044075,-0.9597371601616856
11.294299602508545,1.0596472408629627,1.044534600338209,-1.7592775261041733
11.302148580551147,1.0576932536955959,1.0419041734227186,-2.612444361113574
11.310168743133545,1.0555438678114926,1.0392697745426898,-3.289427888177384
11.320454597473145,1.0526128870604428,1.036635689007207,-3.7415803852825067
11.329209327697754,1.0502681024596026,1.0339950547693844,-3.9905293516675266
11.337681770324707,1.047727919142026,1.0313468289373955,-4.078860125327544
11.345714807510376,1.045773931974659,1.028689534747872,-4.049742672430714
11.353265285491943,1.043429147373819,1.0260161295249193,-3.9397422945638905
11.36204719543457,1.0412797614897158,1.0233256488308162,-4.053359138795306
11.370226621627808,1.0389349768888756,1.0206223380874608,-3.8927148587941667
11.378620624542236,1.036394793571299,1.0179036637461758,-3.627568331684773
11.386873006820679,1.033854610253722,1.0151671406911993,-3.335619101177161
11.395160675048828,1.0311190282194087,1.01241595383477,-3.326520684436293
11.404982566833496,1.0276018513181489,1.0096463477526956,-3.3703106806958774
11.414158821105957,1.0246708705670988,1.0068548034881957,-3.1063285588052025
11.4221830368042,1.0219352885327855,1.0040439715183131,-2.7561244753237197
11.430168867111206,1.0191997064984721,1.0012158170452903,-2.4116222023676257
11.441166400909424,1.0152917321637385,0.9983652594839384,-2.3815102375126136
11.450172662734985,1.0119699539792153,0.9954747435020671,-2.1537367426597984
11.45987844467163,1.0080619796444819,0.9925292547160202,-2.1557867179364547
11.467197895050049,1.0053263976101683,0.989529301886082,-1.9295425549982932
11.477385997772217,1.0012230245586982,0.9864822990863281,-1.6496195598533108
11.485190153121948,0.9982920438076482,0.9833949260931696,-1.385801915096971
11.494155645370483,0.9947748669063883,0.9802799610554603,-1.160665922688327
11.50450587272644,0.9908668925716548,0.9771417941505154,-0.9768332698210599
11.513684272766113,0.9873497156703948,0.9739643368962652,-0.8295064970930248
11.521428346633911,0.9842233362026079,0.970734614351138,-0.43593426694436577
11.530209302902222,0.9809015580180845,0.9674558739951996,-0.03261851203113797
11.53911805152893,0.9771889824000878,0.9641383832051357,0.021557726888447815
11.54810619354248,0.9736718054988278,0.9607850076986542,0.22879722321938117
11.557501316070557,0.9695684324473578,0.9573924184275413,0.44320201745524745
11.565854549407959,0.9660512555460977,0.9539588166446116,0.8898970621808671
11.57317328453064,0.9629248760783109,0.9504900830677703,1.0398003846415067
11.585123777389526,0.9580399081598941,0.9469922322533127,1.0531775366496285
11.593139171600342,0.9547181299753709,0.943464861031189,1.007413472450621
11.60117483139038,0.951591750507584,0.9399147094144868,1.2152505068401247
11.61135196685791,0.9472929787393772,0.9363483929738314,1.1746366926802412
11.62222933769226,0.9427988082544339,0.9327601656356106,1.323681049344402
11.63131856918335,0.9388908339197005,0.929146068464743,1.2135543769769344
11.639139652252197,0.9359598531686504,0.925515547838871,1.302374408166055
11.647381782531738,0.9326380749841271,0.9218831292295071,1.4227509790763944
11.655203104019165,0.929707094233077,0.918267140827464,1.789382555233838
11.66309404373169,0.9265807147652902,0.9146831501928474,1.868137293269443
11.673187255859375,0.9224773417138202,0.911127097898797,1.5407762820050952
11.681095838546753,0.919155563529297,0.9075898473073712,1.4023936359010052
11.689119100570679,0.9156383866280366,0.9040806104141687,1.3343260025075614
11.69912576675415,0.9113396148598301,0.9006071570386311,1.2858207415215364
11.708101272583008,0.9076270392418332,0.897164672949709,1.237400715139784
11.716439485549927,0.9041098623405732,0.8937544398349782,1.1833591307315015
11.724223613739014,0.9011788815895231,0.8903774235398676,1.1235749961074697
11.733457565307617,0.8974663059715264,0.8870288087893087,1.0598178459391734
11.741531372070312,0.894144527787003,0.8837098492314046,0.9941774291464534
11.749211311340332,0.8908227496024795,0.8804321982048733,0.9284721505414608
11.757620334625244,0.8873055727012196,0.8772053747736284,0.8640883235613447
11.765740156173706,0.8835929970832228,0.8740263864715311,0.801993871247978
11.776134014129639,0.8800758201819627,0.8708872048517771,0.7428106170617687
11.784128427505493,0.8767540419974394,0.8677861265336511,0.6868958595632058
11.793334007263184,0.8728460676627059,0.8647318158886128,0.6344146116080969
11.801525831222534,0.8697196881949194,0.86173132839308,0.5853974154980468
11.810087442398071,0.8663979100103958,0.8587851366797306,0.5397841423570788
11.819083213806152,0.8630761318258724,0.8558933267976324,0.49745604460073756
11.827096223831177,0.8601451510748225,0.8530508970866799,0.7342969990353618
11.83755898475647,0.856237176740089,0.8502487177335937,1.0072190429443877
11.845560312271118,0.8531107972723023,0.8474793190699282,1.5038557404849329
11.855057716369629,0.8499844178045155,0.8447367361400014,2.236159674754934
11.863073110580444,0.8474442344869388,0.8420163278472749,2.878376795643434
11.87306022644043,0.8447086524526255,0.8393145983729347,3.6110625477852474
11.882561922073364,0.8415822729848388,0.8366247677429457,4.190336155710306
11.890087604522705,0.839628285817472,0.8339456796663608,4.283826674144531
11.899099588394165,0.837283501216632,0.8312892953377791,4.4277642788491605
11.907331943511963,0.834938716615792,0.8286616086398602,4.5074645290929
11.916367053985596,0.8327893307316886,0.8260592204000061,4.497247729304744
11.926063060760498,0.8302491474141118,0.8234791816597877,4.406051858614335
11.935393571853638,0.8280997615300084,0.820918870499334,3.9771969605425728
11.943518877029419,0.8261457743626417,0.8183758718626702,3.7494102824398245
11.953049898147583,0.8241917871952751,0.8158519683125739,3.5846541166173695
11.965067863464355,0.8216516038776983,0.813348297128837,3.4284815978559924
11.974425315856934,0.8198930154270683,0.8108571753723528,2.9875656531600345
11.982215404510498,0.8185252244099116,0.8083716787784562,2.502885566967408
11.990022897720337,0.8171574333927549,0.805893891723561,2.0661680167858814
12.000038385391235,0.8152034462253882,0.803429404290291,1.4270383618542584
12.008039712905884,0.8138356552082315,0.800982563132161,0.8270421832879006
12.01809811592102,0.8118816680408648,0.7985565879836914,0.3437217518393288
12.026029825210571,0.8101230795902348,0.7961492880105819,-0.290361227762877
12.03654932975769,0.8079736937061315,0.7937538614419118,-1.1250680066916576
12.045129537582397,0.8060197065387646,0.7913639578240065,-1.852280544926806
12.053334474563599,0.8038703206546614,0.7889782599724978,-2.660520548533491
12.063026428222656,0.8017209347705582,0.7865997839685863,-3.5853979084008474
12.07205080986023,0.7995715488864547,0.7842260869670414,-4.053042664029825
12.081228733062744,0.7974221630023514,0.7818500791015591,-4.512007865234898
12.089043378829956,0.7952727771182478,0.7794701014219837,-4.826830767303653
12.099060535430908,0.7927325938006711,0.7770842806957441,-4.977501528449811
12.108081340789795,0.7901924104830944,0.7746859042824361,-4.9869578372597525
12.116138458251953,0.7878476258822544,0.7722738238227735,-4.889302899696368
12.124414920806885,0.785698239998151,0.7698465106597612,-4.717040944141528
12.132381677627563,0.7835488541140476,0.7674023841304574,-4.496880809019149
12.14101243019104,0.7812040695132076,0.7649447140288272,-4.249165316040996
12.150416612625122,0.7786638861956309,0.7624704166313203,-3.712614598027994
12.158034801483154,0.7765145003115275,0.7599764535074444,-3.416490558478569
12.16635251045227,0.7739743169939507,0.7574650335793143,-3.213049590207084
12.176005125045776,0.7708479375261642,0.7549316636103571,-3.039549759776153
12.186057567596436,0.7675261593416408,0.7523660200885368,-2.8721813463945014
12.194039344787598,0.764985976024064,0.7497645885847244,-2.704121071688494
12.202038764953613,0.7624457927064873,0.7471297796864022,-2.5353200169698615
12.210012912750244,0.7599056093889106,0.7444632023757288,-2.367928791280125
12.220912456512451,0.7559976350541772,0.7417590749482045,-2.2043807179233115
12.229045867919922,0.7534574517366005,0.7390053436005758,-1.7706533452618058
12.239004373550415,0.7501356735520771,0.7361980205821517,-1.587126958565362
12.25004768371582,0.7462276992173437,0.7333329230116941,-1.4999897793192698
12.257999897003174,0.7434921171830302,0.7303990841315868,-1.166407751898398
12.267051458358765,0.7401703389985068,0.7273866927642224,-1.0788925352311223
12.27614164352417,0.7366531620972468,0.7242870783316514,-0.7982536526918124
12.284208297729492,0.7339175800629335,0.7210926700922597,-0.4991712935918861
12.292114734649658,0.7309865993118833,0.7178049962740095,-0.24498572774533564
12.30164122581482,0.7280556185608333,0.7144334889429499,-0.05061235810426927
12.309047222137451,0.7253200365265199,0.7109865196142797,0.088177892424079
12.31804370880127,0.7219982583419965,0.7074715037293109,0.18164209628863925
12.327031135559082,0.7186764801574732,0.703886660703829,0.24057340923779164
12.336723804473877,0.7151593032562131,0.7002224276808178,0.27430130094093985
12.344677209854126,0.7120329237884264,0.696470949472973,0.2902137759679717
12.354021310806274,0.7085157468871662,0.6926260537907297,0.5699221109372312
12.362449169158936,0.7053893674193795,0.6886918746387171,0.5985507041538325
12.371299028396606,0.7018721905181196,0.6846813542595698,0.5337095793650546
12.380413055419922,0.6983550136168594,0.6805975289474739,0.44468650413610744
12.388988733291626,0.6950332354323361,0.6764437956914662,0.3594549871091798
12.39766263961792,0.6917114572478126,0.6722325404116856,0.28732488021315156
12.406381845474243,0.6881942803465526,0.6679662650684,0.5057086088055964
12.413971662521362,0.6852632995955026,0.6636478410391397,0.49403802100853444
12.422989845275879,0.6815507239775059,0.6592891947442004,0.40457889876335174
12.431530714035034,0.6782289457929824,0.6549010881557126,0.30221415486718045
12.441009998321533,0.6745163701749858,0.6504932411607485,0.2115165322813415
12.44909119606018,0.6711945919904623,0.6460744107017192,0.4153084323401098
12.460643291473389,0.6665050227887822,0.6416441389467397,0.3941834368124473
12.469458103179932,0.6627924471707854,0.6371860032187259,0.29991874881445907
12.478238821029663,0.6594706689862622,0.6326873241440675,0.19641434557479112
12.487940549850464,0.6553672959347919,0.628147286026616,0.10724361849609167
12.49767255783081,0.6514593216000585,0.6235666666420027,0.31438220954287105
12.50597882270813,0.6477467459820617,0.618947569427174,0.29776512253393284
12.516661167144775,0.643447974213855,0.6142931821509684,0.2086827722523235
12.526504755020142,0.6395399998791217,0.6096075414149025,0.38672642016203895
12.53582501411438,0.6356320255443884,0.6048952618949963,0.6123156293446241
12.545965671539307,0.6313332537761815,0.6001613261406082,0.8030047719603242
12.555602073669434,0.6270344820079748,0.5954182771759949,0.6605507391022263
12.565346002578735,0.6231265076732413,0.590684726289837,0.7060026207941097
12.576303720474243,0.618632337188298,0.5859621051124536,0.7948523180000509
12.585294246673584,0.6151151602870378,0.5812373428409269,1.1472948011949513
12.592952251434326,0.6117933821025145,0.5765142479702986,0.9518058326997914
12.60295295715332,0.6074946103343077,0.5718106917959352,0.8816425304606407
12.612446308135986,0.6037820347163111,0.5671345024655086,0.8545854098159289
12.620940208435059,0.600264857815051,0.5624848440898981,0.8362943076492607
12.628922462463379,0.5967476809137909,0.5578678126789814,0.814265641152392
12.637924671173096,0.5932305040125309,0.5532952161639504,0.785447737881798
12.64618468284607,0.5897133271112708,0.5487763752505304,0.750493729136926
12.65524435043335,0.5861961502100108,0.544318332346353,0.7111992313412159
12.663923263549805,0.582483574592014,0.539926082075936,0.6694386598762357
12.672940492630005,0.5785756002572806,0.5356027969892255,0.6267852573495555
12.681999444961548,0.5750584233560204,0.5313426908485233,0.5844270866128165
12.692033529281616,0.5707596515878138,0.5271249377915981,0.5431989079131279
12.699918270111084,0.5672424746865538,0.5229309373567336,0.5036495537074027
12.709933757781982,0.5627483042016103,0.5187515716198802,0.7421497233219061
12.718453168869019,0.5592311273003503,0.5145785302655417,0.739922651021261
12.726510047912598,0.5561047478325636,0.5104120024654746,0.3756871190702296
12.73392915725708,0.5529783683647768,0.5062594165433207,0.23561972843214665
12.742909669876099,0.5496565901802534,0.5021267556733654,0.4675582064556661
12.752626895904541,0.5455532171287834,0.49801108895038404,0.49356520520750846
12.76132321357727,0.5416452427940499,0.4939020553587259,0.4423981554086639
12.77073860168457,0.5379326671760531,0.48979085104375003,0.37079402357331137
12.780743598937988,0.5338292941245831,0.485670194118482,0.3017644080880273
12.78894591331482,0.5307029146567964,0.48153424951258267,0.24305824091258282
12.798260927200317,0.5269903390387995,0.47737864628500254,0.1959136969653968
12.805933952331543,0.5236685608542763,0.4732078744800379,0.15909849468396395
12.815043449401855,0.5197605865195428,0.46904112432025147,0.13069504691623826
12.82490611076355,0.5156572134680728,0.4648948137052423,0.10882849861484922
12.832941770553589,0.5121400365668127,0.4607681354358423,0.0919155341354398
12.841901302337646,0.508427460948816,0.45666050139790365,0.07870810048812699
12.849952220916748,0.5051056827642926,0.45258604790031154,0.06825876295595112
12.858902215957642,0.5011977084295592,0.44855667814979827,0.059863801348464724
12.872165441513062,0.49611734179440575,0.4445542513657219,0.05300702587795918
12.881929159164429,0.4920139687429357,0.440543110427738,0.047312249372448635
12.892600774765015,0.4879105956914656,0.4365083439236206,0.042505897077274084
12.899869203567505,0.4847842162236789,0.4324526006881239,0.03838875354890703
12.907984972000122,0.48165783675589213,0.4283857469053435,0.034815127471288114
12.916401624679565,0.4779452611378954,0.4243235250468743,0.03167772143795221
12.926889657974243,0.4736464893696886,0.4202735595084154,0.028896752747897207
12.937226295471191,0.4695431163182186,0.41624264963140534,-0.24962617977809884
12.946295976638794,0.4660259394169585,0.41224317760702134,-0.28498479364338486
12.95600700378418,0.46192256636548845,0.40827988280850164,-0.23190654274171743
12.965399026870728,0.4576237945972817,0.40435106542109184,-0.15765361054362714
12.975628852844238,0.4535204215458116,0.40045574612820356,-0.08879864475910569
12.985878705978394,0.44902625106086824,0.39658809926975824,-0.30973704360048293
12.993858098983765,0.44589987159308153,0.3927437915890788,-0.026217046190885995
13.00405216217041,0.44199189725834814,0.38892551414431126,0.09014600017933218
13.01287293434143,0.4382793216403513,0.3851361099755557,0.1294937775023503
13.020843267440796,0.434957543455828,0.38138353486801985,0.13501263517073497
13.030876159667969,0.4310495691210946,0.377674904875505,0.12696984613126253
13.039057493209839,0.4275323922198345,0.3740161397666192,0.11456469861584789
13.048885822296143,0.42323362045162777,0.3704172024583727,0.10173707331566853
13.058858871459961,0.4191302474001577,0.3668813881263039,0.08998981409611428
13.06833028793335,0.4154176717821609,0.3634017075840201,0.07974253423698341
13.077833414077759,0.41150969744742755,0.35996763032661716,0.07096832049442309
13.085846900939941,0.4081879192629041,0.3565796335148064,0.0634839148064753
13.093926668167114,0.4046707423616441,0.3532562547407149,0.0570750574151018
13.104521751403809,0.40017657187670064,0.3500170921520208,0.0515453087906516
13.113569974899292,0.39685479369217724,0.3468644217089256,0.04673074172231172
13.122091054916382,0.39314221807418054,0.3437905879182129,0.04250046195742283
13.129835605621338,0.3902112373231304,0.34079295688351074,0.038752070316001724
13.137914180755615,0.38688945913860706,0.33787308835680974,0.03540601621843523
13.146193742752075,0.38356768095408367,0.33502755969194215,-0.24363796678483673
13.153826236724854,0.38063670020303364,0.33225285856629355,-0.27947631084493985
13.161865711212158,0.37731492201851025,0.32954965465184094,0.049198921614866165
13.170161962509155,0.3741885425507235,0.32691404680926045,0.15617048480870827
13.178246021270752,0.3702805682159901,0.3243384002255269,0.16955482367432545
13.18840765953064,0.36617719516452,0.32181613106899076,0.14822639403763843
13.197038650512695,0.36266001826325994,0.31934164355032346,0.11799413784585824
13.205402612686157,0.35894744264526324,0.3169102676630872,0.0892230485255727
13.213149785995483,0.3558210631774765,0.3145216668679309,0.06531828532639919
13.222032308578491,0.35210848755947977,0.31217908544097117,0.04673856472221987
13.22982144355774,0.3487867093749564,0.30988506076446026,0.032842791971699495
13.241276502609253,0.3444879376067496,0.3076382719150149,0.02270133374899245
13.250585794448853,0.34057996327201623,0.30543105236187207,0.015423225861624344
13.259004354476929,0.33706278637075615,0.30326019949351196,0.01026487857051914
13.267330408096313,0.3335456094694961,0.3011295736505171,0.006646001633767768
13.277547836303711,0.32944223641802606,0.29903940178125965,0.004130668749555829
13.285709142684937,0.3263158569502393,0.29698690955487295,0.002399022273270518
13.293811321258545,0.3229940787657159,0.2949727103716859,0.0012199473835725263
13.305352926254272,0.31791371213056246,0.2929975239391652,0.00042818540516542414
13.313810348510742,0.31420113651256576,0.2910592245040642,-9.356526472401665e-05
13.322108745574951,0.31087935832804237,0.28915863104280615,-0.0004281168828650496
13.331840515136719,0.3069713839933089,0.28729651151782915,0.27540467148232123
13.340823888778687,0.30345420709204884,0.28547102153572673,0.3084118977963125
13.351839542388916,0.29896003660710546,0.2836785212084776,0.25325697735671154
13.360008001327515,0.29544285970584544,0.28191611125215493,0.1771541968175942
13.368192672729492,0.292707277671532,0.2801860919901617,0.10663988326711704
13.376297235488892,0.28938549948700865,0.27849268337427413,0.050043097062297356
13.383837461471558,0.28606372130248525,0.27683930440423304,0.2841189865557106
13.394720792770386,0.2819603482510151,0.2752266239513545,0.2878692711028613
13.402902603149414,0.2784431713497551,0.27365499854127817,0.21328772554002928
13.411923885345459,0.274925994448495,0.272126615500404,0.4011327313110135
13.422811508178711,0.27121341883049827,0.270639432169363,0.9090133024178874
13.433456897735596,0.26750084321250156,0.2691897378630034,1.4125398574235704
13.441519737243652,0.26476526117818816,0.2677780764574922,1.8020438955045872
13.448777914047241,0.2626158752940848,0.266406600349878,2.3352407488330096
13.457428932189941,0.2596848945430347,0.26507692869876565,2.7853763975527537
13.466119527816772,0.2573401099421947,0.26378867064823625,3.365854408039832
13.476781845092773,0.25440912919114467,0.2625383665213095,4.389698303484326
13.48576831817627,0.25186894587356795,0.2613231524690447,5.0
13.495743989944458,0.24932876255599123,0.26014352315062134,5.0
13.503774404525757,0.2473747753886245,0.25899993011285655,5.0
13.51213264465332,0.24581158565473116,0.25789256108678255,4.745300315478676
13.521127700805664,0.24405299720410112,0.25682270206759894,4.662656578736331
13.528786897659302,0.24268520618694442,0.25578669920709335,4.31912692853638
13.539263010025024,0.2409266177363144,0.25476505199356353,4.181071484277223
13.546753406524658,0.2397542254358944,0.2537344561546413,3.533159691571637
13.556313037872314,0.2383864344187377,0.25269157146502325,3.3538561983388204
13.564308643341064,0.23740944083505436,0.25164280819250356,3.0432276071917554
13.572804689407349,0.23623704853463434,0.2505923441946562,2.98885139522661
13.58135986328125,0.23526005495095098,0.24955517204907013,2.4393769935313614
13.588888168334961,0.2344784600840043,0.24855611374786335,2.3576853065000902
13.601147413253784,0.2331106690668476,0.2476045658266047,2.413848850448541
13.609813451766968,0.2325244729166376,0.2466923011432078,1.9226877998595016
13.617980241775513,0.2317428780496909,0.2458126047600457,1.3255365758430504
13.625783681869507,0.2311566818994809,0.24496459011613403,0.7918088096359327
13.63495421409607,0.23076588446600757,0.24414935960049614,0.3704099667071428
13.64307451248169,0.2303750870325342,0.24336718113879977,0.06080189762998692
13.651750326156616,0.22978889088232424,0.24261722089111842,0.12132472776479643
13.661109209060669,0.22959349216558755,0.24189919847498237,0.2880744729870892
13.671599864959717,0.2292026947321142,0.24121327539311563,0.45388993959951185
13.681233167648315,0.22900729601537753,0.24055855906893658,0.3064145908892511
13.688791751861572,0.22900729601537753,0.23993396388416488,0.08240294080942448
13.698810338973999,0.22881189729864085,0.23933828930307394,-0.4007183797646411
13.706745386123657,0.22881189729864085,0.23876955895803922,-0.5946329830929404
13.717148542404175,0.22881189729864085,0.23822585046182673,-0.9274820127172926
13.725754976272583,0.22881189729864085,0.23770531125497726,-1.2306968278277304
13.736448526382446,0.22881189729864085,0.23720677689685152,-1.4519902490597612
13.743880033493042,0.22881189729864085,0.2367290923352419,-1.8634737081188606
13.752704381942749,0.22881189729864085,0.2362710669786779,-2.2356548176396003
13.76377820968628,0.22881189729864085,0.23583154579476936,-2.4976383019883706
13.772772789001465,0.22881189729864085,0.23540829217952794,-2.6443896293816334
13.782746315002441,0.22881189729864085,0.23499983944764433,-2.9704591341566084
13.79253077507019,0.22881189729864085,0.23460593655926532,-3.2566703765313774
13.802018404006958,0.22881189729864085,0.2342257440171416,-3.436587077843688
13.811583518981934,0.22881189729864085,0.23385796544518836,-3.506853718750424
13.820274591445923,0.22881189729864085,0.23350145431447825,-3.4863801338092912
13.829736709594727,0.22881189729864085,0.233155199054777,-3.39874161567823
13.8377103805542,0.22881189729864085,0.2328192484137662,-3.2653424081167977
13.84736967086792,0.22881189729864085,0.23249407248578177,-3.1033699990980423
13.857776403427124,0.22881189729864085,0.23217866146181407,-2.925731336934411
13.866826057434082,0.22881189729864085,0.2318717038949411,-2.741690711026018
13.875675678253174,0.22881189729864085,0.23157253922629814,-2.5576560831820885
13.88680386543274,0.22881189729864085,0.23128060862130947,-2.377898093007076
13.895718097686768,0.22881189729864085,0.2309954598269147,-2.2051364211786306
13.905065059661865,0.22881189729864085,0.23071707062721145,-2.040990644451031
13.912768602371216,0.22881189729864085,0.2304461418477476,-1.8863149957907424
13.921698808670044,0.22881189729864085,0.2301832512437403,-1.7414413216640936
13.932474613189697,0.22881189729864085,0.22992781185742786,-1.6063525855613667
13.941728830337524,0.22881189729864085,0.22967863268336683,-1.4808052283351265
13.950816631317139,0.22881189729864085,0.22943507378137606,-1.3644145302400803
13.95970869064331,0.22900729601537753,0.22919698538432554,-1.2567135346604532
13.968726873397827,0.22881189729864085,0.22896454769782315,-1.1571932500349993
13.978715896606445,0.22881189729864085,0.22873818298304335,-1.0653296894152031
13.987713098526001,0.22881189729864085,0.22851796025596258,-0.9806017141700059
13.99621844291687,0.22881189729864085,0.22830366209299924,-0.9025024921419775
14.003702878952026,0.22881189729864085,0.22809198505958983,-0.8305465509295018
14.012722253799438,0.22881189729864085,0.22787612073879862,-0.7642738163588471
14.022648096084595,0.22881189729864085,0.22765251792658367,-0.7032516080989792
14.030696630477905,0.22881189729864085,0.227422460997182,-0.6470752695833724
14.04009199142456,0.22881189729864085,0.22718826520728896,-0.5953679022083804
14.04770016670227,0.22881189729864085,0.22695192381774335,-0.5477795285154154
14.059756755828857,0.22881189729864085,0.22671478484706034,-0.5039859074475418
14.070700407028198,0.22881189729864085,0.22647756520792264,-0.4636871538384715
14.080138921737671,0.22881189729864085,0.22624142847996284,-0.4266062648907985
14.087666511535645,0.22881189729864085,0.22600834617634172,-0.3924876220854645
14.097695350646973,0.22881189729864085,0.22578058014874514,-0.3610955132059507
14.107722759246826,0.22881189729864085,0.22556054814769094,-0.3322127027791877
14.116153240203857,0.22881189729864085,0.22535086630741508,-0.30563906800194407
14.123785257339478,0.22881189729864085,0.22515437661548796,-0.28119030957549995
14.132223844528198,0.22881189729864085,0.2249736546584725,-0.2586967417201309
14.140705108642578,0.22881189729864085,0.22481090903564083,-0.23800216222052686
14.14867377281189,0.22881189729864085,0.22466766255711282,-0.2189628011297574
14.159212112426758,0.22881189729864085,0.22454536671021827,-0.2014463453603224
14.168631553649902,0.22881189729864085,0.2244471025692892,-0.1853310355562253
14.178314924240112,0.22881189729864085,0.22437626307353697,-0.17050483118907078
14.185652256011963,0.22881189729864085,0.2243346150799289,-0.15686463962810232
14.19366192817688,0.22881189729864085,0.22432211046242118,-0.1443156049117729
14.203134775161743,0.22881189729864085,0.22433962770572274,-0.1327704520365781
14.21203899383545,0.22881189729864085,0.22438960658020768,-0.12214888273607692
14.220426082611084,0.22881189729864085,0.22447317622203067,-0.11237701892088961
14.233219861984253,0.22881189729864085,0.224592553453316,-0.10338689016980791
14.241663694381714,0.22881189729864085,0.2247518182548682,-0.09511596189003614
14.249638080596924,0.22881189729864085,0.22495208674085587,-0.08750670099250245
14.26464033126831,0.22881189729864085,0.22519442094182746,-0.08050617615067077
14.272633075714111,0.22881189729864085,0.22548344151158514,-0.07406568992491505
14.282569169998169,0.22881189729864085,0.2258201718695682,-0.06814044023733046
14.293675899505615,0.22881189729864085,0.22620119540263856,-0.06268920887283014
14.30165410041809,0.22881189729864085,0.22662464258555737,-0.057674074861143954
14.310160160064697,0.22881189729864085,0.2270885280524571,-0.05306015076095061
14.320355653762817,0.22881189729864085,0.22758942200218224,-0.04881534002216322
14.32867980003357,0.22881189729864085,0.22812409832079172,-0.044910113745852256
14.34064531326294,0.22881189729864085,0.22869104786177402,-0.04131730529400749
14.349072933197021,0.22881189729864085,0.2292933991945364,-0.03801192132396336
14.356678485870361,0.22881189729864085,0.229933520389471,-0.03497096793547981
14.365076065063477,0.22881189729864085,0.23060836457714048,-0.03217329072284487
14.372674226760864,0.22881189729864085,0.23131339496252923,-0.02959942762055966
14.382683992385864,0.22881189729864085,0.2320444369214233,-0.02723147351979456
14.392524719238281,0.22881189729864085,0.23279925019075215,-0.0250529557144268
14.403042316436768,0.22881189729864085,0.23357886368051858,-0.02304871931062375
14.4116690158844,0.22881189729864085,0.2343838686311823,-0.02120482180311961
14.419889688491821,0.22881189729864085,0.23521124911967575,-0.019508436085012022
14.428629636764526,0.22881189729864085,0.2360565672707207,-0.017947761216510462
14.438618183135986,0.22881189729864085,0.23691585627851316,-0.016511940331999226
14.450010776519775,0.22881189729864085,0.23778722318866202,-0.015190985114405996
14.458174467086792,0.22881189729864085,0.23867055741384344,-0.013975706311530205
