t_s,q_rad,q_des_rad,K,B,Kff,jerk,tau_Nm,reward
0.005308628082275391,0.0,[6.01830487e-05],9.825212432529046,0.9790254919034855,1.9737818648793566,0.0,9.998999999999999,1.499999275600393
0.015979766845703125,0.0,[0.00029085],9.650424865058092,0.9580509838069711,1.9475637297587132,0.0,10.098989999999999,1.4999830815881536
0.024830341339111328,0.0,[0.00072288],9.475637297587138,0.9370764757104565,1.92134559463807,0.0,10.099989899999999,1.4998954947459655
0.032941579818725586,0.0,[0.00131959],9.300849730116184,0.9161019676139419,1.8951274595174268,0.0,10.099999898999998,1.499651794534143
0.042879581451416016,0.0,[0.00204785],9.12606216264523,0.8951274595174274,1.8689093243967834,0.0,10.099999998989999,1.4991616161023318
0.052896738052368164,0.0,[0.0028779],8.951274595174274,0.8741529514209129,1.84269118927614,0.0,0.49328308156797546,1.4983449069439736
0.06073927879333496,0.0,[0.0037833],8.77648702770332,0.8531784433243983,1.8164730541554968,0.0,-9.99406716918432,1.4971414235323266
0.06972551345825195,0.00019539871673667023,[0.00474068],8.601699460232366,0.8322039352278838,1.7902549190348536,0.0,-10.098940671691842,1.4958766117574962
0.07878756523132324,0.00039079743347334047,[0.0057296],8.426911892761412,0.8112294271313693,1.7640367839142101,0.0,-10.099989406716917,1.494315645091432
0.08681464195251465,0.0005861961502100108,[0.00673239],8.252124325290458,0.7902549190348547,1.7378186487935667,0.276038359678681,-10.099999894067167,1.4924166018987133
0.09571385383605957,0.0007815948669466809,[0.00773406],8.077336757819502,0.7692804109383402,1.7116005136729235,0.5852013225188036,-10.099999998940671,1.4901243553488661
0.10647225379943848,0.0007815948669466809,[0.00872235],7.902549190348549,0.7483059028418256,1.6853823785522803,0.5632286690883805,-10.099999999989405,1.4872319889855878
0.11509132385253906,0.0005861961502100108,[0.00968735],7.727761622877595,0.727331394745311,1.659164243431637,0.7080847670202424,-10.099999999999893,1.4831971785957487
0.12275457382202148,0.0007815948669466809,[0.01062129],7.55297405540664,0.7063568866487966,1.6329461083109935,0.5946016874007827,-7.817705963816518,1.4805592242090886
0.13302278518676758,0.0005861961502100108,[0.01151875],7.378186487935686,0.685382378552282,1.6067279731903503,0.41235995748868504,-5.633309952556873,1.4762527387946067
0.14078068733215332,0.0007815948669466809,[0.01237596],7.203398920464732,0.6644078704557674,1.5805098380697071,-0.03838280830288773,-3.951547604300798,1.473471250605987
0.15079832077026367,0.0007815948669466809,[0.01319093],7.028611352993777,0.643433362359253,1.5542917029490637,-0.4894811884476189,-2.344335836970428,1.469492819719712
0.1597599983215332,0.0007815948669466809,[0.01396342],6.853823785522822,0.6224588542627384,1.5280735678284203,-0.5730732502465155,-1.219442579169044,1.4656004080711942
0.16888999938964844,0.0007815948669466809,[0.0146938],6.679036218051868,0.6014843461662238,1.501855432707777,-0.7916072664719862,-0.29991211278526037,1.4615635040046715
0.17671751976013184,0.0007815948669466809,[0.01538356],6.504248650580913,0.6,1.475637297587134,-0.7265334820636291,0.41520374914226893,1.4578601709099035
0.18688583374023438,0.0007815948669466809,[0.01603559],6.329461083109958,0.6,1.4494191624664907,-0.5737836031040039,1.0925218884483825,1.4542843238907175
0.1950681209564209,0.0007815948669466809,[0.01665252],6.154673515639004,0.6,1.4232010273458477,-0.4149390954639509,1.1255189453160757,1.4507424594049982
0.2027132511138916,0.0013677910171566918,[0.01723665],5.97988594816805,0.6,1.3969828922252046,-0.27933330469484297,1.3998627373686814,1.4508250391102995
0.21245861053466797,0.0027355820343133836,[0.01779152],5.805098380697095,0.6,1.3707647571045614,0.6544915976880709,1.5772726628618325,1.4553573116510155
0.219712495803833,0.0042987717682067455,[0.01832076],5.63031081322614,0.6,1.3445466219839184,2.212139142742983,1.3769309423422265,1.4578103359118924
0.22827839851379395,0.007034353802520129,[0.01882716],5.455523245755186,0.6,1.3183284868632752,3.924197235143607,1.2824960921643498,1.4612363406631002
0.23573875427246094,0.009965334553570182,[0.01931355],5.280735678284231,0.6,1.292110351742632,5.0,1.1600578747430557,1.4644060895723663
0.24474716186523438,0.014068707605040257,[0.01978277],5.105948110813277,0.6,1.2658922166219888,5.0,1.0929538281366369,1.4752232351307135
0.25389599800109863,0.017976681939773663,[0.02023865],5.0,0.6,1.2396740815013456,5.0,1.031830650169389,1.4807092819309025
0.26174139976501465,0.020907662690823715,[0.02068473],5.0,0.6,1.2134559463807026,5.0,0.927214082203946,1.4817221222973418
0.27069640159606934,0.02442483959208378,[0.02112427],5.0,0.6,1.1872378112600595,5.0,1.1393943196602134,1.4795556776914756
0.28012752532958984,0.028332813926817187,[0.02156129],5.0,0.6,1.1610196761394163,5.0,1.1245003214854863,1.4726032848543933
0.2880439758300781,0.03165459211134058,[0.02199821],5.0,0.6,1.1348015410187733,5.0,1.0411279653626906,1.4632557335862653
0.2958223819732666,0.034390174145653964,[0.0224371],5.0,0.6,1.10858340589813,5.0,0.9166388809146052,1.4535612829291058
0.3037886619567871,0.03751655361344069,[0.02287861],5.0,0.6,1.082365270777487,5.0,1.0275378151361563,1.43978344739733
0.3127720355987549,0.04122912923143742,[0.02332212],5.0,0.6,1.0561471356568437,4.04673378758905,1.000115889141012,1.425838061505575
0.322005033493042,0.04513710356617083,[0.02377032],5.0,0.6,1.0299290005362005,1.9315204013238985,1.1229927599879244,1.4099671754845133
0.32968640327453613,0.048068084317220885,[0.0242254],5.0,0.6,1.0037108654155575,-0.4551660360264864,0.810404751860252,1.392376224980561
0.3397676944732666,0.05197605865195429,[0.02468685],5.0,0.6,0.9774927302949143,-2.470334380297433,0.5634407990746076,1.3570984981095668
0.3480360507965088,0.05529783683647768,[0.02515302],5.0,0.6,0.9512745951742712,-4.229386260300432,0.329431967994421,1.3206765594200487
0.36153697967529297,0.060769000905104446,[0.02562339],5.0,0.6,0.9250564600536281,-5.0,0.34554220784131967,1.2628392826790003
0.3730325698852539,0.06545857010678453,[0.0261023],5.0,0.6,0.898838324932985,-5.0,0.4188820130685296,1.2153380673254797
0.38176512718200684,0.06878034829130793,[0.02659311],5.0,0.6,0.8726201898123418,-5.0,0.3657569665713911,1.1822379001467964
0.3924999237060547,0.07327451877625135,[0.02709534],5.0,0.6,0.8464020546916986,-5.0,0.40368852554600254,1.1345197608747433
0.4011859893798828,0.0767916956775114,[0.0276082],5.0,0.6,0.8201839195710555,-5.0,0.143442471064087,1.0981665068241342
0.4128732681274414,0.08167666359592816,[0.02813055],5.0,0.6,0.7939657844504124,-5.0,-0.284916130527485,1.0453169547170855
0.4207282066345215,0.08480304306371489,[0.02866184],5.0,0.6,0.7677476493297692,-5.0,-0.6985435068753132,1.0141285134259221
0.43087100982666016,0.08812482124823828,[0.02920123],5.0,0.6,0.741529514209126,-5.0,-0.7651071128340292,0.9811070395802806
0.4391019344329834,0.09066500456581499,[0.02974602],5.0,0.6,0.715311379088483,-5.0,-1.069901925216124,0.9577858008504172
0.4477272033691406,0.09281439044991838,[0.03028792],5.0,0.6,0.6890932439678399,-5.0,-1.855222296108367,0.9392624705493753
0.4577808380126953,0.09437758018381173,[0.03081444],5.0,0.6,0.6628751088471967,-5.0,-2.3476991327669188,0.9274564145779411
0.46815061569213867,0.0945729789005484,[0.03131911],5.0,0.6,0.6366569737265535,-5.0,-2.474732589126692,0.9309665070548953
0.475754976272583,0.0932051878833917,[0.0318008],5.0,0.6,0.6104388386059104,-5.0,-2.4799764160775615,0.9521659415894258
0.48622870445251465,0.08988340969886832,[0.03225823],5.0,0.6,0.5842207034852673,-5.0,-2.289528916648454,0.9964520256027675
0.49750661849975586,0.08578003664739824,[0.03269006],5.0,0.6,0.5580025683646241,-5.0,-1.529771947961867,1.050826327002575
0.5062003135681152,0.08226285974613817,[0.03309499],5.0,0.6,0.531784433243981,-5.0,-1.0790440568476318,1.0983559914740904
0.515777587890625,0.07855028412814144,[0.03347196],5.0,0.6,0.5055662981233379,-5.0,-0.8482431716714108,1.1477683412388153
0.5258288383483887,0.0742515123599347,[0.03382041],5.0,0.6,0.4793481630026947,-5.0,-0.6774120666470296,1.202862869068627
0.5349099636077881,0.07034353802520128,[0.03414027],5.0,0.6,0.4531300278820516,-5.0,-0.5594105027515478,1.2511389212580712
0.5452313423156738,0.06624016497373121,[0.0344318],5.0,0.6,0.42691189276140845,-5.0,-0.4470829545540247,1.2985374243374896
0.5538208484649658,0.06291838678920783,[0.03469562],5.0,0.6,0.4006937576407653,-5.0,-0.34970304736613383,1.3344683318733583
0.5618641376495361,0.05959660860468442,[0.03493259],5.0,0.6,0.3744756225201221,-5.0,-0.26723793021645365,1.367179017013596
0.5697455406188965,0.05627483042016103,[0.03514382],5.0,0.6,0.3482574873994789,-4.235492462434141,-0.19824032324761512,1.4013902007314296
0.579754114151001,0.05217145736869095,[0.03533053],5.0,0.6,0.3220393522788358,-0.959003827873699,-0.1380207561004891,1.4441712828447928
0.5891256332397461,0.048458881750694224,[0.03549412],5.0,0.6,0.2958212171581926,2.791356284965688,-0.08923240221390745,1.461175143983096
0.596754789352417,0.04533250228290749,[0.03563604],5.0,0.6,0.2696030820375494,5.0,-0.05150595909781976,1.4631034684266857
0.6057116985321045,0.04161992666491077,[0.03575781],5.0,0.6,0.24338494691690624,5.0,-0.016709476089060742,1.47488274401542
0.6136677265167236,0.038493547197124035,[0.03586099],5.0,0.6,0.21716681179626307,5.0,0.00978394337333244,1.4803469496431658
0.623755693435669,0.03458557286239063,[0.03594712],5.0,0.6,0.19094867667561988,5.0,0.0369881510787625,1.4813613712690041
0.6349432468414307,0.030482199810920558,[0.03601772],5.0,0.6,0.16473054155497668,5.0,0.0626018287024704,1.4756224145484338
0.6440179347991943,0.027355820343133833,[0.03607429],5.0,0.6,0.13851240643433352,5.0,0.0816318200850445,1.4666446921511005
0.6517634391784668,0.02501103574229379,[0.03611828],5.0,0.6,0.11229427131369034,5.0,0.09531747938334154,1.4573597990674956
0.661034107208252,0.022080054991243738,[0.03615107],5.0,0.6,0.08607613619304716,5.0,0.11126617025020248,1.442907130225486
0.6691570281982422,0.019735270390403698,[0.03617398],5.0,0.6,0.05985800107240398,5.0,0.12345604257393142,1.4291203518832603
0.6767914295196533,0.017781283223036994,[0.03618825],5.0,0.6,0.0336398659517608,5.0,0.1329480191480062,1.4162137476683598
0.6858706474304199,0.015241099905460279,[0.03619502],5.0,0.6,0.0074217308311176206,5.0,0.14466665136419693,1.3976639029072269
0.6947481632232666,0.013091714021356905,[0.03619536],5.0,0.6,0.0,5.0,0.15346767374389272,1.3804772381988415
0.7036986351013184,0.011333125570726873,[0.03619028],5.0,0.6,0.0,5.0,0.16053353968612588,1.3654868555550923
0.7143046855926514,0.008988340969886831,[0.03618068],5.0,0.6,0.0,5.0,0.16995800677605796,1.3442626322456344
0.7227675914764404,0.00781594866946681,[0.0361674],5.0,0.6,0.0,5.0,0.17326612586702236,1.333227654310622
0.7326836585998535,0.006057360218836778,[0.03615118],5.0,0.6,0.0,5.0,0.17947998756053898,1.31606099807958
0.7408969402313232,0.005275765351890096,[0.03613268],5.0,0.6,0.0,5.0,0.18130184284296752,1.308335806752088
0.7486813068389893,0.0042987717682067455,[0.03611252],5.0,0.6,0.0,5.0,0.1838249099099676,1.2984815215384864
0.7587757110595703,0.0035171769012600643,[0.03609121],5.0,0.6,0.0,5.0,0.18525913493453183,1.2905240334197885
0.7696449756622314,0.0029309807510500534,[0.03606921],5.0,0.6,0.0,5.0,0.18570446674032515,1.2845490918861966
0.7788741588592529,0.0027355820343133836,[0.03604692],5.0,0.6,0.0,5.0,0.1840987195605951,1.282704300692465
0.7877898216247559,0.002540183317576713,[0.03602468],5.0,0.6,0.0,5.0,0.1824260950329623,1.2808535695329148
0.7977962493896484,0.002344784600840043,[0.03600278],5.0,0.6,0.0,5.0,0.18079862537913027,1.278993904625398
0.8070676326751709,0.002540183317576713,[0.03598287],5.0,0.6,0.0,5.0,0.1932670993498891,1.2813009109906346
0.815741777420044,0.002540183317576713,[0.0359678],5.0,0.6,0.0,5.0,0.18721763907597094,1.2814621067514809
0.8250999450683594,0.0027355820343133836,[0.03595873],5.0,0.6,0.0,5.0,0.18262621934095513,1.2836447503869999
0.8353350162506104,0.0031263794677867237,[0.03595553],5.0,0.6,0.0,4.84551359411525,0.1783228318100856,1.288921595675501
0.8426949977874756,0.0035171769012600643,[0.03595813],5.0,0.6,0.0,4.071275905988071,0.17334101298667176,1.2980051013213336
0.8517651557922363,0.003907974334733405,[0.0359664],5.0,0.6,0.0,3.195728154851158,0.17053442946229738,1.3066558082530917
0.8607885837554932,0.004494170484943416,[0.03598034],5.0,0.6,0.0,2.1395255386041896,0.1668807986527065,1.316747683457974
0.8694944381713867,0.005080366635153426,[0.03600004],5.0,0.6,0.0,1.4761946060941764,0.1629103018992452,1.3243435252684357
0.8786640167236328,0.005861961502100107,[0.03602545],5.0,0.6,0.0,1.0476868976512144,0.15789198602749757,1.332812213610418
0.8892037868499756,0.006838955085783458,[0.03605645],5.0,0.6,0.0,0.4875981295115306,0.1518732857426621,1.3428702382090636
0.8967483043670654,0.00781594866946681,[0.03609266],5.0,0.6,0.0,-0.014294051458121348,0.14459390574455458,1.3522164973015596
0.9077365398406982,0.008988340969886831,[0.0361337],5.0,0.6,0.0,-0.4019158883572638,0.1392985120514893,1.3628508827231445
0.9168946743011475,0.009965334553570182,[0.03617934],5.0,0.6,0.0,-0.6742715347945966,0.13327407841223177,1.3712528360746679
0.9252502918243408,0.010746929420516863,[0.03622922],5.0,0.6,0.0,-1.1257109963412757,0.12709767124162666,1.3772676945669895
0.9327695369720459,0.011723923004200214,[0.03628268],5.0,0.6,0.0,-1.535533416703204,0.12178964372664107,1.3846128016117083
0.9417273998260498,0.012700916587883566,[0.03633914],5.0,0.6,0.0,-1.8356624889344357,0.11524608752593749,1.3917629490268748
0.9512841701507568,0.014068707605040257,[0.03639801],5.0,0.6,0.0,-2.297456189155114,0.10847619042687545,1.4011774551863074
0.9597926139831543,0.015045701188723608,[0.03645878],5.0,0.6,0.0,-2.4199572625979173,0.10228513229173138,1.4080348031821228
0.971541166305542,0.0164134922058803,[0.03652105],5.0,0.6,0.0,-2.656929778791623,0.09667711048020314,1.417092838032269
0.9809238910675049,0.01758588450630032,[0.03658464],5.0,0.6,0.0,-2.853854164128819,0.0905623624828128,1.4243274443326703
0.9907717704772949,0.018758276806720344,[0.03664935],5.0,0.6,0.0,-3.242259527825285,0.08461238352326524,1.430223588828142
0.9987099170684814,0.019539871673667025,[0.03671479],5.0,0.6,0.0,-3.303579273438528,0.07951280398399078,1.4346525067643077
1.0100922584533691,0.020907662690823715,[0.03678055],5.0,0.6,0.0,-3.484322106759868,0.07386135686104539,1.4419025749052194
1.0176753997802734,0.02188465627450707,[0.03684639],5.0,0.6,0.0,-3.351327811032359,0.06790257795221322,1.4479255855628788
1.0265557765960693,0.02286164985819042,[0.03691199],5.0,0.6,0.0,-3.378401501885649,0.06327437307423106,1.4528623756981234
1.0349953174591064,0.02383864344187377,[0.03697706],5.0,0.6,0.0,-3.4113322651331885,0.05854047577190859,1.4574774209821624
1.0429821014404297,0.024815637025557124,[0.03704136],5.0,0.6,0.0,-3.398956173493062,0.0531261583222625,1.4620222714288764
1.0506885051727295,0.0255972318925038,[0.03710454],5.0,0.6,0.0,-3.3335552579088104,0.04889740376002247,1.465659821608151
1.0607714653015137,0.026574225476187156,[0.03716629],5.0,0.6,0.0,-3.22350385988065,0.044537673213585205,1.4701359568786516
1.0707769393920898,0.027746617776607176,[0.03722651],5.0,0.6,0.0,-3.357341085491022,0.03932291853007541,1.4738662221524104
1.0792076587677002,0.028528212643553853,[0.03728516],5.0,0.6,0.0,-3.2279549223424437,0.03586611888824887,1.4770836171101782
1.0888340473175049,0.029309807510500538,[0.03734223],5.0,0.6,0.0,-3.2756970996222945,0.03238450902368982,1.4792548323154988
1.097743034362793,0.03028680109418389,[0.03739771],5.0,0.6,0.0,-3.3320952236414545,0.027995679216777057,1.4817409240680959
1.1066675186157227,0.03106839596113057,[0.03745157],5.0,0.6,0.0,-3.06454141658466,0.02440855218129895,1.4849417964672222
1.1163382530212402,0.031849990828077254,[0.03750382],5.0,0.6,0.0,-2.9827741737418547,0.020838980905534453,1.4870480266468535
1.1237308979034424,0.03224078826155059,[0.03755438],5.0,0.6,0.0,-3.2166110503098775,0.018914230203242878,1.486726078251376
1.1337242126464844,0.03302238312849727,[0.03760317],5.0,0.6,0.0,-3.1930057544978627,0.015749969434095176,1.4882800007533104
1.1458163261413574,0.033803977995443955,[0.03765028],5.0,0.6,0.0,-3.3287113760084583,0.013604574901486984,1.4888650330240267
1.1537079811096191,0.03458557286239063,[0.03769582],5.0,0.6,0.0,-3.173948148619142,0.01038164117117741,1.4906240492964173
1.163787603378296,0.03517176901260064,[0.0377394],5.0,0.6,0.0,-2.916971587304592,0.004111912205366595,1.4923883791173915
1.1722853183746338,0.03556256644607399,[0.03778031],5.0,0.6,0.0,-2.6409042200682245,0.0029025828272454114,1.4938519365297966
1.180760145187378,0.035953363879547326,[0.0378183],5.0,0.6,0.0,-2.6554899221378054,0.0016019024768094499,1.4940828670532387
1.1914055347442627,0.036539560029757334,[0.03785342],5.0,0.6,0.0,-2.452990390386353,-0.0005561493663614899,1.495195637974975
1.203789234161377,0.03693035746323068,[0.03788575],5.0,0.6,0.0,-2.4656667993713395,-0.0019792354116355973,1.4953122886340682
1.2140960693359375,0.03732115489670401,[0.03791555],5.0,0.6,0.0,-2.515633341973858,-0.0010734324936854701,1.4952405907685866
1.2216920852661133,0.03732115489670401,[0.03794331],5.0,0.6,0.0,-2.537926064403057,-0.000508543415024737,1.4951507677041946
1.2306549549102783,0.03732115489670401,[0.03796946],5.0,0.6,0.0,-2.516617086702065,0.0012025964505079265,1.4952235440008277
1.2407500743865967,0.03732115489670401,[0.03799466],5.0,0.6,0.0,-2.7311560219605884,0.005605001034513501,1.494387359328947
1.2497143745422363,0.03732115489670401,[0.03802051],5.0,0.6,0.0,-2.6720633555507654,0.013531787811516026,1.494615371942526
1.2576713562011719,0.03732115489670401,[0.03804926],5.0,0.6,0.0,-2.5040241597549815,0.017194678938090638,1.4952482024221625
1.2673840522766113,0.03732115489670401,[0.03808396],5.0,0.6,0.0,-2.5788216984597385,0.0330883709171686,1.4949575563068842
1.2776427268981934,0.03732115489670401,[0.03813021],5.0,0.6,0.0,-2.1345785535808823,0.054702251610542534,1.4964887670441138
1.2871758937835693,0.03732115489670401,[0.03819683],5.0,0.6,0.0,-1.8580339231508134,0.08285395999407742,1.4972833559059608
1.296290636062622,0.03732115489670401,[0.03829559],5.0,0.6,0.0,-1.1136585677197797,0.11599556388660656,1.4988877333631145
1.307173490524292,0.03751655361344069,[0.0384447],5.0,0.6,0.0,-0.6227474932363708,0.18691508777940916,1.4995391195524945
1.3164246082305908,0.03751655361344069,[0.03866389],5.0,0.6,0.0,-0.023213691772439593,0.17707653524584485,1.4997363554378322
1.3267066478729248,0.03771195233017736,[0.03896628],5.0,0.6,0.0,0.7737021294810267,0.2132003506936572,1.4992399715987252
1.3356928825378418,0.0381027497636507,[0.03936114],5.0,0.6,0.0,1.4734765295147971,0.2019986219323525,1.4980697552203166
1.3459560871124268,0.03868894591386071,[0.03986267],5.0,0.6,0.0,1.9913325375552222,0.27991233909922714,1.4967813604188553
1.3568141460418701,0.03927514206407072,[0.04050149],5.0,0.6,0.0,2.604360551074133,0.32881854249352843,1.494675625610593
1.366746187210083,0.040056736931017405,[0.04131269],5.0,0.6,0.0,3.3763446608543215,0.3339856101685634,1.4912702263226407
1.376779556274414,0.04103373051470075,[0.04230333],5.0,0.6,0.0,4.288357876520824,0.3333136131309196,1.4861738434290102
1.3861968517303467,0.04220612281512077,[0.04345986],5.0,0.6,0.0,5.0,0.3368556715040611,1.4814177389036054
1.3956913948059082,0.04357391383227746,[0.04478387],5.0,0.6,0.0,5.0,0.3383302607197947,1.481439307256362
1.4073755741119385,0.04552790099964417,[0.04629675],5.0,0.6,0.0,5.0,0.32548936724639005,1.4816138420346643
1.4150846004486084,0.04709109073353753,[0.04802158],5.0,0.6,0.0,5.0,0.33019922436920707,1.4815589140855583
1.4239163398742676,0.04884967918416756,[0.04995965],5.0,0.6,0.0,5.0,0.33205214073436484,1.4814856850760512
1.4326956272125244,0.050608267634797595,[0.05209189],5.0,0.6,0.0,5.0,0.33041635775972966,1.481291934910874
1.4436447620391846,0.05314845095237431,[0.05435667],5.0,0.6,0.0,5.0,-0.0620929155369034,1.4814401457007444
1.453639030456543,0.05568863426995102,[0.05665221],5.0,0.6,0.0,5.0,-0.007096925885433139,1.4815463856467916
1.4634099006652832,0.05822881758752774,[0.05892069],5.0,0.6,0.0,5.0,0.013059290890267323,1.481636328108529
1.4765050411224365,0.061550595772051124,[0.06114714],5.0,0.6,0.0,5.0,0.014108242421123704,1.481699507835399
1.4863839149475098,0.06330918422268116,[0.06331508],5.0,0.6,0.0,4.725340438718204,0.008945255246699032,1.48365163243962
1.49473237991333,0.06487237395657452,[0.06540824],5.0,0.6,0.0,3.270570094259827,0.003278897350124711,1.4920430624730852
1.503931999206543,0.06643556369046788,[0.06741257],5.0,0.6,0.0,1.3969252422559024,0.004294290116915164,1.498358596091665
1.5119948387145996,0.06760795599088791,[0.06931762],5.0,0.6,0.0,-0.5484061418826989,0.0049208665624239836,1.4991917527354728
1.5197136402130127,0.06858494957457126,[0.07111542],5.0,0.6,0.0,-2.9687418317157945,0.009638625258203573,1.4922022954512395
1.5301275253295898,0.06995274059172794,[0.07280017],5.0,0.6,0.0,-5.0,0.011947810643249053,1.4801118097397614
1.5387258529663086,0.0709297341754113,[0.07436874],5.0,0.6,0.0,-5.0,0.011873286702424657,1.4793695052167202
1.5482573509216309,0.07190672775909465,[0.07582],5.0,0.6,0.0,-5.0,0.014698475725521956,1.478674006510011
1.5560495853424072,0.07249292390930466,[0.07715445],5.0,0.6,0.0,-5.0,0.018901826816115727,1.477395533418129
1.56465744972229,0.07307912005951467,[0.07837396],5.0,0.6,0.0,-5.0,0.02119335560299815,1.4761406870489944
1.5726475715637207,0.07346991749298801,[0.07948141],5.0,0.6,0.0,-5.0,0.0264343594830032,1.4745305098710142
1.5840554237365723,0.07405611364319802,[0.08048081],5.0,0.6,0.0,-5.0,0.030089740069596728,1.4735106869854788
1.5929789543151855,0.0742515123599347,[0.08137709],5.0,0.6,0.0,-5.0,0.03474661503223575,1.4716286858335712
1.6006858348846436,0.07483770851014471,[0.08217565],5.0,0.6,0.0,-5.0,0.03696556585979616,1.4710207653312173
1.6096653938293457,0.07503310722688138,[0.08288231],5.0,0.6,0.0,-5.0,0.04042047984586129,1.4694856684227915
1.617722988128662,0.07542390466035472,[0.08350301],5.0,0.6,0.0,-4.922741868124071,0.04102453819602669,1.469312631197693
1.6258275508880615,0.07581470209382805,[0.08404362],5.0,0.6,0.0,-4.237580181879128,0.0414387658007039,1.473358117125222
1.6404731273651123,0.07640089824403806,[0.0845142],5.0,0.6,0.0,-3.712041669010037,0.08722115538756407,1.4767683743571465
1.649698257446289,0.0767916956775114,[0.08494327],5.0,0.6,0.0,-2.7411329160276146,0.22727151126983636,1.4812361842585817
1.658604621887207,0.07718249311098475,[0.08536862],5.0,0.6,0.0,-1.502355654124345,0.20137917793466997,1.48500953667731
1.667628288269043,0.07796408797793142,[0.08581218],5.0,0.6,0.0,-0.39466414426068774,0.21910258039076783,1.487641129855246
1.6766924858093262,0.07855028412814144,[0.08629048],5.0,0.6,0.0,0.7411306959819004,0.2540363686180677,1.4876806689000173
1.6861326694488525,0.0793318789950881,[0.08682864],5.0,0.6,0.0,1.6612802206086767,0.29479327825503027,1.4867724376382752
1.695544958114624,0.08030887257877146,[0.08745739],5.0,0.6,0.0,2.317228181280738,0.3337443434587099,1.4858506361563364
1.7055282592773438,0.08167666359592816,[0.08821246],5.0,0.6,0.0,3.287743107013686,0.35914475409639113,1.4835110381270855
1.7145917415618896,0.08284905589634818,[0.08913401],5.0,0.6,0.0,4.135697842322818,0.36172525962119256,1.479559509547793
1.7226471900939941,0.0840214481967682,[0.09025368],5.0,0.6,0.0,4.733448422498872,0.3630017945757695,1.4758583713772584
1.7306122779846191,0.08558463793066157,[0.09159387],5.0,0.6,0.0,5.0,0.33217055863729766,1.4745359060409724
1.7397098541259766,0.08714782766455492,[0.09317696],5.0,0.6,0.0,5.0,0.3477894425580942,1.4744883281958585
1.7496635913848877,0.08929721354865831,[0.09502458],5.0,0.6,0.0,5.0,0.2532810201332363,1.4751929931907508
1.7579972743988037,0.09125120071602501,[0.09717246],5.0,0.6,0.0,5.0,0.27905800328419333,1.4747443325366985
1.7667200565338135,0.09359598531686505,[0.09965151],5.0,0.6,0.0,5.0,0.2562205745972795,1.4744250069553309
1.7756764888763428,0.0959407699177051,[0.10247314],5.0,0.6,0.0,5.0,0.29666627408847,1.4732340099605619
1.784151554107666,0.0984809532352818,[0.10566191],5.0,0.6,0.0,5.0,0.3289165280793675,1.4714718441037629
1.7941908836364746,0.10121653526959519,[0.10925161],5.0,0.6,0.0,5.0,0.35287317938194085,1.468902599996888
1.802258014678955,0.10356131987043524,[0.11326537],5.0,0.6,0.0,5.0,0.37289312135395664,1.4630746012588327
1.8102631568908691,0.10610150318801194,[0.11771478],5.0,0.6,0.0,5.0,0.38660072632255105,1.4551189428741762
1.8211727142333984,0.10981407880600867,[0.12261381],5.0,0.6,0.0,5.0,0.4372466174779655,1.4494964338046974
1.8286476135253906,0.11235426212358537,[0.12794874],5.0,0.6,0.0,4.92520846983843,0.4510434411167584,1.4347910375947415
1.8377041816711426,0.1156760403081088,[0.13358828],5.0,0.6,0.0,4.32190095084979,0.400600122486441,1.4241328648321059
1.8468728065490723,0.11919321720936885,[0.13934406],5.0,0.6,0.0,4.163253620013841,0.4009774901440715,1.4092614317131351
1.856677770614624,0.12310119154410225,[0.14512777],5.0,0.6,0.0,3.8519324595030384,0.4191517519178892,1.3966012935423062
1.8676276206970215,0.12739996331230902,[0.15092694],5.0,0.6,0.0,3.7804165164986863,0.42968317264664735,1.3846776815993593
1.8776116371154785,0.13169873508051574,[0.15671606],5.0,0.6,0.0,3.4783025248254664,0.42983205857895446,1.373418396677561
1.8887367248535156,0.1359975068487225,[0.16245895],5.0,0.6,0.0,3.117597989600954,0.42312375543146646,1.362139014803134
1.8976976871490479,0.13971008246671923,[0.16812314],5.0,0.6,0.0,2.217073265813015,0.4155787241316045,1.347254595456398
1.906615972518921,0.14322725936797928,[0.17367886],5.0,0.6,0.0,1.2872212596375756,0.4078453315678278,1.329490192342125
1.914947271347046,0.1465490375525027,[0.17910325],5.0,0.6,0.0,-0.042925624766325,0.42137550168314986,1.3089994398102442
1.9226934909820557,0.14987081573702607,[0.18437352],5.0,0.6,0.0,-1.2487244444258603,0.43068795183922776,1.286974442610154
1.9347171783447266,0.15475578365544285,[0.18946396],5.0,0.6,0.0,-2.1703967181692856,0.4271558546925001,1.2824011600887024
1.9446377754211426,0.1586637579901762,[0.19435671],5.0,0.6,0.0,-3.075456111177121,0.38346608205267746,1.2680820067579326
1.9547622203826904,0.1627671310416463,[0.19904046],5.0,0.6,0.0,-3.4902610389037463,0.38587943861461604,1.2596394444284562
1.9638557434082031,0.16647970665964307,[0.20350646],5.0,0.6,0.0,-3.9025463197536494,0.3454352535112709,1.2489733870228001
1.973663568496704,0.17038768099437648,[0.20774663],5.0,0.6,0.0,-4.188855515110738,0.33141793437779904,1.2435427903575218
1.9838309288024902,0.17429565532910984,[0.21175536],5.0,0.6,0.0,-4.329935397639913,0.31631923200710493,1.241532417385007
1.9929792881011963,0.17781283223036992,[0.21553121],5.0,0.6,0.0,-4.345487038986299,0.29949371360574445,1.2385029240556318
2.000866413116455,0.18074381298141998,[0.21907341],5.0,0.6,0.0,-4.26551793034818,0.2819870281896786,1.2320396642023856
2.011397123336792,0.18543338218310007,[0.22238149],5.0,0.6,0.0,-4.118799055692191,0.2528166027199163,1.2485977729973543
2.0206868648529053,0.1891459578010968,[0.22545519],5.0,0.6,0.0,-3.929037753894674,0.22607543901398536,1.256864891008907
2.0313830375671387,0.19344472956930353,[0.22829463],5.0,0.6,0.0,-3.7143229848523793,0.1956978607265803,1.274182319670629
2.041715383529663,0.19774350133751029,[0.23090054],5.0,0.6,0.0,-3.4877971296571713,0.16496398994902084,1.2936428936647533
2.0505971908569336,0.20126067823877036,[0.23327495],5.0,0.6,0.0,-2.9826160919731306,0.14393388532599752,1.3080828632166628
2.0605931282043457,0.2055594500069771,[0.23542202],5.0,0.6,0.0,-2.7239394492627866,0.12103869553886967,1.3311527825579152
2.071661949157715,0.20985822177518385,[0.23734813],5.0,0.6,0.0,-2.5610985104576716,0.10229481048617842,1.3548692635079589
2.079615592956543,0.2133753986764439,[0.23906185],5.0,0.6,0.0,-2.4293232645575094,0.08986505665148797,1.3720032592218325
2.08864426612854,0.21708797429444063,[0.24057403],5.0,0.6,0.0,-2.3034365893191606,0.08174089860666,1.3916143277591482
2.096651077270508,0.22021435376222737,[0.24189978],5.0,0.6,0.0,-2.175723263057354,0.0992022280713478,1.4067244032067143
2.1049299240112305,0.22314533451327742,[0.24306057],5.0,0.6,0.0,-2.0455786079990457,0.12427965317482671,1.4206359985790846
2.1126279830932617,0.22607631526432748,[0.24408029],5.0,0.6,0.0,-2.1908699659120563,0.12302931910154198,1.4336677835027587
2.1209614276885986,0.22881189729864085,[0.24498343],5.0,0.6,0.0,-2.3709559224072585,0.16195458756292241,1.4448734946684898
2.129997491836548,0.2325244729166376,[0.2458007],5.0,0.6,0.0,-2.499577936843118,0.19987482665759188,1.4607330737706121
2.1376006603240967,0.23545545366768764,[0.24656358],5.0,0.6,0.0,-2.557195443950948,0.19040275836195444,1.4707797307239234
2.1455602645874023,0.2383864344187377,[0.24729489],5.0,0.6,0.0,-2.2742774683425306,0.18570249200181194,1.4804176602173085
2.1553475856781006,0.2422944087534711,[0.24802674],5.0,0.6,0.0,-2.18420851272357,0.29047835819039075,1.4899108342348777
2.1640613079071045,0.24542078822125782,[0.24880377],5.0,0.6,0.0,-2.147139540956248,0.268767481285392,1.4942936126848185
2.1726815700531006,0.24913336383925455,[0.24966248],5.0,0.6,0.0,-2.108413994133479,0.2961961602239972,1.49664577047627
2.181877374649048,0.25265054074051463,[0.25064118],5.0,0.6,0.0,-1.4991351967521385,0.2983583158091769,1.4975226432168838
2.1906538009643555,0.2563631163585114,[0.25177502],5.0,0.6,0.0,-0.8039116018323662,0.28181847047293057,1.4953178656242356
2.1986746788024902,0.2594894958262981,[0.25308701],5.0,0.6,0.0,-0.20345932591802104,0.2702726855505836,1.4918043310581839
2.2067620754241943,0.26281127401082144,[0.25460934],5.0,0.6,0.0,-0.021206194914795973,0.22719464823077612,1.4866354368633423
2.2155380249023438,0.2659376534786082,[0.25638132],5.0,0.6,0.0,0.2680515505540868,0.16672639133811254,1.4818476059900252
2.2235872745513916,0.26965022909660497,[0.25842432],5.0,0.6,0.0,0.5335891916351678,0.21913573105394685,1.4748988543571522
2.233914375305176,0.27355820343133835,[0.26075531],5.0,0.6,0.0,0.7346337369983555,0.18146584036271965,1.4673471423296047
2.2428910732269287,0.27746617776607174,[0.26339831],5.0,0.6,0.0,0.5918590773987058,0.13879194251207813,1.4609314423210746
2.252578020095825,0.2811787533840685,[0.26635725],5.0,0.6,0.0,0.3583995101961523,0.14956485613161277,1.4569201801610216
2.262411594390869,0.2850867277188019,[0.26963035],5.0,0.6,0.0,0.1357959263915878,0.1549136557133732,1.4533298658651779
2.27158522605896,0.2887993033367986,[0.27322204],5.0,0.6,0.0,0.23339145872608352,0.15714952565177756,1.4525880087714818
2.2829039096832275,0.29329347382174203,[0.27712827],5.0,0.6,0.0,0.13670889813043693,0.15231040696674072,1.4490655664221066
2.291931629180908,0.2970060494397388,[0.28132336],5.0,0.6,0.0,-0.2818403883319111,0.19145891886542,1.4519417219535788
2.3011131286621094,0.3011094224912088,[0.28575967],5.0,0.6,0.0,-0.4450859517567519,0.20460537671291176,1.453822602368386
2.3106460571289062,0.3052127955426789,[0.29040562],5.0,0.6,0.0,-0.48976602789171797,0.14774028179416174,1.4569185023932658
2.3205652236938477,0.3091207698774123,[0.29524108],5.0,0.6,0.0,-0.4819016103190299,0.2296593318390148,1.4620308138765745
2.3285810947418213,0.31205175062846235,[0.30021998],5.0,0.6,0.0,-0.45282928578744275,0.24512858550747313,1.4722375289060339
2.337583541870117,0.31537352881298575,[0.30528905],5.0,0.6,0.0,-0.4170178054466227,0.25332302900711273,1.4797366761644555
2.346613883972168,0.3190861044309825,[0.31041236],5.0,0.6,0.0,-0.3808362845346091,0.2574693291065576,1.4849579255759204
2.3584108352661133,0.3239710723493993,[0.31556639],5.0,0.6,0.0,-0.3468400641175885,0.26406311164708535,1.4858820489789515
2.3675713539123535,0.32729285053392265,[0.32072694],5.0,0.6,0.0,-0.31584471156980176,0.24812146935229296,1.491340573152053
2.376586437225342,0.3310054261519194,[0.32586018],5.0,0.6,0.0,-0.28791461892108017,0.24599950946159238,1.4946575755842249
2.3863794803619385,0.3351087992033895,[0.3309349],5.0,0.6,0.0,-0.2628232821360985,0.23994656579248888,1.496470362266222
2.395061731338501,0.33862597610464956,[0.33592781],5.0,0.6,0.0,-0.24025949934273438,0.23510110024688843,1.4985020723061577
2.402566909790039,0.3417523555724363,[0.34081435],5.0,0.6,0.0,-0.21991359367326418,0.20381084318684914,1.4997880433329365
2.4111528396606445,0.34526953247369635,[0.3455696],5.0,0.6,0.0,-0.2015086033908513,0.20505390507486013,1.4999517663397492
2.421584367752075,0.34937290552516637,[0.35017295],5.0,0.6,0.0,-0.18480743277607226,0.1723166093886488,1.4998465702442172
2.431995153427124,0.3536716772933732,[0.35461059],5.0,0.6,0.0,-0.16961042531770004,0.1982022398776683,1.4998022885003444
2.439969778060913,0.3569934554778965,[0.35887721],5.0,0.6,0.0,-0.15574986470906893,0.1895885788099631,1.4992724846407386
2.447572708129883,0.3601198349456833,[0.36296621],5.0,0.6,0.0,-0.14308414812510917,0.15751002482813317,1.49836570516118
2.456702947616577,0.36402780928041667,[0.366867],5.0,0.6,0.0,-0.13149264769052776,0.15030034959707655,1.4983762280183366
2.46769118309021,0.3685219797653601,[0.37057377],5.0,0.6,0.0,-0.39690987784496345,0.1358251228228643,1.499041130260203
2.476835012435913,0.3722345553833568,[0.37408432],5.0,0.6,0.0,-0.42029336730697053,0.12040968416696579,1.4991844272484585
2.4848172664642334,0.3753609348511436,[0.37739548],5.0,0.6,0.0,-0.3562556088606106,0.09089560269665944,1.4990779992878667
2.4967029094696045,0.3798551053360869,[0.38050418],5.0,0.6,0.0,-0.27196031538611426,0.07899037331634381,1.4998606900562637
2.505201578140259,0.3831768835206103,[0.3834097],5.0,0.6,0.0,-0.19389467760814888,0.051877243226712916,1.4999611746020092
2.513993978500366,0.38649866170513375,[0.38611072],5.0,0.6,0.0,-0.40637908368970177,0.02129131029338063,1.4998469823324088
2.523634433746338,0.3902112373231304,[0.38860459],5.0,0.6,0.0,-0.3911336580555451,-0.008474418089843198,1.499369999916916
2.5323517322540283,0.3937284142243905,[0.3908891],5.0,0.6,0.0,-0.5768006132614195,-0.042318804361200064,1.4981413526120335
2.540581464767456,0.39646399625870393,[0.39296303],5.0,0.6,0.0,-0.7849630262494943,-0.06119047509645227,1.4970931879236997
2.5508832931518555,0.40017657187670064,[0.39482484],5.0,0.6,0.0,-1.2274369215394627,-0.1132841321264348,1.4931679087024476
2.5585880279541016,0.40232595776080404,[0.39647273],5.0,0.6,0.0,-1.9225981906456524,-0.11997155122998675,1.4904273296038733
2.566594123840332,0.4046707423616441,[0.39790961],5.0,0.6,0.0,-2.267934615024169,-0.12795023214187942,1.4870848677525161
2.57785964012146,0.4079925205461675,[0.39913918],5.0,0.6,0.0,-3.235913382424118,-0.1792746867239491,1.4767116137599432
2.585939407348633,0.4101419064302709,[0.40016328],5.0,0.6,0.0,-3.9055976982033234,-0.1762303478804204,1.4690554764462713
2.5951220989227295,0.41209589359763754,[0.40098767],5.0,0.6,0.0,-4.857200727541472,-0.19365758928684698,1.4583661728594708
2.6049907207489014,0.41424527948174095,[0.40161984],5.0,0.6,0.0,-5.0,-0.207477204195546,1.4503545257496846
2.6141715049743652,0.4158084692156343,[0.40206721],5.0,0.6,0.0,-5.0,-0.21449424161007916,1.444671783992597
2.6224238872528076,0.41717626023279103,[0.40234057],5.0,0.6,0.0,-5.0,-0.2036661221205079,1.4386673067838496
2.6326487064361572,0.41834865253321096,[0.40245391],5.0,0.6,0.0,-5.0,-0.20441717741166598,1.4324588027084824
2.6417148113250732,0.4191302474001577,[0.40242249],5.0,0.6,0.0,-5.0,-0.19078535149130033,1.4274321432958659
2.650848627090454,0.4197164435503677,[0.40226442],5.0,0.6,0.0,-5.0,-0.16543281272932722,1.4226356060053487
2.6585910320281982,0.420107240983841,[0.40200125],5.0,0.6,0.0,-5.0,-0.14206065085775565,1.4182698409771934
2.6691055297851562,0.42030263970057774,[0.40165658],5.0,0.6,0.0,-5.0,-0.10703239768090939,1.41455945362908
2.678010940551758,0.42049803841731437,[0.40125638],5.0,0.6,0.0,-5.0,-0.06912572515008918,1.4103589526201006
2.687641143798828,0.42049803841731437,[0.40082855],5.0,0.6,0.0,-5.0,-0.02972702706854773,1.4072721860836541
2.6975905895233154,0.42049803841731437,[0.40040153],5.0,0.6,0.0,-5.0,0.00821008128741549,1.404134247800981
2.7059359550476074,0.42030263970057774,[0.4000034],5.0,0.6,0.0,-4.746847793526552,0.04307276383771861,1.4043975742306047
2.7156336307525635,0.42030263970057774,[0.39966066],5.0,0.6,0.0,-3.840257774588589,0.07097739181491787,1.4074533821973025
2.7250866889953613,0.420107240983841,[0.39939709],5.0,0.6,0.0,-2.573391430661478,0.09275346486891622,1.4128888050356307
2.734649419784546,0.420107240983841,[0.39923258],5.0,0.6,0.0,-1.124301658587441,0.10581005231537167,1.41559924200747
2.7436585426330566,0.42030263970057774,[0.39918217],5.0,0.6,0.0,0.397666980237551,0.11054379137062335,1.4145313665400838
2.7517459392547607,0.42030263970057774,[0.39925259],5.0,0.6,0.0,1.9251949286954932,0.08284095624948293,1.412441033441782
2.7596702575683594,0.42049803841731437,[0.39943985],5.0,0.6,0.0,3.417218685182554,0.05655625864595707,1.406512160413627
2.7703464031219482,0.420693437134051,[0.3997387],5.0,0.6,0.0,4.5733189539002455,0.0794589876341884,1.4005961487775185
2.779646873474121,0.42108423456752436,[0.40014659],5.0,0.6,0.0,5.0,0.04985538377146763,1.397788762703033
2.7918550968170166,0.4214750320009977,[0.40065767],5.0,0.6,0.0,5.0,0.057513316891255585,1.3987093807904862
2.8037426471710205,0.42186582943447104,[0.40126525],5.0,0.6,0.0,5.0,0.04796609423686775,1.400357566271047
2.8116257190704346,0.42225662686794435,[0.40195955],5.0,0.6,0.0,5.0,0.014096569519393051,1.402640843137557
2.8205857276916504,0.4226474243014178,[0.40272405],5.0,0.6,0.0,5.0,-0.011393503535407447,1.4054133757170064
2.8299179077148438,0.4230382217348911,[0.40354162],5.0,0.6,0.0,5.0,-0.02182390154656178,1.408526491525883
2.8389546871185303,0.42323362045162777,[0.40439743],5.0,0.6,0.0,5.0,-0.03635957920788504,1.4132307945060243
2.8493754863739014,0.4236244178851011,[0.40527732],5.0,0.6,0.0,5.0,-0.04767121345919531,1.41662502918604
2.8596200942993164,0.4236244178851011,[0.40616806],5.0,0.6,0.0,4.858593356674832,-0.05205195801358592,1.4236080236405715
2.8676443099975586,0.42381981660183776,[0.40705821],5.0,0.6,0.0,4.139900025123229,-0.05648597284013011,1.4327624843254494
2.8785946369171143,0.42381981660183776,[0.4079384],5.0,0.6,0.0,3.322193312656058,-0.05095730028624326,1.4426584819894257
2.8876068592071533,0.42381981660183776,[0.40880209],5.0,0.6,0.0,2.588102247150961,-0.04322945336143183,1.4509343128671963
2.8972458839416504,0.4236244178851011,[0.40964528],5.0,0.6,0.0,1.7133171357691226,-0.03222214757143883,1.4594902331627424
2.905745506286621,0.42342901916836445,[0.41046599],5.0,0.6,0.0,0.9388779071483007,-0.019054841141085067,1.4662946756995199
2.9143729209899902,0.42323362045162777,[0.41126421],5.0,0.6,0.0,0.33262697132869534,-0.003690546219130593,1.4716709149538432
2.9230265617370605,0.4230382217348911,[0.41204051],5.0,0.6,0.0,-0.10827118005912861,-0.0011159357605561248,1.476091582194264
2.9311695098876953,0.4230382217348911,[0.41279598],5.0,0.6,0.0,0.14122088742183564,0.019606257985338143,1.4792229973018203
2.9386346340179443,0.4230382217348911,[0.41353307],5.0,0.6,0.0,0.011843742550738917,0.021748891287024494,1.482092607829853
2.9480173587799072,0.42284282301815435,[0.41425556],5.0,0.6,0.0,0.06094860359586228,0.049338318455365605,1.4853572487033706
2.95759916305542,0.4226474243014178,[0.41497072],5.0,0.6,0.0,0.1574633637042802,0.0773673268817096,1.4882643831349158
2.9656474590301514,0.4226474243014178,[0.41568637],5.0,0.6,0.0,0.5250551062047083,0.07550128885681257,1.490150389772016
2.97462797164917,0.4226474243014178,[0.41640878],5.0,0.6,0.0,0.9037905446858341,0.10739323540580804,1.491638399625227
2.9844610691070557,0.42284282301815435,[0.41714814],5.0,0.6,0.0,1.4793473931037775,0.13731088012543854,1.4919086497908496
2.9949018955230713,0.42284282301815435,[0.4179227],5.0,0.6,0.0,1.991172765604722,0.20495253564462632,1.4922274924414731
3.0028746128082275,0.4230382217348911,[0.41875129],5.0,0.6,0.0,2.3613357088979554,0.18886289821370483,1.4921976702642221
3.0117413997650146,0.42342901916836445,[0.4196452],5.0,0.6,0.0,2.587216362253815,0.22237189276653974,1.492182598086274
3.021841287612915,0.42401521531857445,[0.42061784],5.0,0.6,0.0,2.9687125574438653,0.2530707922551887,1.4911764949611324
3.030792713165283,0.42460141146878444,[0.42168869],5.0,0.6,0.0,3.568246489007768,0.2801988648592685,1.4889159275642259
3.0417072772979736,0.4253830063357311,[0.42287811],5.0,0.6,0.0,4.08125816681882,0.30216059378583215,1.486499128137369
3.0516228675842285,0.42655539863615116,[0.42420721],5.0,0.6,0.0,4.696000721814203,0.3167576812170259,1.4827485291567408
3.061046600341797,0.4277277909365711,[0.42569791],5.0,0.6,0.0,4.89430916547337,0.32415970556522733,1.4816589088556358
3.0685296058654785,0.4287047845202545,[0.42736347],5.0,0.6,0.0,5.0,0.32038163700080313,1.4813723036852497
3.079575777053833,0.43026797425414787,[0.42920906],5.0,0.6,0.0,5.0,0.3263859972580335,1.4815078266645292
3.0896196365356445,0.4322219614215146,[0.43125079],5.0,0.6,0.0,5.0,0.3098149109108198,1.4815434452850709
3.0976502895355225,0.4335897524386713,[0.43351429],5.0,0.6,0.0,5.0,0.27904956278158055,1.4817309231252551
3.1068761348724365,0.43573913832277467,[0.4360235],5.0,0.6,0.0,5.0,0.2322529124279656,1.4817158903378511
3.1166746616363525,0.437888524206878,[0.43879969],5.0,0.6,0.0,5.0,0.23063960400451472,1.481566030364204
3.1273000240325928,0.44042870752445473,[0.4418605],5.0,0.6,0.0,5.0,0.24411861671025453,1.4813221375490448
3.13662052154541,0.44277349212529477,[0.44521885],5.0,0.6,0.0,5.0,0.25679981689202475,1.4805368261690854
3.147284984588623,0.44589987159308153,[0.4488935],5.0,0.6,0.0,5.0,0.301813573646587,1.4799413070808718
3.1566100120544434,0.4484400549106582,[0.4528946],5.0,0.6,0.0,5.0,0.2591976466559377,1.4777713386105211
3.1660079956054688,0.4513710356617082,[0.45719988],5.0,0.6,0.0,4.5732600582806455,0.2646984334676697,1.4778989233647362
3.1751210689544678,0.45430201641275836,[0.46178197],5.0,0.6,0.0,4.12335008587376,0.2677132186944933,1.4763749603944714
3.1836190223693848,0.4570375984470717,[0.46661114],5.0,0.6,0.0,3.425943697633612,0.3182603170864753,1.4731752239384115
3.192586898803711,0.45996857919812173,[0.47164508],5.0,0.6,0.0,2.740239352889205,0.3240780406747721,1.467541779762898
3.204625368118286,0.4642673509663285,[0.47685964],5.0,0.6,0.0,2.4317423790958737,0.2814711633572706,1.4644018390757099
3.2129123210906982,0.46719833171737857,[0.48224636],5.0,0.6,0.0,1.7220629758629835,0.30363386627744565,1.4535189325554794
3.2214653491973877,0.4703247111851653,[0.48777612],5.0,0.6,0.0,1.2734155209331532,0.39020413103194257,1.439701950273261
3.2307090759277344,0.47384188808642536,[0.49340455],5.0,0.6,0.0,0.9787823835423598,0.39907094991497805,1.4256036480734484
3.2386200428009033,0.4771636662709487,[0.49909287],5.0,0.6,0.0,0.5019384042222217,0.4227541750646925,1.408114845605399
3.248007297515869,0.4808762418889455,[0.50480825],5.0,0.6,0.0,0.3270379886996565,0.43064728733646185,1.3916893638527115
3.2571468353271484,0.4845888175069422,[0.51053262],5.0,0.6,0.0,0.5547083834834898,0.4337454111981544,1.3738222903997497
3.2667953968048096,0.4879105956914656,[0.51625216],5.0,0.6,0.0,0.3100159842178857,0.4520873782283949,1.3515195585179014
3.2779700756073,0.49220936745967236,[0.52195842],5.0,0.6,0.0,-0.04400587068178835,0.40605394319537774,1.337777331170479
3.286531925201416,0.49592194307766907,[0.52766686],5.0,0.6,0.0,-0.6414779470951666,0.3961485599342396,1.317158163997399
3.2950637340545654,0.49943911997892915,[0.53339449],5.0,0.6,0.0,-1.196123564952332,0.38026713083286284,1.2929983675571162
3.3055267333984375,0.5039332904638726,[0.53915016],5.0,0.6,0.0,-1.6172429129820522,0.39114293991159516,1.27838115910896
3.3135697841644287,0.507255068648396,[0.5449331],5.0,0.6,0.0,-2.171985570724621,0.4532274088357519,1.2493222828352348
3.3231360912323,0.511358441699866,[0.55073342],5.0,0.6,0.0,-2.914328362053614,0.411770257733961,1.2271073354186124
3.3325748443603516,0.5150710173178628,[0.55655586],5.0,0.6,0.0,-3.2650229660216326,0.4256089475759834,1.2009153057024213
3.3415584564208984,0.5185881942191228,[0.56240476],5.0,0.6,0.0,-3.659832962991853,0.47601524801294387,1.1712741600430445
3.3506011962890625,0.5223007698371195,[0.56827126],5.0,0.6,0.0,-3.9499162215285675,0.4388828843266975,1.1438231169967752
3.359558582305908,0.5260133454551164,[0.57415757],5.0,0.6,0.0,-4.103762656509389,0.454941957384507,1.1166514401828473
3.369373321533203,0.5301167185065864,[0.58007322],5.0,0.6,0.0,-4.135264859780739,0.4650834920429261,1.0944893856114826
3.3800063133239746,0.5344154902747932,[0.58602841],5.0,0.6,0.0,-4.071763623502677,0.495823460717867,1.0747811301277235
3.390441656112671,0.5383234646095265,[0.5920306],5.0,0.6,0.0,-3.9408753511005474,0.48165753429377384,1.0502133911119131
3.4006428718566895,0.54223143894426,[0.59806458],5.0,0.6,0.0,-3.7658667206095866,0.541915218674981,1.0256358620418562
3.4085991382598877,0.5455532171287834,[0.60409167],5.0,0.6,0.0,-3.5647125739600756,0.5996563245087814,0.9945434409176884
3.4176535606384277,0.5494611914635167,[0.61006412],5.0,0.6,0.0,-3.350582308083421,0.5995072944654225,0.9714372018204251
3.427102565765381,0.5529783683647768,[0.61593626],5.0,0.6,0.0,-2.856713134956406,0.5730930241680988,0.9465651751110029
3.437281608581543,0.5570817414162468,[0.62166285],5.0,0.6,0.0,-2.6083609786481605,0.5130440448748651,0.9292070209985217
3.4481208324432373,0.5615759119011904,[0.6271939],5.0,0.6,0.0,-2.45495187971044,0.42467840852714855,0.918211947676233
3.4574475288391113,0.5656792849526604,[0.63247637],5.0,0.6,0.0,-2.331802751487576,0.3224344406551444,0.9056523723506531
3.4665703773498535,0.5691964618539204,[0.63746092],5.0,0.6,0.0,-2.2138140351793396,0.27309340855274256,0.8901275458351993
3.474647283554077,0.5723228413217071,[0.64210421],5.0,0.6,0.0,-2.0933390591841126,0.17738556657881654,0.8743606297368266
3.484806537628174,0.5764262143731771,[0.64635422],5.0,0.6,0.0,-1.9698336842985276,0.03912468017193736,0.873187952056941
3.4925544261932373,0.5793571951242272,[0.65015906],5.0,0.6,0.0,-1.8451805379869013,0.04706295507506103,0.8644032046941792
3.501558780670166,0.5830697707422241,[0.65348611],5.0,0.6,0.0,-1.7216997406195034,-0.00042509461451898273,0.868746715243434
3.510568380355835,0.5865869476434841,[0.65630483],5.0,0.6,0.0,-1.6013973942245228,-0.019154583445365872,0.8763761627129603
3.5202155113220215,0.5902995232614808,[0.65857859],5.0,0.6,0.0,-1.485759186126998,-0.00243174711240649,0.8919649326375749
3.530838966369629,0.5942074975962143,[0.66027213],5.0,0.6,0.0,-1.927841699223533,0.0620255360350642,0.9149763815773767
3.5386674404144287,0.5967476809137909,[0.66135129],5.0,0.6,0.0,-2.166342146987031,0.06738678311122934,0.9305124143860758
3.55006742477417,0.6004602565317877,[0.66178357],5.0,0.6,0.0,-2.820054698231602,0.020799515625440898,0.9654858847486312
3.5576813220977783,0.603195838566101,[0.66155636],5.0,0.6,0.0,-3.1733811460031474,0.03291425693578692,0.9985740016381957
3.5685951709747314,0.6067130154673611,[0.66067654],5.0,0.6,0.0,-4.152885748663817,-0.02776637627179375,1.0458744105866842
3.5786235332489014,0.6098393949351478,[0.65913667],5.0,0.6,0.0,-4.8220408540306545,-0.08229805556258175,1.0980418830643262
3.588762044906616,0.612770375686198,[0.65691888],5.0,0.6,0.0,-4.930221101322092,-0.1305952330453231,1.159409275423815
3.597754955291748,0.6153105590037747,[0.65401591],5.0,0.6,0.0,-5.0,-0.17141379584590383,1.222831204366248
3.6090595722198486,0.618632337188298,[0.65041717],5.0,0.6,0.0,-4.966885121138592,-0.26257786895754603,1.2990187644240185
3.618614673614502,0.6205863243556646,[0.64612866],5.0,0.6,0.0,-5.0,-0.22173347433323026,1.359404185415198
3.629101276397705,0.6223449128062948,[0.64120514],5.0,0.6,0.0,-5.0,-0.2457819013983818,1.4130620444935165
3.6382858753204346,0.623908102540188,[0.63571277],5.0,0.6,0.0,-5.0,-0.26344311090554606,1.4542468068084506
3.647494316101074,0.6250804948406082,[0.62972253],5.0,0.6,0.0,-5.0,-0.24148270620016393,1.4774316318243126
3.656586170196533,0.6258620897075547,[0.62332376],5.0,0.6,0.0,-5.0,-0.2622259205332586,1.4804442732619232
3.668757200241089,0.6268390832912382,[0.61659404],5.0,0.6,0.0,-5.0,-0.2938830750630266,1.4609586805516188
3.678624153137207,0.6272298807247115,[0.60960563],5.0,0.6,0.0,-5.0,-0.40128280806604305,1.4214994810776862
3.688588857650757,0.6272298807247115,[0.60245207],5.0,0.6,0.0,-5.0,-0.47067904160304297,1.3661831858553777
3.700576066970825,0.6270344820079748,[0.59524554],5.0,0.6,0.0,-5.0,-0.41048804073935896,1.2987392866699614
3.7110061645507812,0.6262528871410281,[0.58811432],5.0,0.6,0.0,-5.0,-0.19687687616383076,1.2293149280961517
3.718710422515869,0.6256666909908181,[0.58117927],5.0,0.6,0.0,-5.0,-0.22296089265513971,1.1548557579976444
3.7298057079315186,0.6242988999736614,[0.57454444],5.0,0.6,0.0,-5.0,0.015927974561476745,1.0912412192652443
3.739504098892212,0.6231265076732413,[0.56831549],5.0,0.6,0.0,-5.0,0.014762328507062137,1.0300776963854887
3.7496273517608643,0.6217587166560847,[0.5625856],5.0,0.6,0.0,-5.0,0.041914850172593644,0.9781725533428005
3.758574962615967,0.620977121789138,[0.55742757],5.0,0.6,0.0,-4.798399989295574,0.022334511137594208,0.9290292042195879
3.768080949783325,0.6200001282054547,[0.55290297],5.0,0.6,0.0,-3.5759544111079333,-0.07525313213511671,0.8969757877446924
3.776345729827881,0.6194139320552446,[0.54907878],5.0,0.6,0.0,-1.9381114074343697,-0.0950415016843787,0.8690088499005086
3.785531520843506,0.6184369384715612,[0.54600782],5.0,0.6,0.0,0.09763345279428404,-0.1250865631310603,0.8502123358007377
3.794503688812256,0.6176553436046146,[0.54371414],5.0,0.6,0.0,2.149577945635387,-0.08789506698372226,0.8316272794932926
3.8025457859039307,0.616873748737668,[0.5422288],5.0,0.6,0.0,4.06711269086892,-0.05715603348537254,0.8159576317175565
3.8136496543884277,0.6157013564372479,[0.54160462],5.0,0.6,0.0,5.0,0.028381375375758095,0.8152477372753673
3.8246281147003174,0.6143335654200912,[0.54191026],5.0,0.6,0.0,5.0,0.09111326713764807,0.832010474145041
3.8352718353271484,0.6133565718364078,[0.54318838],5.0,0.6,0.0,5.0,0.07865323200466898,0.855277710507247
3.844910144805908,0.6125749769694612,[0.54542229],5.0,0.6,0.0,5.0,0.0716071643830075,0.8875313086398368
3.8546946048736572,0.6117933821025145,[0.54856204],5.0,0.6,0.0,5.0,0.06964924019899335,0.9312225805764848
3.8634636402130127,0.6114025846690411,[0.55253289],5.0,0.6,0.0,5.0,0.02450084262565392,0.9817415881251123
3.871918201446533,0.6110117872355679,[0.55724035],5.0,0.6,0.0,5.0,0.0442818755979694,1.0425979452312797
3.8805906772613525,0.6108163885188312,[0.56259029],5.0,0.6,0.0,5.0,0.0211470066486419,1.1097720846639614
3.890608310699463,0.6106209898020944,[0.56848967],5.0,0.6,0.0,5.0,0.0511328836575093,1.1828988081922893
3.9017529487609863,0.6104255910853578,[0.57486744],5.0,0.6,0.0,5.0,0.10813260682892684,1.2582958933708346
3.913865804672241,0.6102301923686212,[0.58167814],5.0,0.6,0.0,5.0,0.14476552718618832,1.3312859620442383
3.922710657119751,0.6102301923686212,[0.58885747],5.0,0.6,0.0,5.0,0.12107874712210648,1.394422371997484
3.934762716293335,0.6104255910853578,[0.59631788],5.0,0.6,0.0,5.0,0.1576560982607719,1.4427083997706496
3.9446041584014893,0.6106209898020944,[0.6039802],5.0,0.6,0.0,5.0,0.2525886234689286,1.4729508272080079
3.9552977085113525,0.6110117872355679,[0.61176791],5.0,0.6,0.0,5.0,0.3321678973283814,1.4816177233163956
3.9645979404449463,0.6115979833857779,[0.61959657],5.0,0.6,0.0,5.0,0.37125401340672165,1.469018086517103
3.974881172180176,0.6123795782527245,[0.62738774],5.0,0.6,0.0,5.0,0.40187200027227016,1.4376826883179405
3.9842991828918457,0.6131611731196712,[0.63507495],5.0,0.6,0.0,5.0,0.3943740089419238,1.3901572946736784
3.994577169418335,0.6145289641368279,[0.64259597],5.0,0.6,0.0,5.0,0.3948528639397341,1.3359650245679897
4.00351357460022,0.6162875525874579,[0.64989538],5.0,0.6,0.0,5.0,0.3887872059093545,1.2795321283482735
4.013566970825195,0.6180461410380881,[0.65692912],5.0,0.6,0.0,5.0,0.38917208802922154,1.22079123939222
4.022263526916504,0.6200001282054547,[0.66365941],5.0,0.6,0.0,5.0,0.36342541099695724,1.1647552258443432
4.032555818557739,0.622149514089558,[0.67005228],5.0,0.6,0.0,5.0,0.3474779664880938,1.113688387882623
4.043383359909058,0.6250804948406082,[0.67607941],5.0,0.6,0.0,5.0,0.32267640150590116,1.0761469016275322
4.051680088043213,0.6272298807247115,[0.68171916],5.0,0.6,0.0,5.0,0.3084314083115353,1.0339478946407241
4.059616565704346,0.6293792666088148,[0.68695592],5.0,0.6,0.0,5.0,0.2921253246074433,0.9970278162318391
4.070152282714844,0.6327010447933382,[0.69177962],5.0,0.6,0.0,5.0,0.273091654041579,0.9792839023750419
4.078494548797607,0.6354366268276517,[0.69618638],5.0,0.6,0.0,5.0,0.26995649158485124,0.9597502322414864
4.087787866592407,0.638172208861965,[0.70017873],5.0,0.6,0.0,5.0,0.25934312159445305,0.9452260580344245
4.095815658569336,0.641103189613015,[0.70376367],5.0,0.6,0.0,5.0,0.2533374692838834,0.9377298975374087
4.105500221252441,0.6444249677975383,[0.70695276],5.0,0.6,0.0,4.625797822040298,0.2517091024147474,0.94183763476713
4.116689205169678,0.6483329421322718,[0.70976336],5.0,0.6,0.0,4.125221434558284,0.25651607303356666,0.95762454605236
4.124504566192627,0.651850119033532,[0.71221737],5.0,0.6,0.0,3.07748268865958,0.249570786727913,0.975467188405159
4.133516073226929,0.6551718972180554,[0.71433961],5.0,0.6,0.0,2.0156982328075763,0.2608726487592071,0.9934886957643352
4.141496181488037,0.6582982766858421,[0.71615832],5.0,0.6,0.0,1.1269417261687695,0.27518751062709074,1.0109908272651897
4.150516748428345,0.6620108523038388,[0.71770347],5.0,0.6,0.0,0.1732022950452754,0.2707118298575564,1.0377427391971525
4.161501169204712,0.6663096240720454,[0.71900508],5.0,0.6,0.0,-0.34629121371067917,0.2797863301841236,1.0737751480508995
4.170554876327515,0.6698268009733056,[0.7200952],5.0,0.6,0.0,-0.899136633914809,0.290422395253369,1.1026733943172655
4.182528257369995,0.6751025663251957,[0.72100928],5.0,0.6,0.0,-1.3468911001594859,0.31203173917176297,1.1547230916634459
4.1919105052948,0.6788151419431923,[0.72178354],5.0,0.6,0.0,-1.9356085971194534,0.3081740438841414,1.1884667401037712
4.200660705566406,0.6823323188444524,[0.72244958],5.0,0.6,0.0,-2.710670922060676,0.3025494099799889,1.2193460602810933
4.210545301437378,0.6862402931791859,[0.72303399],5.0,0.6,0.0,-3.365946388808244,0.2924933244960803,1.2544401681495778
4.2185399532318115,0.689171273930236,[0.72355822],5.0,0.6,0.0,-3.817756791869706,0.26091366275049827,1.2786589590386832
4.226862668991089,0.6924930521147594,[0.72403888],5.0,0.6,0.0,-4.348432746018853,0.25684756626316324,1.3056476024297288
4.2362189292907715,0.696205627732756,[0.7244927],5.0,0.6,0.0,-4.751493783377677,0.2458024494250243,1.3355899888821812
4.24371075630188,0.6993320072005428,[0.72493373],5.0,0.6,0.0,-4.979863295031288,0.21168084101170342,1.3590153326023162
4.253521680831909,0.7036307789687495,[0.72537098],5.0,0.6,0.0,-5.0,0.19711738644224736,1.3915350241534648
4.2634782791137695,0.7077341520202196,[0.72581314],5.0,0.6,0.0,-4.692331788811741,0.17863809047303117,1.4205963681816014
4.272643566131592,0.7114467276382163,[0.72626852],5.0,0.6,0.0,-4.525848914746904,0.15984311671302756,1.44199653486103
4.283958196640015,0.7157454994064231,[0.72674318],5.0,0.6,0.0,-4.6581876380099105,0.13959498982961827,1.4602060135303159
4.293562173843384,0.7196534737411566,[0.72724231],5.0,0.6,0.0,-4.529665946857623,0.12605986019931026,1.4735054131901233
4.302503347396851,0.7233660493591532,[0.72777151],5.0,0.6,0.0,-4.287210332220338,0.11978387855409516,1.4826291969210246
4.313833951950073,0.7278602198440967,[0.72834081],5.0,0.6,0.0,-4.002688037015246,0.1449565226700518,1.4881685009094898
4.323228359222412,0.7315727954620934,[0.7289613],5.0,0.6,0.0,-3.710647250312147,0.10970963296552282,1.4884917058005414
4.3365843296051025,0.7368485608139834,[0.72964269],5.0,0.6,0.0,-3.427145491816568,0.14427072961762602,1.481001584235652
4.348679542541504,0.7415381300156635,[0.73040362],5.0,0.6,0.0,-3.159132888616142,0.17062679120551372,1.4681351427841918
4.356596946716309,0.7446645094834503,[0.7312611],5.0,0.6,0.0,-2.909120593365409,0.12802055552072755,1.4584472502207888
4.3707194328308105,0.7501356735520771,[0.73222239],5.0,0.6,0.0,-2.9535356459304234,0.1502532284047499,1.4313871444677893
4.381819009780884,0.7544344453202838,[0.73329722],5.0,0.6,0.0,-3.0488750167536223,0.13278611740642254,1.4076474931730378
4.391512393951416,0.7587332170884905,[0.7344921],5.0,0.6,0.0,-2.8298726777197887,0.11482702809154145,1.3831911433961677
4.4015281200408936,0.7628365901399606,[0.73580617],5.0,0.6,0.0,-2.5173042803958614,0.09816373348375408,1.359351511453016
4.411359071731567,0.766744564474694,[0.7372367],5.0,0.6,0.0,-2.4798263161078964,0.08357509000830249,1.3356200392360353
4.420919179916382,0.7704571400926907,[0.73877958],5.0,0.6,0.0,-2.2322520090003124,0.07087243705228113,1.3144674948443067
4.4284772872924805,0.7733881208437408,[0.74042571],5.0,0.6,0.0,-2.2133171334258557,0.03100052730496587,1.3010518847815773
4.437514066696167,0.7767098990282643,[0.74216188],5.0,0.6,0.0,-1.9690036158844535,0.030945710299004968,1.2847630571515614
4.44593358039856,0.7796408797793143,[0.74397929],5.0,0.6,0.0,-1.6749097005720501,0.02918121454963349,1.2733366404058293
4.456532955169678,0.783353455397311,[0.74587255],5.0,0.6,0.0,-1.6766037843585062,0.019430715935320725,1.2529676660870648
4.4650092124938965,0.7862844361483611,[0.74783428],5.0,0.6,0.0,-2.029138842201653,0.008321860626398446,1.2409676692810476
4.475868225097656,0.7901924104830944,[0.74985441],5.0,0.6,0.0,-2.4033133665944364,-0.014497733429741701,1.2179349255366085
4.484472751617432,0.7933187899508811,[0.75191756],5.0,0.6,0.0,-2.684522879182584,-0.05971770033148592,1.2044353516292805
4.493915796279907,0.7962497707019311,[0.75400459],5.0,0.6,0.0,-2.850153576027636,-0.07389726172183488,1.193810112065252
4.501545190811157,0.7983991565860346,[0.75609607],5.0,0.6,0.0,-2.912896218890484,-0.11891998736034984,1.1928593126747717
4.5112316608428955,0.8009393399036113,[0.75816908],5.0,0.6,0.0,-3.447709770957834,-0.16381034736366598,1.1848299314125075
4.519452810287476,0.8030887257877147,[0.76019835],5.0,0.6,0.0,-3.7155047039660527,-0.20051026456397913,1.1820031929450845
4.528544902801514,0.8052381116718181,[0.7621587],5.0,0.6,0.0,-4.353929267275375,-0.2527257209752398,1.1760145611363215
4.537877559661865,0.8071920988391849,[0.76401916],5.0,0.6,0.0,-4.93814875330569,-0.3452426746643552,1.1709895273106425
4.546507835388184,0.8089506872898149,[0.7657467],5.0,0.6,0.0,-5.0,-0.35713001142789214,1.1701791392291963
4.5550477504730225,0.8101230795902348,[0.76731441],5.0,0.6,0.0,-5.0,-0.41255721657561145,1.1748768486367518
4.563483953475952,0.8112954718906548,[0.76870012],5.0,0.6,0.0,-5.0,-0.41264547541302055,1.177406964062845
4.572454452514648,0.8120770667576015,[0.76988414],5.0,0.6,0.0,-5.0,-0.4628311001623565,1.1821705991972666
4.582452058792114,0.8124678641910749,[0.77084352],5.0,0.6,0.0,-5.0,-0.49696034495271285,1.188878772698559
4.591524362564087,0.8126632629078115,[0.77155355],5.0,0.6,0.0,-5.0,-0.5176082331305023,1.1949261460697584
4.60179591178894,0.8122724654743383,[0.77198829],5.0,0.6,0.0,-5.0,-0.546302648865456,1.2045752154577234
4.612523555755615,0.8114908706073914,[0.77212269],5.0,0.6,0.0,-5.0,-0.5392805982251784,1.2152004626692001
4.6205480098724365,0.8103184783069715,[0.77195236],5.0,0.6,0.0,-5.0,-0.5106613780044496,1.2267165592756064
4.628478050231934,0.8093414847232882,[0.77149662],5.0,0.6,0.0,-5.0,-0.4803564468935089,1.232659098444461
4.636533975601196,0.807582896272658,[0.77077663],5.0,0.6,0.0,-5.0,-0.48494647520333917,1.2443941570804287
4.647335767745972,0.8052381116718181,[0.76980372],5.0,0.6,0.0,-5.0,-0.479170829296507,1.2596616683302457
4.659484386444092,0.802307130920768,[0.76858738],5.0,0.6,0.0,-5.0,-0.46606152241373355,1.2783306657303188
4.668480634689331,0.7997669476031912,[0.76714172],5.0,0.6,0.0,-5.0,-0.4523333800181878,1.2899842679180589
4.676762819290161,0.7972267642856145,[0.76548484],5.0,0.6,0.0,-5.0,-0.4360692702259559,1.2992274975958877
4.685786247253418,0.7944911822513011,[0.76363831],5.0,0.6,0.0,-5.0,-0.4152394164765899,1.3083770428671917
4.693553924560547,0.7917556002169878,[0.76162964],5.0,0.6,0.0,-4.88707485949714,-0.3676345320127564,1.3165395045999448
4.702570199966431,0.7882384233157278,[0.75949083],5.0,0.6,0.0,-4.863502320387174,-0.34492816564625783,1.330350865367373
4.713312864303589,0.783939651547521,[0.75724923],5.0,0.6,0.0,-4.814818073511953,-0.3283125928444857,1.3502459820552637
4.721796274185181,0.7806178733629977,[0.75493027],5.0,0.6,0.0,-3.329328248367076,-0.2753560232276041,1.3681832315285012
4.730738162994385,0.7772960951784743,[0.75256417],5.0,0.6,0.0,-2.1755548741738497,-0.2424405617293712,1.3813422527382555
4.7399680614471436,0.7735835195604776,[0.75018077],5.0,0.6,0.0,-0.7696277604363218,-0.20679400362622757,1.3958076067606886
4.747853755950928,0.7704571400926907,[0.74780697],5.0,0.6,0.0,0.7356405986282724,-0.17379478264167167,1.4020797302434924
4.755833864212036,0.767330760624904,[0.74546839],5.0,0.6,0.0,2.2541065229610298,-0.14110703695911656,1.4050661376829843
4.763445854187012,0.7640089824403806,[0.74318855],5.0,0.6,0.0,3.4612642594114007,-0.11357523540407452,1.4081148043381129
4.772507190704346,0.7601010081056472,[0.74098786],5.0,0.6,0.0,4.849362337682484,-0.08598936894448361,1.412340057297569
4.782259941101074,0.7561930337709138,[0.73888357],5.0,0.6,0.0,5.0,-0.06022814263973283,1.423568613101795
4.794498682022095,0.7513080658524971,[0.73689025],5.0,0.6,0.0,5.0,-0.03057916911020828,1.4410097610901378
4.8071019649505615,0.7464230979340803,[0.73501945],5.0,0.6,0.0,5.0,-0.007961900885055117,1.456058757981999
4.814545154571533,0.743687515899767,[0.73327852],5.0,0.6,0.0,5.0,-0.0026146355656829065,1.4602957262881393
4.824544668197632,0.7401703389985068,[0.73167093],5.0,0.6,0.0,5.0,0.009511270742927586,1.467387932269017
4.834540367126465,0.7366531620972468,[0.73019848],5.0,0.6,0.0,5.0,0.025792204854467423,1.4734340976342317
4.844290733337402,0.73352678262946,[0.72886299],5.0,0.6,0.0,5.0,0.048026640336960386,1.4773913112413868
4.853904724121094,0.7304004031616733,[0.72766755],5.0,0.6,0.0,5.0,0.08040133027080873,1.4802394851362997
4.862491607666016,0.7278602198440967,[0.72661551],5.0,0.6,0.0,5.0,0.09392464735791324,1.4814222485182476
4.874431133270264,0.7245384416595733,[0.72571397],5.0,0.6,0.0,5.0,0.1787944449208938,1.4814557256783576
4.883478164672852,0.72238905577547,[0.72497906],5.0,0.6,0.0,5.0,0.22950348592541897,1.4803913323010125
4.891759157180786,0.7204350686081032,[0.72443045],5.0,0.6,0.0,5.0,0.2838538318144061,1.478544546553335
4.899492979049683,0.7186764801574732,[0.72408925],5.0,0.6,0.0,5.0,0.3367318548169371,1.4758895727499461
4.907508134841919,0.7173086891403164,[0.72397271],5.0,0.6,0.0,5.0,0.33531399578658655,1.4728895475929131
4.9191529750823975,0.7155501006896864,[0.72410328],5.0,0.6,0.0,5.0,0.40016041843549827,1.4672072083465082
4.926592826843262,0.7147685058227398,[0.72452388],5.0,0.6,0.0,5.0,0.3850467814304995,1.462878591321303
4.934553861618042,0.713986910955793,[0.7252534],5.0,0.6,0.0,5.0,0.3910882041997131,1.4566648248700842
4.94396185874939,0.7134007148055831,[0.72627881],5.0,0.6,0.0,5.0,0.3502398950403821,1.4491070627295866
4.954425096511841,0.7134007148055831,[0.72761195],5.0,0.6,0.0,5.0,0.30196049675899644,1.4421450851202915
4.964232921600342,0.7134007148055831,[0.72928665],5.0,0.6,0.0,5.0,0.32847008977659264,1.4325120626592445
4.97297739982605,0.7137915122390565,[0.73133286],5.0,0.6,0.0,5.0,0.35413067995922826,1.4220475757266406
4.982458114624023,0.7143777083892665,[0.73377645],5.0,0.6,0.0,5.0,0.3794883612069766,1.4092322910295225
4.991559743881226,0.7151593032562131,[0.73663915],5.0,0.6,0.0,5.0,0.40468989424749763,1.393584814135456
5.000962495803833,0.7161362968398964,[0.73993859],5.0,0.6,0.0,5.0,0.4299939739089807,1.3746059991452295
5.009463787078857,0.7173086891403164,[0.74368824],5.0,0.6,0.0,5.0,0.4551736992427635,1.3518067849883226
5.018469572067261,0.7188718788742098,[0.74788084],5.0,0.6,0.0,5.0,0.4249111545941084,1.3268289684333832
5.027529001235962,0.7206304673248398,[0.7524904],5.0,0.6,0.0,5.0,0.4620483503425509,1.2980013069141165
5.037508249282837,0.7229752519256799,[0.75750636],5.0,0.6,0.0,5.0,0.4910319883634261,1.2695569060387601
5.046982288360596,0.7253200365265199,[0.76292992],5.0,0.6,0.0,5.0,0.5150841755982789,1.2353267276033395
5.054481029510498,0.7274694224106234,[0.76875442],5.0,0.6,0.0,4.737877003738364,0.5361043874984514,1.1947032525529522
5.063412427902222,0.7300096057282001,[0.77495064],5.0,0.6,0.0,4.921835395980638,0.5035575193832442,1.1499732319491502
5.0726096630096436,0.7331359851959867,[0.78147019],5.0,0.6,0.0,4.603341156686005,0.5296845991928922,1.1112020694554408
5.080427885055542,0.7356761685135634,[0.78826469],5.0,0.6,0.0,4.6804077009796,0.5080276104969803,1.0591140447398018
5.089648723602295,0.7395841428482968,[0.79528594],5.0,0.6,0.0,4.53799892208239,0.5338613778213323,1.0225579484318406
5.100582838058472,0.7438829146165036,[0.80251005],5.0,0.6,0.0,4.5735591297219,0.588533248388008,0.9875366602161224
5.110495567321777,0.7475954902345003,[0.80993261],5.0,0.6,0.0,4.880824561696748,0.5891873675178736,0.9422763642616769
5.119523763656616,0.7511126671357603,[0.81752824],5.0,0.6,0.0,3.778436950698587,0.5924389967064461,0.9033536692951007
5.129823446273804,0.7554114389039671,[0.82525595],5.0,0.6,0.0,2.6622918222230583,0.5942615888793551,0.871698373357374
5.138459205627441,0.7591240145219639,[0.83306601],5.0,0.6,0.0,1.4457984859848154,0.6023131963516918,0.8334936526035017
5.147535800933838,0.7630319888566973,[0.84090348],5.0,0.6,0.0,-0.6933762598142887,0.6182713381005288,0.7970075602407907
5.156468391418457,0.7663537670412206,[0.84872084],5.0,0.6,0.0,-2.4388523429937337,0.7051598519966258,0.753058015664188
5.166050910949707,0.7706525388094273,[0.85647804],5.0,0.6,0.0,-4.248727492246989,0.7077510504831386,0.71593143355857
5.175540447235107,0.7743651144274242,[0.8641519],5.0,0.6,0.0,-5.0,0.7122354972149428,0.6811538315876243
5.185664653778076,0.7782730887621575,[0.87173413],5.0,0.6,0.0,-5.0,0.7163287084180537,0.6560292570243741
5.193712949752808,0.7813994682299443,[0.87921969],5.0,0.6,0.0,-5.0,0.7248114457345117,0.6292568367396455
5.202636003494263,0.7849166451312045,[0.8866065],5.0,0.6,0.0,-5.0,0.7307393841566351,0.6081495722079393
5.2134315967559814,0.7892154168994111,[0.89389546],5.0,0.6,0.0,-5.0,0.7301536571256094,0.5934718476176694
5.226477384567261,0.794686580968038,[0.90110184],5.0,0.6,0.0,-5.0,0.7809190827032721,0.5855785712160183
5.234593868255615,0.7978129604358245,[0.90825447],5.0,0.6,0.0,-5.0,0.8000907685798371,0.568939520480056
5.2445268630981445,0.8017209347705582,[0.91536043],5.0,0.6,0.0,-5.0,0.7786593699219769,0.5572951713509517
5.255622148513794,0.8060197065387646,[0.9224216],5.0,0.6,0.0,-5.0,0.8546502821435408,0.5482768315073457
5.263879299163818,0.8095368834400247,[0.92945762],5.0,0.6,0.0,-5.0,0.8333395746786948,0.5380807293624471
5.272411584854126,0.8130540603412848,[0.9364768],5.0,0.6,0.0,-5.0,0.8721546779636432,0.5292506293899548
5.28376317024231,0.8181344269764383,[0.94349218],5.0,0.6,0.0,-5.0,0.900967088554002,0.5248889476803781
5.2915120124816895,0.8210654077274883,[0.95053262],5.0,0.6,0.0,-5.0,0.9369024917252122,0.5167340018340443
5.299414157867432,0.8243871859120117,[0.95760938],5.0,0.6,0.0,-4.956453846035512,0.916308455026677,0.5107783764820565
5.310483694076538,0.828881356396955,[0.96473166],5.0,0.6,0.0,-4.7472289179103395,1.0003845204622814,0.50844788123832
5.318515777587891,0.8322031345814787,[0.97192074],5.0,0.6,0.0,-4.191403054155629,0.9689435695446577,0.5072490569240604
5.326443910598755,0.8353295140492653,[0.97916203],5.0,0.6,0.0,-3.855320126270431,0.9520153893486378,0.505018908421181
5.3371970653533936,0.839628285817472,[0.98643789],5.0,0.6,0.0,-3.6075863385181273,1.0286107549603345,0.5038304548934005
5.347591876983643,0.8439270575856788,[0.99378306],5.0,0.6,0.0,-3.392079357499415,1.0784823581818241,0.5027130660146125
5.35700798034668,0.8476396332036755,[1.00122104],5.0,0.6,0.0,-3.1871907823523826,1.0356349702574803,0.5014330792316988
5.3658952713012695,0.8513522088216723,[1.00872735],5.0,0.6,0.0,-2.9864038737857888,1.048975456408746,0.5004643245057039
5.3747100830078125,0.8548693857229324,[1.01627711],5.0,0.6,0.0,-2.7892503680003076,1.0637892674462774,0.4997010287294157
5.383905410766602,0.858581961340929,[1.02384753],5.0,0.6,0.0,-2.597254979593589,1.040657395945827,0.49924636138638295
5.39244818687439,0.8620991382421892,[1.03140655],5.0,0.6,0.0,-2.412232569024958,1.0686224564018008,0.4989244930985454
5.404570817947388,0.8671795048773426,[1.03895024],5.0,0.6,0.0,-2.2356629244999553,1.125899271333198,0.49902975991461157
5.412947654724121,0.8703058843451292,[1.0464995],5.0,0.6,0.0,-2.068535348006765,1.142966325311905,0.49883652701958964
5.421286344528198,0.8738230612463893,[1.05404982],5.0,0.6,0.0,-1.9113799327773728,1.120782114803969,0.4987967658556451
5.429464101791382,0.8771448394309127,[1.06157518],5.0,0.6,0.0,-1.764358523175238,1.1523428373352966,0.498798610450316
5.4374098777771,0.8806620163321728,[1.06905479],5.0,0.6,0.0,-1.627362028931424,1.1732396451922968,0.4988589329856293
5.447558879852295,0.8847653893836429,[1.07647242],5.0,0.6,0.0,-1.5000945469920608,1.1757030310987935,0.49897007896403167
5.456047773361206,0.8878917688514296,[1.08382829],5.0,0.6,0.0,-1.382139494019306,1.2104705772259878,0.4990427808804862
5.464473247528076,0.891213547035953,[1.0911238],5.0,0.6,0.0,-1.2730088293104198,1.2272888293701072,0.49913299400735933
5.472817420959473,0.8947307239372131,[1.09834881],5.0,0.6,0.0,-1.172178337965474,1.2371208064474093,0.4992287342763603
5.480403184890747,0.8978571034049997,[1.10549593],5.0,0.6,0.0,-1.0791121557436503,1.2870982618699747,0.49931386909965864
5.488869905471802,0.9011788815895231,[1.11256076],5.0,0.6,0.0,-0.9932793098127148,1.2729216580850318,0.49939761646812747
5.497488021850586,0.9045006597740466,[1.11955508],5.0,0.6,0.0,-0.9141644871765466,1.3099489379018634,0.4994744361026885
5.509362697601318,0.9093856276924633,[1.12651845],5.0,0.6,0.0,-0.8412747104960343,1.3812103651100742,0.4995537658981368
5.5178141593933105,0.9127074058769867,[1.13348716],5.0,0.6,0.0,-0.7741431596566802,1.3536531280558863,0.4996124496483847
5.525485038757324,0.9158337853447734,[1.14045251],5.0,0.6,0.0,-0.7123310342816906,1.3403577386222914,0.4996638850336806
5.53400731086731,0.919155563529297,[1.14739487],5.0,0.6,0.0,-0.6554280953161004,1.3829515831552588,0.4997101887851385
5.5420496463775635,0.9222819429970835,[1.15432701],5.0,0.6,0.0,-0.6030523356339759,1.4207801470736054,0.49975039770932833
5.5528271198272705,0.926776113482027,[1.16128971],5.0,0.6,0.0,-0.5548490939932231,1.4952426725769417,0.4997875961875278
5.561284065246582,0.930293290383287,[1.16831813],5.0,0.6,0.0,-0.5104898299455165,1.4613370445207479,0.4998180402163492
5.570695400238037,0.9343966634347571,[1.17541284],5.0,0.6,0.0,-0.4696707088925521,1.4876316315202796,0.4998448239561905
5.578389883041382,0.9373276441858072,[1.18257378],5.0,0.6,0.0,-0.43211109837720385,1.5170234678544134,0.49986699264221524
5.587783336639404,0.9410402198038039,[1.1898145],5.0,0.6,0.0,-0.39755204307242126,1.5402143165003193,0.4998865744490922
5.5960693359375,0.9445573967050639,[1.19713062],5.0,0.6,0.0,-0.36575476253639017,1.5148553911997245,0.4999033039169762
5.603827714920044,0.9476837761728507,[1.20450245],5.0,0.6,0.0,-0.06046083994867339,1.551576881436607,0.49999914586358923
5.611911773681641,0.9512009530741107,[1.21191204],5.0,0.6,0.0,-0.00041967351125239,1.534599474043038,0.5000012477618306
5.620795488357544,0.9545227312586343,[1.21932897],5.0,0.6,0.0,-0.030752680095224767,1.5350032452238878,0.5000001074297175
5.6298508644104,0.9584307055933676,[1.22672662],5.0,0.6,0.0,-0.08405386698001875,1.5737017097757533,0.49999530012119775
5.643454551696777,0.9637064709452576,[1.23412347],5.0,0.6,0.0,-0.4096532956884421,1.6472051062253437,0.4998755384704436
5.65340518951416,0.9678098439967278,[1.2415608],5.0,0.6,0.0,-0.4801146675825895,1.660805114620427,0.49982874722450066
5.662923812866211,0.9717178183314611,[1.24905675],5.0,0.6,0.0,-0.1732341888329048,1.6740812092071333,0.499977869465947
5.672399044036865,0.9750395965159845,[1.25660965],5.0,0.6,0.0,-0.3531548342297506,1.6898415214029385,0.4999072981433275
5.681760549545288,0.9791429695674545,[1.26421477],5.0,0.6,0.0,-0.3753643012869151,1.7013972914403845,0.4998952135504668
5.694827556610107,0.9838325387691347,[1.2718765],5.0,0.6,0.0,-0.33806659856240473,1.7485941519444927,0.4999149925671892
5.702401399612427,0.9871543169536582,[1.27959501],5.0,0.6,0.0,-0.2846373515031565,1.7133038151262172,0.499939730779289
5.713468551635742,0.9918438861553381,[1.28735422],5.0,0.6,0.0,-0.23274965589133192,1.7606273743383398,0.4999597016583193
5.722144842147827,0.9955564617733349,[1.29514765],5.0,0.6,0.0,-0.18842400614108185,1.763894533940535,0.49997358779040835
5.7303996086120605,0.9986828412411217,[1.30295602],5.0,0.6,0.0,-0.15269412053713316,1.738487030003791,0.499982653321622
5.739440202713013,1.0022000181423816,[1.31073838],5.0,0.6,0.0,-0.12468841980658835,1.7574389229075962,0.4999884321759614
5.74986720085144,1.0064987899105884,[1.31846761],5.0,0.6,0.0,-0.10299472870641727,1.7692072445725289,0.4999921070450503
5.758389472961426,1.0100159668118485,[1.32611868],5.0,0.6,0.0,-0.08621936927174206,1.8665445863921255,0.499994468415109
5.767674922943115,1.013923941146582,[1.33365775],5.0,0.6,0.0,-0.07318039849475055,1.8864902097103238,0.499996014794666
5.7763049602508545,1.017441118047842,[1.34106102],5.0,0.6,0.0,-0.06294378453117128,1.9138399944265434,0.49999705155368357
5.784358024597168,1.0207628962323652,[1.34830604],5.0,0.6,0.0,0.22123919897846303,1.9427892189725129,0.4999635657962395
5.793456077575684,1.0240846744168886,[1.35536324],5.0,0.6,0.0,0.26094491654864194,1.9593351915099189,0.49994931495589817
5.803647041320801,1.028188047468359,[1.36221502],5.0,0.6,0.0,0.21125352914941833,1.975584314582407,0.49996678016036744
5.811383962631226,1.0311190282194087,[1.36884908],5.0,0.6,0.0,0.13968259520615006,1.9644238225021469,0.4999854761666775
5.819395303726196,1.0344408064039323,[1.37523903],5.0,0.6,0.0,0.07298873358238328,1.936857637144778,0.4999960344112959
5.827498435974121,1.0377625845884557,[1.38135697],5.0,0.6,0.0,0.019661258151019656,1.9327247044768767,0.4999997122965161
5.836654424667358,1.0416705589231892,[1.38718628],5.0,0.6,0.0,-0.01946595569219319,1.9190491977365176,0.4999997179720012
5.844444036483765,1.044601539674239,[1.39271399],5.0,0.6,0.0,-0.04635292320554493,1.8884690911005322,0.4999984006182211
5.854736566543579,1.0489003114424458,[1.39792943],5.0,0.6,0.0,-0.06363377249471122,1.8910969531706627,0.4999969857662419
5.863140106201172,1.0524174883437059,[1.4028274],5.0,0.6,0.0,-0.07377448508076834,1.8597008824390766,0.49999594850812545
5.8720927238464355,1.0561300639617026,[1.40740456],5.0,0.6,0.0,-0.07880404443611758,1.8490194097225772,0.49999537725557913
5.879888296127319,1.0592564434294893,[1.41165956],5.0,0.6,0.0,-0.08028654764036243,1.828383337537376,0.4999952016858336
5.888838052749634,1.0625782216140127,[1.4155949],5.0,0.6,0.0,-0.07938178458352077,1.8249459212198857,0.4999953092210545
5.898037433624268,1.0660953985152728,[1.41921744],5.0,0.6,0.0,-0.07692764535642696,1.8188874418885774,0.4999955947740793
5.9081196784973145,1.0703941702834796,[1.42253763],5.0,0.6,0.0,-0.073517761711336,1.8075611148648036,0.4999959766515111
5.917443513870239,1.0741067459014764,[1.42556757],5.0,0.6,0.0,-0.06956579311572783,1.7985330688349024,0.4999963975800119
5.927056074142456,1.0780147202362098,[1.42832091],5.0,0.6,0.0,-0.06535535768183333,1.788732819612901,0.4999968204570939
5.937368631362915,1.0823134920044164,[1.43081369],5.0,0.6,0.0,-0.061077414366235226,1.7882073946237405,0.4999972230865718
5.945396661758423,1.085439871472203,[1.43306291],5.0,0.6,0.0,-0.05685761377033068,1.7679094267158506,0.49999759354840184
5.953995227813721,1.0889570483734634,[1.435084],5.0,0.6,0.0,-0.05277600587808544,1.7589462678007157,0.499997926659697
5.963698625564575,1.0928650227081966,[1.43689243],5.0,0.6,0.0,-0.048881089465434666,1.7438400792937012,0.49999822141409084
5.971381902694702,1.0957960034592467,[1.43850324],5.0,0.6,0.0,-0.045199748754041744,1.7228476162872057,0.49999847924204444
5.981960773468018,1.1004855726609268,[1.43992925],5.0,0.6,0.0,-0.041744237168530055,1.6953092722020002,0.4999987029213689
5.991503000259399,1.104588945712397,[1.44118135],5.0,0.6,0.0,-0.038517058916890196,1.660614530115896,0.4999988957798501
6.0006422996521,1.1083015213303935,[1.44226725],5.0,0.6,0.0,-0.03551436315946608,1.6180592815097843,0.4999990613161134
6.008384943008423,1.1112325020814438,[1.4431903],5.0,0.6,0.0,-0.03272829060121303,1.5708780557175308,0.4999992029109251
6.017376899719238,1.1147496789827036,[1.44395221],5.0,0.6,0.0,-0.03014858501190663,1.5439750909897032,0.4999993237732625
6.027089595794678,1.1184622546007006,[1.44455384],5.0,0.6,0.0,-0.3038020503071528,1.4823229865133798,0.49993130034297684
6.035770416259766,1.1221748302186971,[1.44499065],5.0,0.6,0.0,-0.33472445393874917,1.4199586109452558,0.4999166048655282
6.045381546020508,1.125887405836694,[1.44525317],5.0,0.6,0.0,-0.27759550557739865,1.3606378961508259,0.4999426417158205
6.053391695022583,1.1290137853044806,[1.44533553],5.0,0.6,0.0,-0.19963737599598044,1.3522135781135822,0.49997033477277536
6.062915086746216,1.132921759639214,[1.44523631],5.0,0.6,0.0,-0.12738864617030804,1.291467110165591,0.4999879234838905
6.07169771194458,1.1364389365404741,[1.44494944],5.0,0.6,0.0,-0.06917693797876996,1.2432108823672385,0.4999964431281495
6.079376697540283,1.1397607147249975,[1.44447104],5.0,0.6,0.0,-0.025715252054080064,1.242192571244661,0.49999951636310785
6.089377403259277,1.1438640877764674,[1.44380484],5.0,0.6,0.0,0.005047789399669237,1.192671574798765,0.4999999963711751
6.100905418395996,1.1485536569781476,[1.44294591],5.0,0.6,0.0,0.025816315984777245,1.124404543388832,0.49999953353374044
6.108879327774048,1.1516800364459343,[1.44188321],5.0,0.6,0.0,0.03911079293917491,1.1057356072723612,0.49999890973512906
6.118358850479126,1.155588010780668,[1.44062206],5.0,0.6,0.0,0.04700334577584161,1.1097709945498597,0.4999984431283149
6.128622770309448,1.1598867825488746,[1.43917779],5.0,0.6,0.0,0.051092853858355436,1.058946446617861,0.49999822452775916
6.137387275695801,1.1635993581668713,[1.43756388],5.0,0.6,0.0,0.05256766074807745,1.0682186214028297,0.49999824541984195
6.1464080810546875,1.167311933784868,[1.43580113],5.0,0.6,0.0,0.05228950861561317,1.052344609663243,0.49999851250593036
6.155821323394775,1.1712199081196015,[1.43391402],5.0,0.6,0.0,-0.22516608119879752,1.0435938099518423,0.49996327446092026
6.1643898487091064,1.1743462875873882,[1.43192821],5.0,0.6,0.0,-0.2604158912290514,1.0600626760602183,0.49995124598161006
6.173402547836304,1.1780588632053848,[1.42987365],5.0,0.6,0.0,-0.20785298556828663,1.0578432048315745,0.4999709469174072
6.1818249225616455,1.1809898439564348,[1.42777993],5.0,0.6,0.0,-0.13450710170370983,1.0682527852763428,0.49999165895885794
6.191777944564819,1.1852886157246416,[1.4256768],5.0,0.6,0.0,-0.06679073157138729,1.0790358561288036,0.5000062452342455
6.199464797973633,1.1884149951924285,[1.42359578],5.0,0.6,0.0,-0.28899004608582163,1.1005495253067363,0.49995353271590576
6.209486246109009,1.1923229695271618,[1.42156925],5.0,0.6,0.0,-0.28281810106699967,1.1206407861694865,0.49996770330268353
6.217393398284912,1.1956447477116852,[1.41962695],5.0,0.6,0.0,0.07514889685945525,1.1145725333127947,0.5000396957148119
6.226343870162964,1.1991619246129452,[1.41779499],5.0,0.6,0.0,0.20144002577507833,1.1375198500429877,0.5000402814571145
6.235879421234131,1.202874500230942,[1.41610422],5.0,0.6,0.0,-0.049319429612802126,1.1954663223735917,0.5001105964993041
6.245382308959961,1.2067824745656754,[1.41458554],5.0,0.6,0.0,-0.09721468378855688,1.1609588099460018,0.5001704856876977
6.254519939422607,1.2106904489004089,[1.41325948],5.0,0.6,0.0,0.20651736900348194,1.1743079736190514,0.500241033537174
6.2633888721466064,1.2144030245184054,[1.41213969],5.0,0.6,0.0,0.2872477565019782,1.1394354454200744,0.5003402208410224
6.271953105926514,1.2179202014196655,[1.41123691],5.0,0.6,0.0,0.27738586107323565,1.1570690886865942,0.500510226688517
6.280371904373169,1.221241979604189,[1.41055907],5.0,0.6,0.0,-0.03913997933830193,1.12332307017231,0.5007695746151154
6.289831876754761,1.2251499539389223,[1.41011697],5.0,0.6,0.0,-0.11776366092527134,1.1790010702799967,0.5010570450118291
6.297687768936157,1.2284717321234457,[1.40992369],5.0,0.6,0.0,0.17260717574061074,1.136978093860971,0.5013588018103874
6.308495759963989,1.2329659026083892,[1.40998871],5.0,0.6,0.0,0.24851414252975634,1.1696499398157585,0.5018511546018368
6.31841254234314,1.2364830795096493,[1.41031815],5.0,0.6,0.0,-0.03807910986038174,1.127744021785656,0.502371620775423
6.327411413192749,1.2400002564109094,[1.41090853],5.0,0.6,0.0,-0.11044940587513187,1.1273088620800238,0.5028941601460909
6.337393045425415,1.2441036294623793,[1.4117542],5.0,0.6,0.0,0.17727419885506343,1.1202219404397666,0.5035963834439418
6.346875429153442,1.2482070025138494,[1.41285339],5.0,0.6,0.0,0.2481149046613768,1.1109379877297205,0.5043738612438999
6.3552703857421875,1.2517241794151095,[1.41420136],5.0,0.6,0.0,0.2326822040551242,1.103444140954204,0.5050533161280221
6.366222858428955,1.256218349900053,[1.41579066],5.0,0.6,0.0,0.1896094932505351,1.0907462691220253,0.5061148732722124
6.375417709350586,1.2599309255180497,[1.41761138],5.0,0.6,0.0,0.1435452002958873,1.0818545990232014,0.5069096073378101
6.384747266769409,1.263838899852783,[1.41965149],5.0,0.6,0.0,0.10354729114681627,1.072171011777495,0.5077773605371172
6.392383098602295,1.2667698806038332,[1.42189146],5.0,0.6,0.0,0.07185979282764937,1.0409563648484847,0.508123341623579
6.401333570480347,1.2704824562218298,[1.42430566],5.0,0.6,0.0,0.04800655396245817,1.0414913415113882,0.5088043398196803
6.412582159042358,1.2749766267067733,[1.42688032],5.0,0.6,0.0,0.030631983378263977,1.056672348873514,0.5099020154233682
6.420870780944824,1.2784938036080336,[1.42960623],5.0,0.6,0.0,0.018277128591005228,1.0233530810403262,0.510388904972063
6.429431676864624,1.2820109805092936,[1.43246131],5.0,0.6,0.0,0.009666719156933387,1.0191417108974863,0.5108123448081329
6.438375234603882,1.285332758693817,[1.43541828],5.0,0.6,0.0,0.0037819982890482775,0.9825271633891979,0.5110521116417837
6.447900056838989,1.2888499355950767,[1.43845055],5.0,0.6,0.0,-0.00015233787503515827,0.9794794283882737,0.5113780531848047
6.456864833831787,1.2923671124963367,[1.44153552],5.0,0.6,0.0,-0.002709298238764879,0.9674479335992288,0.5116757251672747
6.464427471160889,1.295298093247387,[1.44465052],5.0,0.6,0.0,-0.004304409546870178,0.9274139986995433,0.5115481447579711
6.473119020462036,1.2992060675821204,[1.44776872],5.0,0.6,0.0,-0.005235081395935306,0.910644043971028,0.512104548379599
6.4823386669158936,1.3031140419168539,[1.45086639],5.0,0.6,0.0,0.2703262045674739,0.8865289791307364,0.5126456307792232
6.49090838432312,1.3068266175348506,[1.45392254],5.0,0.6,0.0,0.027240622801386172,0.8594630974919024,0.5132007163544685
6.4994120597839355,1.310148395719374,[1.45691625],5.0,0.6,0.0,-0.06095151763300642,0.8335381044671877,0.5134555142412528
6.510370492935181,1.314837964921054,[1.45982792],5.0,0.6,0.0,-0.08178004506449249,0.803082377404324,0.5149245046214558
6.519357681274414,1.318355141822314,[1.46263952],5.0,0.6,0.0,0.20005965132240666,0.772724624947043,0.5155217379538308
6.529974460601807,1.322458514873784,[1.46533623],5.0,0.6,0.0,0.24736989797081307,0.7639506679654582,0.5168144975496188
6.537362813949585,1.325584894341571,[1.46790753],5.0,0.6,0.0,-0.0688340835141353,0.7421904276354145,0.5173988843251442
6.548656463623047,1.3302744635432509,[1.4703461],5.0,0.6,0.0,-0.16514652129503765,0.7361134879913921,0.5197413418657616
6.556738376617432,1.3335962417277742,[1.4726476],5.0,0.6,0.0,-0.17037276056931194,0.7169280702467627,0.5208982607143193
6.566492795944214,1.337504216062508,[1.4748096],5.0,0.6,0.0,0.13280657434310503,0.7089906932117247,0.5230261728615005
6.574395179748535,1.340435196813558,[1.47683134],5.0,0.6,0.0,0.2000563919395768,0.6954294034868345,0.5241852427302027
6.582875967025757,1.343952373714818,[1.47871438],5.0,0.6,0.0,0.17615876291364982,0.6935355095349144,0.5264358789300482
6.5916478633880615,1.3472741518993414,[1.48046347],5.0,0.6,0.0,0.1253383004353227,0.6923499690307614,0.5287739368013757
6.599520683288574,1.350400531367128,[1.48208481],5.0,0.6,0.0,0.0740005138509444,0.677481042692988,0.5311705788888961
6.607790470123291,1.353917708268388,[1.48358471],5.0,0.6,0.0,0.03136232218918487,0.677679358946534,0.5346406490516531
6.618383407592773,1.3580210813198583,[1.48497204],5.0,0.6,0.0,-0.0007496913579140702,0.67369055551609,0.5398230613615151
6.627715587615967,1.3619290556545915,[1.48625779],5.0,0.6,0.0,-0.023361996681945107,0.6694265993914281,0.5454321306777004
6.6365485191345215,1.3656416312725883,[1.48745338],5.0,0.6,0.0,-0.03833871398635247,0.665077451082464,0.5514244418851976
6.645841121673584,1.3695496056073215,[1.48857039],5.0,0.6,0.0,-0.04755113109275067,0.6587283983882932,0.5588232422796872
6.656292200088501,1.3736529786587917,[1.48962033],5.0,0.6,0.0,-0.0525864707121179,0.6504298228740861,0.5679002312796543
6.66433048248291,1.3767793581265784,[1.49061252],5.0,0.6,0.0,-0.05468903920440602,0.6259203460930156,0.5748980338891881
6.674892425537109,1.3808827311780487,[1.49155612],5.0,0.6,0.0,-0.054791498909760344,0.6414140212744175,0.5863155336850414
6.6824116706848145,1.3840091106458352,[1.49246172],5.0,0.6,0.0,-0.05357295825481755,0.6126180752608776,0.5951390057967889
6.692512512207031,1.3881124836973056,[1.49333709],5.0,0.6,0.0,-0.05151770270923377,0.6048617611501506,0.6092123098553531
6.700721502304077,1.391434261881829,[1.49418944],5.0,0.6,0.0,-0.04896531109000701,0.5990322639409701,0.6210272006035864
6.710407257080078,1.3953422362165622,[1.49502734],5.0,0.6,0.0,-0.04615021232961358,0.5887501712934962,0.6370464203889032
6.718369960784912,1.3986640144010856,[1.49585839],5.0,0.6,0.0,-0.04323158808635047,0.5799628014334108,0.6511687565236562
6.726353883743286,1.4019857925856087,[1.49668714],5.0,0.6,0.0,-0.04031538818673716,0.5489054172019371,0.666347521615088
6.736464023590088,1.4058937669203424,[1.49751545],5.0,0.6,0.0,0.23856809743022167,0.541411489022556,0.6865354926702908
6.747259855270386,1.4105833361220224,[1.49834896],5.0,0.6,0.0,0.2744240099330745,0.5484007644842447,0.7142048115015323
6.755506992340088,1.413709715589809,[1.49919432],5.0,0.6,0.0,-0.054119027280230214,0.513802463205229,0.7318805821193032
6.764738321304321,1.4178130886412792,[1.50005281],5.0,0.6,0.0,-0.16088756122559045,0.5012937034717951,0.7585285915042805
6.773366928100586,1.4213302655425393,[1.50092324],5.0,0.6,0.0,0.10201032674443933,0.46963571217637456,0.7816652645914743
6.782823085784912,1.425042841160536,[1.5018043],5.0,0.6,0.0,0.156727720257206,0.46247466771430984,0.8077327357744633
6.792370796203613,1.428755416778533,[1.50269647],5.0,0.6,0.0,0.13213395714427179,0.4527047957969748,0.8350435479222946
6.800496339797974,1.4318817962463195,[1.50360172],5.0,0.6,0.0,0.0850892091034948,0.4435587501200607,0.857448241651789
6.808397531509399,1.4350081757141062,[1.504521],5.0,0.6,0.0,0.03873267553457474,0.43114537699370536,0.8804466361473768
6.816345930099487,1.4381345551818931,[1.50545237],5.0,0.6,0.0,0.0009406962972192956,0.3990753798977187,0.9040011346198129
6.827326536178589,1.4424333269500995,[1.50639094],5.0,0.6,0.0,-0.02692430874581821,0.3773901344778032,0.9412619672351785
6.835399866104126,1.4455597064178862,[1.50733149],5.0,0.6,0.0,-0.04597538543524155,0.3523668685451125,0.9661936639102024
6.843646049499512,1.4488814846024096,[1.50826721],5.0,0.6,0.0,-0.05801696799854457,0.3158216365703353,0.9939416666808631
6.852359294891357,1.4527894589371433,[1.50918799],5.0,0.6,0.0,-0.0648173891502101,0.27562244932015045,1.029318652541139
6.862288236618042,1.4568928319886134,[1.51008071],5.0,0.6,0.0,-0.06786026763866933,0.21937990736309487,1.067907889335352
6.873662710189819,1.4613870024735567,[1.51092427],5.0,0.6,0.0,-0.06830074726516489,0.11264334406164346,1.1121402615758846
6.882710218429565,1.46470878065808,[1.51169243],5.0,0.6,0.0,-0.06699995436182533,0.08322271156041869,1.143072481144998
6.890948057174683,1.4682259575593402,[1.51236091],5.0,0.6,0.0,-0.06458162290324815,0.0008046247223107425,1.1773389696010894
6.899353981018066,1.4717431344606002,[1.51290068],5.0,0.6,0.0,-0.06148794753216179,-0.07559479047008286,1.2126302488450806
6.90912652015686,1.4756511087953337,[1.51327634],5.0,0.6,0.0,-0.05802675437130467,-0.14019357655708428,1.2534180882882842
6.91831374168396,1.4791682856965935,[1.51346026],5.0,0.6,0.0,-0.33044688580903486,-0.14829283566193252,1.2903410430429014
6.926812410354614,1.4819038677309073,[1.51343369],5.0,0.6,0.0,-0.9120139758432129,-0.19746232985304965,1.3190737246211004
6.936325311660767,1.4846394497652204,[1.51317143],5.0,0.6,0.0,-1.747722831407568,-0.22426189703679672,1.3474799570596285
6.944343090057373,1.4869842343660604,[1.51265264],5.0,0.6,0.0,-2.761546338617221,-0.23287832163904604,1.3708948024786185
6.953312873840332,1.489133620250164,[1.51186908],5.0,0.6,0.0,-3.606957741223363,-0.25077435321337815,1.3921924730190178
6.9633567333221436,1.4912830061342672,[1.51080571],5.0,0.6,0.0,-4.746305506114676,-0.25239562110447245,1.4101143538434875
6.971919298171997,1.4928461958681607,[1.50944244],5.0,0.6,0.0,-5.0,-0.24547177227542955,1.4281348092030317
6.980323076248169,1.4940185881685808,[1.50777503],5.0,0.6,0.0,-5.0,-0.28765605337850975,1.4445913959108798
6.991725444793701,1.4955817779024738,[1.50580466],5.0,0.6,0.0,-5.0,-0.21945392615114348,1.461047506371529
6.999785900115967,1.4965587714861572,[1.50351953],5.0,0.6,0.0,-5.0,-0.24499831933671748,1.4720884334561881
7.0073301792144775,1.497340366353104,[1.50092589],5.0,0.6,0.0,-5.0,-0.32592876283848543,1.4791641734585035
7.016509294509888,1.497926562503314,[1.49805549],5.0,0.6,0.0,-5.0,-0.3425661410842267,1.4817287375947514
7.025882005691528,1.498121961220051,[1.49493607],5.0,0.6,0.0,-5.0,-0.36259550939548707,1.4797041444143315
7.03466796875,1.4983173599367874,[1.49159311],5.0,0.6,0.0,-5.0,-0.3825963142654079,1.4727297252951175
7.045903444290161,1.497926562503314,[1.48805895],5.0,0.6,0.0,-5.0,-0.3928939959000215,1.4624465180911703
7.055624961853027,1.497340366353104,[1.4843715],5.0,0.6,0.0,-5.0,-0.39173281802488474,1.4486532432258539
7.064420461654663,1.4965587714861572,[1.48057527],5.0,0.6,0.0,-5.0,-0.36163105116057936,1.431920984973702
7.072812557220459,1.4955817779024738,[1.47671871],5.0,0.6,0.0,-5.0,-0.3430765687151342,1.4130420468330698
7.08231782913208,1.4942139868853175,[1.47284688],5.0,0.6,0.0,-5.0,-0.31231429570648306,1.3944662015174778
7.0903236865997314,1.4928461958681607,[1.46900215],5.0,0.6,0.0,-4.698854788550686,-0.27360423182212174,1.3763502384069644
7.100308179855347,1.491478404851004,[1.46522702],5.0,0.6,0.0,-4.605107210139174,-0.2289860212502645,1.3557094991248642
7.109548330307007,1.489719816400374,[1.46156304],5.0,0.6,0.0,-4.540692422942324,-0.17993575378463328,1.3382562982383415
7.117335557937622,1.4879612279497438,[1.45804782],5.0,0.6,0.0,-3.8913965756513273,-0.153652214942032,1.3249910501690993
7.12652063369751,1.486202639499114,[1.45471397],5.0,0.6,0.0,-3.1304384790874984,-0.10761518553981844,1.3128758986537115
7.135402202606201,1.484248652331747,[1.45159241],5.0,0.6,0.0,-2.9926186342132644,-0.06256552359870692,1.3013025767780921
7.145374298095703,1.4820992664476438,[1.44871251],5.0,0.6,0.0,-1.941570214583872,-0.02063539789890313,1.2973684242291847
7.153355121612549,1.4801452792802772,[1.44609626],5.0,0.6,0.0,-0.7728625510379206,-0.021762872430427536,1.2926070865352774
7.1632561683654785,1.4781912921129103,[1.44375831],5.0,0.6,0.0,0.22095128358787908,0.01928128821667964,1.2888554644847159
7.176130533218384,1.475455710078597,[1.44171803],5.0,0.6,0.0,1.5190499806768125,0.09450514934321075,1.2946911535409045
7.187035322189331,1.473110925477757,[1.43999884],5.0,0.6,0.0,2.92629941094254,0.11437698958148712,1.2967611767555762
7.19544792175293,1.4715477357438635,[1.43861471],5.0,0.6,0.0,4.618279111966742,0.12852461793357417,1.2893694095920951
7.204869031906128,1.4699845460099703,[1.43757062],5.0,0.6,0.0,5.0,0.1414499611899074,1.2922088480387321
7.21532940864563,1.4682259575593402,[1.43686761],5.0,0.6,0.0,5.0,0.15434137272730392,1.3031943479325372
7.223555564880371,1.4672489639756567,[1.43650301],5.0,0.6,0.0,5.0,0.16275278051315842,1.30946667629556
7.235461473464966,1.4660765716752369,[1.43647072],5.0,0.6,0.0,5.0,0.1714440831853385,1.3209362179365192
7.244649410247803,1.46529497680829,[1.43676147],5.0,0.6,0.0,5.0,0.17838358179628389,1.33146577492897
7.255126476287842,1.46470878065808,[1.43736311],5.0,0.6,0.0,5.0,0.18412726371460722,1.3428213364915282
7.263525485992432,1.4645133819413436,[1.43826075],5.0,0.6,0.0,5.0,0.1872828028889686,1.352969991428011
7.271700620651245,1.464317983224607,[1.43943189],5.0,0.6,0.0,5.0,0.16196417023292334,1.3652324386528005
7.28035831451416,1.46412258450787,[1.44084749],5.0,0.6,0.0,5.0,0.1711502277318014,1.3790491392025608
7.289671182632446,1.464317983224607,[1.44248229],5.0,0.6,0.0,5.0,0.17372815828581387,1.3907781698489141
7.300359010696411,1.4645133819413436,[1.44431396],5.0,0.6,0.0,5.0,0.17234284247971982,1.4033695014891243
7.310610055923462,1.46470878065808,[1.44632103],5.0,0.6,0.0,5.0,0.1902394196867149,1.4163458960853221
7.318320035934448,1.4650995780915532,[1.44848023],5.0,0.6,0.0,5.0,0.15549995354947277,1.4279895609663467
7.327311992645264,1.4656857742417637,[1.45075849],5.0,0.6,0.0,5.0,0.12625627432158087,1.4381457449092996
7.337327480316162,1.4664673691087102,[1.45312182],5.0,0.6,0.0,5.0,0.1291586922694005,1.4467382533292632
7.346269607543945,1.46705356525892,[1.45554495],5.0,0.6,0.0,5.0,0.13180015295612804,1.4555902034700907
7.355190992355347,1.467835160125867,[1.4580075],5.0,0.6,0.0,5.0,0.1331125623458897,1.4626008623534743
7.363351345062256,1.4686167549928135,[1.46048846],5.0,0.6,0.0,4.627135483270146,0.1121548517888311,1.4711865252486505
7.372289419174194,1.469593748576497,[1.46296661],5.0,0.6,0.0,4.228142415930151,0.11773990064679275,1.478122429043978
7.382209539413452,1.4705707421601801,[1.46542486],5.0,0.6,0.0,3.8458069290971135,0.11644337417594396,1.483828449467726
7.390316724777222,1.4715477357438635,[1.46784844],5.0,0.6,0.0,2.9432525231790834,0.10597783701205216,1.490859646692057
7.40134334564209,1.4727201280442836,[1.4702209],5.0,0.6,0.0,2.5614306515193133,0.08323636115250076,1.4938913675136911
7.4116151332855225,1.4738925203447035,[1.47252212],5.0,0.6,0.0,1.8370169243304697,0.03829984038048705,1.4971186932807414
7.42038631439209,1.4750649126451236,[1.4747293],5.0,0.6,0.0,1.3939213844138596,0.009721449705684582,1.498533180686179
7.430573225021362,1.4764327036622804,[1.47681937],5.0,0.6,0.0,0.556794677412739,-0.04108645399205662,1.4997393718544227
7.439155578613281,1.4776050959627003,[1.47877052],5.0,0.6,0.0,0.021200832490346433,-0.059010400620073275,1.4997280601476701
7.448540925979614,1.478582089546384,[1.48056241],5.0,0.6,0.0,-0.5918293699760193,-0.11157919710326203,1.4989553058081564
7.457343578338623,1.4793636844133302,[1.48217641],5.0,0.6,0.0,-1.3822547483418897,-0.11707839055213412,1.4969987129144229
7.4656805992126465,1.4801452792802772,[1.48359598],5.0,0.6,0.0,-2.063033494477782,-0.16776525355553204,1.4944631292936428
7.476312637329102,1.4807314754304872,[1.48480187],5.0,0.6,0.0,-2.830440021014748,-0.20854735832663757,1.4907636042233676
7.485778093338013,1.481317671580697,[1.48577306],5.0,0.6,0.0,-3.7220065322253504,-0.2390163452490104,1.4858309553822755
7.494005918502808,1.4817084690141706,[1.48649231],5.0,0.6,0.0,-4.715529202662825,-0.25867872183945734,1.4791517759476802
7.504309415817261,1.4817084690141706,[1.48694739],5.0,0.6,0.0,-5.0,-0.2679109594512971,1.4762578521424792
7.513421058654785,1.4815130702974335,[1.48713223],5.0,0.6,0.0,-5.0,-0.2693105984779985,1.475436967800511
7.522136449813843,1.4811222728639604,[1.48704753],5.0,0.6,0.0,-5.0,-0.2645363133550054,1.4747349328995476
7.533400297164917,1.4805360767137503,[1.48670063],5.0,0.6,0.0,-5.0,-0.2538310545876945,1.4741605361754635
7.542544841766357,1.4797544818468038,[1.48610506],5.0,0.6,0.0,-5.0,-0.23782644550251034,1.4736985349841574
7.551327228546143,1.478972886979857,[1.48527982],5.0,0.6,0.0,-5.0,-0.2174655635792225,1.4738081347444767
7.562165260314941,1.477800494679437,[1.4842486],5.0,0.6,0.0,-5.0,-0.19015973753361745,1.473450928010802
7.575274467468262,1.476237304945544,[1.48303783],5.0,0.6,0.0,-5.0,-0.16627085584798687,1.4725252744949004
7.5843236446380615,1.4746741152116503,[1.48167713],5.0,0.6,0.0,-5.0,-0.11521777660364,1.4719715757249388
7.597870349884033,1.4727201280442836,[1.48020092],5.0,0.6,0.0,-5.0,-0.06998382217579516,1.4706020021007962
7.605342388153076,1.4713523370271269,[1.47864513],5.0,0.6,0.0,-5.0,-0.028797822087214917,1.4711514767976475
7.615289211273193,1.4697891472932336,[1.47704484],5.0,0.6,0.0,-4.978947114207092,0.01596772502954891,1.4714089669650106
7.6257617473602295,1.4680305588426035,[1.47543494],5.0,0.6,0.0,-4.716371358640959,0.059539652869380684,1.4728075368462252
7.633743524551392,1.4668581665421834,[1.47384911],5.0,0.6,0.0,-3.5412030972256763,0.09687363224467768,1.481024692058195
7.6429338455200195,1.465490375525027,[1.47231661],5.0,0.6,0.0,-2.252967581429172,0.1065842523659262,1.4869595718453537
7.652113676071167,1.464317983224607,[1.4708619],5.0,0.6,0.0,-1.1460535467460926,0.14122856112811996,1.4904952220910084
7.663612127304077,1.4633409896409235,[1.46951207],5.0,0.6,0.0,0.5340290260256744,0.20013312914877654,1.4922002429650485
7.672392845153809,1.4625593947739768,[1.46829313],5.0,0.6,0.0,2.073047830923059,0.18629111991731218,1.4902575567989698
7.681384563446045,1.4621685973405036,[1.46721842],5.0,0.6,0.0,3.8014306750206677,0.17471123599070534,1.4842705000998833
7.6894001960754395,1.4615824011902934,[1.46629571],5.0,0.6,0.0,5.0,0.20149289665653167,1.4772988533478635
7.6990814208984375,1.4615824011902934,[1.46553708],5.0,0.6,0.0,5.0,0.21970268690580208,1.478609047671374
7.708366632461548,1.4613870024735567,[1.46495505],5.0,0.6,0.0,5.0,0.23436170266441908,1.4791891082678807
7.718444347381592,1.4613870024735567,[1.464559],5.0,0.6,0.0,5.0,0.24459065133681052,1.479721766141156
7.726384401321411,1.4615824011902934,[1.46435528],5.0,0.6,0.0,5.0,0.2515401689398218,1.4801954670050952
7.735604524612427,1.4619731986237665,[1.46434731],5.0,0.6,0.0,5.0,0.25565994852464413,1.480605420852675
7.743387460708618,1.4623639960572403,[1.46453185],5.0,0.6,0.0,5.0,0.22632393488055785,1.4807925868056957
7.751907110214233,1.4627547934907135,[1.46489995],5.0,0.6,0.0,5.0,0.23839226767339644,1.4808121430152779
7.760372638702393,1.46353638835766,[1.46544168],5.0,0.6,0.0,5.0,0.2116960967402797,1.4810063021192361
7.769312620162964,1.464317983224607,[1.46614625],5.0,0.6,0.0,5.0,0.22614539627933736,1.481063771146491
7.778574228286743,1.465490375525027,[1.4670098],5.0,0.6,0.0,5.0,0.26280767457279247,1.4812704384721207
7.787297487258911,1.466662767825447,[1.46803042],5.0,0.6,0.0,5.0,0.22795799927757407,1.4813580402714974
7.795337677001953,1.4676397614091303,[1.46919649],5.0,0.6,0.0,5.0,0.23259655314475414,1.4812475015598607
7.804358959197998,1.4692029511430236,[1.47049567],5.0,0.6,0.0,5.0,0.23213992846828718,1.4813978960414378
7.81225323677063,1.4705707421601801,[1.47191537],5.0,0.6,0.0,5.0,0.20108369123950465,1.4813705210572472
7.823012351989746,1.4725247293275467,[1.47343931],5.0,0.6,0.0,4.672964533733418,0.20528645810475807,1.4838389387161455
7.830863952636719,1.4738925203447035,[1.47505509],5.0,0.6,0.0,4.077067798362923,0.20880199834894908,1.4875077928037739
7.839331150054932,1.4758465075120701,[1.47675368],5.0,0.6,0.0,3.7349316601596914,0.2065779589120492,1.4895583350205728
7.84807014465332,1.477800494679437,[1.47852542],5.0,0.6,0.0,3.218654760902335,0.2025218004202172,1.49224227488051
7.857322454452515,1.4797544818468038,[1.48035738],5.0,0.6,0.0,2.705773290313621,0.1706581274250358,1.4945069872059424
7.866470098495483,1.4819038677309073,[1.48223413],5.0,0.6,0.0,2.258963347684291,0.1720700568897273,1.4961939661999226
7.875112295150757,1.483662456181537,[1.48414415],5.0,0.6,0.0,1.6151764063065712,0.17250961870250306,1.4980153731600796
7.88480019569397,1.4860072407823772,[1.48607932],5.0,0.6,0.0,1.2869386329966472,0.16752575159570904,1.4987675952699333
7.892261028289795,1.4877658292330072,[1.48802901],5.0,0.6,0.0,0.8311912454587951,0.13998382344879906,1.4994721214179778
7.902262926101685,1.4903060125505836,[1.48998074],5.0,0.6,0.0,0.6870418305049195,0.1391435538405244,1.499627586964157
7.911392688751221,1.4924553984346873,[1.49192571],5.0,0.6,0.0,0.1102941302408843,0.13740237597209892,1.4999348322384158
7.920859098434448,1.4951909804690007,[1.49385817],5.0,0.6,0.0,-0.22145332472705564,0.1303208951587027,1.4996082836653004
7.9292943477630615,1.4975357650698409,[1.49577255],5.0,0.6,0.0,-0.6846596040477021,0.12366932760294483,1.4990295839301362
7.9372992515563965,1.4994897522372075,[1.49766152],5.0,0.6,0.0,-1.0939705164904348,0.09809917116412027,1.4984416554720636
7.947410345077515,1.5026161317049942,[1.49951656],5.0,0.6,0.0,-1.3950304012364558,0.09229075117082385,1.4966337851358644
7.956134796142578,1.5051563150225709,[1.50133218],5.0,0.6,0.0,-1.5872917121475612,0.08709560055609224,1.4952074766625971
7.96495509147644,1.5076964983401473,[1.50310556],5.0,0.6,0.0,-1.96498109234363,0.08012708452315619,1.492927523180543
7.974123477935791,1.5100412829409877,[1.50483407],5.0,0.6,0.0,-2.307037555504059,0.0729185364468292,1.4906453003402693
7.9854395389556885,1.5131676624087744,[1.50651538],5.0,0.6,0.0,-2.544945040712495,0.06100981941847003,1.4863903621466559
7.994328737258911,1.5153170482928777,[1.50814746],5.0,0.6,0.0,-2.6735747923422464,0.053144845799283705,1.484479289138988
8.003681421279907,1.5178572316104544,[1.50972853],5.0,0.6,0.0,-2.986532923120582,0.04314568405260927,1.4802760879040724
8.012278318405151,1.5202020162112944,[1.51125587],5.0,0.6,0.0,-3.263544352059441,0.020018116545182884,1.4762548388751546
8.020869255065918,1.5225468008121346,[1.51272602],5.0,0.6,0.0,-3.4371862392828954,0.015272262087533137,1.4721776684344534
8.02995491027832,1.5248915854129745,[1.51413771],5.0,0.6,0.0,-3.503304940630097,0.009064213747665311,1.468083087193809
8.03736925125122,1.5266501738636047,[1.51549031],5.0,0.6,0.0,-3.756237323260308,-0.007536874894385536,1.4650056976667334
8.04732346534729,1.5291903571811813,[1.51678247],5.0,0.6,0.0,-3.9761917106847977,-0.012237337897858141,1.4580464851275372
8.055310726165771,1.5311443443485482,[1.51801358],5.0,0.6,0.0,-4.096021549514157,-0.027300679914819704,1.4537699783923508
8.064347505569458,1.5330983315159148,[1.51918364],5.0,0.6,0.0,-4.111691355724174,-0.02832488637130507,1.4495886746414217
8.074294328689575,1.5348569199665447,[1.52029418],5.0,0.6,0.0,-4.31754243166082,-0.030277694686830253,1.4447865546611647
8.08483076095581,1.537006305850648,[1.52134799],5.0,0.6,0.0,-5.0,-0.035277105540997736,1.433878347596542
8.093670845031738,1.5385694955845415,[1.52234774],5.0,0.6,0.0,-5.0,-0.03866945776101003,1.4304639339861496
8.103121757507324,1.5399372866016983,[1.52329607],5.0,0.6,0.0,-5.0,-0.04153747873228384,1.4278519093433184
8.111697912216187,1.5411096789021181,[1.5241955],5.0,0.6,0.0,-5.0,-0.043912111417001035,1.4261203422073185
8.120290279388428,1.5420866724858016,[1.52504772],5.0,0.6,0.0,-5.0,-0.053803725437837346,1.4253205316853323
8.12928318977356,1.5432590647862214,[1.52585374],5.0,0.6,0.0,-5.0,-0.053771631624583906,1.4229420297183966
8.137369155883789,1.5440406596531684,[1.52661485],5.0,0.6,0.0,-5.0,-0.06079071712429764,1.4228077057880881
8.147912502288818,1.5450176532368518,[1.52733325],5.0,0.6,0.0,-5.0,-0.05126618305885355,1.4211003992315576
8.157273292541504,1.5457992481037983,[1.5280119],5.0,0.6,0.0,-5.0,-0.05933576169782908,1.4204145601714995
8.165269374847412,1.5461900455372717,[1.52865292],5.0,0.6,0.0,-5.0,-0.05625459913645719,1.4220754390976726
8.174774885177612,1.5467762416874815,[1.52925838],5.0,0.6,0.0,-5.0,-0.05480743137545708,1.4222024510673532
8.183299779891968,1.547167039120955,[1.52983036],5.0,0.6,0.0,-4.909748704295856,-0.0596923267859533,1.4240329108857943
8.193299531936646,1.5473624378376918,[1.53037086],5.0,0.6,0.0,-4.850644225772271,-0.049042735046479186,1.4266811134249526
8.202869176864624,1.5475578365544282,[1.53088295],5.0,0.6,0.0,-4.478552782912404,-0.04769533960065117,1.4311975948208435
8.210921049118042,1.5475578365544282,[1.53136945],5.0,0.6,0.0,-4.022634278284659,-0.04562745203321497,1.4370354428087384
8.220273494720459,1.5475578365544282,[1.53183176],5.0,0.6,0.0,-3.5780763643074893,-0.04919467316332055,1.4423013956815347
8.229215621948242,1.5475578365544282,[1.53227074],5.0,0.6,0.0,-2.9026672881251145,-0.045554247802400465,1.4481036430958043
8.239264011383057,1.5475578365544282,[1.53268828],5.0,0.6,0.0,-2.522458214408479,-0.0372899567615439,1.4520286215991636
8.251262426376343,1.5475578365544282,[1.53308751],5.0,0.6,0.0,-2.0032354072404193,-0.03150033283254885,1.4560083472501117
8.260987520217896,1.5473624378376918,[1.53347067],5.0,0.6,0.0,-1.5138636863760253,-0.03579070350489422,1.4604360239407805
8.26823616027832,1.547167039120955,[1.53383795],5.0,0.6,0.0,-0.832879918350459,-0.038068949983891154,1.4645748540480372
8.278339147567749,1.5469716404042184,[1.53418916],5.0,0.6,0.0,0.06644893163502735,-0.03445534025040639,1.4678465263073408
8.288031339645386,1.5465808429707448,[1.53452513],5.0,0.6,0.0,0.588376669656074,-0.030332812724236758,1.4710927166476246
8.296391487121582,1.5463854442540081,[1.53484705],5.0,0.6,0.0,1.1585928190433568,-0.02765664513564072,1.4727262327517396
8.304535865783691,1.5461900455372717,[1.53515602],5.0,0.6,0.0,1.6221136546784858,-0.02529758223089199,1.473989252134849
8.313276290893555,1.5457992481037983,[1.53545265],5.0,0.6,0.0,1.6677059169799249,-0.025952481440175132,1.4767510773513937
8.32132077217102,1.5456038493870616,[1.53573682],5.0,0.6,0.0,1.8260885375055502,-0.026438920987118725,1.4782405696892003
8.331259489059448,1.5452130519535883,[1.53600853],5.0,0.6,0.0,1.9687838930294388,-0.021417173483851266,1.4803210478574336
8.339229345321655,1.544822254520115,[1.53626859],5.0,0.6,0.0,2.055690424956887,-0.01706362924988802,1.4823376390957645
8.34731125831604,1.544626855803378,[1.53651806],5.0,0.6,0.0,2.3594907891992514,-0.014668541023715235,1.482808470925706
8.356729507446289,1.5442360583699049,[1.53675761],5.0,0.6,0.0,2.371056649091898,-0.01412247349117165,1.4847093940368778
8.365620613098145,1.5438452609364317,[1.53698673],5.0,0.6,0.0,2.2578728054152295,-0.019791290807007297,1.4868556368555894
8.374268531799316,1.5434544635029583,[1.53720248],5.0,0.6,0.0,2.3749683735015132,-0.035100722081252526,1.4880318192682558
8.383233547210693,1.5430636660694848,[1.53739985],5.0,0.6,0.0,2.2394277740783624,-0.0434882306986125,1.4898854862078281
8.3922278881073,1.5426728686360116,[1.53757143],5.0,0.6,0.0,2.2974562689973195,-0.07699584586934,1.490894818207075
8.402931213378906,1.5420866724858016,[1.53770422],5.0,0.6,0.0,2.1031807633531896,-0.11999313416964914,1.4928842514795226
8.412320137023926,1.5416958750523284,[1.53777899],5.0,0.6,0.0,2.1153759061185626,-0.17087327456595366,1.4936163263415418
8.421707153320312,1.5411096789021181,[1.53777192],5.0,0.6,0.0,1.8903146499942802,-0.22171764531716015,1.4951214593557247
8.430590867996216,1.5407188814686448,[1.53765579],5.0,0.6,0.0,1.6089346962912092,-0.26837216263305574,1.4962019579244434
8.442854881286621,1.539546489168225,[1.53740166],5.0,0.6,0.0,1.0675367371371731,-0.30116689914153216,1.498232739772348
8.452257633209229,1.5385694955845415,[1.53698069],5.0,0.6,0.0,0.5324681516215499,-0.3229352107104284,1.4992842598202494
8.461886644363403,1.5373971032841214,[1.53636605],5.0,0.6,0.0,0.09471103784600354,-0.33292084766124985,1.4997807313755893
8.471672296524048,1.535833913550228,[1.53553456],5.0,0.6,0.0,-0.7817511822233936,-0.33327118704591563,1.4995273555348234
8.480332851409912,1.534661521249808,[1.5344759],5.0,0.6,0.0,-1.6235676105195462,-0.32165225038476963,1.498034735383156
8.48879861831665,1.5330983315159148,[1.53319207],5.0,0.6,0.0,-2.274800161162217,-0.3276816886439907,1.4961609819658015
8.497545957565308,1.5311443443485482,[1.53168096],5.0,0.6,0.0,-2.9896712763230946,-0.3265231272120613,1.4933329329526774
8.506816148757935,1.5289949584644444,[1.52993839],5.0,0.6,0.0,-3.8293708017410624,-0.3234946421729579,1.4890243510213004
8.515591621398926,1.5270409712970778,[1.52796762],5.0,0.6,0.0,-4.22773135613283,-0.32178441235896593,1.4866985461778484
8.523245811462402,1.5248915854129745,[1.52578461],5.0,0.6,0.0,-4.633597839924811,-0.30194365404189627,1.4841108018387092
8.533839464187622,1.5221560033786614,[1.52341092],5.0,0.6,0.0,-5.0,-0.31198857333068863,1.4814171462101187
8.541638612747192,1.5198112187778212,[1.52086601],5.0,0.6,0.0,-4.972028412460414,-0.2804141753991444,1.4817096644999304
8.553253173828125,1.5160986431598242,[1.5181776],5.0,0.6,0.0,-5.0,-0.2598517681269032,1.4808680238499536
8.562808275222778,1.5129722636920375,[1.51537683],5.0,0.6,0.0,-5.0,-0.23581589526290647,1.4805763411673682
8.571669816970825,1.5100412829409877,[1.51249254],5.0,0.6,0.0,-4.663162101587551,-0.20646539366424757,1.482871157797359
8.579281091690063,1.5075010996234108,[1.50955738],5.0,0.6,0.0,-4.377954347582753,-0.15924453638974673,1.4850888006611096
8.588308572769165,1.504374720155624,[1.50660596],5.0,0.6,0.0,-3.8349871614884545,-0.12853672473036729,1.4881758023104552
8.597297191619873,1.500857543254364,[1.5036702],5.0,0.6,0.0,-2.990126998002711,-0.09043896688502417,1.4918075690819714
8.606199026107788,1.4977311637865773,[1.5007797],5.0,0.6,0.0,-2.172699202883196,-0.051111369376990116,1.4946413027930052
8.61463451385498,1.4946047843187906,[1.4979636],5.0,0.6,0.0,-1.217305161336994,-0.010048181301586466,1.4966443610325277
8.622275829315186,1.4918692022844773,[1.49524887],5.0,0.6,0.0,-0.10836483472047775,0.01825283914979598,1.497709433518104
8.632879734039307,1.488547424099954,[1.49265955],5.0,0.6,0.0,0.8406191116481488,0.05789703826129878,1.4960980440846392
8.641351461410522,1.4860072407823772,[1.49021645],5.0,0.6,0.0,1.8237410841058865,0.07509507053760996,1.4939929949638175
8.652479648590088,1.4826854625978536,[1.48793913],5.0,0.6,0.0,3.1612541525453657,0.1345983330106412,1.4871108771787427
8.661557674407959,1.4801452792802772,[1.48584817],5.0,0.6,0.0,4.320818621056986,0.16397947000537028,1.4798103098643038
8.669292211532593,1.4781912921129103,[1.48396115],5.0,0.6,0.0,5.0,0.1879516234885773,1.475095916535043
8.678245306015015,1.4760419062288068,[1.48228812],5.0,0.6,0.0,5.0,0.18251085385487686,1.4739594014629973
8.687665462493896,1.4738925203447035,[1.48083349],5.0,0.6,0.0,5.0,0.20827581335825118,1.4721429252910023
8.696480989456177,1.4723293306108103,[1.47960141],5.0,0.6,0.0,5.0,0.22375493986039785,1.4712111727436912
8.704601526260376,1.4709615395936537,[1.47859458],5.0,0.6,0.0,5.0,0.22913028682117284,1.470147035860593
8.713236093521118,1.4697891472932336,[1.47780848],5.0,0.6,0.0,5.0,0.20581917969388888,1.4689524701886283
8.723969459533691,1.4686167549928135,[1.47723178],5.0,0.6,0.0,5.0,0.2028084696157433,1.4669979478761463
8.734230279922485,1.4676397614091303,[1.47685082],5.0,0.6,0.0,5.0,0.1881157903852562,1.4649065174809568
8.742191553115845,1.4672489639756567,[1.47664895],5.0,0.6,0.0,5.0,0.1611764233381527,1.4642153429320481
8.752297639846802,1.466662767825447,[1.47660442],5.0,0.6,0.0,5.0,0.12790416574931968,1.462158855046332
8.760268211364746,1.466662767825447,[1.47669238],5.0,0.6,0.0,5.0,0.09964986381970908,1.461814452641256
8.769347667694092,1.4664673691087102,[1.47688639],5.0,0.6,0.0,5.0,0.059977140828485175,1.4602548403066788
8.777234077453613,1.4664673691087102,[1.47715956],5.0,0.6,0.0,5.0,0.03998057966317979,1.45912687565525
8.78869104385376,1.4664673691087102,[1.47748182],5.0,0.6,0.0,5.0,-0.0389247174560901,1.4577604173690277
8.79893970489502,1.4664673691087102,[1.47781661],5.0,0.6,0.0,5.0,-0.08435980408874266,1.4562999821315876
8.808244943618774,1.4664673691087102,[1.47812698],5.0,0.6,0.0,5.0,-0.12729217198332027,1.4549090370926794
8.818237543106079,1.4664673691087102,[1.47837893],5.0,0.6,0.0,4.433328348142416,-0.16496809870273513,1.4576030295936133
8.827909708023071,1.4664673691087102,[1.47854],5.0,0.6,0.0,3.2850174909352594,-0.19545451083710327,1.4633021677855615
8.837158441543579,1.4660765716752369,[1.47858067],5.0,0.6,0.0,1.5761009432263102,-0.2159855038956984,1.4673676342554494
8.845232486724854,1.4658811729585002,[1.47847554],5.0,0.6,0.0,-0.2835880637568957,-0.23051890411405368,1.468714446398161
8.854533195495605,1.46529497680829,[1.47820429],5.0,0.6,0.0,-2.1111201942132256,-0.23756115600809596,1.4639125627289933
8.863231658935547,1.46470878065808,[1.4777523],5.0,0.6,0.0,-3.8317716229893284,-0.2403234516416334,1.4557346799484785
8.871241569519043,1.4639271857911336,[1.47711588],5.0,0.6,0.0,-5.0,-0.21011168520908519,1.4475418874444106
8.879222631454468,1.4631455909241868,[1.47630587],5.0,0.6,0.0,-5.0,-0.18309133052193613,1.4476865314645935
8.887217044830322,1.4625593947739768,[1.47533505],5.0,0.6,0.0,-5.0,-0.19779908417426187,1.4496156416070063
8.89622688293457,1.4613870024735567,[1.47421262],5.0,0.6,0.0,-5.0,-0.16806274461934223,1.4493680416312633
8.90714955329895,1.4600192114564001,[1.47294674],5.0,0.6,0.0,-5.0,-0.20075083862364237,1.4488602698875466
8.916491985321045,1.4586514204392433,[1.4715422],5.0,0.6,0.0,-5.0,-0.1839279009909496,1.4490438267923005
8.925607919692993,1.45708823070535,[1.47000989],5.0,0.6,0.0,-5.0,-0.15897906966013237,1.4488896080121223
8.933221578598022,1.45591583840493,[1.46837179],5.0,0.6,0.0,-5.0,-0.11587538126773145,1.4511784105045016
8.944074630737305,1.4541572499542998,[1.46665418],5.0,0.6,0.0,-5.0,-0.0885592194134036,1.4509801866746979
8.953075170516968,1.4525940602204066,[1.46488289],5.0,0.6,0.0,-5.0,-0.05585935683759113,1.4519805593768034
8.962239742279053,1.4508354717697765,[1.46308349],5.0,0.6,0.0,-5.0,-0.018769215643913997,1.4521748689180511
8.971271753311157,1.4490768833191465,[1.46128244],5.0,0.6,0.0,-5.0,0.016312835264434857,1.452376416388264
8.979285955429077,1.447513693585253,[1.45950601],5.0,0.6,0.0,-4.5209090416799125,0.05363152011060806,1.4566612395907517
8.989537477493286,1.4457551051346231,[1.45778033],5.0,0.6,0.0,-3.826118687665393,0.09335779731953067,1.4607134870294014
8.998549461364746,1.4443873141174666,[1.45613132],5.0,0.6,0.0,-2.8719315115694095,0.1308027646901104,1.4666903657542338
9.006736040115356,1.443410320533783,[1.45458398],5.0,0.6,0.0,-1.7050125844038813,0.16458188512602476,1.4731796963453065
9.017258644104004,1.4420425295166264,[1.45316182],5.0,0.6,0.0,-0.3948101188638782,0.19771408673180346,1.4754594602770181
9.027098417282104,1.4412609346496796,[1.45188642],5.0,0.6,0.0,1.2694056183638267,0.22456415293635956,1.4764747561678027
9.037268877029419,1.4406747384994696,[1.4507769],5.0,0.6,0.0,2.71617977158131,0.24650918008659028,1.4743342928557484
9.045318603515625,1.4404793397827331,[1.44984579],5.0,0.6,0.0,4.061494848055916,0.22780372939666813,1.4704770763062534
9.054744958877563,1.4400885423492595,[1.44910256],5.0,0.6,0.0,5.0,0.2810181491460035,1.4656128947185705
9.062285661697388,1.4400885423492595,[1.44855666],5.0,0.6,0.0,5.0,0.25128103446143757,1.4674926086341549
9.07099986076355,1.4400885423492595,[1.44820924],5.0,0.6,0.0,5.0,0.2565371133117461,1.4686295272534093
9.079251766204834,1.4402839410659962,[1.44805393],5.0,0.6,0.0,5.0,0.22628691512255597,1.4697301081067655
9.09138035774231,1.4408701372162065,[1.44808319],5.0,0.6,0.0,5.0,0.24283216100239957,1.471380394961094
9.100210428237915,1.4414563333664165,[1.44828772],5.0,0.6,0.0,5.0,0.2015591104486712,1.4724419148331962
9.109480857849121,1.4420425295166264,[1.44865137],5.0,0.6,0.0,5.0,0.17872613856121222,1.4730347472884047
9.117212772369385,1.442824124383573,[1.44915172],5.0,0.6,0.0,5.0,0.1328698347774929,1.4737563341867108
9.125226020812988,1.4436057192505198,[1.44976289],5.0,0.6,0.0,5.0,0.09332742979407549,1.4741785922763981
9.136131048202515,1.4449735102676766,[1.45045319],5.0,0.6,0.0,5.0,0.011915120613380074,1.475744680517897
9.145418882369995,1.4459505038513598,[1.45118441],5.0,0.6,0.0,5.0,-0.053877344641055154,1.4762682892824053
9.154475212097168,1.44712289615178,[1.45191565],5.0,0.6,0.0,4.626625104705749,-0.11930767518622865,1.4797332889407815
9.16217041015625,1.4479044910187262,[1.45261565],5.0,0.6,0.0,3.6599247337087126,-0.12168224183038878,1.4856983175636502
9.170221328735352,1.4486860858856732,[1.45326285],5.0,0.6,0.0,2.6419275332203087,-0.17816250540150305,1.4906505601381534
9.180831909179688,1.4494676807526197,[1.45382745],5.0,0.6,0.0,1.2170523719724808,-0.22488054268591995,1.4951042913230745
9.189528226852417,1.4498584781860933,[1.45427276],5.0,0.6,0.0,-0.3587542001451457,-0.25761779183164046,1.496014611344768
9.198887825012207,1.4504446743363033,[1.45456642],5.0,0.6,0.0,-1.955490747137437,-0.27971645813160345,1.4937695418872805
9.206942081451416,1.4506400730530398,[1.45468235],5.0,0.6,0.0,-3.50815927282387,-0.2902778513229669,1.4876592872807084
9.21415901184082,1.4506400730530398,[1.45460725],5.0,0.6,0.0,-5.0,-0.2628404908057821,1.4785893191755637
9.225057125091553,1.4500538769028297,[1.4543401],5.0,0.6,0.0,-5.0,-0.2679032308210972,1.478064457828507
9.235232830047607,1.4496630794693566,[1.45387706],5.0,0.6,0.0,-5.0,-0.2861374145259819,1.478186834583982
9.244189739227295,1.4488814846024096,[1.45321683],5.0,0.6,0.0,-5.0,-0.24339693208907578,1.477980082780929
9.25218939781189,1.4482952884522,[1.4523738],5.0,0.6,0.0,-5.0,-0.2250651836700278,1.478410738345648
9.26319694519043,1.44712289615178,[1.45136833],5.0,0.6,0.0,-5.0,-0.19667670492936837,1.4781338129326629
9.272984027862549,1.4459505038513598,[1.45022194],5.0,0.6,0.0,-5.0,-0.1610879603314085,1.4780896803899064
9.28219199180603,1.444582712834203,[1.44896104],5.0,0.6,0.0,-5.0,-0.11449104452580788,1.4779054467957669
9.29118275642395,1.443410320533783,[1.44761502],5.0,0.6,0.0,-5.0,-0.07745090465621307,1.4782024089738435
9.301621198654175,1.4418471307998897,[1.44621433],5.0,0.6,0.0,-5.0,-0.026686015937632483,1.4779248436024903
9.309205770492554,1.4408701372162065,[1.44478923],5.0,0.6,0.0,-5.0,0.0007642889971802816,1.4786649133964902
9.317710161209106,1.4395023461990497,[1.44336938],5.0,0.6,0.0,-5.0,0.05339097009783414,1.4787457439162617
9.327196836471558,1.4381345551818931,[1.4419826],5.0,0.6,0.0,-4.644456682878207,0.0649887238667358,1.481240542869554
9.336188316345215,1.4371575615982095,[1.44065201],5.0,0.6,0.0,-3.635593549972283,0.09083544633097837,1.4878177727792419
9.346278667449951,1.4359851692977899,[1.43939809],5.0,0.6,0.0,-2.564418309036326,0.11425866903258984,1.4928016350953595
9.355848550796509,1.4350081757141062,[1.43824026],5.0,0.6,0.0,-1.0938521260267315,0.1347442833856263,1.4970230162210758
9.364619493484497,1.4342265808471597,[1.43719562],5.0,0.6,0.0,0.515074950749754,0.15354779409925615,1.4980410592599605
9.374844312667847,1.4336403846969494,[1.43627928],5.0,0.6,0.0,2.132715551001332,0.17084221095296118,1.4952337685164847
9.382290124893188,1.433249587263476,[1.43550441],5.0,0.6,0.0,3.696255964830759,0.1859588185662632,1.488916177671404
9.390223741531372,1.4330541885467396,[1.43487603],5.0,0.6,0.0,5.0,0.1829838721299889,1.4810684591645749
9.398589849472046,1.432858789830003,[1.43439147],5.0,0.6,0.0,5.0,0.1950412974727049,1.4812623499041662
9.407237529754639,1.432858789830003,[1.43405295],5.0,0.6,0.0,5.0,0.2023621650918224,1.4814468972663875
9.420204639434814,1.4330541885467396,[1.43386886],5.0,0.6,0.0,5.0,0.22641198313003252,1.481599333238824
9.428366899490356,1.4334449859802127,[1.43384292],5.0,0.6,0.0,5.0,0.18811934569194785,1.4817003916052172
9.438184261322021,1.4336403846969494,[1.43396811],5.0,0.6,0.0,5.0,0.1743180344862488,1.481710581160429
9.446538209915161,1.4342265808471597,[1.43423205],5.0,0.6,0.0,5.0,0.14808939871421936,1.4817320561463798
9.45579218864441,1.4348127769973695,[1.43461932],5.0,0.6,0.0,5.0,0.11160181361237727,1.481724577083439
9.463481664657593,1.4353989731475796,[1.43510947],5.0,0.6,0.0,5.0,0.0741443449913952,1.4817153003279802
9.472836971282959,1.4361805680145263,[1.43567866],5.0,0.6,0.0,5.0,0.029406263918608674,1.4816816819893126
9.48021936416626,1.4369621628814728,[1.43630196],5.0,0.6,0.0,5.0,0.0005262280782042422,1.4816448921103889
