t_s,q_rad,q_des_rad,K,B,Kff,jerk,tau_Nm,reward
0.005170106887817383,0.0,[9.14740789e-06],9.825212432529046,0.9790254919034855,1.9737818648793566,0.0,9.998999999999999,1.499999983264986
0.014547586441040039,0.00019539871673667023,[4.52317604e-05],9.650424865058092,0.9580509838069711,1.9475637297587132,0.0,10.098989999999999,1.4999954899872132
0.025640487670898438,0.0,[0.00011551],9.475637297587138,0.9370764757104565,1.92134559463807,0.0,10.099989899999999,1.4999973315101789
0.03345656394958496,0.0,[0.00021653],9.300849730116184,0.9161019676139419,1.8951274595174268,0.0,8.183669314191519,1.499990623323586
0.04353809356689453,0.00019539871673667023,[0.00034427],9.12606216264523,0.8951274595174274,1.8689093243967834,0.0,6.128346442575423,1.499995567587205
0.05265235900878906,0.002344784600840043,[0.00049566],8.951274595174274,0.8741529514209129,1.84269118927614,0.552076719357362,2.010098391287448,1.4990895453736648
0.06207633018493652,0.005666562785363437,[0.00066811],8.77648702770332,0.8531784433243983,1.8164730541554968,3.3787095224670542,-0.47495198113129783,1.4865895267260556
0.07355952262878418,0.010356131987043523,[0.0008585],8.601699460232366,0.8322039352278838,1.7902549190348536,5.0,-1.6441553450667605,1.4638528170060248
0.08237981796264648,0.013677910171566917,[0.00106395],8.426911892761412,0.8112294271313693,1.7640367839142101,5.0,-1.927556276598657,1.450410662009745
0.09198760986328125,0.016022694772406962,[0.00128222],8.252124325290458,0.7902549190348547,1.7378186487935667,5.0,-1.8749610595269728,1.4392064324259255
0.0993645191192627,0.016999688356090312,[0.00151097],8.077336757819502,0.7692804109383402,1.7116005136729235,5.0,-1.9266336893834086,1.434884843724116
0.10928797721862793,0.016999688356090312,[0.00174781],7.902549190348549,0.7483059028418256,1.6853823785522803,5.0,-1.6189926142678013,1.4362737419073872
0.12039303779602051,0.015241099905460279,[0.00199147],7.727761622877595,0.727331394745311,1.659164243431637,5.0,-1.1103280466567527,1.4472307330310465
0.1304340362548828,0.012310119154410226,[0.00224176],7.55297405540664,0.7063568866487966,1.6329461083109935,-1.3706556966741523,-0.6826646532938029,1.4785332063017589
0.13843488693237305,0.009183739686623501,[0.0024978],7.378186487935686,0.685382378552282,1.6067279731903503,-5.0,-0.49662328232420977,1.4728315575914939
0.14766907691955566,0.005080366635153426,[0.00275815],7.203398920464732,0.6644078704557674,1.5805098380697071,-5.0,-0.1255319732532326,1.4806541051415056
0.15546536445617676,0.002344784600840043,[0.00302167],7.028611352993777,0.643433362359253,1.5542917029490637,-5.0,-0.00435496989144918,1.4816404316362253
0.16534066200256348,-0.0011723923004200215,[0.00328818],6.853823785522822,0.6224588542627384,1.5280735678284203,-5.0,0.25939746989934254,1.4777606250499589
0.17464280128479004,-0.004103373051470075,[0.00355835],6.679036218051868,0.6014843461662238,1.501855432707777,-5.0,0.29331549019911923,1.470060313795797
0.18337774276733398,-0.006643556369046789,[0.00383244],6.504248650580913,0.6,1.475637297587134,-5.0,0.5984891342361093,1.4600218993334788
0.19137835502624512,-0.00879294225315016,[0.00411115],6.329461083109958,0.6,1.4494191624664907,-5.0,0.8853768239357044,1.4489773812559268
0.20169949531555176,-0.011137726853990204,[0.0043962],6.154673515639004,0.6,1.4232010273458477,-5.0,1.319181543219876,1.4346174967999947
0.2109222412109375,-0.012505517871146895,[0.00468959],5.97988594816805,0.6,1.3969828922252046,-5.0,1.4552590842833644,1.4243121869587507
0.21942400932312012,-0.013091714021356905,[0.00499252],5.805098380697095,0.6,1.3707647571045614,-0.45237934307990946,1.4898042236688722,1.4365329688619297
0.2304215431213379,-0.012505517871146895,[0.00530658],5.63031081322614,0.6,1.3445466219839184,5.0,1.9352416178096674,1.4202492275870577
0.24114394187927246,-0.010551530703780192,[0.00563566],5.455523245755186,0.6,1.3183284868632752,5.0,2.205595380480401,1.4306764865558055
0.2498335838317871,-0.008011347386203481,[0.00598234],5.280735678284231,0.6,1.292110351742632,5.0,1.9954804311013332,1.4433244450977647
0.25940752029418945,-0.0042987717682067455,[0.00634824],5.105948110813277,0.6,1.2658922166219888,5.0,2.3296806648068067,1.4593153446486231
0.2704315185546875,-0.00039079743347334047,[0.00673784],5.0,0.6,1.2396740815013456,5.0,2.7822269737943244,1.4716200448022025
0.27890658378601074,0.0031263794677867237,[0.00715374],5.0,0.6,1.2134559463807026,5.0,2.266232530586469,1.4784933891571255
0.28741455078125,0.006643556369046789,[0.00759561],5.0,0.6,1.1872378112600595,5.0,2.0212512837030623,1.4815507970259612
0.2983853816986084,0.010942328137253534,[0.00806668],5.0,0.6,1.1610196761394163,5.0,2.7081064385884344,1.480079562294156
0.30783748626708984,0.014850302471986938,[0.00856974],5.0,0.6,1.1348015410187733,5.0,2.839209365943113,1.473873997839041
0.31774401664733887,0.018758276806720344,[0.00910395],5.0,0.6,1.10858340589813,5.0,3.3508751741985368,1.4632635261218474
0.3263554573059082,0.022080054991243738,[0.00967258],5.0,0.6,1.082365270777487,5.0,3.8999858785927737,1.4514121157146724
0.3368654251098633,0.02618342804271381,[0.01028031],5.0,0.6,1.0561471356568437,5.0,4.020470515913738,1.4324082038567827
0.3443605899810791,0.02950520622723721,[0.01092733],5.0,0.6,1.0299290005362005,3.6360142389047256,3.0652230163102123,1.4235558425342878
0.35533571243286133,0.034194775428917294,[0.01161192],5.0,0.6,1.0037108654155575,0.9327938201328423,2.3725456302687844,1.4023849116060747
0.3653075695037842,0.038493547197124035,[0.01233716],5.0,0.6,0.9774927302949143,-2.2513185240431923,2.1186868741252884,1.3683586120738802
0.37554430961608887,0.042401521531857445,[0.01311039],5.0,0.6,0.9512745951742712,-4.958280900517377,1.9687851823416604,1.3243511090015923
0.38369131088256836,0.04572329971638084,[0.01393336],5.0,0.6,0.9250564600536281,-5.0,1.3723150597476883,1.29872892786234
0.39234304428100586,0.04943587533437757,[0.01480561],5.0,0.6,0.898838324932985,-5.0,2.1188152522821095,1.2684770965515857
0.40276193618774414,0.053343849669110974,[0.01573217],5.0,0.6,0.8726201898123418,-5.0,2.4680646219513176,1.2353063562679467
0.41029787063598633,0.056470229136897705,[0.01671173],5.0,0.6,0.8464020546916986,-5.0,2.2417200111893316,1.210683875949361
0.4213533401489258,0.060964399621841116,[0.01773781],5.0,0.6,0.8201839195710555,-5.0,2.67310627651773,1.1699101248486596
0.4323761463165283,0.06545857010678453,[0.01881699],5.0,0.6,0.7939657844504124,-5.0,3.8511183008003935,1.1289401906650622
0.44133758544921875,0.0689757470080446,[0.01995803],5.0,0.6,0.7677476493297692,-5.0,3.2015853254935958,1.1001768863058223
0.44937753677368164,0.07210212647583132,[0.02115587],5.0,0.6,0.741529514209126,-5.0,2.215153593720582,1.0767854128968481
0.4593491554260254,0.07601010081056472,[0.02240298],5.0,0.6,0.715311379088483,-5.0,1.671003175069577,1.0445806004479699
0.4690268039703369,0.07991807514529814,[0.02369968],5.0,0.6,0.6890932439678399,-5.0,0.9729322276907482,1.013205783995819
0.4773428440093994,0.0834352520465582,[0.02504993],5.0,0.6,0.6628751088471967,-5.0,0.23852079877991642,0.9874535785849794
0.48553895950317383,0.08656163151434493,[0.02644981],5.0,0.6,0.6366569737265535,-5.0,0.4046971564291389,0.9671785733644802
0.49684929847717285,0.09144659943276168,[0.02789629],5.0,0.6,0.6104388386059104,-5.0,2.1307180570134165,0.9276018632542316
0.5048160552978516,0.09437758018381173,[0.02939822],5.0,0.6,0.5842207034852673,-5.0,2.2761830199179527,0.9115200108788741
0.5152993202209473,0.09906714938549181,[0.03096333],5.0,0.6,0.5580025683646241,-4.81950264447639,2.78167034738827,0.8784963443094498
0.5233838558197021,0.1023889275700152,[0.03259451],5.0,0.6,0.531784433243981,-4.548683103144909,2.2968301790054872,0.8623073025928731
0.5338099002838135,0.10629690190474862,[0.03428993],5.0,0.6,0.5055662981233379,-4.245651333598494,2.0077989888202814,0.841276540706958
0.5433366298675537,0.11000947752274534,[0.03604818],5.0,0.6,0.4793481630026947,-3.9388754467775096,0.9520651774758757,0.8234392055448179
0.5543673038482666,0.11450364800768877,[0.0378771],5.0,0.6,0.4531300278820516,-3.641914867328751,1.3580877922151424,0.799250775836363
0.5636005401611328,0.1182162236256855,[0.03978811],5.0,0.6,0.42691189276140845,-3.3608343485411982,1.0828115150431108,0.7838980546899844
0.5713305473327637,0.12153800181020889,[0.04178143],5.0,0.6,0.4006937576407653,-3.0979424956737227,0.8345925439007199,0.7731148552488653
0.5823183059692383,0.12583677357841566,[0.04384752],5.0,0.6,0.3744756225201221,-2.85368153532925,0.7175661062554874,0.7546582597432082
0.591102123260498,0.12915855176293903,[0.04597784],5.0,0.6,0.3482574873994789,-2.6275851264186327,0.22471520482043097,0.7455096256309086
0.6008305549621582,0.13306652609767244,[0.04816988],5.0,0.6,0.3220393522788358,-2.4187649992457523,0.11674497728276916,0.732239267082182
0.6083548069000244,0.13619290556545915,[0.05043144],5.0,0.6,0.2958212171581926,-1.9501201192856565,0.06990402047230426,0.7268714007172319
0.6173462867736816,0.13971008246671923,[0.05276333],5.0,0.6,0.2696030820375494,-1.7394911143676905,-0.0074717873777421446,0.7182328178815063
0.6253139972686768,0.14283646193450597,[0.05515002],5.0,0.6,0.24338494691690624,-1.9071271984539486,-0.3249628896454193,0.7121568603035309
0.6337888240814209,0.14615824011902934,[0.05757803],5.0,0.6,0.21716681179626307,-1.8657898991631259,-0.14757988208696693,0.7056081091140642
0.6420321464538574,0.1490892208700794,[0.06004611],5.0,0.6,0.19094867667561988,-2.0186661381788555,-0.28257393985274804,0.701772955854574
0.6513094902038574,0.1522156003378661,[0.06255784],5.0,0.6,0.16473054155497668,-2.180808657458196,-0.31556987542904547,0.6968194810088671
0.6612861156463623,0.15514658108891616,[0.0651156],5.0,0.6,0.13851240643433352,-2.8410348557871608,-0.1369966225651504,0.691705599346958
0.6718087196350098,0.15788216312322959,[0.06772094],5.0,0.6,0.11229427131369034,-4.054185322175507,0.04779719796676014,0.6846655773954627
0.6803138256072998,0.15983615029059628,[0.07036945],5.0,0.6,0.08607613619304716,-5.0,-0.07274295044963258,0.6834554035087753
0.6903247833251953,0.16198553617469966,[0.07305721],5.0,0.6,0.05985800107240398,-5.0,-0.01566675265727086,0.6873677309772825
0.7000429630279541,0.164134922058803,[0.07579154],5.0,0.6,0.0336398659517608,-5.0,-0.062274309695178116,0.6916768865112535
0.7073085308074951,0.16569811179269636,[0.07857313],5.0,0.6,0.0074217308311176206,-5.0,-0.16291957045087757,0.7008483591265346
0.7183358669281006,0.16765209896006306,[0.08139176],5.0,0.6,0.0,-5.0,-0.15663888471524828,0.7075177407258828
0.7293365001678467,0.1694106874106931,[0.08425048],5.0,0.6,0.0,-5.0,-0.11732368769458075,0.7161963194669554
0.7381255626678467,0.17038768099437648,[0.08715777],5.0,0.6,0.0,-5.0,-0.13007271043055638,0.7319448587238631
0.747319221496582,0.17156007329479647,[0.09010955],5.0,0.6,0.0,-5.0,-0.11123645302472424,0.74704708624619
0.7566659450531006,0.17234166816174315,[0.09310271],5.0,0.6,0.0,-5.0,-0.09285908035614886,0.7665905828385418
0.764401912689209,0.17292786431195314,[0.09612828],5.0,0.6,0.0,-5.0,-0.07906642400960812,0.7891229003489921
0.7743179798126221,0.1735140604621632,[0.09917293],5.0,0.6,0.0,-4.994086771018411,-0.047754844701296366,0.8128790739810872
0.7843601703643799,0.1741002566123732,[0.10225087],5.0,0.6,0.0,-5.0,-0.03824391889035003,0.8378594240835865
0.7953815460205078,0.17449105404584653,[0.10538709],5.0,0.6,0.0,-5.0,-0.019419774911933196,0.8665166931937656
0.8042888641357422,0.17468645276258318,[0.10858359],5.0,0.6,0.0,-4.733807430706703,-0.00863782026450376,0.900907360608957
0.813298225402832,0.1748818514793199,[0.11182887],5.0,0.6,0.0,-4.0510707232724865,0.010430040754363885,0.9394515243270616
0.8227670192718506,0.17507725019605655,[0.11512632],5.0,0.6,0.0,-3.0392755694114366,0.02891188575453384,0.9804965336643342
0.8305470943450928,0.17507725019605655,[0.11847843],5.0,0.6,0.0,-2.353331727880281,0.04671979187747398,1.0228254974884718
0.8413081169128418,0.1752726489127932,[0.12187368],5.0,0.6,0.0,-1.3223246387183862,0.045608057548626256,1.064061495765285
0.850745439529419,0.1752726489127932,[0.12531576],5.0,0.6,0.0,-0.3602306350954987,0.07412024687406853,1.1069570439956695
0.8600523471832275,0.1754680476295299,[0.12881438],5.0,0.6,0.0,0.6772366215952702,0.09624083036575434,1.1467208107304019
0.8693039417266846,0.17566344634626652,[0.13236374],5.0,0.6,0.0,1.8097668072222142,0.11578153313213208,1.1848757320610337
0.8789136409759521,0.17585884506300323,[0.13595177],5.0,0.6,0.0,2.7360093190108077,0.1349550316556861,1.2216867260870865
0.8896620273590088,0.17624964249647657,[0.13958227],5.0,0.6,0.0,3.663047370434178,0.14288486636327524,1.2543310482438437
0.8982665538787842,0.1766404399299499,[0.14326541],5.0,0.6,0.0,4.646286147082977,0.16760098015724667,1.2844774846998037
0.9063215255737305,0.17703123736342324,[0.14699547],5.0,0.6,0.0,5.0,0.18526407172589054,1.316643625007404
0.9151954650878906,0.17761743351363324,[0.15076033],5.0,0.6,0.0,5.0,0.19023413019406973,1.3473939982779437
0.924724817276001,0.17839902838057992,[0.15454967],5.0,0.6,0.0,5.0,0.21239763497054204,1.374205639338891
0.933347225189209,0.1791806232475266,[0.15836984],5.0,0.6,0.0,5.0,0.22124125436955194,1.3987596235361304
0.9429507255554199,0.1799622181144733,[0.16222619],5.0,0.6,0.0,5.0,0.23609280133869923,1.4207568850289336
0.9523327350616455,0.18113461041489332,[0.16610851],5.0,0.6,0.0,5.0,0.21035641199954827,1.4375796980014883
0.9613878726959229,0.1823070027153133,[0.1700238],5.0,0.6,0.0,5.0,0.2382526496838217,1.4520073908032507
0.9723436832427979,0.18387019244920672,[0.17399375],5.0,0.6,0.0,5.0,0.19714658038106506,1.462412288230825
0.983245849609375,0.18543338218310007,[0.17803706],5.0,0.6,0.0,5.0,0.23685220923641978,1.4708505809623638
0.9917199611663818,0.18699657191699343,[0.18215346],5.0,0.6,0.0,5.0,0.300348973337734,1.477051910140722
1.0012850761413574,0.18855976165088678,[0.18632641],5.0,0.6,0.0,5.0,0.3104876703883774,1.480734988601805
1.0123353004455566,0.19070914753499016,[0.19055783],5.0,0.6,0.0,5.0,0.27160817178269486,1.4817274824564997
1.0236639976501465,0.1930539321358302,[0.19486533],5.0,0.6,0.0,5.0,0.29279085487883605,1.4810760437478043
1.0312998294830322,0.19461712186972355,[0.19923871],5.0,0.6,0.0,5.0,0.3062503796129532,1.477469356349003
1.0420033931732178,0.19735270390403695,[0.20365242],5.0,0.6,0.0,5.0,0.2468406933725882,1.473826193838502
1.050391674041748,0.19950208978814032,[0.20810105],5.0,0.6,0.0,5.0,0.34786853800657913,1.4670524365063011
1.059372901916504,0.202042273105717,[0.21257976],5.0,0.6,0.0,5.0,0.3559769348923762,1.4597691087629638
1.0693049430847168,0.20516865257350375,[0.21709277],5.0,0.6,0.0,5.0,0.2992076585496002,1.4536956931324236
1.0794262886047363,0.20849043075802715,[0.22164336],5.0,0.6,0.0,5.0,0.3040674339414878,1.4477239052974067
1.0915336608886719,0.21259380380949724,[0.22622563],5.0,0.6,0.0,5.0,0.3203713911500502,1.4452488796547018
1.0992727279663086,0.2153293858438106,[0.23085113],5.0,0.6,0.0,5.0,0.3183783981489858,1.4346896196751668
1.109283685684204,0.21904196146180732,[0.23552931],5.0,0.6,0.0,4.874616895223397,0.3055658941380153,1.4297057642846323
1.1211295127868652,0.22334073323001408,[0.24026783],5.0,0.6,0.0,4.800253263409234,0.2966281626722138,1.4274438118457833
1.1303484439849854,0.2270533088480108,[0.24506396],5.0,0.6,0.0,4.698843952772744,0.3866992990508844,1.4210144982552615
1.1386797428131104,0.23017968831579752,[0.24989776],5.0,0.6,0.0,3.7234924961070934,0.39217652668971453,1.414971132668614
1.1473562717437744,0.23408766265053094,[0.25476915],5.0,0.6,0.0,3.1594432545906654,0.32951386269407945,1.4106363167473115
1.1572117805480957,0.23799563698526438,[0.25968627],5.0,0.6,0.0,2.79708936318524,0.4061867737216188,1.4044045073166425
1.1652891635894775,0.2411220164530511,[0.2646299],5.0,0.6,0.0,1.7068484624883722,0.42734926341240675,1.3932007828708999
1.1756205558776855,0.24522538950452114,[0.26958372],5.0,0.6,0.0,0.8449298940608404,0.3962140042109707,1.3875735047725488
1.1841771602630615,0.2483517689723079,[0.27455136],5.0,0.6,0.0,0.2101564858965836,0.4374142687495869,1.3716899627275203
1.1934447288513184,0.25225974330704126,[0.27952738],5.0,0.6,0.0,-0.78546783029988,0.43708614654883565,1.3613644740612463
1.2043020725250244,0.256558515075248,[0.28451665],5.0,0.6,0.0,-1.698691904841754,0.37404258708936516,1.3531322811424757
1.215291976928711,0.26085728684345477,[0.28954162],5.0,0.6,0.0,-2.3914862245497606,0.38545223409417756,1.3440290833300064
1.2232964038848877,0.26417906502797817,[0.29459454],5.0,0.6,0.0,-3.1290117674408178,0.39405489435590835,1.3238521360320945
1.2323250770568848,0.2678916406459749,[0.29965128],5.0,0.6,0.0,-3.703262769838285,0.3829399899391327,1.3072062137098903
1.2433092594146729,0.2723858111309183,[0.30472914],5.0,0.6,0.0,-4.071392526503185,0.4082136917707941,1.2990298859158924
1.253025770187378,0.2764891841823884,[0.3098526],5.0,0.6,0.0,-3.9783115182791726,0.3918561120533519,1.2887722941652626
1.2613167762756348,0.27942016493343846,[0.31500512],5.0,0.6,0.0,-3.9827046567828246,0.46923295165587714,1.2645984118777411
1.2712821960449219,0.28352353798490854,[0.32017346],5.0,0.6,0.0,-3.9698573183357198,0.3950642165269909,1.2528207807137035
1.2812538146972656,0.2874315123196419,[0.32537616],5.0,0.6,0.0,-3.906261252795299,0.39950760334167845,1.238561429358376
1.2921977043151855,0.29192568280458536,[0.33062963],5.0,0.6,0.0,-3.7915322145501325,0.40346994911179807,1.2305276355413843
1.3031160831451416,0.2964198532895288,[0.33593861],5.0,0.6,0.0,-3.636638489785949,0.40859327781604765,1.221979438153056
1.3122906684875488,0.3001324289075255,[0.34130761],5.0,0.6,0.0,-3.7306402414689694,0.41877528001095965,1.202172320257048
1.320537805557251,0.30345420709204884,[0.34674092],5.0,0.6,0.0,-3.5661199611720544,0.43156014463803966,1.1780849443204056
1.3285815715789795,0.30677598527657224,[0.35223181],5.0,0.6,0.0,-3.0307826406212297,0.49667209081194946,1.1547080547459574
1.3382840156555176,0.3102931621778323,[0.35777509],5.0,0.6,0.0,-2.7174252920044983,0.4691742020315933,1.1315834285913715
1.3488895893096924,0.3147873326627758,[0.36337737],5.0,0.6,0.0,-2.7785126467623513,0.4842629879910973,1.117915881094621
1.3589136600494385,0.31928150314771914,[0.36903344],5.0,0.6,0.0,-2.6391840871629864,0.45645086435708326,1.104381561712053
1.3689298629760742,0.32358027491592595,[0.37473937],5.0,0.6,0.0,-2.430123820418607,0.4703471663849802,1.0880958711652402
1.379267692565918,0.32768364796739596,[0.38051448],5.0,0.6,0.0,-2.2091699088098222,0.5233147976771765,1.0686072846114483
1.3912763595581055,0.3321778184523394,[0.38638669],5.0,0.6,0.0,-1.9998574478547682,0.5252206626295448,1.0526240258626989
1.4009723663330078,0.33589039407033616,[0.39236806],5.0,0.6,0.0,-1.8100646122172779,0.5334515475651562,1.0259439848809233
1.410597324371338,0.33979836840506955,[0.39845684],5.0,0.6,0.0,-1.6408969593567153,0.5425628174601628,1.0004979047802802
1.4192709922790527,0.34331554530632963,[0.40465081],5.0,0.6,0.0,-1.4908217058814062,0.5553165052499444,0.9695810969120742
1.428896427154541,0.347223519641063,[0.41094739],5.0,0.6,0.0,-1.3575186426980008,0.5673189264304703,0.9425343632000054
1.437955617904663,0.3507406965423231,[0.41733173],5.0,0.6,0.0,-1.5146919427596195,0.5428028828037382,0.9102368823248594
1.4472746849060059,0.3542578734435831,[0.42377862],5.0,0.6,0.0,-1.441321041782707,0.5691739843585086,0.8788198526152069
1.4552624225616455,0.3577750503448432,[0.43025422],5.0,0.6,0.0,-1.2903595267555943,0.5840946995376042,0.8484738711911213
1.4673738479614258,0.3628554169799967,[0.43672962],5.0,0.6,0.0,-0.851573847859795,0.6389638854795237,0.8351799156536486
1.4762866497039795,0.36617719516452,[0.44322802],5.0,0.6,0.0,-0.6692975406927559,0.6888154511239977,0.8046903315907483
1.486964225769043,0.3706713656494634,[0.44979258],5.0,0.6,0.0,-0.5962181790958522,0.6837636569873763,0.785658316133992
1.4970858097076416,0.3747747387009336,[0.45643521],5.0,0.6,0.0,-0.5650306945267367,0.68544994130798,0.7632664396440176
1.5052635669708252,0.3782919156021936,[0.46314128],5.0,0.6,0.0,-0.5464776480943843,0.6542453018500386,0.7367332489103313
1.5151793956756592,0.3823952886536637,[0.46988568],5.0,0.6,0.0,-0.528960237787153,0.6734564448233562,0.7161296844881176
1.5263042449951172,0.38688945913860706,[0.47667045],5.0,0.6,0.0,-0.7847954470956656,0.7287375991325179,0.6990049632260319
1.5361378192901611,0.39099283219007713,[0.48352052],5.0,0.6,0.0,-0.7945856051081028,0.7340502023804757,0.6799851045567844
1.544266939163208,0.3941192116578639,[0.49043218],5.0,0.6,0.0,-0.7137540993195832,0.7073901709582985,0.6560367206415548
1.554290771484375,0.3978317872758606,[0.49738946],5.0,0.6,0.0,-0.6105353546950956,0.7695993141080254,0.6374683059703854
1.5638806819915771,0.40173976161059405,[0.50439004],5.0,0.6,0.0,-0.512393056387738,0.7396456579548348,0.6213562490302982
1.5732402801513672,0.4052569385118541,[0.5114076],5.0,0.6,0.0,-0.42838369379623836,0.7748614236858984,0.6048846751413075
1.5820517539978027,0.40916491284658746,[0.51840764],5.0,0.6,0.0,-0.35974631107211474,0.7564899200441539,0.5918275333786897
1.5932400226593018,0.41365908333153095,[0.52539641],5.0,0.6,0.0,-0.30478285284994433,0.8185910332879709,0.5822586743714568
1.6012654304504395,0.41678546279931766,[0.53239092],5.0,0.6,0.0,-0.2610080611454927,0.7956580941124206,0.568999285701225
1.6119215488433838,0.42108423456752436,[0.53938176],5.0,0.6,0.0,-0.502059493428496,0.8174417374661448,0.5606917826370521
1.6216542720794678,0.42499220890225775,[0.54637237],5.0,0.6,0.0,-0.5069621241018807,0.8771110391408047,0.5523251794182648
1.629286289215088,0.4283139870867812,[0.55336551],5.0,0.6,0.0,-0.15277143566104967,0.895842571779722,0.5438064975469508
1.6392755508422852,0.43241736013825127,[0.56033989],5.0,0.6,0.0,-0.02445403172001951,0.9405117746740532,0.5378984044674914
1.6492772102355957,0.43671613190645797,[0.56731212],5.0,0.6,0.0,0.007045316243976002,0.9748129704337773,0.5330060707855827
1.6610794067382812,0.4414057011081381,[0.57431909],5.0,0.6,0.0,0.0012998302752726155,0.962685827088042,0.5292114707846679
1.671294927597046,0.4457044728763448,[0.58136799],5.0,0.6,0.0,-0.01536244784901924,0.9591228088899886,0.5251996499662601
1.6803338527679443,0.44902625106086824,[0.58844112],5.0,0.6,0.0,-0.03218975082965032,0.9278523670944776,0.5204998283201371
1.691281795501709,0.453325022829075,[0.59552276],5.0,0.6,0.0,-0.04548672723774349,0.9811264656550847,0.5175249942924769
1.699249505996704,0.4566468010135984,[0.60259928],5.0,0.6,0.0,-0.0545746722450222,1.0002448641495165,0.5141140838467031
1.7097678184509277,0.4605547753483318,[0.60963635],5.0,0.6,0.0,-0.05992570352297543,1.0059535862354927,0.5117336903312549
1.7208824157714844,0.46543974326674853,[0.61662763],5.0,0.6,0.0,-0.06233764419500239,1.046016483206018,0.5103389664100451
1.7302944660186768,0.4693477176014819,[0.62361275],5.0,0.6,0.0,-0.06259687723388928,1.0813879049854076,0.5085666323554163
1.7390785217285156,0.472864894502742,[0.63061351],5.0,0.6,0.0,-0.06136252161068655,1.03926092280128,0.5068924288014317
1.7492196559906006,0.4771636662709487,[0.63761425],5.0,0.6,0.0,-0.05914540774733458,1.0465685910591715,0.5058033099915025
1.7582643032073975,0.48068084317220877,[0.64460127],5.0,0.6,0.0,-0.056323352471770075,1.0595211620799052,0.5046332771562385
1.7664973735809326,0.48419802007346885,[0.65157376],5.0,0.6,0.0,-0.053166816334192464,1.0733175871018683,0.5036849499749191
1.774233341217041,0.48712900082451893,[0.65851993],5.0,0.6,0.0,-0.049864317429106145,1.090065362748435,0.5028070275317682
1.7842533588409424,0.4910369751592523,[0.66542967],5.0,0.6,0.0,-0.04654392149579903,1.1138997527467227,0.5022807086185819
1.7928338050842285,0.494749550777249,[0.67230533],5.0,0.6,0.0,-0.04329011088873364,1.110769069728844,0.5018253652444392
1.8002331256866455,0.49787593024503574,[0.67912757],5.0,0.6,0.0,-0.04015648344132241,1.1924792310800152,0.5013999924236369
1.810798168182373,0.5021747020132425,[0.68588022],5.0,0.6,0.0,-0.03717506638511537,1.1420013169097198,0.5011703856921473
1.8210539817810059,0.506082676347976,[0.69258211],5.0,0.6,0.0,-0.0343630295188974,1.1547431480044386,0.5009516327491973
1.8317480087280273,0.510186049399446,[0.69924934],5.0,0.6,0.0,-0.03172746372423719,1.1667212539200755,0.5007849111186422
1.8402221202850342,0.5133124288672327,[0.70587437],5.0,0.6,0.0,-0.029268749550946487,1.2252143624586314,0.5006009006721516
1.8492212295532227,0.5172204032019662,[0.71244053],5.0,0.6,0.0,-0.026982912297980697,1.2160287803826593,0.5004889318096241
1.857621192932129,0.5209329788199628,[0.7189445],5.0,0.6,0.0,-0.024863255543873898,1.212295110905861,0.5003925353431908
1.8663554191589355,0.5244501557212229,[0.72539415],5.0,0.6,0.0,-0.02290148462717681,1.2145590371220176,0.500310615728115
1.8763127326965332,0.528553528772693,[0.73179631],5.0,0.6,0.0,-0.021088471608761997,1.2236683338476968,0.500257933706114
1.8863542079925537,0.532656901824163,[0.73815679],5.0,0.6,0.0,-0.019414769447801048,1.2359809486917994,0.5002144683651919
1.8958475589752197,0.5365648761588965,[0.74447047],5.0,0.6,0.0,-0.0178709515600693,1.3210314407514183,0.5001757761631199
1.9062561988830566,0.5404728504936299,[0.75073302],5.0,0.6,0.0,-0.016447830388385452,1.270323301152434,0.5001443511506033
1.917240858078003,0.54516241969531,[0.75697065],5.0,0.6,0.0,-0.015136592617145062,1.3062588051688822,0.5001266743467675
1.9257876873016357,0.5490703940300434,[0.76319552],5.0,0.6,0.0,-0.01392887736599073,1.3180867681704418,0.5001039810759761
1.9377028942108154,0.5537599632317235,[0.76938781],5.0,0.6,0.0,-0.01281681573561488,1.3447084226062351,0.5000913867123717
1.946263074874878,0.5568863426995102,[0.7755502],5.0,0.6,0.0,0.2642453151864828,1.3405237084048525,0.5000183218227513
1.9572350978851318,0.5611851144677169,[0.78170428],5.0,0.6,0.0,0.29831226008450207,1.3673869229129736,0.4999934862039073
1.966275691986084,0.5648976900857137,[0.78785816],5.0,0.6,0.0,-0.03195607124749614,1.3285535786136409,0.500047337636008
1.9742403030395508,0.5680240695535003,[0.79398963],5.0,0.6,0.0,0.13567081363974265,1.408634345263782,0.5000230220780776
1.9859960079193115,0.5727136387551806,[0.80007981],5.0,0.6,0.0,0.15410444057869027,1.3521237438697775,0.5000146663908511
1.9981880187988281,0.5774032079568606,[0.80614151],5.0,0.6,0.0,0.11914619605300389,1.3528944607082105,0.5000179716436959
2.0062103271484375,0.5809203848581206,[0.81217629],5.0,0.6,0.0,0.07220808102289292,1.440069127946416,0.5000187571915418
2.015733480453491,0.585414555343064,[0.8181573],5.0,0.6,0.0,0.02946419257379369,1.4698807669427962,0.5000190745478352
2.0274922847747803,0.5899087258280075,[0.82407181],5.0,0.6,0.0,-0.004161386421766422,1.413882267473565,0.5000172583171991
2.035832405090332,0.5928397065790576,[0.82992865],5.0,0.6,0.0,-0.028412073127089356,1.4825156812137075,0.5000125077994924
2.0496270656585693,0.5985062693644211,[0.83574532],5.0,0.6,0.0,-0.04469546916341609,1.421938421513432,0.5000114362969325
2.0597238540649414,0.6026096424158911,[0.84155577],5.0,0.6,0.0,-0.05478320672738643,1.4177435548833544,0.5000087501392152
2.068240165710449,0.6059314206004144,[0.84737939],5.0,0.6,0.0,-0.06030187364550487,1.4216456211599466,0.500005930400014
2.077634811401367,0.6098393949351478,[0.85321363],5.0,0.6,0.0,-0.06257713061739716,1.4252943975454797,0.5000042507203425
2.087228775024414,0.6135519705531445,[0.85905617],5.0,0.6,0.0,-0.06262478519450634,1.440332555826121,0.5000028991038764
2.0962464809417725,0.6172645461711412,[0.86490489],5.0,0.6,0.0,-0.06119460000857718,1.460458552168574,0.5000019255715937
2.107246160507202,0.6217587166560847,[0.87075781],5.0,0.6,0.0,-0.058825950404119955,1.4742924576683492,0.500001542151913
2.1185824871063232,0.6264482858577648,[0.87661302],5.0,0.6,0.0,0.22013911240181228,1.4850880599770773,0.4999675924811933
2.1284236907958984,0.6303562601924982,[0.88246872],5.0,0.6,0.0,-0.01955353038080221,1.49859857803154,0.5000027296996872
2.137221097946167,0.6340688358104949,[0.88832318],5.0,0.6,0.0,-0.10443935019088271,1.5124249440138227,0.4999943069755164
2.148270845413208,0.6389538037289116,[0.89418392],5.0,0.6,0.0,0.15394256464107842,1.5004445006070395,0.49998455613296683
2.160226821899414,0.6436433729305918,[0.90006607],5.0,0.6,0.0,0.19587845575529167,1.4959724800436314,0.49997338385338447
2.1691603660583496,0.6471605498318519,[0.90596347],5.0,0.6,0.0,0.15780036645164267,1.5742145081879302,0.4999829855951033
2.1782312393188477,0.650677726733112,[0.91185206],5.0,0.6,0.0,0.09929900802371237,1.580529031097797,0.49999384903679533
2.1882498264312744,0.6545857010678453,[0.91772939],5.0,0.6,0.0,0.044145026942789024,1.5280233148965567,0.499999516468659
2.1998231410980225,0.6590798715527887,[0.92361123],5.0,0.6,0.0,1.8417449630710875e-05,1.5364675046485754,0.5000008353891313
2.2072255611419678,0.6620108523038388,[0.92948352],5.0,0.6,0.0,-0.0321735435979197,1.5511106993819415,0.4999998403483032
2.2173080444335938,0.6661142253553088,[0.93531621],5.0,0.6,0.0,-0.05401999272384455,1.5731466084656505,0.49999833513783254
2.227288246154785,0.6704129971235157,[0.94111948],5.0,0.6,0.0,-0.06773612176434418,1.5962499353553044,0.49999701589313267
2.235821485519409,0.6739301740247756,[0.94690208],5.0,0.6,0.0,-0.07541538975845986,1.6076947235574481,0.4999961034059434
2.244320869445801,0.6772519522092991,[0.95263606],5.0,0.6,0.0,-0.07878674289964313,1.600961278647258,0.49999563804777014
2.2556331157684326,0.6817461226942425,[0.95831528],5.0,0.6,0.0,-0.07918494944656149,1.6214629883931841,0.4999955594886647
2.266547918319702,0.6862402931791859,[0.96396078],5.0,0.6,0.0,-0.07759992415289671,1.6086317446498113,0.4999957172705903
2.2757568359375,0.6899528687971827,[0.96957301],5.0,0.6,0.0,-0.0747462539225523,1.6748764309815989,0.4999960027558674
2.2873902320861816,0.6948378367155994,[0.97514361],5.0,0.6,0.0,-0.07112932231923527,1.6135215723879996,0.49999638356357634
2.29525089263916,0.6981596149001227,[0.98068238],5.0,0.6,0.0,-0.06710028569057391,1.6532891041077906,0.4999967650671989
2.303962469100952,0.7014813930846462,[0.98618926],5.0,0.6,0.0,-0.06289886477496698,1.723336829236624,0.49999714602432416
2.3112242221832275,0.7044123738356962,[0.99164748],5.0,0.6,0.0,-0.058685419715642624,1.7340802679381642,0.4999975045084896
2.3192174434661865,0.7075387533034829,[0.99704327],5.0,0.6,0.0,-0.05456443240669856,1.7537371650680518,0.49999783621180416
2.329530715942383,0.711642126354953,[1.00236555],5.0,0.6,0.0,-0.050601430893205915,1.7603721094749119,0.4999981395322516
2.3382742404937744,0.7149639045394763,[1.00761384],5.0,0.6,0.0,-0.04683505392269374,1.7681238636730987,0.49999840353989145
2.3492367267608643,0.7196534737411566,[1.01280473],5.0,0.6,0.0,-0.043285581032376265,1.7329245742317776,0.49999863958239016
2.35862398147583,0.7237568467926265,[1.01795281],5.0,0.6,0.0,-0.0399609241326799,1.775936630237237,0.4999988416430375
2.3672869205474854,0.7272740236938866,[1.02305465],5.0,0.6,0.0,-0.03686081170325045,1.7820638737621057,0.4999990137490587
2.3771708011627197,0.7311819980286202,[1.02809978],5.0,0.6,0.0,-0.03397969421435622,1.7891238511147383,0.49999916250544924
2.388526201248169,0.7356761685135634,[1.0330882],5.0,0.6,0.0,-0.3073471087674216,1.778106586401494,0.4999297079473061
2.3977532386779785,0.7393887441315602,[1.03803688],5.0,0.6,0.0,-0.3380002168890068,1.785134501160522,0.4999149817341383
2.4063003063201904,0.7427105223160836,[1.04296077],5.0,0.6,0.0,-0.2806192251937728,1.7937205136693988,0.49994139879526384
2.4146666526794434,0.7462276992173437,[1.04785673],5.0,0.6,0.0,-0.20242621107742548,1.8151476521404153,0.4999695106170909
2.4267566204071045,0.7511126671357603,[1.05272267],5.0,0.6,0.0,-0.12995928389061653,1.789556307270863,0.4999874402160108
2.435194730758667,0.7542390466035471,[1.05756547],5.0,0.6,0.0,-0.07154536145383537,1.823319392846246,0.4999961998175076
2.445255756378174,0.7585378183717539,[1.06239147],5.0,0.6,0.0,-0.027896607472228763,1.7928618266416212,0.4999994302549999
2.4562275409698486,0.7628365901399606,[1.06721468],5.0,0.6,0.0,0.27907761797875275,1.800958716475495,0.4999420352058226
2.464923620223999,0.7661583683244839,[1.07204714],5.0,0.6,0.0,0.3331302513126818,1.8119550409444556,0.499917403866908
2.473241090774536,0.7696755452257441,[1.0768826],5.0,0.6,0.0,0.29147456863576127,1.8426239690856445,0.4999367679949155
2.4820070266723633,0.7733881208437408,[1.08170761],5.0,0.6,0.0,0.22341769308831622,1.8461476949404092,0.49996284981639744
2.492100954055786,0.7772960951784743,[1.08651928],5.0,0.6,0.0,0.15710942747355036,1.8474717643248064,0.49998163097259957
2.5012104511260986,0.7812040695132076,[1.09132379],5.0,0.6,0.0,-0.17396088808452953,1.8488652667170922,0.49997747759787764
2.5117998123168945,0.7855028412814143,[1.09612657],5.0,0.6,0.0,-0.24925533343256404,1.8487337582253867,0.49995375801921105
2.522479295730591,0.7898016130496212,[1.10093237],5.0,0.6,0.0,-0.2248929399556332,1.8489860295946885,0.49996235590203675
2.531362533569336,0.7933187899508811,[1.10573691],5.0,0.6,0.0,-0.17037118385823283,1.8691307034042037,0.4999783965712783
2.5433595180511475,0.7980083591525613,[1.11053674],5.0,0.6,0.0,-0.11445279244928183,1.8401362466609599,0.49999025214575316
2.553236246109009,0.8021117322040313,[1.11535426],5.0,0.6,0.0,-0.3433741050068841,1.7778801861128826,0.49991224158192427
2.5637993812561035,0.8062151052555014,[1.12021673],5.0,0.6,0.0,-0.3403599039170828,1.8089840581788479,0.49991377518620606
2.5715832710266113,0.8097322821567615,[1.12512154],5.0,0.6,0.0,-0.25915084679291833,1.876270486460013,0.4999500114751796
2.5802416801452637,0.8130540603412848,[1.1300492],5.0,0.6,0.0,-0.1650829567177351,1.8812177608067386,0.4999797155936848
2.591219663619995,0.8173528321094915,[1.13499145],5.0,0.6,0.0,-0.08276642606603574,1.8813101549085072,0.4999949023965522
2.599217653274536,0.8204792115772783,[1.13994117],5.0,0.6,0.0,-0.018880776859635275,1.9045905116211181,0.4999997359996479
2.608443021774292,0.8239963884785384,[1.14488387],5.0,0.6,0.0,0.027158424494411696,1.9102104746093347,0.49999945208361274
2.618224859237671,0.8280997615300084,[1.14981592],5.0,0.6,0.0,0.05837772028881226,1.910432520259642,0.4999974641437919
2.627218723297119,0.8320077358647419,[1.15473446],5.0,0.6,0.0,0.07819280764856831,1.919868928782543,0.4999954495684338
2.6374378204345703,0.8361111089162119,[1.15963732],5.0,0.6,0.0,0.08963255960232565,1.899865082811502,0.49999402033517265
2.6451783180236816,0.8394328871007354,[1.16453143],5.0,0.6,0.0,0.09512630996883624,1.9322667828662226,0.4999932646145391
2.6562466621398926,0.8439270575856788,[1.16941434],5.0,0.6,0.0,0.096520119534967,1.9310692482086693,0.4999930657414244
2.6664626598358154,0.8480304306371489,[1.17429275],5.0,0.6,0.0,0.0951706829114877,1.884261983522235,0.4999932582359425
2.6741952896118164,0.8513522088216723,[1.17918092],5.0,0.6,0.0,0.09205226577838047,1.941114691129573,0.4999936927353352
2.6837353706359863,0.855064784439669,[1.18407363],5.0,0.6,0.0,0.08785210898715287,1.943275399881212,0.49999425515096274
2.694347858428955,0.8593635562078759,[1.1889661],5.0,0.6,0.0,0.0830474365085679,1.9430037929799067,0.4999948663539602
2.703195571899414,0.8630761318258724,[1.19386222],5.0,0.6,0.0,0.07796442851137554,1.9473148045874942,0.4999954755307732
2.7128965854644775,0.8671795048773426,[1.19876424],5.0,0.6,0.0,0.34886035453317815,1.9512884295031594,0.4999094123037969
2.7212326526641846,0.8703058843451292,[1.20366487],5.0,0.6,0.0,0.37692658743199325,1.9737553076027785,0.4998942517044361
2.732184410095215,0.874604656113336,[1.20855641],5.0,0.6,0.0,0.0409075961665612,1.9580889582167211,0.4999987545039767
2.7442848682403564,0.8796850227484895,[1.21344643],5.0,0.6,0.0,0.20308259926397118,1.9639967119614388,0.4999693001831596
2.754204750061035,0.8835929970832228,[1.21833934],5.0,0.6,0.0,0.21638746708784432,1.9743663534857832,0.4999651459347243
2.7624921798706055,0.8869147752677462,[1.22322869],5.0,0.6,0.0,0.17663157686206854,1.9861374568458356,0.4999767763499222
2.7710118293762207,0.8902365534522696,[1.22810022],5.0,0.6,0.0,0.12522416276489504,1.9903986972452303,0.49998832724539544
2.7815582752227783,0.8949261226539497,[1.23293955],5.0,0.6,0.0,0.07832967670640899,1.9969372466801272,0.4999954328420679
2.7898449897766113,0.8984432995552097,[1.23773948],5.0,0.6,0.0,0.040858349707029146,1.9919917116192272,0.499998757395913
2.7995107173919678,0.9021558751732064,[1.24248639],5.0,0.6,0.0,0.013050531858032642,1.9956784634282023,0.499999873303423
2.8098108768463135,0.9064546469414132,[1.24717214],5.0,0.6,0.0,-0.006518757035540834,2.008310273960678,0.4999999684498455
2.817270040512085,0.9091902289757265,[1.25178927],5.0,0.6,0.0,-0.019638849631166022,2.017749947820352,0.49999971296022705
2.827166795730591,0.9132936020271968,[1.25631475],5.0,0.6,0.0,-0.02795381723023568,2.01331065890178,0.4999994183741666
2.836209774017334,0.9170061776451935,[1.26073379],5.0,0.6,0.0,-0.032806244929698476,2.0079544299646575,0.4999991988944553
2.8441946506500244,0.9201325571129801,[1.26504389],5.0,0.6,0.0,-0.03522809857948017,2.004012728562945,0.49999907623214535
2.8535401821136475,0.9238451327309769,[1.26924267],5.0,0.6,0.0,-0.03598441800888555,1.9965580576435626,0.4999990361362323
2.8639702796936035,0.9279485057824469,[1.27332814],5.0,0.6,0.0,-0.03562892171168274,1.9870695575693094,0.4999990550874588
2.873530626296997,0.9318564801171804,[1.27729892],5.0,0.6,0.0,-0.03455541798636051,1.978702067821913,0.4999991111724608
2.88403582572937,0.9359598531686504,[1.28115442],5.0,0.6,0.0,-0.033040016561155426,1.9698323269136648,0.4999991874259207
2.8942017555236816,0.9400632262201205,[1.28489489],5.0,0.6,0.0,-0.031273770148623155,1.9615277822133736,0.4999992719875147
2.9034111499786377,0.943971200554854,[1.28852152],5.0,0.6,0.0,-0.02938705322680915,1.9548551235741483,0.4999993571857488
2.9117953777313232,0.9472929787393772,[1.29203257],5.0,0.6,0.0,-0.027467376377492678,1.9206744572028687,0.49999943842985517
2.9202470779418945,0.9508101556406374,[1.29542396],5.0,0.6,0.0,-0.025572216516274004,1.9261645597485595,0.4999995132566392
2.928982734680176,0.9541319338251608,[1.29869773],5.0,0.6,0.0,-0.023738164900642435,1.9309992778037468,0.4999995805788346
2.939664602279663,0.9586261043101042,[1.30186523],5.0,0.6,0.0,-0.02198740196829551,1.9581859668605466,0.49999964018124804
2.9483437538146973,0.9621432812113643,[1.30493778],5.0,0.6,0.0,-0.020332254125519252,1.9204934167937164,0.4999996923266402
2.956289529800415,0.965269660679151,[1.30791444],5.0,0.6,0.0,-0.018778385382169374,1.8913589104929716,0.49999973756720795
2.9662556648254395,0.969373033730621,[1.31079206],5.0,0.6,0.0,-0.017327022945475234,1.9018461636300934,0.49999977658687156
2.976529121398926,0.9734764067820911,[1.31357806],5.0,0.6,0.0,-0.0159765021271804,1.9084992399925362,0.49999981008259214
2.985546112060547,0.9771889824000878,[1.3162848],5.0,0.6,0.0,-0.014723333239956681,1.9144741665229927,0.4999998387343599
2.9953746795654297,0.9810969567348212,[1.31892488],5.0,0.6,0.0,-0.013562933764264182,1.9178010095320495,0.49999986318735734
3.0053045749664307,0.9850049310695548,[1.32151097],5.0,0.6,0.0,-0.012490126734195223,1.9198872550642743,0.4999998840171215
3.0142598152160645,0.9887175066875513,[1.32405573],5.0,0.6,0.0,-0.011499476286589743,1.9222079235270702,0.4999999017328369
3.0250306129455566,0.9928208797390216,[1.32657178],5.0,0.6,0.0,-0.010585510128116822,1.9221005690001158,0.4999999167989355
3.035217046737671,0.9969242527904917,[1.32907157],5.0,0.6,0.0,-0.009742863759317048,1.921436133754342,0.4999999296005369
3.0441761016845703,1.0004414296917516,[1.33156732],5.0,0.6,0.0,-0.00896637080778881,1.923368918707969,0.4999999404528337
3.053248405456543,1.004349404026485,[1.33407092],5.0,0.6,0.0,0.2677872432110275,1.9228379053295825,0.49994662224213476
3.061171531677246,1.0076711822110085,[1.33658217],5.0,0.6,0.0,0.30157049695265675,1.9187516790781003,0.49993230565296676
3.069729804992676,1.0111883591122686,[1.33909032],5.0,0.6,0.0,0.24707963051071363,1.919779049855971,0.49995455810356404
3.0789787769317627,1.0147055360135286,[1.34159871],5.0,0.6,0.0,0.17155280642747087,1.9202755476988953,0.4999780930230674
3.088658332824707,1.0188089090649985,[1.34412296],5.0,0.6,0.0,0.10154386688251593,1.9174101413248752,0.4999923250705993
3.0982043743133545,1.022716883399732,[1.3466776],5.0,0.6,0.0,0.04539485826973437,1.9149902804717334,0.4999984667870615
3.1079940795898438,1.0264294590177288,[1.34927601],5.0,0.6,0.0,0.003832320754350964,1.9131295103510833,0.4999999899517437
3.1211495399475098,1.0320960218030921,[1.3519373],5.0,0.6,0.0,-0.025182478788816232,1.9051955390007944,0.4999995292348146
3.1342432498931885,1.0375671858717188,[1.35469254],5.0,0.6,0.0,-0.04434190504624889,1.8734206967314788,0.49999853819806883
3.144019842147827,1.041084362772979,[1.35756897],5.0,0.6,0.0,-0.056155507256204495,1.8783682979594185,0.4999976545775929
3.155259370803833,1.045773931974659,[1.36057591],5.0,0.6,0.0,-0.06268530361591651,1.873616231120421,0.4999970773934076
3.1640751361846924,1.0489003114424458,[1.36371389],5.0,0.6,0.0,-0.0655208295401504,1.874876593607969,0.49999680677818575
3.174476146697998,1.0533944819273893,[1.36698296],5.0,0.6,0.0,-0.06584180050403421,1.8688862647914648,0.4999967758019228
3.182204484939575,1.056520861395176,[1.37037476],5.0,0.6,0.0,-0.06450199868146222,1.8745665317166342,0.4999969057052355
3.193312644958496,1.0610150318801193,[1.37387372],5.0,0.6,0.0,-0.06210796638384595,1.87143233242364,0.4999971317072282
3.2011878490448,1.0641414113479062,[1.37747416],5.0,0.6,0.0,-0.05908404241311306,1.8725098367424147,0.4999974043287063
3.2102248668670654,1.067853986965903,[1.38117891],5.0,0.6,0.0,-0.055722830369165144,1.869608276082952,0.4999976915871095
3.2221343517303467,1.0727389548843196,[1.38499866],5.0,0.6,0.0,-0.05222296788961206,1.815125889379689,0.4999979732405287
3.231170892715454,1.0764515305023163,[1.38894204],5.0,0.6,0.0,-0.04871675822617394,1.8641723201794758,0.49999823659818743
3.242182731628418,1.0807503022705232,[1.39300753],5.0,0.6,0.0,-0.04529008350685397,1.8067185482392112,0.4999984764893221
3.2511818408966064,1.084267479171783,[1.39719328],5.0,0.6,0.0,-0.04199660623416189,1.8639147238863472,0.4999986902142615
3.259962558746338,1.0877846560730433,[1.40148812],5.0,0.6,0.0,-0.03886781994633218,1.8610374234598615,0.4999988782627277
3.269688606262207,1.0916926304077768,[1.40588219],5.0,0.6,0.0,-0.035920119710893206,1.8556504658959203,0.4999990421995356
3.2799649238586426,1.0959914021759836,[1.41037554],5.0,0.6,0.0,-0.03315975079249345,1.8489086477973136,0.4999991840815878
3.2897820472717285,1.1000947752274535,[1.41496776],5.0,0.6,0.0,-0.030586255643182965,1.843858720374555,0.4999993060451588
3.298236131668091,1.1036119521287135,[1.41965805],5.0,0.6,0.0,-0.02819486285824665,1.842414935140424,0.4999994103479816
3.307225227355957,1.1071291290299736,[1.42443577],5.0,0.6,0.0,-0.02597813330943779,1.8883299231946742,0.49999949942937183
3.3161652088165283,1.1106463059312337,[1.42928196],5.0,0.6,0.0,-0.023927086337159106,1.883964641760785,0.49999957534501877
3.325199604034424,1.1143588815492305,[1.43418966],5.0,0.6,0.0,-0.02203196304329013,1.8767364477118997,0.49999963996593383
3.3358395099639893,1.1186576533174373,[1.43916222],5.0,0.6,0.0,-0.02028273704314139,1.8674127096832485,0.49999969495716834
3.343200922012329,1.1221748302186971,[1.44419246],5.0,0.6,0.0,-0.018669450067094466,1.9118196847296585,0.49999974152479776
3.3531992435455322,1.1262782032701673,[1.44926436],5.0,0.6,0.0,-0.017182426581438787,1.9035091415207854,0.4999997810950844
3.3642232418060303,1.1305769750383738,[1.45437393],5.0,0.6,0.0,-0.015812405283006377,1.8915983274899977,0.49999981465817434
3.3741464614868164,1.1344849493731075,[1.45952744],5.0,0.6,0.0,-0.01455061387217927,1.8825902942977468,0.4999998430607449
3.384181261062622,1.1383929237078407,[1.4647301],5.0,0.6,0.0,-0.01338880548677538,1.8755840251670464,0.49999986712087907
3.3945112228393555,1.1424962967593109,[1.46999609],5.0,0.6,0.0,-0.012319269562843274,1.8685375985494792,0.4999998875094052
3.407259464263916,1.1475766633944644,[1.47535702],5.0,0.6,0.0,-0.011334825962427974,1.8964509962019183,0.4999999048261703
3.416719913482666,1.1514846377291978,[1.48083896],5.0,0.6,0.0,-0.010428808462641576,1.8903222762423766,0.49999991941745203
3.42512583732605,1.1548064159137212,[1.48643262],5.0,0.6,0.0,-0.28563340146937183,1.8841653487896917,0.49993927097920116
3.4332268238067627,1.1585189915317178,[1.49209869],5.0,0.6,0.0,-0.041952418212863066,1.957500926939453,0.49999869006890585
3.4442379474639893,1.1630131620166613,[1.49780315],5.0,0.6,0.0,0.04697540312147331,1.9440927885888444,0.49999835752646027
3.4541513919830322,1.1669211363513945,[1.50353711],5.0,0.6,0.0,0.06861271542596852,1.933253885941911,0.4999964957382571
3.4642105102539062,1.1710245094028648,[1.50930299],5.0,0.6,0.0,0.06364804189984252,1.9242657713730282,0.4999969845029737
3.4724674224853516,1.174541686304125,[1.51510272],5.0,0.6,0.0,0.05029704040337904,1.9212163968731022,0.49999811690915325
3.4831671714782715,1.1788404580723315,[1.52093781],5.0,0.6,0.0,0.03617876709999769,1.916761925452901,0.4999990257210859
3.4960455894470215,1.1843116221409582,[1.52681985],5.0,0.6,0.0,-0.2519766006814685,1.955748522829617,0.4999527386654671
3.5062854290008545,1.1884149951924285,[1.53275835],5.0,0.6,0.0,-0.29456031411951206,1.9445935195825295,0.4999354157298545
3.5141239166259766,1.191541374660215,[1.53874023],5.0,0.6,0.0,-0.24644432553632103,1.9428487640469752,0.4999547910561688
3.523160696029663,1.1950585515614751,[1.54475423],5.0,0.6,0.0,-0.1753077388266896,1.958230621278492,0.4999771230321183
3.531151056289673,1.1981849310292618,[1.55079065],5.0,0.6,0.0,-0.10817077812925073,2.040287974711965,0.49999128992271397
3.5414252281188965,1.202288304080732,[1.55684135],5.0,0.6,0.0,-0.3298180298812868,1.9990549729538758,0.4999190307288182
3.551137924194336,1.2060008796987287,[1.56291006],5.0,0.6,0.0,-0.3223446441720016,2.0389936579670094,0.4999226582573847
3.5615732669830322,1.2106904489004089,[1.56900012],5.0,0.6,0.0,-0.23864622075479117,2.0266151251502937,0.49995760669129613
3.5699849128723145,1.2138168283681954,[1.57511443],5.0,0.6,0.0,-0.14344228099595796,2.0442492770077068,0.49998468368608945
3.581172227859497,1.2185063975698756,[1.5812448],5.0,0.6,0.0,-0.06090100615728892,2.025776861979939,0.49999723907998084
3.5892229080200195,1.2216327770376625,[1.58738442],5.0,0.6,0.0,0.0026108604316075028,2.039574598225505,0.49999999492812686
3.600145101547241,1.225931548805869,[1.59354921],5.0,0.6,0.0,0.04789667258707073,2.0892035651128844,0.49999829228199777
3.6143975257873535,1.2321843077414425,[1.59977417],5.0,0.6,0.0,0.07813463083427247,2.117987321849636,0.4999954554419473
3.624164342880249,1.2362876807929126,[1.60608833],5.0,0.6,0.0,0.0968443524861211,2.1133396712946557,0.49999301844505245
3.635216474533081,1.2405864525611194,[1.61249343],5.0,0.6,0.0,0.10712500261055449,2.112452586623282,0.49999145750748075
3.6445412635803223,1.244299028179116,[1.61896802],5.0,0.6,0.0,0.11145266814823131,2.0825264062640976,0.4999907533680997
3.654226779937744,1.2484024012305863,[1.62548206],5.0,0.6,0.0,0.11170378417900176,2.0988757246575744,0.4999907116538399
3.665219783782959,1.252701172998793,[1.63202002],5.0,0.6,0.0,0.10925409381252732,2.11292967235963,0.4999911145743073
3.675191640853882,1.2566091473335264,[1.63857853],5.0,0.6,0.0,0.10508913583002982,2.1272155179550274,0.49999177911192727
3.6854770183563232,1.2605171216682596,[1.64516404],5.0,0.6,0.0,0.09990213406195037,2.175294985454156,0.49999257061317
3.69461727142334,1.2644250960029932,[1.65179118],5.0,0.6,0.0,0.0941727389220586,2.1778697653770673,0.4999933983240088
3.702115535736084,1.2675514754707797,[1.65845005],5.0,0.6,0.0,0.088227205325878,2.185717208059805,0.49999420559028385
3.71157169342041,1.2714594498055134,[1.66511028],5.0,0.6,0.0,0.08228300006620949,2.1894218464224418,0.49999496006750876
3.721595287322998,1.2755628228569833,[1.67175548],5.0,0.6,0.0,0.07648122552951364,2.197452098530466,0.499995645738988
3.7296323776245117,1.2788846010415067,[1.67837138],5.0,0.6,0.0,0.07090987614109649,2.285692358213179,0.4999962570114226
3.7385120391845703,1.2824017779427668,[1.68493563],5.0,0.6,0.0,0.06562036152061776,2.2865818755594662,0.49999679459788227
3.7461373805999756,1.2855281574105535,[1.69142951],5.0,0.6,0.0,0.060639161135085384,2.3335821376897723,0.4999972627664446
3.7562129497528076,1.2898269291787603,[1.69783754],5.0,0.6,0.0,0.05597599607274931,2.333323659899502,0.4999976675662198
3.7652108669281006,1.2933441060800202,[1.70415667],5.0,0.6,0.0,0.05162952779348989,2.3351240260463046,0.4999980157238196
3.7751834392547607,1.2974474791314903,[1.71039436],5.0,0.6,0.0,0.0475913105179619,2.3360484078380854,0.49999831398563355
3.7878642082214355,1.3027232444833805,[1.71656648],5.0,0.6,0.0,0.04384851562172355,2.2854635889271426,0.49999856874886056
3.8002145290374756,1.307217414968324,[1.7227049],5.0,0.6,0.0,0.04038579557442111,2.3156594202115968,0.49999878587491275
3.8115203380584717,1.3117115854532673,[1.72884516],5.0,0.6,0.0,0.03718654689063703,2.3390061254617316,0.4999989706147712
3.820535659790039,1.3154241610712643,[1.73500728],5.0,0.6,0.0,0.31027211435171376,2.33132826878363,0.4999283426004616
3.8284332752227783,1.3189413379725243,[1.74118014],5.0,0.6,0.0,0.3406735097429441,2.366158080657092,0.49991361349872704
3.836125373840332,1.3220677174403108,[1.74732698],5.0,0.6,0.0,0.2830662544864847,2.42765418259795,0.49994035734493447
3.847262144088745,1.326757286641991,[1.75341685],5.0,0.6,0.0,0.20466879716640862,2.4281522010448002,0.4999688185427742
3.857252359390259,1.330860659693461,[1.75945072],5.0,0.6,0.0,0.13201638610662228,2.3683431761745894,0.49998702651300336
3.865217447280884,1.3341824378779843,[1.76543856],5.0,0.6,0.0,0.07343364141065255,2.4511427051703145,0.4999959858364702
3.875673294067383,1.3380904122127177,[1.77137151],5.0,0.6,0.0,0.029630847079268035,2.4555304114834797,0.4999993464263631
3.885122060775757,1.3418029878307145,[1.77724278],5.0,0.6,0.0,-0.001445842476828019,2.462037437803711,0.49999999844386017
3.8951733112335205,1.3461017595989213,[1.78305591],5.0,0.6,0.0,-0.298541164848411,2.4669580853711692,0.49993365834401055
3.905168056488037,1.3502051326503914,[1.7888141],5.0,0.6,0.0,-0.34522552207925905,2.473668533454739,0.4999112897228159
3.9172325134277344,1.3554808980022812,[1.79452899],5.0,0.6,0.0,-0.022226454717345218,2.4054665577510925,0.49999963225489064
3.9262032508850098,1.358802676186805,[1.80021058],5.0,0.6,0.0,0.08266921034269265,2.498644326835329,0.49999491264499624
3.9382739067077637,1.3636876441052217,[1.80585011],5.0,0.6,0.0,0.09641337297599369,2.500870152737106,0.49999308044407637
3.9476802349090576,1.3674002197232182,[1.81144012],5.0,0.6,0.0,0.07703840045188623,2.5092641870659165,0.4999955820655223
3.957266092300415,1.371112795341215,[1.81698271],5.0,0.6,0.0,0.04975585038119443,2.518780866303385,0.4999981571322016
3.966238021850586,1.3748253709592118,[1.82247126],5.0,0.6,0.0,0.02451367464938621,2.5452912535228194,0.49999955267484963
3.978250503540039,1.3797103388776286,[1.82789974],5.0,0.6,0.0,0.004430348747932793,2.5234217237326257,0.499999985388914
3.988112688064575,1.3836183132123618,[1.83327862],5.0,0.6,0.0,-0.010229159771865394,2.5376971383953584,0.4999999221091281
4.000385999679565,1.388894078564252,[1.83862333],5.0,0.6,0.0,-0.020234142558666606,2.5016358255151028,0.49999969522723586
4.008393287658691,1.3920204580320388,[1.84394489],5.0,0.6,0.0,-0.026596611619369832,2.5382578328429695,0.4999994734264147
4.016885995864868,1.3955376349332989,[1.84923648],5.0,0.6,0.0,-0.03025816279920019,2.5754311323470196,0.4999993184597806
4.028757810592651,1.4000318054182421,[1.85448345],5.0,0.6,0.0,-0.03199122574367459,2.567958842953221,0.49999923815239733
4.036095142364502,1.4029627861692924,[1.85967972],5.0,0.6,0.0,-0.032390138807940214,2.5890067505008867,0.49999921903431
4.044114589691162,1.4062845643538158,[1.86481285],5.0,0.6,0.0,0.2441433792157869,2.5977844546131084,0.49995563123827114
4.054943084716797,1.410778734838759,[1.86987156],5.0,0.6,0.0,0.27833969139604037,2.599833613961982,0.49994233239537883
4.066161394119263,1.4152729053237025,[1.87485832],5.0,0.6,0.0,0.22466604768368806,2.604336210382028,0.4999624279191632
4.074574947357178,1.4189854809416993,[1.87977465],5.0,0.6,0.0,0.15020027790707602,2.600315166290306,0.49998320651408457
4.083760499954224,1.4226980565596958,[1.88460989],5.0,0.6,0.0,0.08138553646048358,2.605323699777122,0.4999950694088136
4.092124938964844,1.4258244360274828,[1.88935526],5.0,0.6,0.0,0.026488600573387637,2.6118527235099567,0.49999947769464603
4.10109281539917,1.4297324103622162,[1.89400369],5.0,0.6,0.0,-0.013814247311782758,2.588036441318736,0.4999998579435141
4.109174489974976,1.432858789830003,[1.8985441],5.0,0.6,0.0,-0.04159448679445617,2.601631655784084,0.4999987121133054
4.117875099182129,1.4367667641647361,[1.90297375],5.0,0.6,0.0,-0.059565067028267464,2.6083912389235047,0.4999973588759617
4.127236843109131,1.4408701372162065,[1.90729153],5.0,0.6,0.0,-0.07024774593519835,2.5805386789610556,0.49999632658608417
4.135119438171387,1.4436057192505198,[1.91149221],5.0,0.6,0.0,-0.07571103867132127,2.600115858866583,0.49999573299422406
4.143093109130859,1.4467320987183063,[1.9155728],5.0,0.6,0.0,-0.07754713097660464,2.577766231867984,0.4999955235246145
4.152477264404297,1.4504446743363033,[1.91953233],5.0,0.6,0.0,-0.0769358416333614,2.5969215770190752,0.49999559382055736
4.161567211151123,1.4539618512375632,[1.92337723],5.0,0.6,0.0,-0.07472941027484178,2.610578470371443,0.49999584292385013
4.172345876693726,1.45826062300577,[1.9271202],5.0,0.6,0.0,-0.07153181222235708,2.6158568612235555,0.49999619106574245
4.182121753692627,1.4619731986237665,[1.93077368],5.0,0.6,0.0,-0.06776422037762618,2.621362694032569,0.4999965817322066
4.191748142242432,1.4658811729585002,[1.93434977],5.0,0.6,0.0,-0.06371576233774937,2.6241650056966126,0.49999697796750253
4.200541257858276,1.4697891472932336,[1.93786034],5.0,0.6,0.0,-0.05958148326264239,2.6258477940496503,0.4999973574199683
4.208176136016846,1.4729155267610203,[1.94131095],5.0,0.6,0.0,-0.05549010503924334,2.600568356249993,0.4999977078830449
4.216766595840454,1.4764327036622804,[1.94470174],5.0,0.6,0.0,-0.051524021492149095,2.6133941973831623,0.4999980238253564
4.228433132171631,1.4811222728639604,[1.94804635],5.0,0.6,0.0,-0.047733550446757145,2.636800554959342,0.49999830389233824
4.236127614974976,1.4840532536150106,[1.95136364],5.0,0.6,0.0,-0.04414701352021673,2.6169209836752088,0.4999985491961335
4.245183706283569,1.4877658292330072,[1.95465838],5.0,0.6,0.0,-0.040777821233816534,2.622717748214131,0.4999987621894696
4.2541937828063965,1.491478404851004,[1.95792934],5.0,0.6,0.0,-0.03762942660109507,2.5965514908706195,0.49999894594949973
4.26517391204834,1.496167974052684,[1.96117627],5.0,0.6,0.0,0.24133958900488087,2.605168961919665,0.4999566444217259
4.2751548290252686,1.5000759483874173,[1.96440637],5.0,0.6,0.0,0.27718429685234114,2.6119043291504296,0.4999428101335249
4.28570294380188,1.5041793214388874,[1.96763994],5.0,0.6,0.0,-0.05143208813047262,2.6241978649503874,0.499998030871155
4.293436765670776,1.5075010996234108,[1.97090176],5.0,0.6,0.0,-0.1583122871215746,2.6240489831349914,0.49998134360109353
4.302184581756592,1.5110182765246711,[1.97419965],5.0,0.6,0.0,0.10445191070908601,2.610449353533979,0.49999187850603666
4.312100172042847,1.5147308521426677,[1.97752662],5.0,0.6,0.0,0.1590246241213631,2.6139122390269542,0.49998117533504727
4.320465803146362,1.5182480290439277,[1.98088357],5.0,0.6,0.0,0.13428256851318174,2.6165079287809268,0.49998657729253454
4.328899145126343,1.5217652059451876,[1.98427142],5.0,0.6,0.0,-0.18894760265500732,2.5988021627215545,0.49997342471653505
4.341864347457886,1.5274317687305514,[1.98769129],5.0,0.6,0.0,-0.26857148360098315,2.608164556444554,0.49994630879475616
4.351103782653809,1.5311443443485482,[1.99115111],5.0,0.6,0.0,-0.2514027439123658,2.597503348579694,0.4999529536137884
4.361123561859131,1.5350523186832816,[1.99465729],5.0,0.6,0.0,-0.20331200799337829,2.602762487014645,0.49996923057565
4.371184349060059,1.5389602930180148,[1.99821491],5.0,0.6,0.0,-0.15196188501691202,2.598174340400589,0.49998281028983516
4.379216432571411,1.5422820712025382,[2.00182051],5.0,0.6,0.0,-0.10749522015316332,2.6027479169168206,0.4999913983603098
4.389733552932739,1.5463854442540081,[2.00547788],5.0,0.6,0.0,-0.07240375248407055,2.5946331524253283,0.4999960976418035
4.398965358734131,1.5502934185887418,[2.00920395],5.0,0.6,0.0,-0.04612963213899578,2.597037339835703,0.4999984159606349
4.407479524612427,1.5538105954900017,[2.01299756],5.0,0.6,0.0,-0.027133224912114395,2.5994009985859323,0.49999945196377404
4.4160449504852295,1.557132373674525,[2.01684221],5.0,0.6,0.0,-0.013763959983420098,2.604091021129464,0.49999985897587407
4.4270689487457275,1.5614311454427319,[2.02073016],5.0,0.6,0.0,-0.004581627691396234,2.6029746482165352,0.4999999843740562
4.43945050239563,1.5665115120778854,[2.02466811],5.0,0.6,0.0,0.0015628486883853539,2.5893681269844673,0.4999999981818047
4.449111223220825,1.5704194864126186,[2.02866743],5.0,0.6,0.0,0.005542930768005795,2.5945903077157397,0.49999997712897787
4.459483861923218,1.5745228594640888,[2.03272924],5.0,0.6,0.0,0.008003347118700335,2.5967972681841283,0.49999995231849426
4.468104362487793,1.5782354350820853,[2.03683924],5.0,0.6,0.0,0.009410911832531108,2.5925943351953062,0.49999993407197646
4.478080749511719,1.5825342068502923,[2.04097739],5.0,0.6,0.0,0.010099090081760128,2.5942296905218143,0.49999992407738914
4.4870336055755615,1.5860513837515526,[2.04513256],5.0,0.6,0.0,-0.2657346767377336,2.5985832542404523,0.49994743698016275
4.497149467468262,1.590350155519759,[2.04930111],5.0,0.6,0.0,-0.298972918374073,2.598361481448005,0.4999334663299627
4.5058722496032715,1.5936719337042826,[2.05347872],5.0,0.6,0.0,-0.24419245996997677,2.601901852494239,0.49995561339814365
4.514118194580078,1.596993711888806,[2.05765416],5.0,0.6,0.0,-0.16854795773011882,2.584489423539682,0.4999788532086385
4.523154258728027,1.6003154900733294,[2.06181141],5.0,0.6,0.0,-0.09853511330782723,2.5962981613657394,0.49999277254199076
4.532828092575073,1.6044188631247993,[2.06594325],5.0,0.6,0.0,-0.042455681783409915,2.599805701574888,0.4999986582310686
4.541414737701416,1.6079360400260594,[2.07004908],5.0,0.6,0.0,-0.0010084330203533678,2.603534762298443,0.49999999924299143
4.550071477890015,1.6114532169273195,[2.07412153],5.0,0.6,0.0,0.02786437682485526,2.5793806308717664,0.49999942203027
4.561407089233398,1.6161427861289996,[2.07815374],5.0,0.6,0.0,0.04686801094595225,2.607319820446395,0.4999983648446842
4.5700719356536865,1.619464564313523,[2.08214553],5.0,0.6,0.0,0.058520663869638716,2.5835140012878446,0.4999974506817407
4.582244873046875,1.6239587347984663,[2.08609613],5.0,0.6,0.0,-0.21114831085286345,2.6069628072506115,0.49996681303899465
4.591625690460205,1.6280621078499362,[2.09000942],5.0,0.6,0.0,-0.24159360507133557,2.601182222156212,0.49995655311196197
4.6031410694122314,1.6327516770516164,[2.0938879],5.0,0.6,0.0,-0.18632514500512415,2.5916489810424146,0.4999741572701578
4.611410856246948,1.6364642526696132,[2.09772736],5.0,0.6,0.0,-0.11172196173176331,2.5864197587592628,0.4999907086301911
4.621920347213745,1.6407630244378202,[2.10152344],5.0,0.6,0.0,-0.04372693886682454,2.577802015967215,0.499998576674573
4.632775783538818,1.6450617962060268,[2.10527171],5.0,0.6,0.0,0.009745925268639304,2.568731481066378,0.499999929294565
4.643188953399658,1.6493605679742336,[2.10896341],5.0,0.6,0.0,0.04826585900426693,2.530034818679712,0.4999982658526284
4.652498722076416,1.6530731435922303,[2.11258644],5.0,0.6,0.0,0.07407297143329691,2.532139991379115,0.4999959156360441
4.66216254234314,1.656785719210227,[2.11613498],5.0,0.6,0.0,0.08999432838298049,2.5314801752748104,0.49999397115195887
4.672634840011597,1.6610844909784337,[2.11960863],5.0,0.6,0.0,0.098627482307169,2.525688723934653,0.49999275898537904
4.682169437408447,1.664992465313167,[2.12300695],5.0,0.6,0.0,0.10209000582386293,2.520030151722387,0.49999224164294
4.692249298095703,1.6689004396479008,[2.12632954],5.0,0.6,0.0,0.10200462681135863,2.5129625309564236,0.4999922546142146
4.701460123062134,1.6728084139826338,[2.12957981],5.0,0.6,0.0,0.09956898967509867,2.53181563910903,0.49999262007971085
4.710586309432983,1.6765209896006308,[2.13276075],5.0,0.6,0.0,0.095644512602671,2.489337622762818,0.4999931903649912
4.719578742980957,1.6802335652186273,[2.13586753],5.0,0.6,0.0,0.09083854556339986,2.4833395439634685,0.4999938575115049
4.7306177616119385,1.6849231344203075,[2.13889945],5.0,0.6,0.0,0.36161016962416553,2.497410206202803,0.4999026702352729
4.7415666580200195,1.6890265074717774,[2.14186283],5.0,0.6,0.0,0.3892934877334512,2.4782486104776744,0.4998871992572195
4.750084638595581,1.6925436843730375,[2.14475614],5.0,0.6,0.0,0.32877101903277794,2.4369840864549417,0.49991954393520105
4.759116888046265,1.696451658707771,[2.1475719],5.0,0.6,0.0,0.24740030380399924,2.431646269205742,0.4999544396192144
4.769322156906128,1.7005550317592413,[2.15030782],5.0,0.6,0.0,0.17180808544103043,2.4240395535398136,0.49997802725432094
4.777845144271851,1.7042676073772378,[2.15296576],5.0,0.6,0.0,0.1103773675325142,2.416502458183357,0.4999909309290236
4.787179708480835,1.707589385561761,[2.15554759],5.0,0.6,0.0,0.06385396076257623,2.409265355799406,0.4999969648438492
4.795613050460815,1.7111065624630215,[2.15805508],5.0,0.6,0.0,0.030203907936407766,2.399989057218027,0.49999932090168
4.8044750690460205,1.714819138081018,[2.16048992],5.0,0.6,0.0,0.006730138221868182,2.389080627514541,0.4999999662825573
4.812046051025391,1.7179455175488048,[2.16285116],5.0,0.6,0.0,-0.009087613743680074,2.3550402002222715,0.4999999385238916
4.822505950927734,1.722048890600275,[2.16513574],5.0,0.6,0.0,-0.01932570375560152,2.349501765703111,0.49999972197926285
4.833357334136963,1.7265430610852182,[2.16734434],5.0,0.6,0.0,-0.025589997071162822,2.339572461386717,0.4999995125310746
4.843423843383789,1.7304510354199514,[2.16948073],5.0,0.6,0.0,-0.02907743215567885,2.3305524673049893,0.49999937061193356
4.852062463760376,1.7337728136044748,[2.17154612],5.0,0.6,0.0,-0.030659177037875476,2.298676906509024,0.499999300275053
4.860067367553711,1.7370945917889984,[2.17353961],5.0,0.6,0.0,-0.030958848022870047,2.2978053270649177,0.49999928652961667
4.869094610214233,1.7406117686902585,[2.17546113],5.0,0.6,0.0,-0.030417247549518845,2.2689507418892183,0.49999931127444014
4.880437135696411,1.7453013378919386,[2.17731366],5.0,0.6,0.0,-0.029342654785899452,2.2871741854827534,0.4999993590779614
4.889387607574463,1.7490139135099352,[2.17910498],5.0,0.6,0.0,-0.027948499272523922,2.275650421040544,0.4999994185352275
4.899104356765747,1.7529218878446686,[2.1808421],5.0,0.6,0.0,-0.026380952109987962,2.2624808798686002,0.4999994819312679
4.908062696456909,1.7564390647459287,[2.18252675],5.0,0.6,0.0,-0.024738835371997656,2.2286418552238176,0.4999995444196558
4.918073892593384,1.7605424377973988,[2.18415859],5.0,0.6,0.0,-0.02308784338638528,2.220686773733041,0.4999996031985612
4.928816556930542,1.764645810848869,[2.18574001],5.0,0.6,0.0,-0.02147062792774162,2.2106953930481223,0.49999965684050685
4.939122438430786,1.7689445826170758,[2.18727563],5.0,0.6,0.0,-0.019913911912754628,2.1981558880805236,0.49999970479771844
4.947893857955933,1.7726571582350723,[2.18876975],5.0,0.6,0.0,-0.018433485818519574,2.187412449508906,0.49999974705767725
4.95641565322876,1.7761743351363324,[2.19022634],5.0,0.6,0.0,-0.017037704206899026,2.1767470561966427,0.49999978391295663
4.964133024215698,1.7791053158873826,[2.19164694],5.0,0.6,0.0,-0.015729924174335524,2.1472053649120655,0.4999998158126287
4.973427057266235,1.783013290222116,[2.19303108],5.0,0.6,0.0,-0.014510199766370049,2.1399426501015597,0.49999984326954894
4.982717275619507,1.7867258658401126,[2.19438074],5.0,0.6,0.0,-0.013376454509892105,2.1315833667875212,0.49999986680478004
4.991368532180786,1.7904384414581092,[2.19569993],5.0,0.6,0.0,0.2637130709939911,2.1213878815509464,0.4999482336546954
5.001155853271484,1.7939556183593695,[2.19699222],5.0,0.6,0.0,0.29781043136111673,2.1108902990500296,0.4999339826915409
5.010082006454468,1.7974727952606295,[2.19826081],5.0,0.6,0.0,0.2436120909081791,2.0998728524363277,0.4999558241242464
5.021476984024048,1.801966965745573,[2.19951045],5.0,0.6,0.0,0.1683568743863077,2.1026193658292707,0.4999789011288328
5.029504776000977,1.8054841426468329,[2.2007452],5.0,0.6,0.0,0.09859955241675955,2.0653246970905212,0.49999276308589885
5.039277791976929,1.8093921169815663,[2.20196471],5.0,0.6,0.0,0.04268324903827594,2.0524215998399624,0.4999986438085127
5.047065496444702,1.81271389516609,[2.20316684],5.0,0.6,0.0,0.0013356522995242766,2.0223666695203337,0.49999999867207123
5.057055711746216,1.8168172682175598,[2.20434986],5.0,0.6,0.0,-0.027480805348465073,2.0133093692007673,0.499999437833097
5.06723690032959,1.820725242552293,[2.20551431],5.0,0.6,0.0,-0.0464573395918995,2.0032703429903913,0.4999983933746602
5.0757153034210205,1.8242424194535536,[2.20666262],5.0,0.6,0.0,-0.058102388917708525,1.9932845275840039,0.49999748699398666
5.086036920547485,1.8283457925050235,[2.2077968],5.0,0.6,0.0,-0.06447691206108602,1.979402473193505,0.49999690533425595
5.0976243019104,1.8332307604234404,[2.20892037],5.0,0.6,0.0,-0.06716944343178576,1.9790816488187708,0.49999664147453865
5.106051921844482,1.836943336041437,[2.21003625],5.0,0.6,0.0,-0.06735875917011216,1.9422570743724024,0.4999966225163073
5.115045070648193,1.840460512942697,[2.21114336],5.0,0.6,0.0,-0.06589776437443101,1.9310246528618928,0.4999967674408709
5.124060392379761,1.8439776898439573,[2.21224073],5.0,0.6,0.0,-0.06339218542546578,1.919209703099826,0.4999970085855759
5.134380578994751,1.8478856641786905,[2.21332925],5.0,0.6,0.0,-0.060265604154360816,1.9049552659471043,0.4999972963894845
5.1420838832855225,1.8508166449297407,[2.214408],5.0,0.6,0.0,-0.3328482830059575,1.8779090435019294,0.49991753617334556
5.151495933532715,1.8545292205477373,[2.21547455],5.0,0.6,0.0,-0.36238609556043616,1.869265415367532,0.49990225214166845
5.159582614898682,1.8580463974489976,[2.21652854],5.0,0.6,0.0,-0.02766428395639367,1.8598693415464636,0.4999994303080958
5.168737411499023,1.8615635743502574,[2.21756975],5.0,0.6,0.0,0.08504559415056165,1.831895475645891,0.4999946159735433
5.177633285522461,1.8652761499682542,[2.21859644],5.0,0.6,0.0,0.10383220570140657,1.8245365520844352,0.49999197460212136
5.186881065368652,1.868988725586251,[2.21960882],5.0,0.6,0.0,0.08756008275809321,1.8150841540806508,0.49999429290730957
5.199121952056885,1.8740690922214043,[2.22061022],5.0,0.6,0.0,0.06204002967378998,1.8124964912372166,0.4999971348734746
5.2100608348846436,1.8785632627063478,[2.22160485],5.0,0.6,0.0,0.037646472814060104,1.7911253463936163,0.4999989450543803
5.22007155418396,1.8822758383243443,[2.22259456],5.0,0.6,0.0,0.01779866586816955,1.7738277202613444,0.4999997642666969
5.230395317077637,1.8865746100925513,[2.22357932],5.0,0.6,0.0,0.0029720897238563696,1.7550136551753346,0.4999999935610096
5.239741325378418,1.8902871857105479,[2.2245591],5.0,0.6,0.0,-0.007456265711632282,1.739394958012319,0.49999995881143944
5.2491066455841064,1.8941951600452813,[2.22553391],5.0,0.6,0.0,0.26164082832112273,1.7230130086257958,0.4999490442622818
5.259061098098755,1.8982985330967515,[2.22650368],5.0,0.6,0.0,0.29043861959792544,1.7057002974412236,0.499937210780049
5.268720626831055,1.902206507431485,[2.22746833],5.0,0.6,0.0,0.23290319160947728,1.6899008752963294,0.49995962309161096
5.27772855758667,1.9059190830494817,[2.22842775],5.0,0.6,0.0,0.15570536003610314,1.6745453182627608,0.4999819538846631
5.286912441253662,1.9096316586674782,[2.22938169],5.0,0.6,0.0,0.08497535818691729,1.6589831509828554,0.49999462616982326
5.298569679260254,1.9141258291524215,[2.23033111],5.0,0.6,0.0,0.028746993562015814,1.653662491279704,0.4999993869025147
5.307202339172363,1.9176430060536815,[2.23127659],5.0,0.6,0.0,-0.28851177819941226,1.6201603843483912,0.49993804350678667
5.316010236740112,1.921746379105152,[2.2322144],5.0,0.6,0.0,-0.350042673407001,1.5896673050303214,0.49990880125873266
5.325066089630127,1.9254589547231487,[2.23313997],5.0,0.6,0.0,-0.3133378101938578,1.578189404561487,0.49992692565065405
5.335277795791626,1.9295623277746186,[2.23405186],5.0,0.6,0.0,-0.24821490305753305,1.563152145770782,0.4999541479621675
5.344203233718872,1.9330795046758789,[2.23494995],5.0,0.6,0.0,-0.1833361592970985,1.5494954410301955,0.49997499188518896
5.352873086929321,1.9362058841436656,[2.23583393],5.0,0.6,0.0,-0.40470132322532437,1.5370122802373658,0.49987811051572545
5.36304497718811,1.940504655911872,[2.2367033],5.0,0.6,0.0,-0.3952828687255756,1.5178679295794477,0.4998837259898472
5.372894287109375,1.9444126302466056,[2.23755742],5.0,0.6,0.0,-0.3085982010221945,1.499956110315365,0.499929147987539
5.382478713989258,1.9481252058646024,[2.23839552],5.0,0.6,0.0,-0.20980072111860984,1.482500194662538,0.4999672833180098
5.392041206359863,1.9518377814825991,[2.23922178],5.0,0.6,0.0,-0.12335682821491728,1.5188334126010572,0.49998873969884416
5.40100884437561,1.9557457558173323,[2.24006318],5.0,0.6,0.0,-0.055834848038172756,1.655834682922752,0.4999977745148409
5.4093334674835205,1.959067534001856,[2.24095285],5.0,0.6,0.0,-0.006564881816772079,1.5650815913552591,0.5000000933043554
5.419449806213379,1.9633663057700625,[2.24189592],5.0,0.6,0.0,0.027545420910803003,1.549970974528966,0.4999996178262214
5.428045034408569,1.9668834826713226,[2.24288421],5.0,0.6,0.0,0.049962809424213994,1.4965546459039656,0.4999983835391115
5.438820838928223,1.970986855722793,[2.24391063],5.0,0.6,0.0,0.06375622203007544,1.47279623347797,0.49999731305646383
5.449034929275513,1.9752856274909993,[2.24496582],5.0,0.6,0.0,0.07138689133416143,1.42214879163087,0.4999966884066895
5.458003282546997,1.9791936018257328,[2.24603848],5.0,0.6,0.0,0.07472668743129937,1.3868146390950662,0.4999964965212234
5.467001438140869,1.9829061774437293,[2.24711603],5.0,0.6,0.0,0.07515354084818164,1.35024855782188,0.4999966598825761
5.476576328277588,1.9868141517784632,[2.24818581],5.0,0.6,0.0,0.07365948208257239,1.3110907317224385,0.4999971258293169
5.485862731933594,1.9905267273964597,[2.24923418],5.0,0.6,0.0,-0.20509151270385403,1.272248007980425,0.49997022625598025
5.495598077774048,1.9942393030144565,[2.25024698],5.0,0.6,0.0,-0.24165709404859642,1.233077792743714,0.49995855923648763
5.50409722328186,1.9977564799157166,[2.25121116],5.0,0.6,0.0,-0.19039162668093254,1.2088063169960974,0.49997564874115674
5.512747764587402,2.0008828593835033,[2.25211528],5.0,0.6,0.0,-0.11830030090758854,1.1729802823253768,0.4999928757978898
5.521663427352905,2.0045954350015,[2.25294741],5.0,0.6,0.0,-0.05178079701367999,1.1352731124292503,0.5000023960125228
5.530020236968994,2.00811261190276,[2.25369716],5.0,0.6,0.0,-0.2751111156193312,1.120284186319243,0.4999494351779353
5.539033889770508,2.0116297888040204,[2.25435689],5.0,0.6,0.0,-0.2700006234686419,1.0827032583775493,0.4999533669166536
5.54703426361084,2.014756168271807,[2.25491808],5.0,0.6,0.0,-0.18906317628137143,1.0495876332860004,0.49998316850730523
5.557053327560425,2.0188595413232773,[2.25537154],5.0,0.6,0.0,-0.09681880642255689,1.013672606774819,0.5000068671497858
5.567075252532959,2.0227675156580105,[2.25570948],5.0,0.6,0.0,-0.017298212059625617,0.9807246019097435,0.5000191355066503
5.5757715702056885,2.0260892938425337,[2.25592564],5.0,0.6,0.0,0.043223992209382986,0.9525594681031225,0.5000244140391851
5.584026098251343,2.0298018694605307,[2.25601808],5.0,0.6,0.0,0.08561080815055747,0.9503578067404174,0.5000304448351226
5.594722747802734,2.0341006412287372,[2.25598601],5.0,0.6,0.0,0.1130772043235662,0.8868037066184002,0.500043407439954
5.604020595550537,2.038008615563471,[2.25582731],5.0,0.6,0.0,-0.14687467607225185,0.8883678209546056,0.5000596219184947
5.614058971405029,2.041916589898204,[2.25554433],5.0,0.6,0.0,-0.17218352845649004,0.8568274640315825,0.5000865829485961
5.624887704849243,2.046019962949674,[2.25513792],5.0,0.6,0.0,-0.11506244152647645,0.80329676950424,0.5001492309770453
5.6340978145599365,2.050123336001144,[2.25460539],5.0,0.6,0.0,-0.040871171355728604,0.7849613099041219,0.5002321972948558
5.6425206661224365,2.0534451141856676,[2.25395211],5.0,0.6,0.0,0.3012491702211723,0.7935053498108158,0.5002545615232932
5.651033878326416,2.056571493653454,[2.25319262],5.0,0.6,0.0,0.10894809849109957,0.7964692848282703,0.5004297419797389
5.660032749176025,2.0600886705547143,[2.25234142],5.0,0.6,0.0,0.05583151780172516,0.7700213464417087,0.5006137041710145
5.669983386993408,2.0639966448894476,[2.25142735],5.0,0.6,0.0,0.056954515344835824,0.9504815289796156,0.5008860163780825
5.680044651031494,2.0682954166576546,[2.25048994],5.0,0.6,0.0,0.35068419304014087,0.8256174060906029,0.501216838081377
5.69083309173584,2.072594188425861,[2.24954443],5.0,0.6,0.0,0.40257801298722307,0.8061460901263441,0.5017862677187668
5.70045280456543,2.076502162760595,[2.2485947],5.0,0.6,0.0,0.08587156511481887,0.778639280954716,0.502671217933406
5.7104551792144775,2.0808009345288014,[2.24764987],5.0,0.6,0.0,-0.014342043002324702,0.7533955286829026,0.5038190499540589
5.719734191894531,2.0843181114300617,[2.24671751],5.0,0.6,0.0,-0.025632266660039055,0.7328822781672402,0.5051189355116878
5.728314161300659,2.087639889614585,[2.24580482],5.0,0.6,0.0,-0.005836430826877745,0.717989512033112,0.5067161998416799
5.738030195236206,2.091547863949318,[2.24491832],5.0,0.6,0.0,0.020277944523930707,0.6950734699439074,0.5090541386866051
5.748751401901245,2.096042034434262,[2.24406316],5.0,0.6,0.0,0.043221822948477547,0.6702476383731742,0.5124983103137413
5.757258892059326,2.0995592113355217,[2.24324326],5.0,0.6,0.0,0.06026680258670247,0.6508207996069482,0.5160959292643602
5.765035390853882,2.1024901920865715,[2.242462],5.0,0.6,0.0,0.07145058905346859,0.6363511306209346,0.5198686386961695
5.773989200592041,2.105811970271095,[2.24172216],5.0,0.6,0.0,0.07776474482168437,0.6174747439937092,0.5248599509139753
5.784017086029053,2.109524545889092,[2.24102555],5.0,0.6,0.0,0.08037801297116917,0.5969641997232557,0.5314720454148911
5.794812440872192,2.1138233176572987,[2.24037297],5.0,0.6,0.0,0.08033853820335302,0.5719301084948638,0.5406368115267806
5.803102731704712,2.117145095841822,[2.23976455],5.0,0.6,0.0,0.07848831796360414,0.5544334170453435,0.5494299525198532
5.81167197227478,2.1208576714598184,[2.23920015],5.0,0.6,0.0,0.0754647197118321,0.5346761996462381,0.560745738885897
5.818996429443359,2.1237886522108687,[2.23867945],5.0,0.6,0.0,0.07173220077152985,0.5198963919514263,0.5713589247933777
5.827026844024658,2.1271104303953923,[2.23820187],5.0,0.6,0.0,0.06761980155896327,0.5027883456838786,0.5847286425239783
5.837252378463745,2.131213803446862,[2.23776621],5.0,0.6,0.0,0.06335499913038432,0.47837850315064057,0.6032386540489547
5.845019102096558,2.134340182914649,[2.23737066],5.0,0.6,0.0,0.059091175338078165,0.46248224430295953,0.6196627847818088
5.854987382888794,2.138443555966119,[2.23701221],5.0,0.6,0.0,0.05492869908314307,0.4279897805164846,0.6432489098869709
5.863556861877441,2.1415699354339055,[2.23668509],5.0,0.6,0.0,0.050930582834704724,0.3960746615860591,0.6637539284811108
5.871130704879761,2.1446963149016924,[2.23638354],5.0,0.6,0.0,0.047133865601515196,0.3884702750722749,0.6861284570403913
5.879493474960327,2.1482134918029527,[2.23610419],5.0,0.6,0.0,0.04355776873832692,0.36302164889949684,0.7133200961628243
5.889186859130859,2.152121466137686,[2.23584318],5.0,0.6,0.0,0.040209476813461556,0.33635655282856974,0.7461363055258825
5.898022174835205,2.155638643038946,[2.23559622],5.0,0.6,0.0,0.03708819982264573,0.3205719188547144,0.7784139034020975
5.907793998718262,2.159155819940206,[2.23535971],5.0,0.6,0.0,0.03418800587106709,0.29310760043404027,0.81304471407513
5.916638135910034,2.1626729968414664,[2.23512986],5.0,0.6,0.0,0.03149978143840664,0.27633684586984403,0.8499371969105609
5.926116943359375,2.166385572459463,[2.23490385],5.0,0.6,0.0,0.029012576455799122,0.25759788734328265,0.8910372221536671
5.935746192932129,2.17009814807746,[2.23467862],5.0,0.6,0.0,0.026714517765304497,0.22486257072282353,0.9342526517518194
5.943007230758667,2.1730291288285097,[2.23445006],5.0,0.6,0.0,0.02459342111887056,0.21119001886752628,0.9702422812084117
5.952988386154175,2.176937103163243,[2.2342141],5.0,0.6,0.0,0.0226371935600335,0.1760397401217032,1.0188546350785672
5.962010860443115,2.18064967878124,[2.23396512],5.0,0.6,0.0,0.020834090760877916,0.14276666661212317,1.0663698749111907
5.972462892532349,2.184557653115973,[2.23369616],5.0,0.6,0.0,0.01917287457704214,0.10911093303640075,1.1169797862780642
5.9823689460754395,2.1886610261674435,[2.23340026],5.0,0.6,0.0,0.017642902463370275,0.07472523269335951,1.170105481336722
5.991478443145752,2.1917874056352304,[2.23307054],5.0,0.6,0.0,-0.2598041888662981,0.045248109742472925,1.2111086138672569
6.000343561172485,2.1949137851030165,[2.23270019],5.0,0.6,0.0,-0.5702639949645947,0.015708969117591686,1.2513493469805537
6.0081799030303955,2.19764936713733,[2.23228497],5.0,0.6,0.0,-0.8255233641201812,0.012935987273703237,1.286179767200755
6.016746997833252,2.200384949171643,[2.2318231],5.0,0.6,0.0,-1.2806409917497914,-0.020105920141438034,1.3194201028981996
6.02548360824585,2.203120531205957,[2.23131005],5.0,0.6,0.0,-1.6982729374573937,-0.052260992528836855,1.350913854583934
6.034340858459473,2.2058561132402703,[2.23073866],5.0,0.6,0.0,-2.280143508330869,-0.08469973100302924,1.3796763885458343
6.044263601303101,2.208396296557847,[2.23010156],5.0,0.6,0.0,-3.05302014562057,-0.1150979683039011,1.4031885537406086
6.054725408554077,2.210741081158687,[2.22939149],5.0,0.6,0.0,-4.255994652821202,-0.14365683428500428,1.4194936295735228
6.065378904342651,2.212695068326054,[2.2285975],5.0,0.6,0.0,-5.0,-0.20046752739742993,1.4324123699174944
6.075490713119507,2.2144536567766835,[2.22770546],5.0,0.6,0.0,-5.0,-0.21693676373826498,1.4472196307656764
6.084027528762817,2.2154306503603673,[2.22671056],5.0,0.6,0.0,-5.0,-0.1980233133899392,1.4566058617903281
6.092987298965454,2.2162122452273136,[2.22561637],5.0,0.6,0.0,-5.0,-0.22171659103393163,1.4642000569431612
6.102029800415039,2.216798441377524,[2.22442157],5.0,0.6,0.0,-5.0,-0.24271690886627972,1.4701769163218041
6.111969709396362,2.216993840094261,[2.22312053],5.0,0.6,0.0,-5.0,-0.25969116343231324,1.4742529099852262
6.122039556503296,2.216798441377524,[2.22170818],5.0,0.6,0.0,-5.0,-0.2731816863576261,1.4769225580815508
6.132532358169556,2.2162122452273136,[2.22017486],5.0,0.6,0.0,-5.0,-0.30937802158504035,1.4785965325213457
6.142909049987793,2.2154306503603673,[2.21850708],5.0,0.6,0.0,-5.0,-0.3107995206528695,1.4798409674401911
6.152027368545532,2.2144536567766835,[2.21670448],5.0,0.6,0.0,-5.0,-0.28541443565634245,1.4807193355236656
6.162014722824097,2.213281264476264,[2.21477818],5.0,0.6,0.0,-5.0,-0.29678617986827915,1.4812840111088907
6.171726226806641,2.2117180747423704,[2.2127329],5.0,0.6,0.0,-5.0,-0.3045562011216945,1.481526109122632
6.181003570556641,2.20995948629174,[2.21056792],5.0,0.6,0.0,-5.0,-0.3096289873181658,1.4816580273367785
6.1912500858306885,2.208005499124374,[2.20828357],5.0,0.6,0.0,-5.0,-0.31259023784761814,1.4817165976741111
6.200997829437256,2.2056607145235336,[2.20588124],5.0,0.6,0.0,-5.0,-0.31331166044373654,1.4817223360568104
6.210017442703247,2.2033159299226934,[2.20336919],5.0,0.6,0.0,-4.9807026215920125,-0.2865291035022613,1.4818696490080852
6.219011068344116,2.200384949171643,[2.20076152],5.0,0.6,0.0,-4.0583835268367885,-0.2941075533304242,1.4878601095958028
6.227524995803833,2.1980401645708034,[2.19806541],5.0,0.6,0.0,-3.247869824777929,-0.30088547446394415,1.4922087846920613
6.236001253128052,2.1953045825364903,[2.19528809],5.0,0.6,0.0,-2.5883806246611307,-0.2732534267090536,1.495037465124791
6.243988513946533,2.1925690005021767,[2.19244265],5.0,0.6,0.0,-1.7957253350172597,-0.2859872987494696,1.4976021439822471
6.254151821136475,2.189051823600917,[2.18953484],5.0,0.6,0.0,-1.3652847252364697,-0.2908666501780343,1.4985676990292411
6.263723373413086,2.185143849266183,[2.18656427],5.0,0.6,0.0,-1.392915901205804,-0.28889510112130057,1.4981543519326685
6.27569842338562,2.18006348263103,[2.18352607],5.0,0.6,0.0,-1.546081277938016,-0.29562169078886275,1.495828739015895
6.28566312789917,2.17596010957956,[2.18041173],5.0,0.6,0.0,-1.139937551044151,-0.2865019509786349,1.495078085190696
6.295750379562378,2.1718567365280896,[2.177221],5.0,0.6,0.0,-0.6171843502799839,-0.2776571910603626,1.4939779948060528
6.303954839706421,2.1687303570603027,[2.1739665],5.0,0.6,0.0,0.6793152841646347,-0.25105488231844886,1.494188166020332
6.313008546829224,2.165017781442306,[2.17066576],5.0,0.6,0.0,1.9704745562999095,-0.253052652439914,1.4907583857853532
6.321991920471191,2.1613052058243096,[2.1673287],5.0,0.6,0.0,3.2669866350689376,-0.2534829492453766,1.4848874159515097
6.331886291503906,2.157397231489576,[2.1639588],5.0,0.6,0.0,4.2796811829870895,-0.2516675573328657,1.4779761592778535
6.340690851211548,2.1536846558715794,[2.16055975],5.0,0.6,0.0,5.0,-0.2503532125782378,1.472323223733499
6.3481831550598145,2.150362877687056,[2.15714097],5.0,0.6,0.0,5.0,-0.22111658414829083,1.4725856278572773
6.356435537338257,2.1472364982192693,[2.15371654],5.0,0.6,0.0,5.0,-0.23173431470664294,1.4733690325549387
6.3652660846710205,2.1431331251677994,[2.15029317],5.0,0.6,0.0,5.0,-0.23421232208453943,1.471531189723933
6.374106407165527,2.1394205495498024,[2.14687129],5.0,0.6,0.0,5.0,-0.2360945927828152,1.4706907679102983
6.382906198501587,2.136098771365279,[2.14345154],5.0,0.6,0.0,5.0,-0.23845492444555982,1.4709776771526508
6.393009901046753,2.1316046008803355,[2.14002939],5.0,0.6,0.0,5.0,-0.2550832624452122,1.4676369256076622
6.401874303817749,2.1280874239790757,[2.13659596],5.0,0.6,0.0,5.0,-0.25005719353290484,1.4673573537968876
6.411270618438721,2.1239840509276053,[2.13314943],5.0,0.6,0.0,5.0,-0.24260957924521995,1.4650715688733293
6.418992280960083,2.1208576714598184,[2.12969932],5.0,0.6,0.0,5.0,-0.21341584808648154,1.4662187204005128
6.427015781402588,2.1173404945585586,[2.12626442],5.0,0.6,0.0,5.0,-0.18378266941794535,1.4659309542644583
6.436041593551636,2.1132371215070886,[2.12286053],5.0,0.6,0.0,5.0,-0.19596568845757492,1.4633805416383892
6.445854902267456,2.1093291471723554,[2.11949013],5.0,0.6,0.0,5.0,-0.20349117391536226,1.461294694689573
6.456063747406006,2.1052257741208855,[2.11614977],5.0,0.6,0.0,5.0,-0.20572345324112656,1.4581478957088032
6.465387344360352,2.101708597219625,[2.11283628],5.0,0.6,0.0,4.931055865062431,-0.20943211329122519,1.4577624544169452
6.473984718322754,2.098386819035102,[2.10955161],5.0,0.6,0.0,4.712698062627043,-0.18019664275872585,1.4591152547092077
6.483086109161377,2.094088047266895,[2.10630248],5.0,0.6,0.0,4.431164664968573,-0.18494823515454106,1.456197424702725
6.491384744644165,2.0907662690823714,[2.10308962],5.0,0.6,0.0,4.129606095223775,-0.1926794527922873,1.4575486730098393
6.499085187911987,2.0874444908978482,[2.09991322],5.0,0.6,0.0,3.82934027517601,-0.16268591395887086,1.4585871153352614
6.507503986358643,2.084122712713325,[2.09677794],5.0,0.6,0.0,3.5405891430376295,-0.17659143624793489,1.4592315103293663
6.5194971561431885,2.079237744794908,[2.09368225],5.0,0.6,0.0,3.5439597454745666,-0.1774339733844811,1.449867383060254
6.52819299697876,2.0755251691769114,[2.09061945],5.0,0.6,0.0,3.046148895678729,-0.1799547264450361,1.4485953473039452
6.537968873977661,2.071421796125441,[2.08758371],5.0,0.6,0.0,2.7210262526557,-0.1781584875275723,1.4436183791905557
6.5478127002716064,2.067318423073971,[2.08457002],5.0,0.6,0.0,2.7566685590346056,-0.17495223464905885,1.43658841310472
6.557986259460449,2.062824252589028,[2.08157405],5.0,0.6,0.0,2.592586758521968,-0.168729467556768,1.4271253555483412
6.5671679973602295,2.0589162782542942,[2.0785921],5.0,0.6,0.0,2.3642582965853163,-0.1648228311688391,1.4213503212979754
6.578083276748657,2.0546175064860877,[2.07562091],5.0,0.6,0.0,1.8542153582004626,-0.15858395811648796,1.412998754965028
6.587088584899902,2.050904930868091,[2.07265766],5.0,0.6,0.0,1.8801946517512718,-0.15504271183840923,1.407079168173358
6.600057363510132,2.0456291655162007,[2.06969486],5.0,0.6,0.0,1.7752363427110205,-0.16809935963990438,1.388284796570391
6.613091945648193,2.040158001447574,[2.06671599],5.0,0.6,0.0,1.6267553682416143,-0.16762057077534398,1.3664665408481216
6.620981931686401,2.0372270206965237,[2.06371192],5.0,0.6,0.0,1.4729504162343074,-0.13910839806421074,1.3674937729650578
6.630915403366089,2.032928248928317,[2.06069],5.0,0.6,0.0,1.32897867934633,-0.13227088778417864,1.3558364251830772
6.641077280044556,2.028434078443374,[2.05765629],5.0,0.6,0.0,1.1995801235834036,-0.12540556877735748,1.3419306749457305
6.651458024978638,2.0239399079584306,[2.0546105],5.0,0.6,0.0,1.085064896254659,-0.11919407778012052,1.3276254500085503
6.660201549530029,2.0202273323404336,[2.05155206],5.0,0.6,0.0,0.9840792151191491,-0.11736016679503927,1.3210882881683508
6.670971632003784,2.015928560572227,[2.04848001],5.0,0.6,0.0,0.8948283766921146,-0.11304304468956552,1.3084341758964022
6.681969165802002,2.0116297888040204,[2.04539313],5.0,0.6,0.0,0.8155758763980743,-0.10910375057459883,1.2956352608784227
6.690795660018921,2.0077218144692868,[2.04228983],5.0,0.6,0.0,0.7448139055220184,-0.1073651431818833,1.2870103695422281
6.6998114585876465,2.0038138401345535,[2.03916827],5.0,0.6,0.0,0.6812928927186228,-0.10587790806544278,1.278465449167186
6.70905876159668,2.0002966632332932,[2.03603214],5.0,0.6,0.0,0.6239969461346959,-0.07587899116904513,1.2743130578942259
6.719255447387695,1.9961932901818233,[2.03288398],5.0,0.6,0.0,0.5721037373708417,-0.11024095471007557,1.263715218632454
6.727268218994141,1.9928715119973,[2.02971971],5.0,0.6,0.0,0.5249446750016523,-0.08349571655038801,1.261985985412633
6.737192869186401,1.9887681389458298,[2.02654131],5.0,0.6,0.0,0.48197089352167144,-0.08927640926558256,1.251568823320124
6.748572587966919,1.983883171027413,[2.02334989],5.0,0.6,0.0,0.44272614024698537,-0.08726042702927506,1.2321838696161076
6.759288311004639,1.979584399259206,[2.02013384],5.0,0.6,0.0,0.4068259234935938,-0.10269038009640463,1.219626718381123
6.7682249546051025,1.9754810262077362,[2.01688286],5.0,0.6,0.0,0.37394177760128056,-0.08001204753886486,1.209660222942012
6.77709698677063,1.9717684505897393,[2.0136004],5.0,0.6,0.0,0.34378949291459204,-0.08328632468651634,1.2046125516133466
6.787971496582031,1.9674696788215327,[2.01028913],5.0,0.6,0.0,0.3161203277115937,-0.08242847127607292,1.1929424340147379
6.798526048660278,1.9631709070533259,[2.00693805],5.0,0.6,0.0,0.29071442443834083,-0.08775764308965384,1.1816732675856572
6.806472063064575,1.9598491288688025,[2.00353765],5.0,0.6,0.0,0.26737584003515047,-0.07807481772150511,1.182621114864111
6.815502166748047,1.9559411545340692,[2.00009305],5.0,0.6,0.0,0.24592875326434152,-0.07947167203224141,1.1770944486648773
6.82401967048645,1.952423977632809,[1.99660844],5.0,0.6,0.0,0.22621453017840087,-0.08192086237956688,1.1767119318650863
6.833066701889038,1.9487114020148124,[1.99308046],5.0,0.6,0.0,-0.06794894245541083,-0.08260696995557794,1.1745376326479506
6.841970682144165,1.9449988263968156,[1.98951316],5.0,0.6,0.0,-0.11774026665515802,-0.0647620481680133,1.1727910686570087
6.851550817489624,1.9410908520620822,[1.98591683],5.0,0.6,0.0,-0.07797052426134252,-0.07287943621868263,1.1690607884859494
6.862967014312744,1.9362058841436656,[1.98229293],5.0,0.6,0.0,-0.015982723188058753,-0.07198691234139988,1.1538982605619494
6.8746795654296875,1.9315163149419852,[1.97862802],5.0,0.6,0.0,-0.2344649564243598,-0.06522905977812045,1.1414870556162104
6.886162757873535,1.927022144457042,[1.97490302],5.0,0.6,0.0,-0.22289497723764437,-0.06288375180064525,1.1321843598792727
6.894301414489746,1.9233095688390454,[1.97110897],5.0,0.6,0.0,-0.1367717419693355,-0.06381627667299299,1.1331939759720258
6.902951002120972,1.9195969932210482,[1.96724558],5.0,0.6,0.0,-0.04136451204018668,-0.06456977107724174,1.1350322554854442
6.913992404937744,1.9149074240193684,[1.96331273],5.0,0.6,0.0,0.039401164627803395,-0.06043282136097904,1.1258675471221125
6.922924518585205,1.9111948484013719,[1.95931039],5.0,0.6,0.0,0.09963396860317492,-0.06106518609331203,1.1293719620002367
6.930987119674683,1.908068468933585,[1.95524658],5.0,0.6,0.0,0.140615347193065,-0.06808593320810427,1.1407103134702377
6.9410316944122314,1.903965095882115,[1.95113617],5.0,0.6,0.0,0.16592392071032386,-0.07052198992984991,1.1407896911795188
6.951976299285889,1.8994709253971716,[1.94698384],5.0,0.6,0.0,0.1793861349774492,-0.06816280829139407,1.1366514076479735
6.961980581283569,1.895562951062438,[1.94278552],5.0,0.6,0.0,0.4603617269142647,-0.06754098763576859,1.1400297369806904
6.971407175064087,1.891459578010968,[1.93853773],5.0,0.6,0.0,0.49252856359105107,-0.06578205939247161,1.1417529691385089
6.979712963104248,1.887747002392971,[1.93423769],5.0,0.6,0.0,0.4325569393423495,-0.06596509481713513,1.1488904881973536
6.988038539886475,1.8846206229251845,[1.92989151],5.0,0.6,0.0,0.3491206560108493,-0.07936680683727419,1.1636321094775113
6.999265670776367,1.8799310537235043,[1.92551289],5.0,0.6,0.0,0.26979219841556606,-0.0783320983617417,1.1599291501216193
7.0119829177856445,1.8752414845218242,[1.92109683],5.0,0.6,0.0,0.47965972094803155,-0.03987053129387747,1.1565191723099963
7.023958683013916,1.870161117886671,[1.91662265],5.0,0.6,0.0,0.4609792434705041,-0.04195737211245759,1.1492234076950059
7.034454822540283,1.8656669474017276,[1.9120733],5.0,0.6,0.0,0.3667238497888332,0.024501203479469914,1.1499473468697492
7.041991949081421,1.8627359666506773,[1.90744358],5.0,0.6,0.0,0.2616411716914695,-0.06745521871708053,1.1704338991513308
7.052130699157715,1.8586325935992072,[1.90274692],5.0,0.6,0.0,0.16989812279044084,-0.06923968057052171,1.1775672631132066
7.060755729675293,1.8553108154146838,[1.89799547],5.0,0.6,0.0,0.3738811959870586,-0.07479016882956879,1.1945120721829108
7.068990230560303,1.8519890372301604,[1.89320018],5.0,0.6,0.0,0.3538063625611969,-0.10070913192439802,1.2119108323930976
7.07698655128479,1.8488626577623737,[1.88837929],5.0,0.6,0.0,0.26115342520306933,-0.10709068582005568,1.2317018027005293
7.088444948196411,1.8447592847109036,[1.8835315],5.0,0.6,0.0,0.4356389150531026,-0.06484832362431178,1.2401904033894622
7.0971596240997314,1.8412421078096437,[1.87864753],5.0,0.6,0.0,0.6577630684119737,-0.11604696808013541,1.2555879262201315
7.105966329574585,1.83792032962512,[1.87374531],5.0,0.6,0.0,0.8451301254615745,-0.12641521087816185,1.2730798247210613
7.118191957473755,1.8328399629899665,[1.86884004],5.0,0.6,0.0,0.6995257354759611,-0.10387035579515028,1.2713037033526309
7.126519441604614,1.8293227860887067,[1.8639188],5.0,0.6,0.0,0.4659750648165634,-0.10945591843105472,1.2869565918991852
7.13595175743103,1.82561021047071,[1.85897057],5.0,0.6,0.0,-0.03314974125110612,-0.11412251211354746,1.3004479711917236
7.1476593017578125,1.8205298438355566,[1.85398576],5.0,0.6,0.0,-0.24651954919357527,-0.040031605509552357,1.2993820305962727
7.156940221786499,1.8168172682175598,[1.84894747],5.0,0.6,0.0,-0.6004161093189807,-0.06802931384387073,1.313182365962948
7.165315866470337,1.8133000913163,[1.84386791],5.0,0.6,0.0,-0.9251169439117002,-0.07594902049275909,1.328908022241977
7.174930810928345,1.8091967182648299,[1.83878391],5.0,0.6,0.0,-1.167622192983368,-0.09365898901201845,1.3383757344375362
7.18632173538208,1.8045071490631495,[1.83369957],5.0,0.6,0.0,-1.0475346401991263,-0.0759452908540634,1.342477883284201
7.196074962615967,1.8004037760116798,[1.82858179],5.0,0.6,0.0,-1.0969767842424751,-0.10114324307430225,1.3522718916188818
7.2045207023620605,1.7970819978271562,[1.82341108],5.0,0.6,0.0,-0.9024114022065887,-0.10439086405543292,1.3699319782023092
7.214226245880127,1.7931740234924227,[1.81819813],5.0,0.6,0.0,-0.6554140825335013,-0.11344639691909902,1.3819644213057034
7.224755525588989,1.7890706504409528,[1.8129517],5.0,0.6,0.0,-0.4305982006887496,-0.11902528549281104,1.3920655827324508
7.233951568603516,1.7851626761062194,[1.80766962],5.0,0.6,0.0,-0.2504725809669368,-0.12403293039052184,1.4036038875858403
7.244195938110352,1.7808639043380126,[1.80234966],5.0,0.6,0.0,-0.11595542242427456,-0.12560879688627138,1.4117964063182844
7.25348424911499,1.7771513287200158,[1.79698956],5.0,0.6,0.0,-0.020290983435313437,-0.12911513087384258,1.4243066556919213
7.261940956115723,1.7736341518187557,[1.79159687],5.0,0.6,0.0,0.0449301282507436,-0.20134834116429579,1.437504750352313
7.271303653717041,1.7697261774840223,[1.78618754],5.0,0.6,0.0,0.08741731578580932,-0.19222056020258488,1.447241434713569
7.279743909835815,1.7660136018660257,[1.78076468],5.0,0.6,0.0,0.11346260632321672,-0.18255775453431955,1.4574049055120017
7.287935495376587,1.7626918236815023,[1.77533063],5.0,0.6,0.0,0.12790344954943217,-0.23491793001472056,1.468544890832561
7.299938678741455,1.7578068557630855,[1.76988664],5.0,0.6,0.0,0.13432905913375648,-0.15119349368213536,1.471224086495319
7.3093366622924805,1.7538988814283523,[1.76441278],5.0,0.6,0.0,0.13534094895483179,-0.15960269587267692,1.4781205633349086
7.316934108734131,1.7507725019605653,[1.7589022],5.0,0.6,0.0,0.1327932705587519,-0.23342364021162246,1.4868554544391732
7.324921369552612,1.7472553250593055,[1.7533695],5.0,0.6,0.0,0.12798995084517834,-0.2188543323197678,1.4925390648757122
7.332949876785278,1.7439335468747819,[1.74782688],5.0,0.6,0.0,0.12183706596290855,-0.2752249868446886,1.4969619373503191
7.342050552368164,1.740220971256785,[1.74228437],5.0,0.6,0.0,0.1149566244323016,-0.25934111532728976,1.4991389992914206
7.35227632522583,1.7361175982053152,[1.73673933],5.0,0.6,0.0,0.10776971405856114,-0.2373797139909696,1.4999140468383425
7.359915494918823,1.7329912187375285,[1.73118915],5.0,0.6,0.0,0.10055639711968295,-0.30006102990004513,1.499343192445206
7.367918252944946,1.7298648392697418,[1.72564196],5.0,0.6,0.0,0.09349843071980102,-0.28363620052136956,1.4964332993002505
7.376907110214233,1.7261522636517448,[1.72009337],5.0,0.6,0.0,0.08670951964077261,-0.26049160405391636,1.492679254854634
7.385994911193848,1.7224396880337483,[1.71452836],5.0,0.6,0.0,0.08025662324442173,-0.24742275257659263,1.4875554011515577
7.397451877593994,1.717750118832068,[1.70892276],5.0,0.6,0.0,0.07417489441226674,-0.2953677384621501,1.4845322651584194
7.406258821487427,1.7138421444973346,[1.70325616],5.0,0.6,0.0,0.06847811128088171,-0.26230348038925977,1.4778331789336376
7.414576768875122,1.7105203663128112,[1.69753374],5.0,0.6,0.0,0.06316593212483043,-0.2811962988529307,1.4668290701983273
7.423023462295532,1.7070031894115512,[1.69176018],5.0,0.6,0.0,0.05822891830291847,-0.2980723628448072,1.454590802201366
7.43091082572937,1.7040722086605014,[1.68593985],5.0,0.6,0.0,0.053651993325157604,-0.34526040474071484,1.4363566811599897
7.44196891784668,1.6993826394588212,[1.68007666],5.0,0.6,0.0,0.04941680878105273,-0.3373389065922633,1.428164627045525
7.450944662094116,1.6954746651240877,[1.67416295],5.0,0.6,0.0,0.04550334801458575,-0.32521909614873556,1.4131642469849075
7.4593565464019775,1.6919574882228277,[1.66820395],5.0,0.6,0.0,0.041890999674021795,-0.3317033542470763,1.393286789884369
7.467901945114136,1.6882449126048311,[1.66221569],5.0,0.6,0.0,0.038559263723200884,-0.3971248159628202,1.373274514987842
7.477380275726318,1.6843369382700975,[1.65621195],5.0,0.6,0.0,0.03548820362783146,-0.3658898120494494,1.3536755082256426
7.485999822616577,1.6808197613688374,[1.65019293],5.0,0.6,0.0,0.0326587241325336,-0.36528836029206463,1.3289449129797148
7.494518280029297,1.677302584467577,[1.64414735],5.0,0.6,0.0,0.030052730004978323,-0.38651306931167173,1.3026353511142812
7.505988121032715,1.6726130152658973,[1.63805418],5.0,0.6,0.0,0.02765320428998526,-0.4380775587386744,1.2875225462114728
7.515422105789185,1.6687050409311641,[1.631896],5.0,0.6,0.0,0.02544423283820943,-0.4047934441210077,1.2626304841237481
7.5249128341674805,1.6647970665964305,[1.62568175],5.0,0.6,0.0,0.02341099364104836,-0.42277475190251473,1.2363849888363094
7.535924196243286,1.6601074973947505,[1.61940778],5.0,0.6,0.0,0.021539723753511396,-0.47426757880599885,1.2179941203015863
7.54496955871582,1.6563949217767535,[1.61307166],5.0,0.6,0.0,0.019817672577383164,-0.4877690423237965,1.1870271865965925
7.5544939041137695,1.6524869474420203,[1.60669522],5.0,0.6,0.0,0.018233047478767743,-0.5308401966801126,1.1574563852022604
7.562007188796997,1.6495559666909703,[1.60028566],5.0,0.6,0.0,0.016774955776149774,-0.4931535547796606,1.1153813863512312
7.5718910694122314,1.6454525936395,[1.59384933],5.0,0.6,0.0,0.29147170545983975,-0.5043931042587197,1.0870254657087757
7.5810387134552,1.6417400180215034,[1.58739172],5.0,0.6,0.0,0.32336191148583193,-0.5182941321583118,1.0538352532666275
7.590891361236572,1.6374412462532968,[1.58090584],5.0,0.6,0.0,-0.008909431307259602,-0.5295372240505604,1.0276877012918832
7.603003025054932,1.6321654809014066,[1.57437406],5.0,0.6,0.0,0.15687439484349475,-0.5754081501707271,1.0127303053169556
7.6127917766571045,1.6278667091331998,[1.56778185],5.0,0.6,0.0,0.17361220600873234,-0.5369688001741159,0.985738820534604
7.624927282333374,1.6227863424980462,[1.56112918],5.0,0.6,0.0,0.1370936697551903,-0.5877490568939355,0.9675022978522001
7.634168863296509,1.6192691655967864,[1.55440463],5.0,0.6,0.0,0.08871998748387197,-0.5955667770728679,0.9310654974979434
7.643956422805786,1.6155565899787896,[1.54759918],5.0,0.6,0.0,0.04465530797661036,-0.6051917925639179,0.8970687935685582
7.65264105796814,1.6118440143607926,[1.54071783],5.0,0.6,0.0,0.009814552769988705,-0.6171748155911108,0.8635687320089283
7.659895181655884,1.6087176348930061,[1.53377755],5.0,0.6,0.0,-0.01555412995570875,-0.5940594305147674,0.8252361249032731
7.6697468757629395,1.6044188631247993,[1.52680519],5.0,0.6,0.0,-0.032866106065277435,-0.6174210674447962,0.7997581851181151
7.678279399871826,1.601097084940276,[1.51982371],5.0,0.6,0.0,-0.043900153910821374,-0.6405549766141521,0.7668475715952066
7.6890177726745605,1.596993711888806,[1.51284032],5.0,0.6,0.0,-0.05028943791784265,-0.6753362480160868,0.742593914692534
7.698106288909912,1.5932811362708093,[1.50583664],5.0,0.6,0.0,-0.053365670752444985,-0.6924415911880818,0.7166834352892814
7.706460952758789,1.5897639593695492,[1.49880932],5.0,0.6,0.0,-0.05415022882193456,-0.67026823549175,0.6911759914097968
7.715210914611816,1.5864421811850258,[1.49177993],5.0,0.6,0.0,-0.05339799883799162,-0.7009054695202899,0.6665930686341803
7.724896430969238,1.5819480107000823,[1.4847544],5.0,0.6,0.0,-0.05165307081172664,-0.722679998554921,0.651172667733698
7.732898950576782,1.5786262325155591,[1.47772528],5.0,0.6,0.0,-0.04930019349110694,-0.7478217402389212,0.6305219183565134
7.740884780883789,1.5751090556142986,[1.4706984],5.0,0.6,0.0,-0.04660700086673943,-0.729347022807193,0.6130040667656634
7.75094747543335,1.5710056825628287,[1.46369087],5.0,0.6,0.0,-0.0437566493027608,-0.7589531666692417,0.5999277266043921
7.759625673294067,1.5674885056615686,[1.45670459],5.0,0.6,0.0,-0.04087217956573022,-0.7873063148141324,0.5858950151005243
7.767967462539673,1.5639713287603085,[1.4497408],5.0,0.6,0.0,-0.038034306872267255,-0.7951449369808883,0.5735538499016484
7.777002334594727,1.560258753142312,[1.44281245],5.0,0.6,0.0,-0.035294222556097155,-0.8053146731127512,0.5633714751140602
7.787936449050903,1.5559599813741052,[1.4359177],5.0,0.6,0.0,-0.032682711446814526,-0.8306208013397125,0.5560201501806165
7.797056198120117,1.5524428044728453,[1.4290299],5.0,0.6,0.0,-0.030216595483591558,-0.8969104244417632,0.5475409725100792
7.806207180023193,1.5487302288548483,[1.42211404],5.0,0.6,0.0,-0.0279032596445691,-0.907328121064522,0.5405043395695959
7.813995361328125,1.545408450670325,[1.41517783],5.0,0.6,0.0,-0.025743813699271936,-0.9253237257375664,0.5336407392214487
7.8229310512542725,1.5416958750523284,[1.40826497],5.0,0.6,0.0,-0.023735289264929536,-0.9371594630189345,0.5284167692857027
7.83258056640625,1.5377879007175947,[1.40138744],5.0,0.6,0.0,-0.02187215772842717,-0.9490242804540352,0.5242089707654308
7.842588424682617,1.533489128949388,[1.39453018],5.0,0.6,0.0,-0.2961857314828435,-0.9598880137675244,0.5209623326951843
7.850945472717285,1.5301673507648645,[1.38769247],5.0,0.6,0.0,-0.3277160368712891,-0.9352562155760343,0.5171722110116315
7.860141038894653,1.526454775146868,[1.38087329],5.0,0.6,0.0,-0.2711467793795588,-1.0027608641975099,0.5143702587820782
7.868972539901733,1.5225468008121346,[1.37405908],5.0,0.6,0.0,-0.19370386021128239,-0.9727643265573406,0.5121306450334809
7.878427028656006,1.5184434277606642,[1.36725056],5.0,0.6,0.0,-0.3979676899813019,-0.9953024751091318,0.5102208659820955
7.887877702713013,1.5143400547091945,[1.36044814],5.0,0.6,0.0,-0.37331699329462675,-1.015639839386437,0.5086651661914555
7.897253036499023,1.5106274790911975,[1.35362704],5.0,0.6,0.0,-0.2751596475399255,-1.0773619090269404,0.5071713899413223
7.906283855438232,1.5071103021899377,[1.34676632],5.0,0.6,0.0,-0.16868114070811735,-1.044551154272095,0.5058245805518334
7.915152549743652,1.5035931252886776,[1.33987358],5.0,0.6,0.0,-0.07772996261909672,-1.0673648975204015,0.5046925645918219
7.92523455619812,1.499294353520471,[1.33295534],5.0,0.6,0.0,-0.008126548670775169,-1.0854670614639959,0.5039511615861182
7.932943344116211,1.4963633727694208,[1.32601729],5.0,0.6,0.0,0.041475755158209386,-1.0672933902953736,0.5030155227846028
7.9430670738220215,1.4920646010012137,[1.31907689],5.0,0.6,0.0,0.3507539144180083,-1.0953726679993578,0.5024247660988927
7.952425718307495,1.4879612279497438,[1.31213607],5.0,0.6,0.0,0.40463744221538855,-1.1206902912736159,0.5019425708788869
7.961431980133057,1.484248652331747,[1.30518347],5.0,0.6,0.0,0.36119037909383633,-1.1449802301951875,0.5015432101281178
7.969928979873657,1.4809268741472237,[1.29822203],5.0,0.6,0.0,0.2903235231403601,-1.1269811585198979,0.5011978040714639
7.979456424713135,1.4770188998124902,[1.29125389],5.0,0.6,0.0,-0.05543004543017266,-1.2013546416069725,0.5010037585026632
7.98998498916626,1.4725247293275467,[1.28425489],5.0,0.6,0.0,0.1287379224674853,-1.214380292765686,0.5008218050797407
7.999885320663452,1.4682259575593402,[1.27720447],5.0,0.6,0.0,0.17096549645907605,-1.2284440546930646,0.5006552408084489
8.009045362472534,1.4645133819413436,[1.27009819],5.0,0.6,0.0,-0.1186249210816645,-1.2460597242373732,0.5005106849763721
8.019474506378174,1.4604100088898735,[1.26293233],5.0,0.6,0.0,-0.18257669383142527,-1.2625962435992897,0.5003851319719367
8.027982473373413,1.45708823070535,[1.2557171],5.0,0.6,0.0,-0.15953106581005544,-1.2394975977295715,0.5002815541376223
8.036920309066772,1.4531802563706164,[1.24847445],5.0,0.6,0.0,-0.11093657127479123,-1.2701106890003993,0.5002200439695177
8.046231269836426,1.4494676807526197,[1.24120955],5.0,0.6,0.0,-0.06201705682839571,-1.2986805799593013,0.5001680612357603
8.055444717407227,1.4459505038513598,[1.23391308],5.0,0.6,0.0,-0.021543389033480388,-1.3257925234949648,0.5001240588150788
8.063874959945679,1.4424333269500995,[1.22659039],5.0,0.6,0.0,0.00877923992706282,-1.3064148479884181,0.5000897687496161
8.072849750518799,1.4389161500488394,[1.21925923],5.0,0.6,0.0,0.3060049436799734,-1.3433317504297233,0.49999473626195723
8.081868886947632,1.4350081757141062,[1.21192056],5.0,0.6,0.0,0.3529901348001071,-1.3740821609429563,0.49995481011650156
8.094480991363525,1.4297324103622162,[1.2045472],5.0,0.6,0.0,0.030196453243283655,-1.440502371411313,0.5000387239495019
8.103970527648926,1.425629037310746,[1.19710185],5.0,0.6,0.0,-0.0746592235798133,-1.451899300746584,0.5000249460037202
8.113176822662354,1.4219164616927495,[1.18956684],5.0,0.6,0.0,0.18751798607935896,-1.4675737379620537,0.49999428060755896
8.121191024780273,1.4185946835082262,[1.18194131],5.0,0.6,0.0,0.23977753983887712,-1.4873882967208096,0.4999708648395815
8.130184650421143,1.4146867091734927,[1.17423921],5.0,0.6,0.0,0.21163696270638505,-1.4587321965590387,0.4999761708423291
8.138902425765991,1.410974133555496,[1.16648686],5.0,0.6,0.0,-0.11562375014938056,-1.4924221429353195,0.4999964765897342
8.147895336151123,1.4074569566542359,[1.15870681],5.0,0.6,0.0,0.07644259309379063,-1.4767941012952197,0.4999998716064152
8.157224416732788,1.403744381036239,[1.15090356],5.0,0.6,0.0,0.1222839723887684,-1.5665081941984058,0.49999166937434864
8.166432857513428,1.3998364067015054,[1.14306634],5.0,0.6,0.0,0.11086364355764691,-1.540589961867254,0.4999927272111837
8.175451517105103,1.3963192298002454,[1.13520041],5.0,0.6,0.0,0.08184454346526601,-1.5778329808360871,0.4999962095404997
8.185837745666504,1.3918250593153023,[1.12730991],5.0,0.6,0.0,0.0516901335226688,-1.6067170962668014,0.4999988478861901
8.198875665664673,1.3867446926801488,[1.1193688],5.0,0.6,0.0,0.02627921009509014,-1.678610015772884,0.5000001031806913
8.208569765090942,1.3824459209119417,[1.11134027],5.0,0.6,0.0,0.006908414255509527,-1.6898794556381616,0.5000003775400466
8.216887712478638,1.3791241427274186,[1.10322336],5.0,0.6,0.0,-0.006919910262291462,-1.6593475562581088,0.5000002088059982
8.2248694896698,1.3756069658261585,[1.09507746],5.0,0.6,0.0,-0.016253138432969716,-1.6819545510684015,0.49999994939940634
8.234228610992432,1.3720897889248986,[1.08696783],5.0,0.6,0.0,0.2538677651123599,-1.7163373286458175,0.49995211341454787
8.242899656295776,1.3685726120236386,[1.07891931],5.0,0.6,0.0,0.28356515453671327,-1.6978434582541906,0.4999401985304329
8.251611471176147,1.3648600364056418,[1.07093704],5.0,0.6,0.0,0.22680088656902114,-1.739584248540893,0.49996174186057285
8.261892318725586,1.3605612646374348,[1.06300927],5.0,0.6,0.0,0.1502595651961138,-1.7726939311384902,0.49998321366016424
8.271303415298462,1.357044087736175,[1.05511015],5.0,0.6,0.0,0.08008976890518267,-1.8052507342814157,0.49999523722819
8.28057312965393,1.3533315121181781,[1.04721719],5.0,0.6,0.0,0.02434278775910939,-1.8338151850105222,0.4999995661475413
8.289817333221436,1.3492281390667082,[1.0393111],5.0,0.6,0.0,-0.016460233945658445,-1.8582928105246885,0.4999998028555161
8.298754692077637,1.3459063608821848,[1.03137561],5.0,0.6,0.0,-0.04450120377906213,-1.8851937927935436,0.4999985283764652
8.30890679359436,1.3412167916805044,[1.02339725],5.0,0.6,0.0,-0.06257099419626437,-1.9045674242221622,0.49999708726855274
8.318367004394531,1.337504216062508,[1.01534992],5.0,0.6,0.0,-0.0732459527318095,-1.978132700214439,0.49999600729686655
8.327849626541138,1.3335962417277742,[1.00721241],5.0,0.6,0.0,-0.07863258184686583,-1.936298752631153,0.49999539788972946
8.337896823883057,1.3294928686763046,[0.99899817],5.0,0.6,0.0,-0.08034931837453164,-1.9617254998317235,0.4999951944892069
8.346268653869629,1.325975691775044,[0.99071956],5.0,0.6,0.0,-0.0795939777282901,-1.9893975458185973,0.49999528426774575
8.355331420898438,1.3220677174403108,[0.98237273],5.0,0.6,0.0,-0.07723101522210019,-2.0143221735739734,0.4999955600410458
8.362882852554321,1.3189413379725243,[0.97397047],5.0,0.6,0.0,-0.07387258917055109,-1.9926000213588493,0.4999959377501785
8.37236475944519,1.3144471674875808,[0.96553948],5.0,0.6,0.0,-0.06994525373714076,-2.028023158665013,0.49999635818053595
8.380759954452515,1.3111253893030574,[0.95708766],5.0,0.6,0.0,-0.06574158017029663,-2.0650871592423856,0.49999678275744314
8.390828371047974,1.307217414968324,[0.94860689],5.0,0.6,0.0,-0.061458724740073745,-2.096011227259323,0.4999971882836951
8.399863243103027,1.303700238067064,[0.9400907],5.0,0.6,0.0,-0.05722661058471101,-2.126427838477447,0.499997562183117
8.40885853767395,1.3001830611658038,[0.93153423],5.0,0.6,0.0,-0.053128217482385616,-2.1554122708142383,0.4999978988554623
8.420114517211914,1.2954934919641234,[0.92291889],5.0,0.6,0.0,-0.049214038638771426,-2.227403107868819,0.4999981970499585
8.42893362045288,1.2915855176293904,[0.91421473],5.0,0.6,0.0,-0.045512302303163624,-2.2386928444868124,0.49999845807412524
8.438832521438599,1.2874821445779203,[0.9054127],5.0,0.6,0.0,-0.04203615473116149,-2.252765165748677,0.4999986846176839
8.44887089729309,1.2835741702431867,[0.89652155],5.0,0.6,0.0,-0.0387886809229935,-2.2710385433992335,0.49999888000476994
8.459384202957153,1.2792753984749798,[0.88754983],5.0,0.6,0.0,-0.03576639591920946,-2.2898326472597,0.4999990477376807
8.46791672706604,1.2755628228569833,[0.87852091],5.0,0.6,0.0,-0.032961659110235395,-2.2633676384357977,0.4999991912311044
8.477826118469238,1.2714594498055134,[0.86947038],5.0,0.6,0.0,-0.030364332904252504,-2.3001704146923885,0.4999993136686136
8.487883806228638,1.2671606780373064,[0.86041365],5.0,0.6,0.0,-0.027962912896818418,-2.332882295343994,0.4999994179353303
8.49689769744873,1.2632527037025731,[0.85134876],5.0,0.6,0.0,0.25029307014684865,-2.3649608358399243,0.49995336799665224
8.506242275238037,1.2595401280845764,[0.8422742],5.0,0.6,0.0,0.009425349510660985,-2.396061901486191,0.4999999338695362
8.516842126846313,1.2552413563163693,[0.83318883],5.0,0.6,0.0,-0.0769100813050057,-2.4230411747325937,0.49999559677068145
8.525453805923462,1.2519195781318462,[0.82409185],5.0,0.6,0.0,-0.09615946196782127,-2.453954950895802,0.4999931168420525
8.534854650497437,1.2480116037971127,[0.81498278],5.0,0.6,0.0,0.18704252106684977,-2.481408685172951,0.4999739578965229
8.544875383377075,1.2439082307456428,[0.80586145],5.0,0.6,0.0,0.23554259650402873,-2.5074830319672,0.4999587021297303
8.55431318283081,1.2401956551276458,[0.7967279],5.0,0.6,0.0,0.19642713220367958,-2.5351867653110216,0.49997127915892076
8.561937808990479,1.2368738769431225,[0.78758239],5.0,0.6,0.0,-0.14186408294025457,-2.564661512301537,0.4999850188525344
8.570847272872925,1.233161301325126,[0.77844031],5.0,0.6,0.0,0.04156452937422371,-2.542629059734547,0.4999987139677733
8.578845739364624,1.2296441244238658,[0.76932963],5.0,0.6,0.0,0.08159835575937607,-2.5850718614561687,0.49999504358870445
8.589674711227417,1.2249545552221854,[0.7602587],5.0,0.6,0.0,0.06687345379298404,-2.617642204385739,0.4999966710081119
8.600888013839722,1.2204603847372424,[0.75121908],5.0,0.6,0.0,0.036511491225573345,-2.6478407290272794,0.4999990076488291
8.611222267150879,1.2163570116857723,[0.74220318],5.0,0.6,0.0,0.0064450301376492575,-2.6776403482696702,0.49999996907878386
8.623319625854492,1.211276645050619,[0.73318931],5.0,0.6,0.0,-0.017890992228833107,-2.750445890696456,0.4999997617266746
8.63344931602478,1.2071732719991486,[0.72414409],5.0,0.6,0.0,-0.03554327717057024,-2.7634020054008417,0.49999905958141466
8.64287281036377,1.2030698989476787,[0.71505462],5.0,0.6,0.0,-0.047262945196622545,-2.7797016826667544,0.4999983371712847
8.651887655258179,1.199357323329682,[0.70594049],5.0,0.6,0.0,-0.054278418308531536,-2.7511243790007454,0.4999978068916407
8.660189151763916,1.196426342578632,[0.69683356],5.0,0.6,0.0,-0.05779485974701133,-2.792109786805409,0.49999751352541927
8.669573545455933,1.1923229695271618,[0.68774565],5.0,0.6,0.0,-0.05882295079644162,-2.8247814150739,0.4999974242769166
8.680896759033203,1.1878287990422185,[0.67867139],5.0,0.6,0.0,-0.05814858031164562,-2.8532328667715827,0.49999748299653074
8.690502882003784,1.183920824707485,[0.66960594],5.0,0.6,0.0,-0.05635636464120018,-2.882887738516804,0.4999976357598436
8.699089765548706,1.1802082490894885,[0.66054502],5.0,0.6,0.0,-0.05386844742267255,-2.912440234816351,0.49999783989603286
8.70688772201538,1.1766910721882282,[0.65149992],5.0,0.6,0.0,-0.050982797208117284,-2.8924099607465696,0.4999980651239257
8.71688985824585,1.172587699136758,[0.64249493],5.0,0.6,0.0,-0.0479055569431159,-2.9328992618008978,0.4999982916465834
8.72488260269165,1.1694613196689714,[0.63353489],5.0,0.6,0.0,-0.044776433648867034,-2.9737774808597126,0.4999985075320038
8.734724760055542,1.1655533453342382,[0.62460818],5.0,0.6,0.0,-0.04168782024139801,-3.007223868067623,0.49999870632707655
8.744262933731079,1.1614499722827678,[0.6157044],5.0,0.6,0.0,-0.03869883372191782,-3.03713575794363,0.4999988851872047
8.753221035003662,1.1581281940982444,[0.60681437],5.0,0.6,0.0,-0.03584544849441494,-3.069171080996001,0.49999904352351543
8.760887384414673,1.1544156184802479,[0.59794522],5.0,0.6,0.0,-0.03314772469427794,-3.0479760441504924,0.4999991820744654
8.770671844482422,1.150703042862251,[0.58911774],5.0,0.6,0.0,-0.03061491869935417,-3.090198576166331,0.4999993022937823
8.781866073608398,1.1460134736605712,[0.58033383],5.0,0.6,0.0,-0.028249070352415608,-3.1228675294833343,0.49999940596130166
8.792296171188354,1.1417147018923641,[0.57156411],5.0,0.6,0.0,-0.026047504709804305,-3.2040139992511953,0.4999994949449633
8.800874710083008,1.1383929237078407,[0.56278345],5.0,0.6,0.0,-0.3000429251922979,-3.1726908311274107,0.4999329892693866
8.810079574584961,1.1344849493731075,[0.55400101],5.0,0.6,0.0,-0.33127577053436086,-3.2051626922957817,0.4999183134521935
8.8189218044281,1.1309677724718472,[0.54522468],5.0,0.6,0.0,-0.2744295168197942,-3.237326794370018,0.4999439411776521
8.827892780303955,1.1274505955705874,[0.53646122],5.0,0.6,0.0,-0.19672942721291303,-3.2175648166661452,0.49997119069255375
8.842009782791138,1.121588634068487,[0.52771674],5.0,0.6,0.0,-0.40075502602606883,-3.2979768599711106,0.4998804601490157
8.851290225982666,1.1174852610170172,[0.51896688],5.0,0.6,0.0,-0.375884012745091,-3.3178056593802876,0.49989483560976145
8.85918402671814,1.113968084115757,[0.51019217],5.0,0.6,0.0,-0.27752317474022004,-3.3399812976290715,0.49994267021855465
8.867655038833618,1.1106463059312337,[0.50140728],5.0,0.6,0.0,-0.17085689429830836,-3.3155657946971107,0.4999782698735478
8.87788438796997,1.1065429328797636,[0.49264057],5.0,0.6,0.0,-0.07973257194405636,-3.3490520151647627,0.4999952676575209
8.885876178741455,1.1032211546952402,[0.48390271],5.0,0.6,0.0,-0.009969590478006864,-3.3820376573917716,0.4999999260120011
8.897847414016724,1.09853158549356,[0.47517606],5.0,0.6,0.0,0.03977970782926166,-3.449536476592964,0.49999882204325896
8.907147884368896,1.0946236111588266,[0.46643452],5.0,0.6,0.0,0.07315487698703046,-3.4591316368024185,0.49999601625516005
8.9148690700531,1.09149723169104,[0.45768586],5.0,0.6,0.0,0.09403843589485641,-3.431597867510488,0.49999341714012646
8.92409873008728,1.08739385863957,[0.44896604],5.0,0.6,0.0,0.10580335887892585,-3.4565848287450978,0.49999166698877623
8.933401346206665,1.0834858843048365,[0.44029453],5.0,0.6,0.0,0.11112710542211185,-3.4794666259634854,0.49999080730846424
8.941879749298096,1.0803595048370498,[0.43167712],5.0,0.6,0.0,0.11203175604296953,-3.50346031371543,0.49999065703107276
8.95301342010498,1.0758653343521063,[0.42312128],5.0,0.6,0.0,0.10999719308640543,-3.5186741146632565,0.4999909932943509
8.962921380996704,1.0717619613006362,[0.41464694],5.0,0.6,0.0,0.10608280400263519,-3.4976165347922374,0.49999162291314403
8.97287631034851,1.0676585882491663,[0.40628394],5.0,0.6,0.0,0.10103385118376604,-3.5233116535248894,0.4999924013368858
8.985621213912964,1.0623828228972763,[0.3980377],5.0,0.6,0.0,0.09536646366357154,-3.5719660297086566,0.49999322989986383
8.9968900680542,1.0578886524123328,[0.38989382],5.0,0.6,0.0,0.08943234623451442,-3.5763343391902382,0.4999940462123805
9.007869005203247,1.0531990832106526,[0.38185337],5.0,0.6,0.0,0.08346663593138692,-3.580160447026499,0.49999481402710094
9.016296625137329,1.0496819063093925,[0.37392996],5.0,0.6,0.0,0.0776226380493262,-3.590121247883206,0.4999955148029871
9.027255058288574,1.0455785332579226,[0.36612898],5.0,0.6,0.0,0.07199671950772546,-3.6242026368024676,0.4999961413941665
9.035881757736206,1.042256755073399,[0.35845686],5.0,0.6,0.0,0.06664598640270415,-3.68908055545438,0.49999669361638766
9.045058965682983,1.0385441794554024,[0.35092973],5.0,0.6,0.0,0.33763911013988956,-3.6698414709998772,0.4999151454147893
9.055809497833252,1.034050008970459,[0.34356275],5.0,0.6,0.0,0.3660362332699551,-3.7530928166434907,0.49990027328442843
9.066025257110596,1.0297512372022521,[0.33637648],5.0,0.6,0.0,0.30652955601058285,-3.7717569706078398,0.4999300607434197
9.074568748474121,1.026234060300992,[0.32938927],5.0,0.6,0.0,0.2263457690329886,-3.79084071739304,0.49996186402323656
9.082801342010498,1.0229122821164687,[0.32261588],5.0,0.6,0.0,0.1520227230233807,-3.7948769153569466,0.49998279652350097
9.090937376022339,1.0193951052152086,[0.31607463],5.0,0.6,0.0,0.0918839416710526,-3.809098490094334,0.4999937153198348
9.100876331329346,1.0156825295972118,[0.30977439],5.0,0.6,0.0,0.04663625469532494,-3.818788761669846,0.4999983809759387
9.111284255981445,1.0113837578290052,[0.30366204],5.0,0.6,0.0,0.014220925577847019,-3.8282959327291053,0.49999984945638615
9.120082378387451,1.0074757834942718,[0.29763145],5.0,0.6,0.0,-0.008074122883884515,-3.804145719185351,0.49999995147144455
9.128132581710815,1.004349404026485,[0.29164175],5.0,0.6,0.0,-0.02277749229211675,-3.7820574514298486,0.4999996137946156
9.136617183685303,1.0006368284084883,[0.28572565],5.0,0.6,0.0,-0.031969370950042736,-3.8776797812070996,0.4999992391929528
9.146058797836304,0.9969242527904917,[0.27992017],5.0,0.6,0.0,-0.03725646019000694,-3.891095749885216,0.499998966740504
9.15639853477478,0.9930162784557581,[0.27424563],5.0,0.6,0.0,-0.03983458275946755,-3.8991971746043315,0.4999988187911083
9.1649169921875,0.9896945002712347,[0.26871343],5.0,0.6,0.0,0.23546579989890495,-3.8914659185355673,0.49995872905384836
9.17659878730774,0.984809532352818,[0.26333077],5.0,0.6,0.0,0.2690720392581157,-3.91114782848713,0.4999461084828598
9.186906576156616,0.9809015580180845,[0.25809386],5.0,0.6,0.0,0.2152387145257021,-3.9107933410298044,0.4999655148215657
9.194841384887695,0.9773843811168246,[0.25300229],5.0,0.6,0.0,0.14089531728053234,-3.9065871141221122,0.4999852227583154
9.202810525894165,0.9744534003657744,[0.24806814],5.0,0.6,0.0,0.07238217835559438,-3.8768366633953533,0.4999960999670174
9.21090579032898,0.971131622181251,[0.24330419],5.0,0.6,0.0,0.017895292865138725,-3.891773939534787,0.4999997616121086
9.220853090286255,0.9670282491297811,[0.23871874],5.0,0.6,0.0,-0.021937374290538703,-3.8471309770337156,0.4999996417585698
9.229798555374146,0.9633156735117843,[0.23432289],5.0,0.6,0.0,-0.049219927891419095,-3.829145569026919,0.4999981966175523
9.239822149276733,0.9594076991770509,[0.23012782],5.0,0.6,0.0,-0.06668702060879036,-3.8054841739892162,0.4999966895436399
9.248575210571289,0.9556951235590542,[0.22614271],5.0,0.6,0.0,-0.07687454305800581,-3.765569547813676,0.4999956008389698
9.25960111618042,0.9512009530741107,[0.22237733],5.0,0.6,0.0,-0.0818599200988547,-3.740317136321837,0.4999950117622834
9.26975154876709,0.9469021813059041,[0.21883862],5.0,0.6,0.0,0.19279769403944763,-3.7114965358558467,0.4999723306900156
9.280048131942749,0.9427988082544339,[0.21553134],5.0,0.6,0.0,-0.04907488703472018,-3.680043395441126,0.49999820723025695
9.292613983154297,0.9377184416192806,[0.21246039],5.0,0.6,0.0,-0.13468714224010514,-3.637255513318625,0.4999864962904802
9.302802324295044,0.9336150685678104,[0.20963017],5.0,0.6,0.0,-0.1521009983198543,-3.607295885989642,0.4999827788033776
9.311808109283447,0.930293290383287,[0.20704368],5.0,0.6,0.0,-0.1424211252461447,-3.5743995450796513,0.4999849009736398
9.320806741714478,0.9265807147652902,[0.20470335],5.0,0.6,0.0,-0.12414719376605597,-3.539032259025557,0.4999885270392718
9.331839561462402,0.9220865442803469,[0.20261133],5.0,0.6,0.0,-0.10508825613518388,-3.4997602895792403,0.49999177924934624
9.341835021972656,0.9181785699456134,[0.20076902],5.0,0.6,0.0,0.18790167407873332,-3.4633426694233123,0.49997371811202523
9.351633310317993,0.9140751968941434,[0.19917702],5.0,0.6,0.0,0.23513611739610224,-3.4262504076979257,0.4999588445374892
9.362845659255981,0.9095810264092,[0.19783517],5.0,0.6,0.0,0.19144111629378258,-3.3872797925827336,0.4999727186873369
9.372908592224121,0.9056730520744666,[0.19674256],5.0,0.6,0.0,0.12447159090220515,-3.3513002686326883,0.4999884670038406
9.381842851638794,0.9021558751732064,[0.19589761],5.0,0.6,0.0,0.061238219423006716,-3.3174757250054463,0.4999972084168253
9.391879081726074,0.8980525021217365,[0.19530175],5.0,0.6,0.0,0.010487371451569302,-3.249666589880529,0.4999999181271439
9.401926279067993,0.8937537303535298,[0.19495915],5.0,0.6,0.0,-0.02672729129312479,-3.2199940626355854,0.49999946823917657
9.414031505584717,0.8884779650016396,[0.19487348],5.0,0.6,0.0,-0.05219178897788823,-3.1537016577771846,0.4999979722698365
9.424875974655151,0.8843745919501695,[0.19504784],5.0,0.6,0.0,-0.0684081774854842,-3.129376473388547,0.4999965164567822
