t_s,q_rad,q_des_rad,K,B,Kff,jerk,tau_Nm,reward
0.0052950382232666016,-0.036344161313020665,[0.00722626],9.825212432529046,0.9790254919034855,1.9737818648793566,0.0,9.998999999999999,1.1840827791621966
0.01558685302734375,-0.036344161313020665,[0.03492236],9.650424865058092,0.9580509838069711,1.9475637297587132,0.0,10.098989999999999,0.8621186525350686
0.02661299705505371,-0.036344161313020665,[0.08679643],9.475637297587138,0.9370764757104565,1.92134559463807,0.0,10.099989899999999,0.5481843542700441
0.0364682674407959,-0.036344161313020665,[0.15844497],9.300849730116184,0.9161019676139419,1.8951274595174268,0.0,10.099999898999998,0.50050620885067
0.04595470428466797,-0.036344161313020665,[0.24588801],9.12606216264523,0.8951274595174274,1.8689093243967834,0.0,10.099999998989999,0.500000120574233
0.05993318557739258,-0.036344161313020665,[0.34555528],8.951274595174274,0.8741529514209129,1.84269118927614,0.0,10.0999999999899,0.5000000000002147
0.07086491584777832,-0.036148762596283995,[0.45426935],8.77648702770332,0.8531784433243983,1.8164730541554968,0.0,-9.8980000000001,0.5
0.08090758323669434,-0.036344161313020665,[0.56922605],8.601699460232366,0.8322039352278838,1.7902549190348536,0.0,-10.09798,0.5
0.09129858016967773,-0.036344161313020665,[0.68797317],8.426911892761412,0.8112294271313693,1.7640367839142101,0.0,-10.099979799999998,0.5
0.09879207611083984,-0.036344161313020665,[0.80838787],8.252124325290458,0.7902549190348547,1.7378186487935667,0.0,-10.099999797999999,0.5
0.11100649833679199,-0.036344161313020665,[0.92865332],8.077336757819502,0.7692804109383402,1.7116005136729235,0.0,-5.100499997979999,0.5
0.11896157264709473,-0.036344161313020665,[1.04723502],7.902549190348549,0.7483059028418256,1.6853823785522803,0.0,-5.0505049999797995,0.5
0.13091278076171875,-0.036344161313020665,[1.16285707],7.727761622877595,0.727331394745311,1.659164243431637,0.0,-5.050005049999798,0.5
0.1418604850769043,-0.036344161313020665,[1.27447884],7.55297405540664,0.7063568866487966,1.6329461083109935,0.0,-5.050000050499998,0.5
0.15385222434997559,-0.036344161313020665,[1.38127225],7.378186487935686,0.685382378552282,1.6067279731903503,0.0,-5.050000000504999,0.5
0.1639103889465332,-0.036344161313020665,[1.48259959],7.203398920464732,0.6644078704557674,1.5805098380697071,0.0,-5.050000000005049,0.5
0.1775798797607422,-0.036148762596283995,[1.57799238],7.028611352993777,0.643433362359253,1.5542917029490637,0.0,-5.05000000000005,0.5
0.18576455116271973,-0.036344161313020665,[1.66713127],6.853823785522822,0.6224588542627384,1.5280735678284203,0.0,-5.05,0.5
0.1974349021911621,-0.036344161313020665,[1.74982715],6.679036218051868,0.6014843461662238,1.501855432707777,0.0,-5.05,0.5
0.20650029182434082,-0.036344161313020665,[1.82600438],6.504248650580913,0.6,1.475637297587134,0.0,-5.05,0.5
0.21790766716003418,-0.036344161313020665,[1.89568416],6.329461083109958,0.6,1.4494191624664907,0.0,-5.05,0.5
0.22577595710754395,-0.036344161313020665,[1.95896784],6.154673515639004,0.6,1.4232010273458477,0.0,-5.05,0.5
0.23486828804016113,-0.036344161313020665,[2.0160234],5.97988594816805,0.6,1.3969828922252046,0.0,-5.05,0.5
0.24578094482421875,-0.036344161313020665,[2.06707366],5.805098380697095,0.6,1.3707647571045614,0.0,-5.05,0.5
0.2551138401031494,-0.036344161313020665,[2.11238489],5.63031081322614,0.6,1.3445466219839184,0.0,-5.05,0.5
0.26279520988464355,-0.036344161313020665,[2.15225661],5.455523245755186,0.6,1.3183284868632752,0.0,-5.05,0.5
0.27332353591918945,-0.036344161313020665,[2.18701251],5.280735678284231,0.6,1.292110351742632,0.0,-5.05,0.5
0.2818419933319092,-0.036344161313020665,[2.21699248],5.105948110813277,0.6,1.2658922166219888,0.0,-3.1541818955630583,0.5
0.2897779941558838,-0.036344161313020665,[2.24254574],5.0,0.6,1.2396740815013456,0.0,0.8167742224829249,0.5
0.29779767990112305,-0.036344161313020665,[2.26402486],5.0,0.6,1.2134559463807026,0.0,3.6209350082422347,0.5
0.3097727298736572,-0.035757965162810657,[2.28178032],5.0,0.6,1.1872378112600595,0.0,5.560144032841721,0.5
0.3208122253417969,-0.03302238312849727,[2.29615652],5.0,0.6,1.1610196761394163,1.6562301580720857,7.0008480729464635,0.49796220008262754
0.3308372497558594,-0.02950520622723721,[2.30748887],5.0,0.6,1.1348015410187733,4.339323014148864,8.054500496214397,0.48617779237492964
0.3398864269256592,-0.02618342804271381,[2.31610062],5.0,0.6,1.10858340589813,5.0,8.809215860761292,0.4817320621239355
0.3498985767364502,-0.02188465627450707,[2.32230029],5.0,0.6,1.082365270777487,5.0,9.593566054259,0.4817320621239355
0.35850048065185547,-0.018172080656510332,[2.32638008],5.0,0.6,1.0561471356568437,5.0,10.094935660542589,0.4817320621239355
0.37087202072143555,-0.012896315304620235,[2.32861459],5.0,0.6,1.0299290005362005,5.0,10.099949356605425,0.4817320621239355
0.3827359676361084,-0.00820674610294015,[2.32925988],5.0,0.6,1.0037108654155575,5.0,10.099999493566052,0.4817320621239355
0.39086341857910156,-0.005275765351890096,[2.32855307],5.0,0.6,0.9774927302949143,5.0,10.09999999493566,0.4817320621239355
0.4010171890258789,-0.0009769935836833512,[2.32671214],5.0,0.6,0.9512745951742712,5.0,10.099999999949356,0.4817320621239355
0.4089512825012207,0.0021493858841033727,[2.32393613],5.0,0.6,0.9250564600536281,5.0,10.099999999999492,0.4817320621239355
0.4188876152038574,0.005861961502100107,[2.32040548],5.0,0.6,0.898838324932985,3.817518425230213,10.099999999999994,0.4892683613242532
0.42914652824401855,0.010160733270306851,[2.31628256],5.0,0.6,0.8726201898123418,1.2779605504503622,5.100499999999999,0.49878573441149476
0.4387948513031006,0.013873308888303588,[2.31171236],5.0,0.6,0.8464020546916986,-1.2313954233299569,5.050504999999999,0.4988725127914796
0.4498169422149658,0.018758276806720344,[2.3068233],5.0,0.6,0.8201839195710555,-3.2394720048902124,5.050005049999999,0.49224883642883743
0.46184444427490234,0.0236432447251371,[2.30172812],5.0,0.6,0.7939657844504124,-4.941766767279122,5.0500000505,0.48214745961801986
0.4697380065917969,0.026769624192923825,[2.29652484],5.0,0.6,0.7677476493297692,-5.0,5.050000000504999,0.4817320621239355
0.4788031578063965,0.030482199810920558,[2.29129771],5.0,0.6,0.741529514209126,-5.0,5.050000000005049,0.4817320621239355
0.48830437660217285,0.034390174145653964,[2.28611831],5.0,0.6,0.715311379088483,-5.0,5.05000000000005,0.4817320621239355
0.49875926971435547,0.03868894591386071,[2.2810466],5.0,0.6,0.6890932439678399,-5.0,5.05,0.4817320621239355
0.5087895393371582,0.04298771768206745,[2.27613187],5.0,0.6,0.6628751088471967,-5.0,5.05,0.4817320621239355
0.5168566703796387,0.046309495866590854,[2.2714138],5.0,0.6,0.6366569737265535,-5.0,5.05,0.4817320621239355
0.5268445014953613,0.050217470201324256,[2.26692343],5.0,0.6,0.6104388386059104,-5.0,5.05,0.4817320621239355
0.5358157157897949,0.05393004581932099,[2.26268407],5.0,0.6,0.5842207034852673,-5.0,5.05,0.4817320621239355
0.5458731651306152,0.05764262143731772,[2.25871225],5.0,0.6,0.5580025683646241,-5.0,5.05,0.4817320621239355
0.5562551021575928,0.06194139320552447,[2.25501855],5.0,0.6,0.531784433243981,-5.0,5.05,0.4817320621239355
0.5654029846191406,0.06545857010678453,[2.25160833],5.0,0.6,0.5055662981233379,-5.0,5.05,0.4817320621239355
0.5727696418762207,0.06878034829130793,[2.24848235],5.0,0.6,0.4793481630026947,-4.8432945017555715,5.05,0.4828396181515654
0.5815420150756836,0.07210212647583132,[2.24563763],5.0,0.6,0.4531300278820516,-4.545699610633057,5.05,0.48485235838188223
0.5907742977142334,0.07581470209382805,[2.24306801],5.0,0.6,0.42691189276140845,-4.204732968989427,5.05,0.4870108607153906
0.5988459587097168,0.07913648027835145,[2.2407647],5.0,0.6,0.4006937576407653,-3.8641274899624074,5.05,0.48900763028640626
0.6088142395019531,0.08323985332982153,[2.23871691],5.0,0.6,0.3744756225201221,-3.5419838164335067,5.05,0.4907476881478962
0.6181161403656006,0.0867570302310816,[2.23691221],5.0,0.6,0.3482574873994789,-3.2444883364483523,5.05,0.4922250002059521
0.629770040512085,0.09203279558297167,[2.23533689],5.0,0.6,0.3220393522788358,-2.9725198559439914,5.05,0.49346564396420634
0.6377837657928467,0.09535457376749508,[2.23397651],5.0,0.6,0.2958212171581926,-2.72477484229701,5.05,0.49450370668297755
0.6490750312805176,0.09984874425243849,[2.23281626],5.0,0.6,0.2696030820375494,-2.4992040394634945,5.05,0.49537201014438054
0.656792163848877,0.10317052243696188,[2.23184107],5.0,0.6,0.24338494691690624,-2.29364133657663,5.05,0.49609916084341643
0.6668319702148438,0.1070784967716953,[2.23103578],5.0,0.6,0.21716681179626307,-2.1060544593822437,5.05,0.4967091148838816
0.675093412399292,0.11040027495621868,[2.23038541],5.0,0.6,0.19094867667561988,-1.6585862915365754,5.05,0.4979564099315421
0.6849052906036377,0.1143082492909521,[2.22987522],5.0,0.6,0.16473054155497668,-1.7446289838506002,5.05,0.4977393714468367
0.6928236484527588,0.11723923004200215,[2.22949096],5.0,0.6,0.13851240643433352,-1.6891401541116158,5.05,0.4978805851767244
0.7019200325012207,0.12095180565999888,[2.22921896],5.0,0.6,0.11229427131369034,-1.5783513700725784,5.05,0.4981489892882089
0.713552713394165,0.1260321722951523,[2.22904627],5.0,0.6,0.08607613619304716,-1.4518656532755192,5.05,0.4984333273903247
0.7227458953857422,0.12974474791314905,[2.22896094],5.0,0.6,0.05985800107240398,-1.3269354224824947,5.05,0.4986910075504514
0.7328939437866211,0.13404351968135578,[2.22895168],5.0,0.6,0.0336398659517608,-1.2103195769637087,5.05,0.49891073562499816
0.7417962551116943,0.13775609529935254,[2.22900758],5.0,0.6,0.0074217308311176206,-1.1040141392281515,5.05,0.4990935121948814
0.7533228397369385,0.1424456645010326,[2.22911871],5.0,0.6,0.0,-1.007978516297843,5.05,0.4992442453986702
0.7608003616333008,0.14537664525208266,[2.22927624],5.0,0.6,0.0,-0.6453624402173916,5.05,0.4996900587309371
0.7731671333312988,0.1502616131704994,[2.22947217],5.0,0.6,0.0,-0.8101368827525215,5.05,0.4995116723448432
0.7808878421783447,0.15338799263828612,[2.22969928],5.0,0.6,0.0,-0.8276639259284702,5.05,0.4994903250538801
0.7897610664367676,0.15729596697301954,[2.22995098],5.0,0.6,0.0,-0.7845152011962235,5.05,0.49954205803429325
0.8008298873901367,0.16179013745796297,[2.23022155],5.0,0.6,0.0,-0.4445745948037374,5.05,0.49985289343230066
0.8106627464294434,0.165307314359223,[2.23050637],5.0,0.6,0.0,-0.344359182272152,5.05,0.49991173435991787
0.8208699226379395,0.16921528869395644,[2.23080126],5.0,0.6,0.0,-0.6122822600362212,5.05,0.4997210098717885
0.8298752307891846,0.17292786431195314,[2.23110241],5.0,0.6,0.0,-0.6644548001011639,5.05,0.49967145501882787
0.8387749195098877,0.1766404399299499,[2.23140633],5.0,0.6,0.0,-0.353231067134868,5.05,0.499907128143915
0.8482768535614014,0.18093921169815663,[2.23170987],5.0,0.6,0.0,-0.25592583038907124,5.05,0.49995124560821896
0.85784912109375,0.18484718603289005,[2.23201062],5.0,0.6,0.0,-0.2429192344433676,5.05,0.4999560750368482
0.8697633743286133,0.1897321539513068,[2.2323068],5.0,0.6,0.0,-0.5326513829302237,5.05,0.49978884514391503
0.8808104991912842,0.1942263244362502,[2.23259708],5.0,0.6,0.0,-0.3063477629594688,5.05,0.49993014367057864
0.8908371925354004,0.19813429877098362,[2.23288051],5.0,0.6,0.0,-0.2292404998628999,5.05,0.499960882383939
0.9005765914916992,0.20184687438898036,[2.23315658],5.0,0.6,0.0,-0.2120739576698218,5.05,0.4999665214362921
0.9117801189422607,0.2069272410241338,[2.2334252],5.0,0.6,0.0,-0.21492508313236808,5.05,0.49996561524386235
0.9238102436065674,0.21181220894255054,[2.23368651],5.0,0.6,0.0,-0.22110108274448026,5.05,0.4999636107914526
0.9337234497070312,0.2155247845605473,[2.23394082],5.0,0.6,0.0,-0.22452103891356706,5.05,0.49996247640284497
0.9417779445648193,0.21884656274507067,[2.23418795],5.0,0.6,0.0,-0.2237095049548909,5.05,0.4999627471614975
0.9508440494537354,0.2225591383630674,[2.23442735],5.0,0.6,0.0,-0.21900510856778455,5.05,0.4999642974151228
0.962805986404419,0.22744410628148415,[2.2346592],5.0,0.6,0.0,-0.21131298448943717,5.05,0.4999667612558013
0.971731424331665,0.23096128318274423,[2.23488409],5.0,0.6,0.0,-0.2015845598554996,5.05,0.4999697512057677
0.9826972484588623,0.23506465623421427,[2.2351024],5.0,0.6,0.0,-0.19062983240488424,5.05,0.4999729494151485
0.9928340911865234,0.23936342800242105,[2.23531479],5.0,0.6,0.0,-0.1790740756740734,5.05,0.49997612948743503
1.0024476051330566,0.2434668010538911,[2.23552191],5.0,0.6,0.0,-0.16737149238573162,5.05,0.49997914738158067
1.0107266902923584,0.24678857923841455,[2.23572385],5.0,0.6,0.0,-0.15583666386204098,5.05,0.49998192251087814
1.0187194347381592,0.2501103574229379,[2.23592051],5.0,0.6,0.0,-0.14467742982574816,5.05,0.4999844187793284
1.0298664569854736,0.25460452790788135,[2.23611222],5.0,0.6,0.0,-0.1340232625233873,5.05,0.4999866290815553
1.039820909500122,0.25851250224261474,[2.23629963],5.0,0.6,0.0,-0.1239477393465772,5.05,0.49998856387406915
1.0487821102142334,0.26222507786061144,[2.23648303],5.0,0.6,0.0,0.1615528435691771,5.05,0.4999805720287981
1.0586233139038086,0.2661330521953449,[2.23666277],5.0,0.6,0.0,0.20351819116533132,5.05,0.4999691681380327
1.0694305896759033,0.27062722268028827,[2.23683984],5.0,0.6,0.0,0.15664955865128122,5.05,0.4999817334263018
1.0798203945159912,0.27473059573175834,[2.23701513],5.0,0.6,0.0,0.08820163001560281,5.05,0.49999420894909213
1.0903005599975586,0.2792247662167018,[2.23718907],5.0,0.6,0.0,0.024751854909345006,5.05,0.4999995439400046
1.0997803211212158,0.2831327405514352,[2.23736213],5.0,0.6,0.0,-0.025330079749139027,5.05,0.4999995223832136
1.1077454090118408,0.2862591200192219,[2.23753441],5.0,0.6,0.0,-0.06128804124136844,5.05,0.4999972038726717
1.118798017501831,0.290948689220902,[2.237706],5.0,0.6,0.0,-0.08513061419561713,5.05,0.49999460519357747
1.1298754215240479,0.29563825842258207,[2.23787761],5.0,0.6,0.0,-0.09952037580898804,5.05,0.4999926272842879
1.1418101787567139,0.3005232263409988,[2.23804992],5.0,0.6,0.0,-0.10693803295433134,5.05,0.4999914872993641
1.1504809856414795,0.3038450045255222,[2.23822318],5.0,0.6,0.0,0.16662029847080728,5.05,0.4999793341384123
1.1577575206756592,0.30677598527657224,[2.23839727],5.0,0.6,0.0,-0.07539934769425777,5.05,0.49999576805500057
1.16741943359375,0.3106839596113057,[2.23857173],5.0,0.6,0.0,-0.16050821802090526,5.05,0.49998082246019276
1.1762490272521973,0.3140057377958291,[2.23874653],5.0,0.6,0.0,0.09904332512940464,5.05,0.49999269779655525
1.1848056316375732,0.31752291469708915,[2.23892164],5.0,0.6,0.0,0.14303384864046348,5.05,0.49998477077825754
1.1938040256500244,0.32104009159834923,[2.23909672],5.0,0.6,0.0,0.10753911817694328,5.05,0.49999139133360054
1.2025911808013916,0.32436186978287257,[2.23927177],5.0,0.6,0.0,0.0519036653034874,5.05,0.49999799459607874
1.2115206718444824,0.3280744454008694,[2.23944714],5.0,0.6,0.0,-0.0002692081235962339,5.05,0.49999999994605104
1.224473237991333,0.3337410081862328,[2.23962348],5.0,0.6,0.0,-0.04141105452032223,5.05,0.49999872344744084
1.2338294982910156,0.33764898252096615,[2.23980166],5.0,0.6,0.0,-0.07068702674368804,5.05,0.49999628050063194
1.2447447776794434,0.3419477542891729,[2.23998207],5.0,0.6,0.0,-0.08973150843982794,5.05,0.49999400631369295
1.2546486854553223,0.34566032990716966,[2.24016463],5.0,0.6,0.0,-0.10078622056267014,5.05,0.49999243853910047
1.2681260108947754,0.35132689269253303,[2.24034958],5.0,0.6,0.0,-0.10595839693277502,5.05,0.4999916425496731
1.27583909034729,0.3548440695937931,[2.24053707],5.0,0.6,0.0,-0.10698218251707849,5.05,0.4999914802690049
1.2848174571990967,0.3583612464950532,[2.24072621],5.0,0.6,0.0,-0.10519188081701471,5.05,0.4999917630289676
1.2966368198394775,0.3628554169799967,[2.24091622],5.0,0.6,0.0,-0.10157329776470594,5.05,0.4999923199783264
1.3096909523010254,0.3681311823318867,[2.24110767],5.0,0.6,0.0,-0.0968346593236665,5.05,0.49999301984121847
1.3197784423828125,0.37203915666662013,[2.24130101],5.0,0.6,0.0,-0.09147368843943922,5.05,0.4999937713152202
1.3297874927520752,0.3763379284348269,[2.2414956],5.0,0.6,0.0,-0.36187158639383854,5.05,0.49990252947402963
1.3387482166290283,0.3798551053360869,[2.24169089],5.0,0.6,0.0,-0.3893074207875971,5.05,0.4998871911835696
1.3497509956359863,0.3847400732545037,[2.24188666],5.0,0.6,0.0,-0.3286249731305575,5.05,0.4999196153935941
1.3588290214538574,0.3884526488725004,[2.2420827],5.0,0.6,0.0,0.028883755648341336,5.05,0.49999937896835533
1.3721725940704346,0.3937284142243905,[2.24227909],5.0,0.6,0.0,-0.13837943594478813,5.05,0.4999857457754258
1.380753755569458,0.397050192408914,[2.24247587],5.0,0.6,0.0,-0.16514026658492895,5.05,0.49997969963617056
1.3915929794311523,0.40154436289385737,[2.24267275],5.0,0.6,0.0,-0.13959309597753822,5.05,0.49998549464859365
1.401597261428833,0.40545233722859075,[2.24286977],5.0,0.6,0.0,-0.10038159423209277,5.05,0.49999249913074956
1.41178560256958,0.4095557102800608,[2.24306693],5.0,0.6,0.0,-0.06301578406110651,5.05,0.4999970440023799
1.4246983528137207,0.41483147563195094,[2.24326423],5.0,0.6,0.0,-0.032587601100873526,5.05,0.49999920948317966
1.4348199367523193,0.4191302474001577,[2.24346195],5.0,0.6,0.0,-0.009783637651640292,5.05,0.4999999287463094
1.4446992874145508,0.42284282301815435,[2.24366003],5.0,0.6,0.0,0.006349977711449793,5.05,0.4999999699841211
1.452815294265747,0.42616460120267785,[2.24385785],5.0,0.6,0.0,0.0171941543392406,5.05,0.4999997799262614
1.4629862308502197,0.43026797425414787,[2.24405462],5.0,0.6,0.0,0.0240684082829572,5.05,0.49999956877768365
1.4728124141693115,0.43437134730561794,[2.24424996],5.0,0.6,0.0,0.02806941797370358,5.05,0.49999941349295157
1.4847655296325684,0.4392563152240347,[2.24444414],5.0,0.6,0.0,0.030048218158117278,5.05,0.4999993278846241
1.4947404861450195,0.4433596882755048,[2.24463774],5.0,0.6,0.0,0.03063931622851919,5.05,0.49999930118131297
1.5027916431427002,0.4468768651767649,[2.24483096],5.0,0.6,0.0,0.030303593790067425,5.05,0.4999993164116542
1.513676643371582,0.45117563694497165,[2.2450237],5.0,0.6,0.0,-0.2466687803931732,5.05,0.49995470863832076
1.5217204093933105,0.454497415129495,[2.2452156],5.0,0.6,0.0,-0.2810950202999058,5.05,0.4999411850902299
1.5308184623718262,0.4578191933140183,[2.24540639],5.0,0.6,0.0,-0.2275072791437479,5.05,0.4999614716389291
1.5390667915344238,0.4611409714985418,[2.24559618],5.0,0.6,0.0,-0.15303061955523445,5.05,0.49998256765639826
1.547745943069458,0.4646581483998018,[2.24578448],5.0,0.6,0.0,-0.08414192611871395,5.05,0.4999947297734414
1.5587866306304932,0.4693477176014819,[2.24597091],5.0,0.6,0.0,-0.02913170642263936,5.05,0.49999936826018293
1.5683205127716064,0.4732556919362153,[2.2461561],5.0,0.6,0.0,0.011307283463789092,5.05,0.4999999048249325
1.5758419036865234,0.4761866726872654,[2.24634064],5.0,0.6,0.0,0.03923524187153129,5.05,0.4999988540680029
1.5847961902618408,0.47970384958852547,[2.24652443],5.0,0.6,0.0,0.05735751314330709,5.05,0.4999975510143611
1.5967261791229248,0.48419802007346885,[2.2467071],5.0,0.6,0.0,0.06819083145785795,5.05,0.49999653855732373
1.608389139175415,0.4894737854253589,[2.24688904],5.0,0.6,0.0,0.3498388461416198,5.05,0.4999089031891391
1.6158108711242676,0.4926001648931457,[2.24707095],5.0,0.6,0.0,0.3849396444339971,5.05,0.4998897079895294
1.624828577041626,0.4967035379446158,[2.24725244],5.0,0.6,0.0,0.3293638116395555,5.05,0.4999192535634827
1.6349823474884033,0.5008069109960859,[2.24743325],5.0,0.6,0.0,-0.02484121355228558,5.05,0.4999995406411451
1.6431884765625,0.5041286891806092,[2.24761385],5.0,0.6,0.0,-0.13156942966829568,5.05,0.4999871142095876
1.6537010669708252,0.508427460948816,[2.2477943],5.0,0.6,0.0,0.13928544063488302,5.05,0.49998555851517296
1.6636555194854736,0.5123354352835494,[2.24797469],5.0,0.6,0.0,-0.07348850523757486,5.05,0.49999597983612065
1.6737356185913086,0.5164388083350194,[2.2481555],5.0,0.6,0.0,-0.12464365846129007,5.05,0.49998843509610713
1.683830738067627,0.5205421813864896,[2.24833715],5.0,0.6,0.0,-0.11254235743805548,5.05,0.4999905716738622
1.6969940662384033,0.5260133454551164,[2.24852037],5.0,0.6,0.0,-0.08102121705246419,5.05,0.49999511345302156
1.7097301483154297,0.5308983133735331,[2.2487065],5.0,0.6,0.0,-0.04826365046085021,5.05,0.49999826601132635
1.71824312210083,0.5344154902747932,[2.24889666],5.0,0.6,0.0,-0.020752728477746785,5.05,0.49999967940485296
1.7257418632507324,0.5373464710258432,[2.24909068],5.0,0.6,0.0,9.073150637963802e-05,5.05,0.49999999999387196
1.7357792854309082,0.5414498440773132,[2.2492876],5.0,0.6,0.0,0.014825922551751549,5.05,0.4999998363748497
1.7480220794677734,0.5465302107124667,[2.24948698],5.0,0.6,0.0,0.024616653629622814,5.05,0.49999954890863957
1.7577400207519531,0.5502427863304634,[2.24968874],5.0,0.6,0.0,0.030659629849544522,5.05,0.4999993002543841
1.7673985958099365,0.5547369568154068,[2.2498928],5.0,0.6,0.0,0.0339797479652968,5.05,0.4999991404985599
1.7767889499664307,0.5584495324334036,[2.25009907],5.0,0.6,0.0,0.035384526353866734,5.05,0.4999990679632349
1.7872402667999268,0.5627483042016103,[2.25030737],5.0,0.6,0.0,0.03548104314026587,5.05,0.4999990628717554
1.7958426475524902,0.5660700823861337,[2.25051755],5.0,0.6,0.0,0.03471218898364368,5.05,0.49999910304575634
1.8056063652038574,0.5699780567208671,[2.25072937],5.0,0.6,0.0,0.033394221405389765,5.05,0.49999916986455195
1.8147861957550049,0.5736906323388637,[2.25094261],5.0,0.6,0.0,0.03174912248826405,5.05,0.49999924963977976
1.8250434398651123,0.5779894041070706,[2.25115703],5.0,0.6,0.0,0.30596862628313937,5.05,0.4999303164602395
1.8352081775665283,0.5820927771585406,[2.25137237],5.0,0.6,0.0,0.33720484323620525,5.05,0.4999153635336162
1.8433408737182617,0.5856099540598008,[2.25158805],5.0,0.6,0.0,0.28021910248624826,5.05,0.499941551043029
1.8536906242370605,0.5895179283945341,[2.25180316],5.0,0.6,0.0,0.202290552868658,5.05,0.4999695389654906
1.863429307937622,0.5936213014460042,[2.25201725],5.0,0.6,0.0,0.12999735658850148,5.05,0.49998742030085735
1.8737168312072754,0.5975292757807376,[2.25223026],5.0,0.6,0.0,0.07169448309718976,5.05,0.49999617372227534
1.8824474811553955,0.6010464526819976,[2.25244211],5.0,0.6,0.0,0.02811370571008889,5.05,0.4999994116407189
1.8928015232086182,0.6051498257334678,[2.25265267],5.0,0.6,0.0,-0.0027835734963746524,5.05,0.49999999423217517
1.9027152061462402,0.6092531987849378,[2.25286181],5.0,0.6,0.0,-0.023692880357578317,5.05,0.4999995821290152
1.912764549255371,0.6133565718364078,[2.25306942],5.0,0.6,0.0,-0.03712897725567542,5.05,0.4999989737995458
1.9233531951904297,0.6178507423213512,[2.25327539],5.0,0.6,0.0,-0.04516029440794554,5.05,0.49999848183300705
1.9325592517852783,0.621563317939348,[2.2534796],5.0,0.6,0.0,-0.04938339869021617,5.05,0.49999818461877876
1.9437329769134521,0.6258620897075547,[2.25368194],5.0,0.6,0.0,-0.0509852678304129,5.05,0.49999806493639365
1.952763557434082,0.6295746653255516,[2.25388231],5.0,0.6,0.0,-0.05082692090426283,5.05,0.4999980769373101
1.9631822109222412,0.6338734370937583,[2.25408058],5.0,0.6,0.0,-0.0495219472699131,5.05,0.4999981744181501
1.972764015197754,0.6377814114284917,[2.25427669],5.0,0.6,0.0,-0.3235398011374271,5.05,0.4999220837104242
1.9829111099243164,0.6420801831966985,[2.25447058],5.0,0.6,0.0,-0.35422737593345116,5.05,0.4999066035531123
1.9917683601379395,0.6455973600979584,[2.25466216],5.0,0.6,0.0,-0.29648123314596625,5.05,0.49993457063960894
2.001378059387207,0.6495053344326919,[2.25485138],5.0,0.6,0.0,-0.2176734256284919,5.05,0.49996473026622834
2.0106964111328125,0.653022511333952,[2.25503823],5.0,0.6,0.0,-0.14444516438871596,5.05,0.4999844687666404
2.0193662643432617,0.6561488908017388,[2.2552227],5.0,0.6,0.0,-0.08519354471323837,5.05,0.49999459721474143
2.0284016132354736,0.6598614664197354,[2.25540477],5.0,0.6,0.0,0.2353604708554563,5.05,0.49995876596687616
2.038661479949951,0.6641602381879422,[2.25558442],5.0,0.6,0.0,0.3002859096147164,5.05,0.49993288069783226
2.0466928482055664,0.6674820163724656,[2.25576143],5.0,0.6,0.0,0.26695968236177914,5.05,0.4999469512702278
2.0566976070404053,0.6717807881406723,[2.25593536],5.0,0.6,0.0,0.20512488564254117,5.05,0.4999686794213903
2.065687656402588,0.675493363758669,[2.25610611],5.0,0.6,0.0,0.14339744230410234,5.05,0.4999846932553273
2.0755724906921387,0.6795967368101391,[2.25627383],5.0,0.6,0.0,0.09171201168098504,5.05,0.49999373881702697
2.084792375564575,0.683309312428136,[2.2564387],5.0,0.6,0.0,0.3280181565091381,5.05,0.4999199119612948
2.0948946475982666,0.6872172867628693,[2.25660088],5.0,0.6,0.0,0.3321848435583951,5.05,0.499917864552365
2.108787775039673,0.693274646981706,[2.25676076],5.0,0.6,0.0,0.2568247365407947,5.05,0.4999509025366896
2.116698980331421,0.6965964251662294,[2.25691868],5.0,0.6,0.0,0.16709352532851068,5.05,0.4999792165858078
2.1247072219848633,0.6997228046340161,[2.25707449],5.0,0.6,0.0,0.0877786263919437,5.05,0.4999942643618421
2.134666919708252,0.7036307789687495,[2.25722804],5.0,0.6,0.0,0.025834267289392115,5.05,0.49999950318035885
2.1450178623199463,0.7077341520202196,[2.25737947],5.0,0.6,0.0,-0.01905736096457456,5.05,0.4999997296464492
2.152721643447876,0.7106651327712696,[2.25752893],5.0,0.6,0.0,-0.049699912185531506,5.05,0.49999816127356633
2.1606714725494385,0.713986910955793,[2.25767632],5.0,0.6,0.0,-0.06933577692358461,5.05,0.4999964213444936
2.1700599193573,0.7178948852905265,[2.25782137],5.0,0.6,0.0,-0.0808646449908495,5.05,0.4999951323210113
2.1797680854797363,0.7218028596252599,[2.25796409],5.0,0.6,0.0,-0.08662219945740013,5.05,0.499994414492191
2.192546844482422,0.7270786249771499,[2.25810493],5.0,0.6,0.0,-0.3644263488811803,5.05,0.49990114849607553
2.2037386894226074,0.7315727954620934,[2.25824452],5.0,0.6,0.0,-0.3966352376253762,5.05,0.49988290498502186
2.2168996334075928,0.7368485608139834,[2.25838339],5.0,0.6,0.0,-0.06284478103904803,5.05,0.49999706002367345
2.226182699203491,0.7405611364319802,[2.25852176],5.0,0.6,0.0,0.05009305568601549,5.05,0.4999981320686407
2.233764171600342,0.743687515899767,[2.2586594],5.0,0.6,0.0,0.06985704316967761,5.05,0.49999636733377184
2.242741823196411,0.7470092940842904,[2.2587959],5.0,0.6,0.0,0.05502560905777638,5.05,0.49999774609600633
2.2583627700805664,0.7534574517366005,[2.25893136],5.0,0.6,0.0,0.031212114364635155,5.05,0.49999927480844253
2.2672173976898193,0.7573654260713338,[2.25906628],5.0,0.6,0.0,0.008656414783695762,5.05,0.4999999442194532
2.279524087905884,0.7624457927064873,[2.25920087],5.0,0.6,0.0,-0.28535092850687693,5.05,0.49993939074694205
2.2900984287261963,0.7665491657579574,[2.25933529],5.0,0.6,0.0,-0.055403375347273964,5.05,0.49999771504247587
2.300762891769409,0.7708479375261642,[2.25946988],5.0,0.6,0.0,0.02419410019445848,5.05,0.4999995642619999
2.310682535171509,0.7749513105776341,[2.25960472],5.0,0.6,0.0,0.03996500118792731,5.05,0.4999988110438999
2.318686008453369,0.7782730887621575,[2.25973924],5.0,0.6,0.0,0.03170769397392767,5.05,0.4999992515967475
2.331321954727173,0.7837442528307843,[2.25987297],5.0,0.6,0.0,0.016901699759969413,5.05,0.49999978734903966
2.341752767562866,0.788043024598991,[2.2600063],5.0,0.6,0.0,0.002597346835630206,5.05,0.49999999497811726
2.3527743816375732,0.7923417963671978,[2.26013958],5.0,0.6,0.0,-0.008858818699804864,5.05,0.4999999415804406
2.3607280254364014,0.7954681758349845,[2.26027226],5.0,0.6,0.0,-0.2931532502986821,5.05,0.4999360311828805
2.3718395233154297,0.799962346319928,[2.26040389],5.0,0.6,0.0,-0.33172946288384053,5.05,0.4999180895728459
2.3796842098236084,0.8030887257877147,[2.26053452],5.0,0.6,0.0,-0.27987417500085854,5.05,0.4999416948381429
2.3912863731384277,0.807582896272658,[2.26066415],5.0,0.6,0.0,-0.20539395856480838,5.05,0.4999685972004334
2.39874005317688,0.8107092757404448,[2.26079283],5.0,0.6,0.0,-0.13531502875482876,5.05,0.49998637009514457
2.408705234527588,0.8146172500751782,[2.26092055],5.0,0.6,0.0,-0.07834452955718538,5.05,0.4999954309906673
2.4177591800689697,0.8187206231266484,[2.26104752],5.0,0.6,0.0,-0.03547920550965353,5.05,0.49999906296882407
2.4256479740142822,0.8218470025944351,[2.26117372],5.0,0.6,0.0,-0.004874408963322901,5.05,0.49999998231314585
2.438614845275879,0.8271227679463251,[2.26129897],5.0,0.6,0.0,0.01602607929130139,5.05,0.4999998088117638
2.4487385749816895,0.8312261409977952,[2.26142351],5.0,0.6,0.0,0.029638374556128635,5.05,0.49999934609425095
2.4574313163757324,0.8347433178990552,[2.26154736],5.0,0.6,0.0,0.03796187508331721,5.05,0.49999892724259515
2.4677693843841553,0.839042089667262,[2.26167012],5.0,0.6,0.0,0.0425453761038238,5.05,0.4999986525556907
2.4786906242370605,0.8435362601522054,[2.26179169],5.0,0.6,0.0,-0.23149517210275972,7.038649534588163,0.4999601091558591
2.487689256668091,0.8474442344869388,[2.26191216],5.0,0.6,0.0,-0.26436865825720257,7.040074247365722,0.49994797596725243
2.496674060821533,0.8509614113881988,[2.26203145],5.0,0.6,0.0,-0.21016796416246553,7.0213687204826805,0.49996712048291186
2.5125787258148193,0.8572141703237723,[2.26214971],5.0,0.6,0.0,-0.13570550033549306,6.99576215901126,0.4999862913205056
2.5206656455993652,0.860340549791559,[2.26226743],5.0,0.6,0.0,-0.06723814877787287,6.97775227838415,0.49999663459985294
2.5286741256713867,0.8636623279760824,[2.26238468],5.0,0.6,0.0,-0.012903162381564241,6.9619587384529185,0.49999987606358004
2.5386829376220703,0.8677657010275525,[2.26250134],5.0,0.6,0.0,0.026712392966015585,6.942146239956339,0.49999946883183927
2.5518224239349365,0.8730414663794427,[2.26261769],5.0,0.6,0.0,0.053740787284342464,6.918496930274975,0.49999785012212394
2.561002016067505,0.8769494407141761,[2.26273416],5.0,0.6,0.0,0.07093583138329226,6.898938096126723,0.4999962542708148
2.571776866912842,0.881052813765646,[2.26285092],5.0,0.6,0.0,-0.19519211132238712,6.87883384680265,0.49997163917360005
2.5831518173217773,0.8859377816840628,[2.26296794],5.0,0.6,0.0,-0.22360508165052978,6.854832272324423,0.49996278192990706
2.590708017349243,0.8890641611518495,[2.263085],5.0,0.6,0.0,0.10864625414758464,6.837310667794438,0.49999121316696177
2.6032662391662598,0.8943399265037396,[2.2632019],5.0,0.6,0.0,0.2165616279883445,6.814045637815403,0.4999650896238186
2.6137521266937256,0.8986386982719464,[2.26331884],5.0,0.6,0.0,0.22913816151321503,6.792712128919262,0.49996091730082565
2.6219186782836914,0.9019604764564698,[2.26343598],5.0,0.6,0.0,-0.07016197053006146,6.776634518281408,0.49999633555135536
2.6297171115875244,0.9050868559242566,[2.26355311],5.0,0.6,0.0,-0.1361390604731646,6.759496418331019,0.49998620358715345
2.6407220363616943,0.9095810264092,[2.26366985],5.0,0.6,0.0,0.163221544633502,6.738003520006089,0.49998016861574984
2.6497673988342285,0.91309820331046,[2.26378606],5.0,0.6,0.0,0.24534535436170601,6.721333579741062,0.4999551933068233
2.6577539443969727,0.9164199814949833,[2.26390186],5.0,0.6,0.0,0.23897124787735247,6.7054742293855005,0.4999574911343315
2.669691801071167,0.9211095506966636,[2.26401731],5.0,0.6,0.0,-0.07359412204852883,6.683026021473971,0.49999596827239956
2.680656909942627,0.9256037211816069,[2.26413249],5.0,0.6,0.0,-0.14844416937353905,6.66128171742616,0.49998359690351923
2.692490339279175,0.9304886891000236,[2.26424764],5.0,0.6,0.0,-0.13074704379679103,6.639775871341868,0.499987274791549
2.7056190967559814,0.9361552518853872,[2.26436357],5.0,0.6,0.0,-0.08504321787972757,6.615684489786701,0.4999946162646042
2.717641592025757,0.9410402198038039,[2.26448113],5.0,0.6,0.0,-0.03798444276271784,6.590244414219682,0.4999989259667459
2.726675033569336,0.9447527954218007,[2.26460026],5.0,0.6,0.0,0.2770636317161785,6.568800207762805,0.499942859912151
2.734652280807495,0.9478791748895873,[2.26472032],5.0,0.6,0.0,0.33918200317947134,6.5534652600059005,0.4999143681976923
2.7446794509887695,0.9517871492243207,[2.26484076],5.0,0.6,0.0,0.3039843356554773,6.532337608758383,0.49993121730127627
2.754403829574585,0.9558905222757909,[2.26496132],5.0,0.6,0.0,0.24049064837926,6.515062830638234,0.49995694888892744
2.767001152038574,0.9613616863444175,[2.26508213],5.0,0.6,0.0,0.17706355554486364,6.488105800182194,0.4999766624693391
2.7764768600463867,0.9646834645289409,[2.26520333],5.0,0.6,0.0,0.12358429109263058,6.471929982755586,0.49998863084259854
2.787442684173584,0.9689822362971477,[2.26532484],5.0,0.6,0.0,0.08198627613226352,6.45095386792461,0.4999949963511463
2.7976694107055664,0.9730856093486179,[2.26544657],5.0,0.6,0.0,0.051133811037216495,6.430905664412185,0.49999805364455474
2.8089873790740967,0.9781659759837712,[2.26556865],5.0,0.6,0.0,0.028989775634358245,6.408282652666763,0.49999937440090475
2.8196656703948975,0.982464747751978,[2.26569137],5.0,0.6,0.0,0.013509344011332193,6.386735084410485,0.4999998641451528
2.8297035694122314,0.9867635195201847,[2.26581479],5.0,0.6,0.0,0.002953762685717694,6.365354235238055,0.49999999350531826
2.8417139053344727,0.9916484874386016,[2.26593893],5.0,0.6,0.0,-0.004045901544602059,6.343250337914697,0.49999998781467014
2.8497066497802734,0.9949702656231248,[2.26606378],5.0,0.6,0.0,-0.008522073447844322,6.324295431004514,0.49999994593736646
2.8576722145080566,0.9982920438076482,[2.26618878],5.0,0.6,0.0,-0.011232943278857422,6.306143426592897,0.49999990607228306
2.869278907775879,1.0027862142925916,[2.26631343],5.0,0.6,0.0,-0.012725525255297335,6.287130815739557,0.4999998794525418
2.8767058849334717,1.0059125937603783,[2.26643771],5.0,0.6,0.0,-0.013389521664007524,6.26973547696478,0.4999998665444185
2.8867313861846924,1.0100159668118485,[2.26656139],5.0,0.6,0.0,-0.01349987994226572,6.250304347794133,0.4999998643354343
2.895642042160034,1.0137285424298452,[2.26668428],5.0,0.6,0.0,-0.013249000110365453,6.232752814472959,0.4999998693309222
2.90514874458313,1.017441118047842,[2.26680645],5.0,0.6,0.0,-0.012770480773794104,6.214931365069709,0.49999987859932044
2.912642240524292,1.020372098798892,[2.26692774],5.0,0.6,0.0,-0.012156334421285095,6.198926668574835,0.4999998899951316
2.9236254692077637,1.0248662692838355,[2.26704782],5.0,0.6,0.0,-0.011469327963592107,6.177770551728148,0.49999990207748124
2.9326536655426025,1.028578844901832,[2.26716665],5.0,0.6,0.0,-0.010751759843478391,6.160305433563312,0.4999999139470529
2.94242000579834,1.032291420519829,[2.26728437],5.0,0.6,0.0,-0.010031667692681805,6.1426770923537,0.4999999250877369
2.9555141925811768,1.0375671858717188,[2.26740131],5.0,0.6,0.0,-0.009327200300377805,6.119125299350756,0.4999999352396401
2.9636242389678955,1.041084362772979,[2.26751774],5.0,0.6,0.0,-0.008649686481248316,6.099664832610338,0.4999999443061317
2.9766266345977783,1.0465555268416058,[2.26763389],5.0,0.6,0.0,-0.008005783100577273,6.077089327347982,0.4999999522894642
2.985649824142456,1.0502681024596026,[2.26775011],5.0,0.6,0.0,0.26863938515249264,6.055783433627576,0.4999462816438384
2.995530128479004,1.054176076794336,[2.26786631],5.0,0.6,0.0,0.3023323464259353,6.036513674185989,0.4999319628121464
3.0059282779693604,1.0580840511290694,[2.26798224],5.0,0.6,0.0,0.2477650462527928,6.017289657408331,0.49995430518692396
3.015784978866577,1.0621874241805394,[2.26809782],5.0,0.6,0.0,0.17217254837181323,5.997056327277823,0.4999779339342834
3.0257811546325684,1.0664861959487462,[2.26821313],5.0,0.6,0.0,0.1021064408457213,5.977657045928081,0.49999223914479063
3.035299301147461,1.070198771566743,[2.26832818],5.0,0.6,0.0,0.04590711415375866,5.956947652997367,0.4999984312057842
3.045340061187744,1.0741067459014764,[2.26844265],5.0,0.6,0.0,0.0042998775920634474,5.937837384707442,0.49999998623681796
3.053662061691284,1.077819321519473,[2.2685562],5.0,0.6,0.0,-0.02475492953216832,5.919573844912566,0.49999954382669604
3.06463623046875,1.0823134920044164,[2.2686687],5.0,0.6,0.0,0.232087977809223,5.89722377555388,0.4999599045999856
3.0726356506347656,1.085439871472203,[2.26877986],5.0,0.6,0.0,0.25336638140127665,5.880218245640765,0.4999522158461745
3.08308744430542,1.0899340419571466,[2.26889193],5.0,0.6,0.0,0.19170972152672816,5.887556206944764,0.49997264208055936
3.095151901245117,1.0952098073090366,[2.26901144],5.0,0.6,0.0,0.11276221993377403,5.874070361024149,0.49999053479991423
3.107229471206665,1.1000947752274535,[2.26914401],5.0,0.6,0.0,0.04189394597092922,5.847589017013095,0.4999986935023151
3.1179356575012207,1.1041981482789236,[2.26929051],5.0,0.6,0.0,-0.01341057199376446,5.8156516476144215,0.49999986612446445
3.1266632080078125,1.1077153251801837,[2.26944842],5.0,0.6,0.0,-0.05303477524974301,5.787934362925471,0.499997906238395
3.1347100734710693,1.111037103364707,[2.26961405],5.0,0.6,0.0,-0.07944490124798256,5.763665181974326,0.4999953017438168
3.1436843872070312,1.1143588815492305,[2.2697835],5.0,0.6,0.0,-0.09562883161449884,5.738575194647813,0.49999319259768227
3.1522037982940674,1.1178760584504905,[2.26995246],5.0,0.6,0.0,-0.10429743423862135,5.7119356688778264,0.4999919025102286
3.163531541824341,1.1219794315019607,[2.27011603],5.0,0.6,0.0,-0.10764749762025658,5.681894885984149,0.4999913739731352
3.1766915321350098,1.1274505955705874,[2.27026817],5.0,0.6,0.0,-0.10735670935185358,5.63639676883302,0.4999914205127776
3.1867427825927734,1.1321401647722673,[2.27040177],5.0,0.6,0.0,-0.10466053611094937,5.603723418497812,0.4999918460312223
3.197360038757324,1.1362435378237374,[2.27051037],5.0,0.6,0.0,-0.10044617539129345,5.573912947429629,0.49999248947625025
3.2049059867858887,1.1393699172915244,[2.27058834],5.0,0.6,0.0,-0.09533833273553198,5.548964794726265,0.4999932338932975
3.215616464614868,1.143668689059731,[2.27063026],5.0,0.6,0.0,-0.08976921900811938,5.518341402803854,0.4999940012748508
3.226627826690674,1.1481628595446745,[2.27063107],5.0,0.6,0.0,-0.08403247697569619,5.487126516161095,0.49999474347513856
3.236753463745117,1.1522662325961444,[2.27058614],5.0,0.6,0.0,-0.07832334989159821,5.457975351964124,0.4999954334606947
3.2446775436401367,1.1557834094974044,[2.27049292],5.0,0.6,0.0,-0.07276796876804714,5.448800906725048,0.4999960582827493
3.252700090408325,1.1591051876819278,[2.27035076],5.0,0.6,0.0,-0.06744440063208701,5.419925558918199,0.49999661392164335
3.2620108127593994,1.1624269658664512,[2.27015758],5.0,0.6,0.0,-0.06239762141643175,5.392498007793183,0.49999710171235023
3.2758450508117676,1.1680935286518146,[2.26990824],5.0,0.6,0.0,-0.05765008482702208,5.335309312641264,0.49999752596692015
3.286632776260376,1.1723923004200216,[2.26959647],5.0,0.6,0.0,-0.05320913529738368,5.309053387277502,0.4999978924486614
3.2952237129211426,1.1761048760380182,[2.26921878],5.0,0.6,0.0,-0.049072177588017685,5.284988345002532,0.4999982074282104
3.3048837184906006,1.1800128503727516,[2.26877421],5.0,0.6,0.0,-0.0452302610784794,5.259090479668072,0.4999984771251896
3.31371808052063,1.183920824707485,[2.26826213],5.0,0.6,0.0,-0.04167054883917612,5.232306697209785,0.4999987073987991
3.322524309158325,1.1874380016087451,[2.26768447],5.0,0.6,0.0,-0.03837800511434934,5.229502978729595,0.49999890359503896
3.332629442214966,1.191541374660215,[2.26704539],5.0,0.6,0.0,-0.03533653689748891,5.194873603888804,0.4999990704896254
3.3428075313568115,1.1954493489949485,[2.26634641],5.0,0.6,0.0,-0.032529755512603946,5.162170928578997,0.4999992122871473
3.352628469467163,1.1995527220464186,[2.26558669],5.0,0.6,0.0,-0.30597983436324844,5.129664970749686,0.499930311355281
3.361823797225952,1.2032652976644154,[2.2647656],5.0,0.6,0.0,-0.3367189895371488,5.099625850625578,0.49991560723028317
3.371668577194214,1.2073686707158855,[2.2638827],5.0,0.6,0.0,-0.27942415992960074,5.06799762665946,0.49994188217649504
3.3796403408050537,1.2106904489004089,[2.26294051],5.0,0.6,0.0,-0.20131531492870522,5.0666296288207455,0.4999698319525262
3.389589548110962,1.214598423235142,[2.26194408],5.0,0.6,0.0,-0.12892925374216085,5.029083678870425,0.49998762616731723
3.4015886783599854,1.219483391153559,[2.26089219],5.0,0.6,0.0,-0.07059212952440169,4.962107290411582,0.499996290480735
3.413147449493408,1.2241729603552391,[2.25977511],5.0,0.6,0.0,-0.027015711057712746,4.905909224744566,0.4999994567005757
3.4256107807159424,1.2290579282736558,[2.25858443],5.0,0.6,0.0,0.00385242918125314,4.879719432358438,0.49999998895219505
3.433716058731079,1.2321843077414425,[2.25731908],5.0,0.6,0.0,0.024717328035190427,4.859613677662771,0.4999995452114517
3.4431726932525635,1.2360922820761762,[2.25598476],5.0,0.6,0.0,0.038100244444554704,4.861734024114036,0.4999989194080444
3.451627254486084,1.2398048576941727,[2.25458993],5.0,0.6,0.0,0.046074005455672605,4.827157079756741,0.4999984197786401
3.462563991546631,1.244299028179116,[2.25314219],5.0,0.6,0.0,0.05023811577097474,4.8198332141599245,0.49999812123464005
3.472672462463379,1.2485977999473228,[2.2516483],5.0,0.6,0.0,0.051781480212998485,4.77557425266328,0.49999800402668676
3.4808590412139893,1.2517241794151095,[2.2501107],5.0,0.6,0.0,0.051566347477329355,4.740208235930014,0.4999980205772509
3.4885923862457275,1.2548505588828962,[2.24853169],5.0,0.6,0.0,0.050207057700468974,4.738437598304977,0.499998123556888
3.5008060932159424,1.2597355268013128,[2.24691315],5.0,0.6,0.0,0.04813512972159953,4.659212158117151,0.49999827523385315
3.5124194622039795,1.2644250960029932,[2.24524588],5.0,0.6,0.0,-0.23038858267779727,4.597635678057319,0.49996048960043243
3.523076057434082,1.2689192664879365,[2.24351884],5.0,0.6,0.0,-0.2662072416338018,4.57262967551317,0.4999472498746391
3.5306875705718994,1.27224104467246,[2.24173075],5.0,0.6,0.0,-0.21387484127977746,4.550971438595329,0.49996595045695663
3.539685010910034,1.27575822157372,[2.23988848],5.0,0.6,0.0,0.13550390187880854,4.554487324167065,0.499986332019786
3.5496983528137207,1.2794707971917167,[2.23800187],5.0,0.6,0.0,-0.03955315995958987,4.518925912620397,0.49999883542210927
3.5576720237731934,1.2825971766595035,[2.23607584],5.0,0.6,0.0,-0.07370471165947334,4.488408801521881,0.49999595614642073
3.567181348800659,1.286505150994237,[2.23411141],5.0,0.6,0.0,-0.055111437731863576,4.455535829867494,0.4999977390592819
3.576140880584717,1.290608524045707,[2.23210996],5.0,0.6,0.0,-0.022405714745747613,4.422794657042108,0.4999996262991221
3.5865485668182373,1.2947118970971772,[2.23007321],5.0,0.6,0.0,0.00889899804685757,4.390376413287806,0.4999999410493127
3.595991611480713,1.298815270148647,[2.22800302],5.0,0.6,0.0,0.033697902150038254,4.358014150445486,0.49999915469772466
3.605393886566162,1.3025278457666438,[2.22590121],5.0,0.6,0.0,0.051285769249746246,4.327527038158009,0.499998042059125
3.6156318187713623,1.3068266175348506,[2.22376958],5.0,0.6,0.0,0.06259455845443775,4.294033737924381,0.49999708338859866
3.6236727237701416,1.310148395719374,[2.22161366],5.0,0.6,0.0,0.06898167992657606,4.295249770217552,0.4999964578033315
3.6348876953125,1.3146425662043173,[2.21943818],5.0,0.6,0.0,0.07174269115003362,4.22236450393021,0.49999616857491397
3.6472513675689697,1.3195275341227342,[2.21723531],5.0,0.6,0.0,0.07195059044706546,4.162268901788405,0.4999961463370627
3.6555404663085938,1.3228493123072576,[2.21499845],5.0,0.6,0.0,0.07043347975210057,4.167271978847061,0.4999963071355917
3.667058229446411,1.3275388815089375,[2.21273385],5.0,0.6,0.0,0.06780396511469095,4.129410222276884,0.4999965777213133
3.6759753227233887,1.331446855843671,[2.21044671],5.0,0.6,0.0,0.06450221660753228,4.094985870310226,0.4999969029044158
3.686598300933838,1.335550228895141,[2.20813726],5.0,0.6,0.0,0.06083731441139083,4.059982081915124,0.49999724484810143
3.6969034671783447,1.3396536019466112,[2.20580558],5.0,0.6,0.0,0.05702176037167721,4.025007295485127,0.4999975796015533
3.705643892288208,1.3433661775646077,[2.2034516],5.0,0.6,0.0,0.053198390581482034,3.99220423063197,0.4999978932997448
3.7176260948181152,1.3482511454830246,[2.20107093],5.0,0.6,0.0,0.04946056369277782,3.9288510940519332,0.49999817894103726
3.7266364097595215,1.3517683223842847,[2.19865989],5.0,0.6,0.0,0.04586694196288083,3.930373925707926,0.4999984339502053
3.7356345653533936,1.3556762967190181,[2.19622414],5.0,0.6,0.0,0.0424521391192356,3.894838477247675,0.4999986584549836
3.7436208724975586,1.3589980749035415,[2.19376873],5.0,0.6,0.0,0.31527266250655167,3.863091820601003,0.49992601440501816
3.75162935256958,1.3625152518048016,[2.19129822],5.0,0.6,0.0,0.3453834298678554,3.8616933813324112,0.49991120855846205
3.7605161666870117,1.3660324287060617,[2.18882105],5.0,0.6,0.0,0.28747600883178126,3.821027775364137,0.49993848469641555
3.770599126815796,1.3697450043240584,[2.18634017],5.0,0.6,0.0,0.20877942902255087,3.7824986713372235,0.49996755348966654
3.7797510623931885,1.3738483773755286,[2.1838537],5.0,0.6,0.0,0.1358357371038972,3.744133824230058,0.4999862649957613
3.788715362548828,1.3773655542767886,[2.18136032],5.0,0.6,0.0,0.07697374770524347,3.7124206733752025,0.4999955894776826
3.7966244220733643,1.3804919337445751,[2.17886401],5.0,0.6,0.0,0.03290615953133759,3.7151138803666197,0.4999991939523373
3.805609941482544,1.3840091106458352,[2.17637315],5.0,0.6,0.0,0.0015803363904566513,3.6761286757405416,0.49999999814088714
3.813678741455078,1.3875262875470953,[2.17389081],5.0,0.6,0.0,-0.019709696049661773,3.639893792323412,0.4999997108212317
3.822641611099243,1.3912388631650918,[2.17141944],5.0,0.6,0.0,-0.0334865813679861,3.636522856021301,0.49999916526631677
3.832641363143921,1.394951438783089,[2.16896546],5.0,0.6,0.0,-0.041824786126128694,3.5951946069528815,0.49999869781236395
3.8423192501068115,1.3988594131178222,[2.16653075],5.0,0.6,0.0,-0.046325579406388796,3.557704405017385,0.4999984024748601
3.851140260696411,1.4023765900190825,[2.16411342],5.0,0.6,0.0,-0.3242180281932811,3.525572743160249,0.4999217567263262
3.8596408367156982,1.405698368203606,[2.16171599],5.0,0.6,0.0,-0.3574140487668469,3.5256399503731193,0.49990491574329
3.868572950363159,1.4094109438216025,[2.15934462],5.0,0.6,0.0,-0.30122160696148864,3.487312140611289,0.49993246178405165
3.8797950744628906,1.4141005130232824,[2.15700124],5.0,0.6,0.0,-0.2233079849296037,3.448333540098929,0.49996288076138745
3.8915557861328125,1.4187900822249626,[2.1546811],5.0,0.6,0.0,0.1255143244469765,3.3874937986424314,0.49998827296643505
3.904790163040161,1.4242612462935895,[2.1523747],5.0,0.6,0.0,-0.058289898883681746,3.3361809343657955,0.4999974707475416
3.9134151935577393,1.4277784231948494,[2.15007539],5.0,0.6,0.0,-0.1019392248479884,3.322481872401485,0.4999922645431196
3.9226255416870117,1.4314909988128461,[2.14778517],5.0,0.6,0.0,0.18509632844974078,3.3063345388181538,0.4999744970037084
3.9318602085113525,1.435203574430843,[2.14551602],5.0,0.6,0.0,0.2458161421231836,3.344158080838042,0.49995502119244256
3.939596652984619,1.4383299538986296,[2.14329014],5.0,0.6,0.0,-0.05686263034448258,3.3181714115729135,0.49999759309183184
3.954761505126953,1.444582712834203,[2.14112234],5.0,0.6,0.0,-0.14232606953793564,3.243012306009734,0.49998492112160653
3.9637115001678467,1.4482952884522,[2.13901172],5.0,0.6,0.0,0.1361381545428289,3.231244458323573,0.49998620377076536
3.971605062484741,1.4512262692032498,[2.13695949],5.0,0.6,0.0,0.20120686608935257,3.237762883407896,0.4999698644459302
3.9795963764190674,1.4541572499542998,[2.13497431],5.0,0.6,0.0,0.182784685012849,3.2370801960430087,0.4999751300172764
3.9886584281921387,1.4578698255722966,[2.13306303],5.0,0.6,0.0,0.13878523469625204,3.2095577707283276,0.49998566205280104
3.997615337371826,1.4613870024735567,[2.13122744],5.0,0.6,0.0,0.09324437642800687,3.1845105635587716,0.49999352784123136
4.006586074829102,1.46529497680829,[2.1294669],5.0,0.6,0.0,0.05474101535327806,3.158801310176826,0.4999977693501486
4.014687776565552,1.4688121537095502,[2.12778044],5.0,0.6,0.0,0.02516247479477393,3.135975517014754,0.4999995286829222
4.022720813751221,1.4721339318940736,[2.12616818],5.0,0.6,0.0,0.0037756994510227647,3.12914141403058,0.49999998938789586
4.035824537277222,1.4776050959627003,[2.12462972],5.0,0.6,0.0,-0.010955148571630897,3.0790355102683846,0.4999999106605694
4.048954010009766,1.4826854625978536,[2.12315925],5.0,0.6,0.0,0.25542589458899567,3.028761861174374,0.4999514358905097
4.058760166168213,1.4867888356493237,[2.12174724],5.0,0.6,0.0,0.2826090980963817,2.9913995684223207,0.4999405498255511
4.067194700241089,1.4901106138338471,[2.120386],5.0,0.6,0.0,-0.05182388028694859,2.974704959689742,0.4999980007566414
4.076354265213013,1.4940185881685808,[2.11907297],5.0,0.6,0.0,-0.16249475710402372,2.970490053568841,0.49998034482815873
4.087379217147827,1.498512758653524,[2.11780858],5.0,0.6,0.0,-0.17813683353635543,2.9428931131788114,0.4999763786957732
4.097620725631714,1.5024207329882575,[2.11659151],5.0,0.6,0.0,-0.15806999972010724,2.91861853919663,0.49998140066131963
4.1065709590911865,1.5059379098895176,[2.11541882],5.0,0.6,0.0,-0.12842075523237542,2.8966384076049625,0.49998772357873
4.115720272064209,1.5096504855075141,[2.1142877],5.0,0.6,0.0,-0.09977828189819316,2.8746792956545324,0.499992589022415
4.124650478363037,1.513363061125511,[2.11319691],5.0,0.6,0.0,-0.0757047194263034,2.866587655185835,0.4999957337064852
4.1360979080200195,1.5178572316104544,[2.11214734],5.0,0.6,0.0,-0.05676786648849534,2.846081712480925,0.49999760110754593
4.143903017044067,1.5211790097949778,[2.11114034],5.0,0.6,0.0,-0.042401821681043124,2.8357869506922087,0.4999986616332929
4.153620004653931,1.5248915854129745,[2.11017677],5.0,0.6,0.0,-0.03172830374475893,2.8143885713533936,0.4999992506235187
4.164607048034668,1.5295811546146547,[2.10925629],5.0,0.6,0.0,-0.023891008224001024,2.7885975724118888,0.49999957511104043
4.17637825012207,1.5344661225330716,[2.10837723],5.0,0.6,0.0,0.25786898930742114,2.7563267245610605,0.49995050248292394
4.186706304550171,1.5385694955845415,[2.1075378],5.0,0.6,0.0,0.29516490980494814,2.7397414912497617,0.49993515030145025
4.199419736862183,1.543649862219695,[2.10673747],5.0,0.6,0.0,0.2431151936853082,2.716009749023337,0.49995600414418784
4.208632946014404,1.547167039120955,[2.10597697],5.0,0.6,0.0,0.169268246313435,2.7064172189323217,0.49997867208495694
4.2199547290802,1.551856608322635,[2.10525814],5.0,0.6,0.0,0.10040229152328736,2.691425480853621,0.49999249603730367
4.231649398803711,1.556741576241052,[2.104584],5.0,0.6,0.0,0.045019920256313885,2.678760660538417,0.4999984912563234
4.242518424987793,1.5612357467259954,[2.10395787],5.0,0.6,0.0,0.003961674381481747,2.6615746179116133,0.4999999883167351
4.254784345626831,1.5661207146444118,[2.10338336],5.0,0.6,0.0,-0.02473067649349725,2.6539002990305187,0.4999995447201071
4.263072729110718,1.5694424928289352,[2.10286424],5.0,0.6,0.0,-0.04369289439434882,2.638449507830764,0.49999857889002336
4.271160364151001,1.5727642710134586,[2.10240339],5.0,0.6,0.0,-0.055394873343660736,2.632999722029588,0.4999977157437032
4.279100656509399,1.5758906504812455,[2.10200389],5.0,0.6,0.0,-0.33790930054878343,2.6288331881259035,0.499915009564893
4.286580562591553,1.5790170299490323,[2.10166835],5.0,0.6,0.0,-0.37385432363798876,2.611088681033947,0.49989596815367965
4.295065879821777,1.5827296055670288,[2.10139804],5.0,0.6,0.0,-0.31908819233122715,2.605651572363323,0.4999242129108799
4.303421974182129,1.586246782468289,[2.10119533],5.0,0.6,0.0,-0.24168957594937746,2.600800040699783,0.4999565185888394
4.312665224075317,1.5897639593695492,[2.10106367],5.0,0.6,0.0,-0.16880876157440836,2.59555816793636,0.49997878771612897
4.324592113494873,1.5946489272879658,[2.10100816],5.0,0.6,0.0,-0.1092043290380094,2.602784132800425,0.49999112266662127
4.334923505783081,1.598752300339436,[2.10103333],5.0,0.6,0.0,-0.06388928168711969,2.569010969278938,0.49999696148512734
4.345107793807983,1.6028556733909058,[2.10113953],5.0,0.6,0.0,-0.031018603982420824,2.5619351858818575,0.49999928377271674
4.353664398193359,1.6059820528586928,[2.10132717],5.0,0.6,0.0,-0.008028218819835913,2.5594739225968945,0.49999995202167774
4.363656997680664,1.610085425910163,[2.10159621],5.0,0.6,0.0,-0.2685294820896479,2.5273759663359576,0.49994632558592367
4.374081373214722,1.6141887989616328,[2.10194665],5.0,0.6,0.0,-0.29155910266959845,2.550552260218324,0.49993672496358527
4.381602048873901,1.617705975862893,[2.10238058],5.0,0.6,0.0,-0.23024851716115452,2.516690890600515,0.49996053762489545
4.392129182815552,1.6220047476310997,[2.1028969],5.0,0.6,0.0,0.1253719453457583,2.5117832926202985,0.49998829955651497
4.400416135787964,1.625326525815623,[2.10349455],5.0,0.6,0.0,0.23064947734698915,2.5102880769681377,0.4999604000692539
4.411648273468018,1.62962529758383,[2.10417494],5.0,0.6,0.0,0.2325460609169528,2.502699109520699,0.499959746173759
4.419647932052612,1.6329470757683533,[2.10493897],5.0,0.6,0.0,0.1980030754828484,2.4988462738870156,0.49997081646661473
4.4306135177612305,1.6374412462532968,[2.10578708],5.0,0.6,0.0,0.15591367915606646,2.488469965909483,0.4999819046388071
4.438538074493408,1.6409584231545566,[2.10671613],5.0,0.6,0.0,0.11752035967404481,2.452524319355918,0.4999897191639296
4.449638843536377,1.6454525936395,[2.10772299],5.0,0.6,0.0,-0.18983669635712824,2.4793340314802266,0.4999731740346305
4.460340976715088,1.65014216284118,[2.10881079],5.0,0.6,0.0,-0.24708583487626312,2.4646558068212516,0.4999545553633544
4.469362735748291,1.6536593397424404,[2.1099816],5.0,0.6,0.0,-0.2099578576193244,2.4558630553467884,0.4999671861877117
4.478580713272095,1.6571765166437002,[2.1112302],5.0,0.6,0.0,-0.14697527046990305,2.4168793734502114,0.4999839199191548
4.489087820053101,1.6612798896951704,[2.11255156],5.0,0.6,0.0,-0.3619088469264632,2.445214171945565,0.4999025094026191
4.499444484710693,1.6653832627466405,[2.11394752],5.0,0.6,0.0,-0.3451127826957058,2.4322520388595747,0.4999113476479794
4.508234024047852,1.669291237081374,[2.11541555],5.0,0.6,0.0,-0.25274967297502754,2.3899754311807198,0.4999524481708105
4.517549991607666,1.6728084139826338,[2.11694608],5.0,0.6,0.0,-0.1505699693779131,2.390082630546829,0.4999831237453422
4.527034521102905,1.6767163883173675,[2.11853386],5.0,0.6,0.0,-0.06283662660352304,2.3863379876694806,0.49999706078657596
4.535876512527466,1.6802335652186273,[2.12017741],5.0,0.6,0.0,0.004329692378131175,2.382944970965302,0.49999998604529206
4.544661998748779,1.6837507421198874,[2.12187143],5.0,0.6,0.0,0.052059872783495866,2.346331494957373,0.4999979825071504
4.552761554718018,1.6870725203044108,[2.12360747],5.0,0.6,0.0,0.08383816381680743,2.3516910751238576,0.49999476775683815
4.561004877090454,1.690589697205671,[2.12538157],5.0,0.6,0.0,0.10343601321018697,2.352868358140081,0.49999203571555706
4.571260929107666,1.6946930702571408,[2.12719364],5.0,0.6,0.0,0.11414693685222746,2.3486587044284146,0.49999030091006574
4.579588174819946,1.698210247158401,[2.12903968],5.0,0.6,0.0,0.11859143166820885,2.312988380941722,0.499989530914355
4.591343402862549,1.7030952150768177,[2.13091603],5.0,0.6,0.0,0.11875058520704448,2.3433976950728868,0.49998950279609145
4.602623224258423,1.707784784278498,[2.13283028],5.0,0.6,0.0,0.11607461265984916,2.35820906979407,0.49998997055720146
4.611668586730957,1.7113019611797582,[2.13478842],5.0,0.6,0.0,0.11160126894497072,2.3134370992467095,0.499990728694021
4.6226372718811035,1.7156007329479648,[2.13678411],5.0,0.6,0.0,0.10605989179262554,2.3051627098344736,0.49999162653136026
4.632643699645996,1.719508707282698,[2.13881162],5.0,0.6,0.0,0.09995475083073693,2.297723311832666,0.4999925627851614
4.642886161804199,1.7238074790509048,[2.14086931],5.0,0.6,0.0,0.09362859769511855,2.2879520306088756,0.49999347439354364
4.652625799179077,1.7277154533856383,[2.14295525],5.0,0.6,0.0,0.08730970456284862,2.2789826048901745,0.49999432547846945
4.66486382484436,1.7329912187375285,[2.14507069],5.0,0.6,0.0,0.3571843820707471,2.2900783589461065,0.49990503789068763
4.676574468612671,1.7378761866559451,[2.14721967],5.0,0.6,0.0,0.10835426865613058,2.269188403869032,0.4999912603321033
4.688570022583008,1.742761154574362,[2.14940176],5.0,0.6,0.0,0.2905554022466274,2.249977908655862,0.4999371598385768
4.6975343227386475,1.7462783314756218,[2.15161265],5.0,0.6,0.0,0.29740535748501695,2.2389279807371874,0.499934162147581
4.7116992473602295,1.7519448942609854,[2.15385161],5.0,0.6,0.0,0.2429218775089504,2.2443766079964655,0.4999560740810494
4.722058534622192,1.7566344634626654,[2.15612068],5.0,0.6,0.0,0.17612583005906762,2.220886849180303,0.4999769089994087
4.732231616973877,1.7605424377973988,[2.15841712],5.0,0.6,0.0,0.11594287493746822,2.2033148242144622,0.49998999330970434
4.742852449417114,1.7648412095656056,[2.16073433],5.0,0.6,0.0,0.06793278251936037,2.185858688798342,0.49999656470539333
4.755507946014404,1.7697261774840223,[2.16306933],5.0,0.6,0.0,0.032149076061031616,2.1928240631817837,0.4999992306157122
4.764549493789673,1.7730479556685457,[2.165419],5.0,0.6,0.0,0.006715381196091828,2.1484421024694265,0.4999999664303006
4.773654460906982,1.7769559300032791,[2.16777353],5.0,0.6,0.0,-0.010633792485747976,2.1381350116644935,0.49999991582507824
4.782930850982666,1.781254701771486,[2.17012413],5.0,0.6,0.0,-0.021955801837297638,2.12579298286834,0.49999964115654
4.791374206542969,1.7847718786727458,[2.17246627],5.0,0.6,0.0,-0.02892241287560194,2.117135519852742,0.4999993773049885
4.80166220664978,1.7886798530074792,[2.17479574],5.0,0.6,0.0,-0.03281586060535276,2.1061003319910534,0.49999919837018264
4.813914060592651,1.7939556183593695,[2.17711159],5.0,0.6,0.0,-0.03458620435374922,2.1135272866031425,0.4999991095449349
4.824604034423828,1.7980589914108396,[2.17941557],5.0,0.6,0.0,-0.03492150885571925,2.093469612535486,0.49999909219583794
4.834319353103638,1.8021623644623095,[2.18170576],5.0,0.6,0.0,-0.0343119647587603,2.0750103399064512,0.4999991236101951
4.843552589416504,1.8058749400803065,[2.18397446],5.0,0.6,0.0,-0.03310224921417674,2.0342607916321422,0.4999991843175366
4.85441255569458,1.8105645092819864,[2.18621225],5.0,0.6,0.0,-0.03153189742638875,2.02301414286453,0.49999925987301425
4.866647005081177,1.815449477200403,[2.1884165],5.0,0.6,0.0,-0.02976540483889198,2.0338437969109875,0.4999993404777802
4.878932237625122,1.8201390464020832,[2.19059277],5.0,0.6,0.0,-0.027914203647420005,2.0349828024012138,0.49999941996258457
4.888524055480957,1.82385162202008,[2.19274531],5.0,0.6,0.0,-0.02605248406806198,2.0125331282896406,0.4999994947533614
4.897382736206055,1.8277595963548137,[2.19487218],5.0,0.6,0.0,-0.02422847447910926,1.9917067313063208,0.4999995630249201
4.90663743019104,1.8312767732560733,[2.196969],5.0,0.6,0.0,-0.022472427635188745,1.9747611216028107,0.49999962407284804
4.91797947883606,1.8357709437410168,[2.19903192],5.0,0.6,0.0,-0.020802244563867936,1.9542898962535984,0.49999967787659916
4.925561904907227,1.8388973232088037,[2.2010554],5.0,0.6,0.0,-0.019227417476105436,1.9197476611256536,0.49999972480402816
4.938671588897705,1.8443684872774304,[2.20303477],5.0,0.6,0.0,-0.01775178315202365,1.9243225955107275,0.4999997654269419
4.948616981506348,1.848667259045637,[2.20497056],5.0,0.6,0.0,-0.016375438021681576,1.905165953991668,0.49999980039473607
4.958528757095337,1.8523798346636338,[2.20686128],5.0,0.6,0.0,-0.01509606433007862,1.8690616923768306,0.4999998303699068
4.972539663314819,1.8578509987322607,[2.20870357],5.0,0.6,0.0,-0.013909843671289862,1.8715163023205172,0.4999998559909316
4.982379198074341,1.8619543717837308,[2.21049881],5.0,0.6,0.0,-0.012812082090178336,1.8533118623630758,0.4999998778351396
4.992519378662109,1.8662531435519374,[2.21224837],5.0,0.6,0.0,0.2642407256313218,1.8344597769847184,0.49994802634311936
5.00411057472229,1.8709427127536178,[2.21395336],5.0,0.6,0.0,0.2983017763566364,1.8324213064645059,0.49993376474819745
5.015323877334595,1.8754368832385613,[2.21561657],5.0,0.6,0.0,0.24406826037513654,1.807196687469627,0.49995565862473135
5.0245442390441895,1.8791494588565578,[2.21723681],5.0,0.6,0.0,0.16877944282596577,1.770225544091008,0.4999787952016102
5.0345776081085205,1.883252831908028,[2.21880972],5.0,0.6,0.0,0.09899034019245259,1.7559870232968053,0.49999270577318
5.046825408935547,1.8883331985431815,[2.22033522],5.0,0.6,0.0,0.0430441911798357,1.752365337030113,0.4999986210414668
5.0565338134765625,1.8924365715946512,[2.22181678],5.0,0.6,0.0,0.0016687112514100697,1.7323609430057532,0.4999999983043371
5.066279649734497,1.8965399446461213,[2.22325605],5.0,0.6,0.0,-0.02717369658050544,1.7134115134151666,0.49999945086270264
5.075571060180664,1.900447918980855,[2.22465314],5.0,0.6,0.0,-0.046174313350351284,1.69619961695642,0.49999841363245057
5.085558891296387,1.9043558933155882,[2.2260085],5.0,0.6,0.0,-0.05784166445177249,1.6799205261717054,0.4999975105281735
5.093538522720337,1.907482272783375,[2.22732283],5.0,0.6,0.0,-0.06423680732522623,1.6674121144312546,0.49999692964102976
5.1043381690979,1.9117810445515817,[2.22859702],5.0,0.6,0.0,-0.06694838031537562,1.6493401548209798,0.4999966654574328
5.113245248794556,1.915102822736105,[2.2298321],5.0,0.6,0.0,-0.06715526437120142,1.636488829776239,0.4999966453819594
5.122552156448364,1.9188153983541019,[2.23102924],5.0,0.6,0.0,-0.06571046744716036,1.6211406069379102,0.4999967892025326
5.132972955703735,1.9229187714055718,[2.23218964],5.0,0.6,0.0,-0.06321981505375744,1.60395060152986,0.499997029751029
5.143731355667114,1.9272175431737786,[2.23331451],5.0,0.6,0.0,-0.06010698337337805,1.5856683348508704,0.4999973178733711
5.1515278816223145,1.930539321358302,[2.23440387],5.0,0.6,0.0,-0.05666396418133387,1.5587327873717134,0.499997619430809
5.1615684032440186,1.9348380931265086,[2.23545796],5.0,0.6,0.0,0.22294952899184048,1.5575585465120065,0.49996301396672016
5.170568227767944,1.9385506687445055,[2.23647857],5.0,0.6,0.0,0.25964959705741714,1.528077312950479,0.4999498361005625
5.180535793304443,1.942263244362502,[2.23746624],5.0,0.6,0.0,0.208042734141232,1.5155057344020648,0.49996780901714966
5.190630197525024,1.9463666174139724,[2.23842049],5.0,0.6,0.0,0.13530983059327667,1.4873543227324477,0.4999864101661566
5.198559522628784,1.9496883955984958,[2.23934119],5.0,0.6,0.0,0.06796987566890013,1.4791463991977827,0.49999661255262084
5.206632137298584,1.953010173783019,[2.24022975],5.0,0.6,0.0,0.014345403128900841,1.4692530672468755,0.4999999151325977
5.215605974197388,1.9569181481177527,[2.24108987],5.0,0.6,0.0,-0.024846179138282694,1.4669484016235061,0.49999963724829505
5.22497296333313,1.9608261224524859,[2.24192379],5.0,0.6,0.0,-0.051645815957158656,1.4517074460648043,0.49999815148605714
5.236108064651489,1.964929495503956,[2.24273132],5.0,0.6,0.0,-0.06874356555465713,1.4431729253797514,0.4999966802604481
5.243566989898682,1.9680558749717427,[2.24351363],5.0,0.6,0.0,-0.07864381225662818,1.4135192613082859,0.4999956527066537
5.2515037059783936,1.9711822544395294,[2.24427088],5.0,0.6,0.0,-0.08340169040587868,1.3887771316293185,0.49999515497560226
5.262765645980835,1.9754810262077362,[2.24500238],5.0,0.6,0.0,-0.0845989087478517,1.3729472493840633,0.4999951626212819
5.271510124206543,1.9791936018257328,[2.24570983],5.0,0.6,0.0,-0.3594452959206486,1.3590983608533502,0.49990450861928365
5.28251576423645,1.9840785697441496,[2.24639587],5.0,0.6,0.0,-0.38983419866436864,1.3385674321084362,0.4998879406153486
5.291507005691528,1.9877911453621464,[2.2470629],5.0,0.6,0.0,-0.05501752983795691,1.3230388064229268,0.4999991961468626
5.299522638320923,1.9911129235466698,[2.24771301],5.0,0.6,0.0,0.05840201663632481,1.3090489126827551,0.4999993704087954
5.308542966842651,1.9944347017311932,[2.24834809],5.0,0.6,0.0,-0.19775720799514862,1.2950964022818936,0.4999734009713979
5.317544460296631,1.9979518786324533,[2.24896976],5.0,0.6,0.0,-0.245839098068107,1.2798589743780546,0.49995837808565396
5.327515602111816,2.0022506504006596,[2.24957948],5.0,0.6,0.0,-0.2148344581225708,1.2606104277361387,0.49997050502271906
5.337539196014404,2.00635402345213,[2.25017849],5.0,0.6,0.0,-0.16167682360319374,1.2419833543578143,0.4999874003405557
5.347539901733398,2.0102619977868637,[2.25076787],5.0,0.6,0.0,-0.10954575350653321,1.2246214962253523,0.5000005254027086
5.357515811920166,2.014169972121597,[2.25134854],5.0,0.6,0.0,-0.06633559143029452,1.206795453006837,0.5000097220893168
5.366864442825317,2.01807794645633,[2.25192127],5.0,0.6,0.0,-0.03341186543391008,1.1890768503005484,0.5000169649274369
5.374527215957642,2.0210089272073803,[2.2524867],5.0,0.6,0.0,-0.009654937409278287,1.1762656797476387,0.5000221090126398
5.3836846351623535,2.0245261041086406,[2.25304453],5.0,0.6,0.0,0.006752324592560548,1.1514808667405787,0.5000290846385912
5.396262168884277,2.0298018694605307,[2.25359453],5.0,0.6,0.0,0.017594586459646552,1.1386487465646584,0.5000444206880919
5.407480478286743,2.034296039945474,[2.25413895],5.0,0.6,0.0,0.02437375349108671,1.1260206719818244,0.5000629492440171
5.4177772998809814,2.038790210430417,[2.25467971],5.0,0.6,0.0,0.0282640772075523,1.093731804114841,0.5000888710503032
5.429455518722534,2.043675178348834,[2.25521677],5.0,0.6,0.0,0.030145862944026904,1.0801255280888526,0.5001290647451363
5.440521717071533,2.048169348833777,[2.25575086],5.0,0.6,0.0,-0.24537674987303043,1.0575981595047041,0.5001360003256029
5.448519468307495,2.051295728301564,[2.2562826],5.0,0.6,0.0,-0.2788914019118781,1.0423220299928881,0.5001660902990975
5.457911014556885,2.0552037026362977,[2.25681092],5.0,0.6,0.0,-0.224765009869922,1.015396189761035,0.5002572300600749
5.470046043395996,2.059697873121241,[2.25733491],5.0,0.6,0.0,-0.15000503600336293,1.0051979106376419,0.5003880655642405
5.479498624801636,2.0636058474559746,[2.2578546],5.0,0.6,0.0,-0.0810053833919509,0.9781850553580769,0.5005230617378189
5.491273880004883,2.0684908153743913,[2.25837004],5.0,0.6,0.0,-0.30203678329878436,0.9658852036019335,0.500670643970905
5.50152325630188,2.072594188425861,[2.25888201],5.0,0.6,0.0,-0.2947994150559759,0.9463012654315623,0.5009029698343109
5.51148247718811,2.076502162760595,[2.25939119],5.0,0.6,0.0,0.06414134922417195,0.9277205663389138,0.5012406188045349
5.519536018371582,2.0796285422283813,[2.25989663],5.0,0.6,0.0,-0.08471455373283475,0.9054187685796807,0.5014991241095936
5.531033039093018,2.084122712713325,[2.26039752],5.0,0.6,0.0,-0.09174342765486027,0.8949784505485188,0.5019938271265029
5.539576530456543,2.0878352883313216,[2.26089393],5.0,0.6,0.0,-0.05066759105065177,0.869624193684067,0.5025021067072721
5.548510789871216,2.091547863949318,[2.2613852],5.0,0.6,0.0,-0.001298435519221243,0.8544820416337854,0.5031230513125704
5.558520078659058,2.0958466357175247,[2.26187077],5.0,0.6,0.0,0.31741497006069347,0.8359204311683808,0.5039597886363697
5.570283889770508,2.100536204919205,[2.26235157],5.0,0.6,0.0,0.10641597809807837,0.8227487255255268,0.5053085886352973
5.578520774841309,2.1040533818204654,[2.26282838],5.0,0.6,0.0,0.03970077054102844,0.7976992514953044,0.5064602854139159
5.588075399398804,2.107961356155198,[2.26330045],5.0,0.6,0.0,0.3076827814306309,0.7806765968169198,0.5079476892437913
5.597600221633911,2.111673931773195,[2.26376712],5.0,0.6,0.0,0.3527901615352667,0.7644304472336679,0.5096966403155075
5.606906414031982,2.1155819061079284,[2.26422915],5.0,0.6,0.0,0.31332802636873935,0.7541292289562314,0.5119707778697483
5.61841082572937,2.120271475309609,[2.26468784],5.0,0.6,0.0,-0.025665983028480333,0.7306629176948882,0.5154329694709755
5.627506256103516,2.1237886522108687,[2.26514292],5.0,0.6,0.0,-0.12035404266753964,0.7063556411944598,0.5183744774158544
5.635537385940552,2.1271104303953923,[2.26559286],5.0,0.6,0.0,0.15909775303766346,0.6923373774171134,0.5215722005631004
5.643492698669434,2.130236809863179,[2.26603637],5.0,0.6,0.0,0.22797920826458545,0.6721702964811955,0.5249756928848252
5.655019760131836,2.1349263790648587,[2.26647302],5.0,0.6,0.0,0.21323378686519404,0.6596308335208377,0.5313675193798397
5.664578437805176,2.1388343533995924,[2.26690307],5.0,0.6,0.0,0.1718033358156018,0.6346693427971375,0.5375942702723309
5.675886154174805,2.1435239226012723,[2.26732673],5.0,0.6,0.0,0.12759045088835347,0.620859404719168,0.5466218077585812
5.684544324874878,2.146845700785796,[2.26774417],5.0,0.6,0.0,0.0893509849779502,0.5987317418389593,0.5537506971951724
5.697535037994385,2.1523168648544226,[2.26815558],5.0,0.6,0.0,0.05922824669432552,0.5804218696695993,0.568305865402735
5.705486059188843,2.155638643038946,[2.26856164],5.0,0.6,0.0,0.036731676019960406,0.5642334330400397,0.5780556217573227
5.714529752731323,2.1595466173736795,[2.26896295],5.0,0.6,0.0,0.020524299631723357,0.5453498176323264,0.5912282802692345
5.727589845657349,2.164626984008833,[2.26935995],5.0,0.6,0.0,0.009175153721757267,0.5267690191413896,0.6114923256630821
5.736544847488403,2.168144160910093,[2.26975301],5.0,0.6,0.0,0.001436593904143458,0.5025044318454011,0.6268345906831431
5.749577283859253,2.1738107236954565,[2.27014185],5.0,0.6,0.0,-0.003686269953322597,0.4815444156550349,0.6563063496050554
5.7607741355896,2.178109495463663,[2.27052729],5.0,0.6,0.0,-0.006949300339295964,0.46532150945778455,0.6811898317040299
5.768497467041016,2.1810404762147133,[2.27090997],5.0,0.6,0.0,-0.008910096970018879,0.44363981558179344,0.6988299267783697
5.778819561004639,2.1849484505494465,[2.27128888],5.0,0.6,0.0,-0.00997210180802028,0.4251871838617603,0.7251621561204653
5.789320468902588,2.189247222317653,[2.27166318],5.0,0.6,0.0,-0.010423249547922113,0.4047594835377794,0.7570516051017329
5.800524950027466,2.1939367915193335,[2.27203265],5.0,0.6,0.0,-0.01046690423704284,0.3825902053842807,0.7952913489874969
5.810486078262329,2.1978447658540667,[2.27239758],5.0,0.6,0.0,-0.010245448921974645,0.36940487677890427,0.8290239584276
5.819774627685547,2.2015573414720637,[2.27275872],5.0,0.6,0.0,-0.009857759308476783,0.35051512471374896,0.8627913020220196
5.828196287155151,2.204879119656587,[2.27311574],5.0,0.6,0.0,-0.009371910165700804,0.3288594290665523,0.8940618876121369
5.837494373321533,2.20878709399132,[2.27346741],5.0,0.6,0.0,-0.008834302069593005,0.31142185935403566,0.9331337141848627
5.84849214553833,2.213281264476264,[2.27381322],5.0,0.6,0.0,-0.008276161503964378,0.29065818631143253,0.9805501892454646
5.860588312149048,2.218166232394681,[2.27415363],5.0,0.6,0.0,-0.007718142252578563,0.2726459825121433,1.034235884146276
5.86983847618103,2.2218788080126775,[2.27448904],5.0,0.6,0.0,-0.007173568015081321,0.24913976720339828,1.0748953004325068
5.879051923751831,2.2259821810641474,[2.27481891],5.0,0.6,0.0,-0.006650709361009692,0.23038062282263272,1.1206392233223492
5.8915722370147705,2.2306717502658273,[2.27514324],5.0,0.6,0.0,-0.0061543777568325315,0.21305043535043747,1.1733145420743305
5.900268316268921,2.2341889271670876,[2.27546246],5.0,0.6,0.0,-0.0056870383343331395,0.19093157773070407,1.2112715779314231
5.910352468490601,2.238096901501821,[2.27577615],5.0,0.6,0.0,-0.005249584424590216,0.17308875903442206,1.2528079440184638
5.9246134757995605,2.2441542617206576,[2.27608433],5.0,0.6,0.0,-0.004841874879774232,0.14856374644182563,1.315539115330164
5.9339516162872314,2.2480622360553912,[2.27638784],5.0,0.6,0.0,-0.0044631053353591825,0.12883541537364898,1.3517451365564672
5.942115306854248,2.250993216806441,[2.27668695],5.0,0.6,0.0,-0.0041120634205244234,0.11438503041620551,1.3763115699627408
5.949610710144043,2.2539241975574913,[2.27698116],5.0,0.6,0.0,-0.0037873030051801667,0.09603856613627189,1.3991326704331355
5.957501411437988,2.2570505770252782,[2.27726967],5.0,0.6,0.0,-0.003487262075525097,0.08228224161721236,1.4214908943987132
5.965888977050781,2.2601769564930647,[2.27755188],5.0,0.6,0.0,-0.003210341451986779,0.06422383670089335,1.441408981879146
5.976261138916016,2.2644757282612713,[2.27782731],5.0,0.6,0.0,-0.002954956388089809,0.04535763226743957,1.4649751519356353
5.986769676208496,2.2685791013127417,[2.27809595],5.0,0.6,0.0,-0.002719569459917335,0.026928969142482745,1.4820489681807505
5.995284080505371,2.271900879497265,[2.27835825],5.0,0.6,0.0,-0.2785410702928251,0.012171167983497927,1.4916373996852903
6.006127834320068,2.276004252548735,[2.27861457],5.0,0.6,0.0,-0.587504310983161,-0.006729688321981981,1.4983813021486605
6.016538858413696,2.2797168281667317,[2.27886527],5.0,0.6,0.0,-1.1174244841232333,-0.02349411624222941,1.4989263581608094
6.026071786880493,2.2830386063512553,[2.27911069],5.0,0.6,0.0,-1.3283605031273815,-0.03864136869079132,1.4956072500349713
6.034569978713989,2.2857741883855685,[2.27935081],5.0,0.6,0.0,-1.932642174208842,-0.05421332440899785,1.4890093102769495
6.044487714767456,2.2887051691366187,[2.27958534],5.0,0.6,0.0,-2.5255759216631266,-0.06593257501722284,1.4787776174352523
6.05246639251709,2.291049953737459,[2.27981436],5.0,0.6,0.0,-2.9718913146332824,-0.07526750149944898,1.4685367455064475
6.062396764755249,2.293785535771772,[2.28003831],5.0,0.6,0.0,-4.078648056055599,-0.08596950393348567,1.4506768768864013
6.07265305519104,2.296325719089349,[2.28025786],5.0,0.6,0.0,-4.8628009944579444,-0.09292863858431516,1.4323787501085825
6.082122087478638,2.298475104973452,[2.28047355],5.0,0.6,0.0,-5.0,-0.10531080030302481,1.418976494710022
6.093347549438477,2.300429092140819,[2.28068561],5.0,0.6,0.0,-5.0,-0.10811735703368044,1.406732538983082
6.101579666137695,2.3019922818747123,[2.28089427],5.0,0.6,0.0,-5.0,-0.11692998812838144,1.3965545745755255
6.109530210494995,2.3031646741751324,[2.28109942],5.0,0.6,0.0,-5.0,-0.11998502681594031,1.3889477294956794
6.122020483016968,2.3047278639090254,[2.28130122],5.0,0.6,0.0,-5.0,-0.12083679745122701,1.3777798478691314
6.129439115524292,2.305509458775972,[2.28150018],5.0,0.6,0.0,-5.0,-0.12575477535725693,1.3728405353814819
6.137584209442139,2.306095654926182,[2.28169591],5.0,0.6,0.0,-5.0,-0.12823553152604675,1.3694781139076218
6.148524761199951,2.3068772497931285,[2.28188776],5.0,0.6,0.0,-5.0,-0.1280588766081203,1.3643217119167903
6.1597442626953125,2.307463445943339,[2.28207605],5.0,0.6,0.0,-5.0,-0.12358900422194595,1.3607904743484704
6.169885158538818,2.3076588446600756,[2.28226169],5.0,0.6,0.0,-5.0,-0.12131789491965188,1.360703311449723
6.178476810455322,2.307854243376812,[2.28244493],5.0,0.6,0.0,-5.0,-0.12250807238902017,1.3605947311674684
6.189939737319946,2.307854243376812,[2.28262568],5.0,0.6,0.0,-5.0,-0.11573149769128525,1.3622050336494615
6.20034122467041,2.3076588446600756,[2.28280442],5.0,0.6,0.0,-5.0,-0.11147425357263596,1.3655108319394809
6.2084431648254395,2.307463445943339,[2.28298132],5.0,0.6,0.0,-4.360834187881222,-0.11073937127717277,1.373073754019601
6.221526384353638,2.3070726485098656,[2.28315628],5.0,0.6,0.0,-3.6972358508643546,-0.10252778768930441,1.3818296333714777
6.230492115020752,2.3064864523596555,[2.28332972],5.0,0.6,0.0,-2.8314487349744786,-0.09700844729130167,1.3923714792936883
6.239454746246338,2.306095654926182,[2.28350182],5.0,0.6,0.0,-1.4790022801294738,-0.09598494505942595,1.401316890091577
6.251129150390625,2.3051186613424988,[2.28367242],5.0,0.6,0.0,-0.48510667687860076,-0.0853988365809968,1.4119407432943083
6.259571552276611,2.3045324651922887,[2.28384168],5.0,0.6,0.0,0.21031666766383394,-0.08376789029405074,1.4179084784178033
6.2711381912231445,2.303750870325342,[2.28400969],5.0,0.6,0.0,0.6749777094270878,-0.07411361216554534,1.424678283452797
6.279553651809692,2.3031646741751324,[2.28417659],5.0,0.6,0.0,1.2449863189260473,-0.07249230502188733,1.429276541611538
6.287493467330933,2.302187680591449,[2.28434223],5.0,0.6,0.0,2.0017137332826076,-0.06538516334960125,1.4353201239971167
6.2987706661224365,2.301210687007765,[2.28450675],5.0,0.6,0.0,2.098689109918867,-0.05555264101696353,1.442456237306351
6.310473442077637,2.3002336934240817,[2.28467076],5.0,0.6,0.0,2.4916914588865944,-0.04954895931544804,1.4481132363242535
6.322372913360596,2.299061301123662,[2.28483451],5.0,0.6,0.0,2.5994053894559013,-0.04240029059102595,1.4553234569847835
6.332542419433594,2.297888908823242,[2.28499798],5.0,0.6,0.0,2.8396362974979334,-0.035287735680030435,1.4613443872056724
6.34147572517395,2.296716516522822,[2.28516111],5.0,0.6,0.0,3.318856523866912,-0.02835983374603917,1.465515375859947
6.350515604019165,2.2957395229391384,[2.2853241],5.0,0.6,0.0,3.7441531894406537,-0.019691540940564606,1.4682101030509123
6.358511924743652,2.294762529355455,[2.28548688],5.0,0.6,0.0,4.026350263706039,-0.013560928375777133,1.4710162752492895
6.368644952774048,2.293785535771772,[2.28564884],5.0,0.6,0.0,4.160535622295232,-0.005847263023237034,1.4741251348741935
6.376532554626465,2.2928085421880886,[2.28580976],5.0,0.6,0.0,4.171639562837207,-0.004072577613480577,1.477463137652457
6.387494087219238,2.291245352454195,[2.28596943],5.0,0.6,0.0,4.0909418633109444,0.004496590088891544,1.4821441762599141
6.396533250808716,2.2904637575872484,[2.28612767],5.0,0.6,0.0,4.222963655911664,0.009062239469831644,1.4831462086266392
6.4054765701293945,2.289682162720302,[2.28628458],5.0,0.6,0.0,4.3477214205121815,0.013547132438061393,1.4838189431901556
6.415207386016846,2.2887051691366187,[2.28644023],5.0,0.6,0.0,4.394263535776398,0.018985752520635838,1.4848051461189882
6.423504829406738,2.2881189729864087,[2.28659445],5.0,0.6,0.0,4.630084407303485,0.019797691089213382,1.4838290268137693
6.437237739562988,2.2871419794027252,[2.28674732],5.0,0.6,0.0,5.0,0.030719449330365946,1.4817009109566621
6.446514844894409,2.2865557832525156,[2.2868994],5.0,0.6,0.0,5.0,0.030231950544173092,1.481708447284963
6.45532751083374,2.286164985819042,[2.2870507],5.0,0.6,0.0,5.0,0.03192355407380431,1.481575176673914
6.46348762512207,2.2857741883855685,[2.28720071],5.0,0.6,0.0,5.0,0.031213799948179695,1.4813251532491778
6.473188161849976,2.2855787896688318,[2.28734924],5.0,0.6,0.0,5.0,0.035167820912398826,1.4811053582274587
6.4817728996276855,2.2853833909520955,[2.2874964],5.0,0.6,0.0,5.0,0.03326862289281929,1.480839500338278
6.4924280643463135,2.2851879922353584,[2.28764205],5.0,0.6,0.0,5.0,0.03417537118547008,1.4805283049382585
6.502473592758179,2.2851879922353584,[2.28778609],5.0,0.6,0.0,5.0,0.03407476678049633,1.480382955057038
6.514556884765625,2.2849925935186217,[2.28792884],5.0,0.6,0.0,5.0,0.03719458244365905,1.4800092435324035
6.523660182952881,2.2849925935186217,[2.28807058],5.0,0.6,0.0,4.933761593722675,0.03393072249633214,1.4803112002977619
6.532479524612427,2.2849925935186217,[2.28821113],5.0,0.6,0.0,4.52547859157311,0.03420025307077594,1.4829151299546537
6.54239821434021,2.2851879922353584,[2.28835035],5.0,0.6,0.0,4.030325256862217,0.03334438429949196,1.4860552505251503
6.5545477867126465,2.2849925935186217,[2.28848855],5.0,0.6,0.0,3.552914905579304,0.03657507204333189,1.4882496769196476
6.5634541511535645,2.2851879922353584,[2.28862597],5.0,0.6,0.0,2.8532524231583265,0.03284456033443888,1.4916152237462905
6.5728676319122314,2.2851879922353584,[2.28876243],5.0,0.6,0.0,2.1807215970929663,0.033173556996955275,1.4939204132750405
6.585186004638672,2.2853833909520955,[2.28889795],5.0,0.6,0.0,1.3425010024827448,0.03522923450987884,1.4961927770214631
6.596498966217041,2.2853833909520955,[2.28903303],5.0,0.6,0.0,0.5940802033472241,0.03516123070587259,1.49707692114257
6.6072447299957275,2.2853833909520955,[2.28916805],5.0,0.6,0.0,0.28568428742881646,0.03736486028469522,1.4970786264394058
6.61543345451355,2.2855787896688318,[2.28930311],5.0,0.6,0.0,-0.10189496319700525,0.03368452955706474,1.4972220074363296
6.62350058555603,2.2855787896688318,[2.28943787],5.0,0.6,0.0,-0.44010845042134494,0.03405111221725886,1.4968817675308368
6.632437705993652,2.2855787896688318,[2.28957203],5.0,0.6,0.0,-0.692884297852725,0.03477477486573033,1.4964586328544953
6.642751693725586,2.2857741883855685,[2.28970537],5.0,0.6,0.0,-0.8618072026845793,0.03216761293875058,1.496361360118211
6.6514832973480225,2.2857741883855685,[2.28983753],5.0,0.6,0.0,-0.9612924216491188,0.033679862829297,1.4960158794914655
6.662357807159424,2.2857741883855685,[2.28996844],5.0,0.6,0.0,-1.0079810051013303,0.03479344070847186,1.4957320675162702
6.671086549758911,2.285969587102305,[2.29009826],5.0,0.6,0.0,-0.7406641093227544,0.03454877933488896,1.4961884149182303
6.679527282714844,2.285969587102305,[2.29022688],5.0,0.6,0.0,-0.6901780497966048,0.03292205730254533,1.4960271808298662
6.688482284545898,2.285969587102305,[2.29035403],5.0,0.6,0.0,-0.7108217342561435,0.03437288148214015,1.4957867400139722
6.69744086265564,2.285969587102305,[2.29047967],5.0,0.6,0.0,-0.7419170354206888,0.0353580727558147,1.4955305144411644
6.7064528465271,2.285969587102305,[2.29060404],5.0,0.6,0.0,-1.0376050051966157,0.03691217999235403,1.4949127907972803
6.714446544647217,2.285969587102305,[2.29072736],5.0,0.6,0.0,-1.073821480266941,0.03772319219683131,1.4946253189350442
6.724008083343506,2.286164985819042,[2.29084984],5.0,0.6,0.0,-1.0067211460154961,0.03755174922397702,1.4948661821878217
6.731474876403809,2.285969587102305,[2.2909714],5.0,0.6,0.0,-0.907021208918031,0.03702175564789855,1.494396841895531
6.741417407989502,2.285969587102305,[2.291092],5.0,0.6,0.0,-1.0809212929243297,0.0406001398049467,1.4938969297947453
6.751845598220825,2.285969587102305,[2.2912118],5.0,0.6,0.0,-1.0208701525710708,0.03897863749995855,1.4937437153604274
6.7632739543914795,2.285969587102305,[2.29133097],5.0,0.6,0.0,-0.8846459928103008,0.042484483557316696,1.4936853707345774
6.772511005401611,2.285969587102305,[2.29144968],5.0,0.6,0.0,-0.7391609592411348,0.04062526422300178,1.4936051724237582
6.78217339515686,2.285969587102305,[2.29156784],5.0,0.6,0.0,-0.6094661491729133,0.04141098699883597,1.493475095130982
6.78961706161499,2.285969587102305,[2.29168514],5.0,0.6,0.0,-0.5021842111948832,0.040172225921200753,1.4933000915342474
6.803212642669678,2.285969587102305,[2.29180172],5.0,0.6,0.0,-0.4164765757113821,0.04545129611629935,1.4930912374518395
6.812471628189087,2.286164985819042,[2.29191803],5.0,0.6,0.0,-0.3490025974644474,0.04229062929635067,1.4933116977619236
6.822422027587891,2.286164985819042,[2.29203408],5.0,0.6,0.0,-0.296031881545032,0.042784996259751996,1.493069188281682
6.835459470748901,2.285969587102305,[2.29214987],5.0,0.6,0.0,-0.2542432695412257,0.04640180417513467,1.4923418171965532
6.8468406200408936,2.285969587102305,[2.2922659],5.0,0.6,0.0,-0.22094421204447423,0.048003653356385755,1.4920663050113299
6.855618238449097,2.286164985819042,[2.29238237],5.0,0.6,0.0,-0.19405428147884324,0.04451104768994864,1.4922706094836062
6.864653825759888,2.285969587102305,[2.29249886],5.0,0.6,0.0,-0.17200852521475724,0.04559470176257405,1.4914879465661146
6.872482538223267,2.285969587102305,[2.29261482],5.0,0.6,0.0,-0.15364718446336778,0.04407292143021992,1.4911894828869081
6.882408857345581,2.285969587102305,[2.2927298],5.0,0.6,0.0,-0.13811711403627036,0.04494414328959874,1.490887345457631
6.892505645751953,2.285969587102305,[2.29284355],5.0,0.6,0.0,-0.12479202066630782,0.045440762017643715,1.490582644736773
6.901594638824463,2.285969587102305,[2.29295617],5.0,0.6,0.0,-0.11321119340104024,0.047869860876187685,1.4902754965318774
6.9137890338897705,2.285969587102305,[2.29306787],5.0,0.6,0.0,-0.10303384268107271,0.04759672045062162,1.4899655777474852
6.924367427825928,2.286164985819042,[2.29317865],5.0,0.6,0.0,-0.09400570193331279,0.046647753051289896,1.490203375376105
6.934664964675903,2.285969587102305,[2.29328831],5.0,0.6,0.0,-0.0859348851154784,0.047745180967112444,1.4893389465620854
6.942453861236572,2.285969587102305,[2.29339657],5.0,0.6,0.0,-0.07867456317708263,0.04639600021453577,1.489024018002144
6.956463813781738,2.285969587102305,[2.29350314],5.0,0.6,0.0,-0.07211058700003645,0.04824140487020022,1.4887094225476798
6.964423894882202,2.286164985819042,[2.29360791],5.0,0.6,0.0,-0.0661526625877832,0.04610154492131953,1.4889784696835973
6.97503399848938,2.285969587102305,[2.29371066],5.0,0.6,0.0,-0.060728060531067954,0.047463411224052385,1.4880839498025846
6.983457088470459,2.285969587102305,[2.29381108],5.0,0.6,0.0,-0.05577712593723903,0.04672852353214601,1.4877751819782894
6.9955902099609375,2.285969587102305,[2.29390907],5.0,0.6,0.0,-0.05125006432804016,0.04888279125175813,1.4874700905041482
7.00408411026001,2.285969587102305,[2.29400479],5.0,0.6,0.0,-0.0471046307537034,0.04907363451607236,1.487168455417173
7.013416767120361,2.285969587102305,[2.29409835],5.0,0.6,0.0,-0.043304458216671796,0.04915560777253251,1.4868701779389946
7.022289037704468,2.286164985819042,[2.2941897],5.0,0.6,0.0,-0.039817839017088456,0.048245801673605274,1.4872021957045984
7.03148341178894,2.285969587102305,[2.2942788],5.0,0.6,0.0,-0.036616827571879174,0.0495549427287209,1.4862853129278941
7.042140245437622,2.285969587102305,[2.29436564],5.0,0.6,0.0,-0.03367657206730557,0.04966303926898765,1.4859993488240268
7.051086902618408,2.285969587102305,[2.2944502],5.0,0.6,0.0,-0.03097480965667799,0.04966138897493494,1.4857180974226574
7.058415174484253,2.285969587102305,[2.29453235],5.0,0.6,0.0,-0.02849147916444006,0.048949024471363345,1.485442208104171
7.06850266456604,2.285969587102305,[2.29461192],5.0,0.6,0.0,-0.026208418793475602,0.04924911671030398,1.485172519154613
7.076493978500366,2.285969587102305,[2.29468884],5.0,0.6,0.0,-0.024109125846522746,0.0495722199242494,1.4849094953106357
7.08667254447937,2.285969587102305,[2.29476316],5.0,0.6,0.0,-0.02217856215986437,0.04996034966021888,1.4846532085367452
7.095477104187012,2.285969587102305,[2.29483496],5.0,0.6,0.0,-0.020402993649567498,0.050195574842789435,1.484403630370007
7.105749845504761,2.285969587102305,[2.29490439],5.0,0.6,0.0,-0.018769855679220678,0.051440305898108864,1.4841603933894496
7.1145179271698,2.285969587102305,[2.29497155],5.0,0.6,0.0,-0.017267638288953006,0.051785202185687856,1.4839233468352786
7.128107309341431,2.285969587102305,[2.29503642],5.0,0.6,0.0,-0.015885786970154244,0.05299372229951874,1.483692726337761
7.136515140533447,2.285969587102305,[2.29509912],5.0,0.6,0.0,-0.014614615833298365,0.05170903413446782,1.4834683450848083
7.146426439285278,2.285969587102305,[2.29515966],5.0,0.6,0.0,-0.013445230841031167,0.051593025827628675,1.4832502276266506
7.155456066131592,2.285969587102305,[2.29521805],5.0,0.6,0.0,-0.0123694613657599,0.051658369671019694,1.483038547720259
7.165077447891235,2.285969587102305,[2.29527437],5.0,0.6,0.0,-0.011379798750873731,0.05156110757058331,1.482833162165195
7.173588037490845,2.285969587102305,[2.29532868],5.0,0.6,0.0,-0.01046934085684946,0.051633240113686765,1.4826339666313655
7.183398962020874,2.285969587102305,[2.29538098],5.0,0.6,0.0,-0.009631741792525138,0.05106765386189439,1.4824410470995855
7.195171594619751,2.285969587102305,[2.29543131],5.0,0.6,0.0,-0.008861166192075536,0.051923001738074424,1.4822544339232044
7.208000659942627,2.285969587102305,[2.29547986],5.0,0.6,0.0,-0.008152247516774083,0.05248119545150763,1.4820735355808659
7.215429782867432,2.286164985819042,[2.29552678],5.0,0.6,0.0,-0.007500049949476333,0.05088082952604144,1.4826240454405542
7.226416110992432,2.285969587102305,[2.2955721],5.0,0.6,0.0,-0.006900033517348655,0.05197343589439052,1.4817273315321309
7.236408710479736,2.285969587102305,[2.29561581],5.0,0.6,0.0,-0.006348022130641793,0.05205774755689702,1.4815621266608852
7.246964693069458,2.285969587102305,[2.295658],5.0,0.6,0.0,-0.005840174266467034,0.05218429209275439,1.48140202410004
7.254718065261841,2.285969587102305,[2.29569873],5.0,0.6,0.0,-0.005372956059543208,0.052362967955110244,1.4812468132673546
7.263407468795776,2.285969587102305,[2.29573802],5.0,0.6,0.0,-0.004943116588855201,0.05182859604278131,1.4810964671530389
7.274868011474609,2.285969587102305,[2.2957759],5.0,0.6,0.0,-0.004547665171599593,0.05256136033894661,1.480951013988704
7.284403324127197,2.286164985819042,[2.2958124],5.0,0.6,0.0,-0.004183850494768571,0.05109701094643076,1.4815576358063514
7.295087099075317,2.285969587102305,[2.29585098],5.0,0.6,0.0,-0.0038491414310149567,0.08985064597072182,1.4806610435398286
7.304088115692139,2.285969587102305,[2.29589669],5.0,0.6,0.0,-0.003541209399613261,0.06563887908870888,1.4804834779215765
7.3147454261779785,2.285969587102305,[2.29594955],5.0,0.6,0.0,-0.0032579121457998496,0.0668384187607087,1.4802771338039882
7.323445558547974,2.285969587102305,[2.29600797],5.0,0.6,0.0,-0.0029972788228448174,0.06515580704600193,1.4800479031428895
7.334946393966675,2.285969587102305,[2.29607186],5.0,0.6,0.0,-0.0027574962711134996,0.06600210144742225,1.479795709674195
7.343461513519287,2.285969587102305,[2.29614086],5.0,0.6,0.0,-0.002536896397291802,0.06303293784870218,1.479521645451107
7.3525474071502686,2.286164985819042,[2.29621416],5.0,0.6,0.0,-0.0023339445650156295,0.06099214767439744,1.4800054152465945
7.362199306488037,2.285969587102305,[2.29629085],5.0,0.6,0.0,-0.0021472289154694,0.06103645940627321,1.4789196773008255
7.3734130859375,2.285969587102305,[2.29637011],5.0,0.6,0.0,-0.0019754505431903617,0.06038728459867499,1.4785981667898354
7.381993055343628,2.285969587102305,[2.29645111],5.0,0.6,0.0,-0.001817414458406092,0.05934719951976602,1.478267175414433
7.390588283538818,2.285969587102305,[2.29653295],5.0,0.6,0.0,-0.0016720212728032736,0.05844029528169979,1.4779302565084154
7.398444175720215,2.285969587102305,[2.2966147],5.0,0.6,0.0,-0.0015382595507277856,0.05751690688789764,1.477591186527176
7.4065001010894775,2.285969587102305,[2.29669549],5.0,0.6,0.0,-0.001415198772493703,0.05692472936234366,1.4772536981953535
7.416427135467529,2.285969587102305,[2.2967745],5.0,0.6,0.0,-0.0013019828607711028,0.05645197413413198,1.47692126603473
7.426001310348511,2.285969587102305,[2.29685102],5.0,0.6,0.0,-0.0011978242249632422,0.05600455774795838,1.476597072090631
7.438371896743774,2.285969587102305,[2.2969244],5.0,0.6,0.0,-0.0011019982821038627,0.05539739464139985,1.4762841557881505
7.4475319385528564,2.285969587102305,[2.29699405],5.0,0.6,0.0,-0.0010138384161319299,0.055323357132536236,1.4759852936219695
7.458417654037476,2.285969587102305,[2.29705949],5.0,0.6,0.0,-0.0009327313404588389,0.05489880195297491,1.4757028352450077
7.4705970287323,2.285969587102305,[2.29712028],5.0,0.6,0.0,-0.0008581128315543559,0.054179180935931714,1.4754390547982803
7.478419780731201,2.285969587102305,[2.29717603],5.0,0.6,0.0,-0.0007894638038625642,0.05450128433619637,1.475195945337576
7.487436771392822,2.285969587102305,[2.29722652],5.0,0.6,0.0,-0.0007263066987363502,0.054281970485782836,1.4749747474436519
7.501282215118408,2.285969587102305,[2.29727157],5.0,0.6,0.0,-0.000668202162265395,0.053551766714006487,1.4747765941671753
7.513416290283203,2.285969587102305,[2.29731093],5.0,0.6,0.0,-0.0006147459888837302,0.05307359645111763,1.474602860531295
7.523419380187988,2.285969587102305,[2.29734449],5.0,0.6,0.0,-0.0005655663094927285,0.053678097580655885,1.4744542869134354
7.531469106674194,2.285969587102305,[2.29737236],5.0,0.6,0.0,-0.0005203210045370981,0.05379244907642068,1.4743305749295927
7.541372060775757,2.285969587102305,[2.29739472],5.0,0.6,0.0,-0.00047869532403678136,0.0537645878149989,1.4742310917932702
7.551792860031128,2.285969587102305,[2.29741171],5.0,0.6,0.0,-0.000440399698017695,0.05323228483266864,1.4741554153894891
7.5605692863464355,2.285969587102305,[2.2974235],5.0,0.6,0.0,-0.00040516772210897874,0.054094578886245116,1.4741028286401316
7.569919586181641,2.285969587102305,[2.29743042],5.0,0.6,0.0,-0.0003727543042931495,0.053913740762481156,1.4740719305797179
7.577521562576294,2.285969587102305,[2.29743281],5.0,0.6,0.0,-0.00034293395991672035,0.05403905219507679,1.4740612621318854
7.586413621902466,2.285969587102305,[2.29743102],5.0,0.6,0.0,-0.0003154992431002985,0.05456252416515098,1.4740692251047078
7.594393253326416,2.285969587102305,[2.29742547],5.0,0.6,0.0,-0.000290259303636116,0.05424925779651796,1.4740940022225086
7.606511831283569,2.285969587102305,[2.29741646],5.0,0.6,0.0,-0.0002670385593339158,0.05386182303630171,1.474134233860906
7.614407777786255,2.285969587102305,[2.29740426],5.0,0.6,0.0,-0.00024567547457928407,0.05440101552003706,1.4741885940768025
7.62236475944519,2.285969587102305,[2.29738932],5.0,0.6,0.0,-0.00022602143660739905,0.05475483708982159,1.4742551407573379
7.63501238822937,2.285969587102305,[2.29737203],5.0,0.6,0.0,-0.00020793972167492764,0.05419523447684283,1.4743320388278307
7.643401145935059,2.285969587102305,[2.29735283],5.0,0.6,0.0,-0.0001913045439382174,0.05607153260236274,1.47441728913866
7.651394367218018,2.285969587102305,[2.29733262],5.0,0.6,0.0,-0.0001760001804212589,0.05898007342930955,1.474506896328482
7.661484241485596,2.285969587102305,[2.2973122],5.0,0.6,0.0,-0.00016192016598622755,0.055919642829273114,1.474597263368977
7.671005010604858,2.285969587102305,[2.29729172],5.0,0.6,0.0,-0.00014896655270639768,0.056329900947674996,1.4746877319605172
7.681447744369507,2.285969587102305,[2.29727131],5.0,0.6,0.0,-0.0001370492284892338,0.056408594345387836,1.4747777524799484
7.694703102111816,2.285969587102305,[2.29725124],5.0,0.6,0.0,-0.00012608529020963886,0.05611009164919912,1.4748661064428594
7.707377195358276,2.285969587102305,[2.29723168],5.0,0.6,0.0,-0.00011599846699254805,0.0559212691482588,1.4749521098530212
7.716413736343384,2.285969587102305,[2.29721273],5.0,0.6,0.0,-0.00010671858963292082,0.05595027178943023,1.475035231653625
7.72506856918335,2.285969587102305,[2.29719454],5.0,0.6,0.0,-9.818110246213058e-05,0.055828804821144204,1.475114941134423
7.737481355667114,2.285969587102305,[2.29717719],5.0,0.6,0.0,-9.032661426505048e-05,0.05572800332817642,1.475190853499543
7.747592210769653,2.285969587102305,[2.29716075],5.0,0.6,0.0,-8.310048512376961e-05,0.05573797440179073,1.4752626947598646
7.756639719009399,2.285969587102305,[2.29714527],5.0,0.6,0.0,-7.645244631381434e-05,0.055675138673279584,1.475330223677187
7.767430782318115,2.285969587102305,[2.29713078],5.0,0.6,0.0,-7.033625060867148e-05,0.05550192461652365,1.4753933373356898
7.776412487030029,2.2857741883855685,[2.29711729],5.0,0.6,0.0,-6.470935055995148e-05,0.05647446162845769,1.4745950747845422
7.786313772201538,2.285969587102305,[2.29710479],5.0,0.6,0.0,-5.953260251513695e-05,0.05543027321062621,1.4755064180966129
7.800060749053955,2.2857741883855685,[2.29709326],5.0,0.6,0.0,-5.476999431391315e-05,0.05635511043974966,1.4747012500742165
7.808384895324707,2.2857741883855685,[2.29708268],5.0,0.6,0.0,-5.038839476879114e-05,0.056329580808392524,1.4747479188197754
7.8184003829956055,2.2857741883855685,[2.29707302],5.0,0.6,0.0,-4.635732318728153e-05,0.05632784040127893,1.4747904686769622
7.827396392822266,2.2855787896688318,[2.29706426],5.0,0.6,0.0,-0.27608100841601324,0.05736990622593866,1.4739050545613628
7.83939003944397,2.2855787896688318,[2.29705634],5.0,0.6,0.0,-0.30920219967846835,0.05744920797229221,1.4739260555688487
7.85106086730957,2.2855787896688318,[2.29704921],5.0,0.6,0.0,-0.254101804139536,0.05747330871008394,1.4739810135201856
7.858588695526123,2.2855787896688318,[2.29704284],5.0,0.6,0.0,-0.17801391115327958,0.05746335102794785,1.4740339622192096
7.869239091873169,2.2855787896688318,[2.29703717],5.0,0.6,0.0,-0.10748857672253412,0.057389007662061904,1.4740742629088917
7.8784050941467285,2.2853833909520955,[2.29703216],5.0,0.6,0.0,-0.05086433676783463,0.05843214771985648,1.4732242789058616
7.890679359436035,2.2853833909520955,[2.29702774],5.0,0.6,0.0,-0.008864482784600617,0.05834624155816445,1.4732461695321752
7.903029441833496,2.2851879922353584,[2.29702387],5.0,0.6,0.0,0.020552720452422256,0.05937674092306871,1.4723709399185623
7.912512302398682,2.2851879922353584,[2.2970205],5.0,0.6,0.0,0.040082408888701675,0.05937742786574382,1.4723855591393897
7.923492670059204,2.2851879922353584,[2.29701759],5.0,0.6,0.0,0.05223668784958392,0.059367846068684345,1.4723981027295547
7.932416915893555,2.2851879922353584,[2.29701509],5.0,0.6,0.0,0.05907993170262593,0.05926519430001273,1.4724090436010489
7.942076921463013,2.2849925935186217,[2.29701295],5.0,0.6,0.0,0.0622038467384339,0.060361552651385146,1.4715128806636142
7.950940370559692,2.2849925935186217,[2.29701113],5.0,0.6,0.0,0.06279014787742769,0.06030058266549325,1.471521331869433
7.961793899536133,2.284797194801885,[2.29700959],5.0,0.6,0.0,-0.2143439013279713,0.06145432974052938,1.4705777431325986
7.9701924324035645,2.2846017960851484,[2.29700831],5.0,0.6,0.0,-0.24963794750062246,0.06254588495834378,1.469638295242977
7.978394269943237,2.2846017960851484,[2.29700726],5.0,0.6,0.0,-0.19735798855391812,0.06258389679731084,1.469660773239127
7.987346172332764,2.2842109986516754,[2.29700639],5.0,0.6,0.0,-0.40048245597468835,0.06466534064128367,1.4676665031880665
7.999619007110596,2.2840155999349383,[2.29700557],5.0,0.6,0.0,-0.6424477104041428,0.06472320089870719,1.4665080814981701
8.0097017288208,2.2838202012182016,[2.29700462],5.0,0.6,0.0,-0.5671985677052677,0.06670105255098617,1.4655921955431912
8.017377614974976,2.283624802501465,[2.29700353],5.0,0.6,0.0,-0.6733357031100728,0.06792021346463298,1.4644976968499672
8.026392936706543,2.2832340050679916,[2.29700238],5.0,0.6,0.0,-0.8096331359000304,0.07007937785489032,1.462308352518649
8.036377191543579,2.2828432076345186,[2.29700113],5.0,0.6,0.0,-0.9200300745871146,0.07222686868428596,1.4600738934902235
8.046442985534668,2.2826478089177815,[2.29699973],5.0,0.6,0.0,-0.9900712749274813,0.07364161192601953,1.4589123342789125
8.056478261947632,2.282257011484308,[2.29699816],5.0,0.6,0.0,-0.7458908844777261,0.07575186394318865,1.457056576143225
8.068678140640259,2.2816708153340985,[2.29699644],5.0,0.6,0.0,-0.7140130850439526,0.07897360519097142,1.453731934349614
8.076860189437866,2.281475416617362,[2.29699456],5.0,0.6,0.0,-0.7479853447892137,0.08024819940958688,1.4525566658058702
8.089348316192627,2.280889220467152,[2.29699251],5.0,0.6,0.0,-0.7877307701010556,0.08346297096189378,1.448997048764936
8.099239110946655,2.2804984230336784,[2.2969903],5.0,0.6,0.0,-0.5362923949961906,0.08557206985794957,1.4468425662589002
8.113394260406494,2.2799122268834684,[2.29698792],5.0,0.6,0.0,-0.5084689783657975,0.08875483260019194,1.4431594847454787
8.122342109680176,2.279521429449995,[2.29698539],5.0,0.6,0.0,-0.2757960401048906,0.09084867039386123,1.440768508401129
8.133030891418457,2.2793260307332583,[2.29698272],5.0,0.6,0.0,-0.018059861667271,0.09195608183230605,1.4395521287619695
8.143445491790771,2.278935233299785,[2.2969799],5.0,0.6,0.0,-0.07704483513457337,0.09383276502121463,1.4369487238452858
8.151400089263916,2.2785444358663116,[2.29697692],5.0,0.6,0.0,0.05015602314382712,0.09604927854368135,1.4343040742654019
8.161316394805908,2.2781536384328382,[2.29697381],5.0,0.6,0.0,0.21253868389371983,0.09808838866900033,1.4315775522759888
8.17189621925354,2.277762840999365,[2.29697057],5.0,0.6,0.0,0.3528467152902278,0.09992418852025359,1.4287765344841354
8.181383609771729,2.2773720435658915,[2.29696721],5.0,0.6,0.0,0.45515402948613,0.10202964751140309,1.425926314841191
8.192760944366455,2.276981246132418,[2.29696377],5.0,0.6,0.0,0.5203248746923769,0.10399908743666435,1.4230438939546222
8.200624704360962,2.276590448698945,[2.29696028],5.0,0.6,0.0,0.5549114177984615,0.10607534492940929,1.4201348887515401
8.209006071090698,2.276199651265472,[2.29695678],5.0,0.6,0.0,0.56641943542456,0.1079572288860463,1.4171979604630915
8.216964483261108,2.276004252548735,[2.2969533],5.0,0.6,0.0,0.5615126112720475,0.1090394799438418,1.415734574829349
8.225926876068115,2.275613455115262,[2.29694987],5.0,0.6,0.0,0.545514353320534,0.11097054417371338,1.41275193500669
8.238261699676514,2.2752226576817884,[2.29694651],5.0,0.6,0.0,0.5224381504566786,0.11282454870806573,1.4097291028090777
8.24634075164795,2.274831860248315,[2.29694321],5.0,0.6,0.0,0.7712364297483871,0.11460017889230269,1.406403649784906
8.255459070205688,2.2744410628148417,[2.29693998],5.0,0.6,0.0,0.7750134223931009,0.11645780820219806,1.4032689356331651
8.264403820037842,2.2742456640981046,[2.29693684],5.0,0.6,0.0,0.6898757710662689,0.11749205772026551,1.401792787097353
8.27335810661316,2.2738548666646317,[2.29693379],5.0,0.6,0.0,0.5840052488799025,0.11933917133991317,1.3986966323561312
8.283403873443604,2.273659467947895,[2.29693085],5.0,0.6,0.0,0.7606044381843047,0.12011994224897457,1.3969176092840099
8.294097185134888,2.273268670514421,[2.29692801],5.0,0.6,0.0,0.7094394156839979,0.12199366687183419,1.393711865748144
8.304193496704102,2.2730732717976845,[2.29692527],5.0,0.6,0.0,0.8621807579481022,0.12269032088227075,1.3918980120192477
8.312380313873291,2.2728778730809482,[2.29692263],5.0,0.6,0.0,0.765174565862113,0.1235696154779249,1.3903690307198449
8.32210373878479,2.2726824743642116,[2.29692008],5.0,0.6,0.0,0.8730371091000699,0.12432656232170525,1.3885802643643592
8.332367897033691,2.272487075647475,[2.29691763],5.0,0.6,0.0,0.7398586969092436,0.12519816934574599,1.3870716833492296
8.343353033065796,2.272096278214001,[2.29691529],5.0,0.6,0.0,0.5454906910236949,0.1271479537538431,1.3838683335191053
8.356302976608276,2.271900879497265,[2.29691308],5.0,0.6,0.0,0.6378420284730907,0.12814690705393517,1.3820864246742897
8.366364479064941,2.271705480780528,[2.29691105],5.0,0.6,0.0,0.7973161360192815,0.1286508475026061,1.380204192497347
8.375377655029297,2.2715100820637915,[2.29690918],5.0,0.6,0.0,0.6624975417919525,0.12951359553632397,1.3786273163700944
8.386701583862305,2.2713146833470548,[2.29690745],5.0,0.6,0.0,0.45058225999524076,0.1303867769385592,1.377068462553546
8.394394636154175,2.271119284630318,[2.29690587],5.0,0.6,0.0,0.5247371209012947,0.1311503182601725,1.3752692860271105
8.402437925338745,2.271119284630318,[2.29690442],5.0,0.6,0.0,0.3945819390559917,0.13104690087761375,1.3753713887576118
8.41143274307251,2.2709238859135814,[2.29690311],5.0,0.6,0.0,0.21863342472669323,0.1319883080538813,1.3736943122167464
8.420968055725098,2.270728487196845,[2.29690193],5.0,0.6,0.0,0.3347844336420778,0.13281973538172212,1.3718782418707551
8.429672956466675,2.270728487196845,[2.29690088],5.0,0.6,0.0,0.242867024465934,0.13264562928275428,1.3719272968353409
8.437346458435059,2.270728487196845,[2.29689996],5.0,0.6,0.0,0.09850148811419701,0.1325902156772462,1.371972426083575
8.447334289550781,2.270728487196845,[2.29689914],5.0,0.6,0.0,0.2395334485400593,0.13238589558006406,1.3719444250230435
8.456343650817871,2.2705330884801085,[2.29689842],5.0,0.6,0.0,0.16675456938623626,0.13331476947893797,1.3701845744884822
8.46604585647583,2.2705330884801085,[2.2968978],5.0,0.6,0.0,0.31299389177302656,0.13306183163722823,1.370138038910516
8.474792242050171,2.2705330884801085,[2.29689728],5.0,0.6,0.0,0.2221773174224402,0.1330041943487325,1.3701790260687363
8.483343601226807,2.2705330884801085,[2.29689684],5.0,0.6,0.0,0.3456561253186486,0.13269689944167395,1.3701308489271251
8.492634057998657,2.2705330884801085,[2.29689647],5.0,0.6,0.0,0.5105291992942179,0.13236164307082623,1.3700291988704003
8.503521919250488,2.2705330884801085,[2.29689615],5.0,0.6,0.0,0.37524063282177417,0.13235215414187362,1.3701212830204204
8.51425838470459,2.2705330884801085,[2.2968959],5.0,0.6,0.0,0.4405403178396521,0.13208621375095697,1.3700839603997306
8.523318767547607,2.2705330884801085,[2.29689571],5.0,0.6,0.0,0.2766976361912622,0.13191174572833286,1.3701731758303983
8.535513639450073,2.2705330884801085,[2.29689556],5.0,0.6,0.0,0.06688085035523142,0.13183083375060692,1.370228188201067
8.54600715637207,2.2705330884801085,[2.29689545],5.0,0.6,0.0,-0.11867697792463609,0.1318376201208494,1.3702220853372729
8.55387020111084,2.2705330884801085,[2.29689536],5.0,0.6,0.0,-0.25974331076314805,0.13178953772757243,1.3701831401969122
8.56434941291809,2.2705330884801085,[2.2968953],5.0,0.6,0.0,-0.35656385910107,0.13185184720727183,1.3701392722941292
8.573437213897705,2.2705330884801085,[2.29689527],5.0,0.6,0.0,-0.4164625943363832,0.13185552143914708,1.370105057151093
8.582350015640259,2.2705330884801085,[2.29689528],5.0,0.6,0.0,-0.4480941949259102,0.1317650860188,1.3700846801275042
8.591891527175903,2.2705330884801085,[2.2968953],5.0,0.6,0.0,-0.45923664370837297,0.13184577869776093,1.3700769593951954
8.601386547088623,2.2705330884801085,[2.29689533],5.0,0.6,0.0,-0.4561536806157933,0.1316830311033047,1.3700787974251785
8.610974550247192,2.2705330884801085,[2.29689533],5.0,0.6,0.0,-0.44360205371964956,0.131660415898625,1.3700871361425238
8.618363618850708,2.2705330884801085,[2.2968953],5.0,0.6,0.0,-0.4250631015443894,0.1317473297007444,1.3700994135063416
8.628340721130371,2.2705330884801085,[2.29689523],5.0,0.6,0.0,-0.40301787432402253,0.13169002734338364,1.3701136338074626
8.6383216381073,2.2705330884801085,[2.2968951],5.0,0.6,0.0,-0.3791960052191108,0.1314613845602881,1.3701287287749115
8.650354623794556,2.2705330884801085,[2.29689479],5.0,0.6,0.0,-0.3547778604946805,0.13086505197774906,1.3701448638419982
8.658427238464355,2.2705330884801085,[2.29689417],5.0,0.6,0.0,-0.3305498281924704,0.1308746050081395,1.3701629102804644
8.668395280838013,2.2705330884801085,[2.29689312],5.0,0.6,0.0,-0.30701974028932544,0.130440641633205,1.3701837447889558
8.676442861557007,2.2705330884801085,[2.2968915],5.0,0.6,0.0,-0.2845008703008053,0.13010257667419045,1.3702085731071558
8.686985731124878,2.2705330884801085,[2.29688913],5.0,0.6,0.0,-0.2631721873350034,0.1296555615197131,1.3702390090699657
8.698695182800293,2.2705330884801085,[2.29688578],5.0,0.6,0.0,-0.243121128105999,0.1286609136271658,1.3702773039943312
8.707948446273804,2.2705330884801085,[2.29688115],5.0,0.6,0.0,-0.22437371143648205,0.12826942588876727,1.3703263000942212
8.716434001922607,2.2705330884801085,[2.29687507],5.0,0.6,0.0,-0.20691559230109113,0.12877461044755037,1.3703876329204654
8.727379322052002,2.2705330884801085,[2.29686753],5.0,0.6,0.0,-0.19070668249979947,0.1283380375407586,1.3704615919845071
8.738455295562744,2.2705330884801085,[2.29685845],5.0,0.6,0.0,-0.17569123077633603,0.12792923739953246,1.3705489634619306
8.748453617095947,2.2705330884801085,[2.29684768],5.0,0.6,0.0,-0.161804713612075,0.12745028354436147,1.3706511522182556
8.760325193405151,2.270728487196845,[2.29683501],5.0,0.6,0.0,-0.1489784950737416,0.1253133261018391,1.3725554575946264
8.769670248031616,2.2705330884801085,[2.29682021],5.0,0.6,0.0,-0.13714293227435567,0.12624699131468542,1.3709082582157586
8.780455112457275,2.2705330884801085,[2.2968031],5.0,0.6,0.0,-0.12622940236750185,0.12544125082720126,1.3710670129788254
8.789329051971436,2.2705330884801085,[2.29678372],5.0,0.6,0.0,-0.11617158490593571,0.12533725320668573,1.371246188455752
8.79839825630188,2.2705330884801085,[2.29676232],5.0,0.6,0.0,-0.10690623315057815,0.1254666687267662,1.3714434411411716
8.810408353805542,2.2705330884801085,[2.29673909],5.0,0.6,0.0,-0.098373597388331,0.12560337936740046,1.3716571191939253
8.822335243225098,2.2705330884801085,[2.29671399],5.0,0.6,0.0,-0.09051761380203248,0.12475522003536532,1.3718874734918443
8.831405878067017,2.2705330884801085,[2.29668695],5.0,0.6,0.0,-0.08328593773216167,0.1249463014629416,1.3721352134964326
8.841289520263672,2.2705330884801085,[2.296658],5.0,0.6,0.0,-0.07662987588307017,0.12504679294157578,1.3724000449486256
8.85462760925293,2.2705330884801085,[2.29662719],5.0,0.6,0.0,-0.07050425505380005,0.12424899905800069,1.3726814502625364
8.86343789100647,2.2705330884801085,[2.2965946],5.0,0.6,0.0,-0.06486725312982806,0.12526703824608224,1.3729787512651501
8.874102592468262,2.270728487196845,[2.2965604],5.0,0.6,0.0,-0.05968020982135899,0.12351049046601728,1.375061978458298
8.883301734924316,2.2705330884801085,[2.29652477],5.0,0.6,0.0,-0.05490742889783454,0.12531252516659366,1.3736144670140444
8.892307758331299,2.2705330884801085,[2.29648798],5.0,0.6,0.0,-0.050515979690957835,0.12526528237799983,1.3739488236589783
8.901979923248291,2.2705330884801085,[2.29645028],5.0,0.6,0.0,-0.046475502889856884,0.12522796674507686,1.3742910099884442
8.914333581924438,2.270728487196845,[2.29641183],5.0,0.6,0.0,-0.04275802376094666,0.123894526383676,1.3764037257327875
8.923351049423218,2.2705330884801085,[2.29637278],5.0,0.6,0.0,-0.039337774631843334,0.12484658458788658,1.3749931346653366
8.931814670562744,2.2705330884801085,[2.29633326],5.0,0.6,0.0,-0.036191027601625445,0.12474355065975244,1.3753505182072256
8.941486597061157,2.2705330884801085,[2.29629342],5.0,0.6,0.0,-0.03329593785177053,0.12455248752538553,1.3757103509425153
8.954301118850708,2.2705330884801085,[2.2962533],5.0,0.6,0.0,-0.03063239754444364,0.12345633962071538,1.376072347366163
8.962304830551147,2.2705330884801085,[2.29621286],5.0,0.6,0.0,-0.028181900045469572,0.12389275987616755,1.3764367046855281
8.97331690788269,2.2705330884801085,[2.29617215],5.0,0.6,0.0,-0.02592741405504457,0.12304433572543322,1.376803106654848
8.985381841659546,2.2705330884801085,[2.29613091],5.0,0.6,0.0,-0.023853267139892567,0.1202519353271528,1.3771737500225039
8.99532675743103,2.2705330884801085,[2.29608851],5.0,0.6,0.0,-0.021945038115178672,0.11865869068189774,1.3775544167780975
9.005611896514893,2.2705330884801085,[2.29604423],5.0,0.6,0.0,-0.02018945770849933,0.1167274106690778,1.377951434998482
9.013299226760864,2.2705330884801085,[2.29599757],5.0,0.6,0.0,-0.01857431694159416,0.11720943753465245,1.3783691870091335
9.023315668106079,2.2705330884801085,[2.29594816],5.0,0.6,0.0,-0.017088382681109158,0.1144417455299754,1.3788110250531105
9.031298875808716,2.2705330884801085,[2.29589524],5.0,0.6,0.0,-0.015721319833010283,0.11161889418975206,1.3792834215866843
9.040486812591553,2.2705330884801085,[2.29583778],5.0,0.6,0.0,-0.014463619682842408,0.10883742143299366,1.3797956451813305
9.048832416534424,2.2705330884801085,[2.29577503],5.0,0.6,0.0,-0.013306533913746098,0.11016607220130487,1.3803539090231196
9.05831265449524,2.2705330884801085,[2.29570662],5.0,0.6,0.0,-0.012242013864518179,0.10655193478603397,1.3809614403542327
9.066322326660156,2.2705330884801085,[2.29563175],5.0,0.6,0.0,-0.01126265462006699,0.10360654646194989,1.3816248585500763
9.076560020446777,2.270728487196845,[2.29554937],5.0,0.6,0.0,-0.010361643555758806,0.10008656582810578,1.384073284163122
9.086297750473022,2.2705330884801085,[2.29545855],5.0,0.6,0.0,-0.009532712985006115,0.09860561185548368,1.3831538641759105
9.097497940063477,2.2705330884801085,[2.29535803],5.0,0.6,0.0,-0.008770096585801242,0.0914273890782846,1.3840376666572345
9.106323480606079,2.2705330884801085,[2.2952467],5.0,0.6,0.0,-0.008068489306654074,0.0956643383092905,1.3850132923912772
9.118628740310669,2.2705330884801085,[2.29512415],5.0,0.6,0.0,-0.007423010475523609,0.08870734832829721,1.3860834459326543
9.12729024887085,2.2705330884801085,[2.29499013],5.0,0.6,0.0,-0.006829169856863004,0.0931826060233543,1.3872491426131872
9.13632869720459,2.2705330884801085,[2.29484499],5.0,0.6,0.0,-0.006282836421880881,0.09104188131395408,1.3885061181749805
9.145926237106323,2.2705330884801085,[2.29468911],5.0,0.6,0.0,-0.005780209615627233,0.0892222715197924,1.3898496945879242
9.153986692428589,2.2705330884801085,[2.29452252],5.0,0.6,0.0,-0.005317792921624839,0.08794027391987502,1.391278243381015
9.161954641342163,2.270728487196845,[2.29434589],5.0,0.6,0.0,-0.004892369540568304,0.09072353360420471,1.3944409827394733
9.171136617660522,2.2705330884801085,[2.29416037],5.0,0.6,0.0,-0.004500980014194257,0.08901610697005007,1.394357500826619
9.182303190231323,2.270728487196845,[2.29396662],5.0,0.6,0.0,-0.004140901638868709,0.08611213711856931,1.3976256584126805
9.194973945617676,2.2705330884801085,[2.29376447],5.0,0.6,0.0,-0.0038096295258262065,0.0807494222096354,1.3976819803169356
9.20235824584961,2.2705330884801085,[2.29355395],5.0,0.6,0.0,-0.003504859176407007,0.08562386264647893,1.3994318019325849
9.212954759597778,2.2705330884801085,[2.29333574],5.0,0.6,0.0,-0.0032244704511472638,0.07994480644667017,1.401232298365175
9.221415519714355,2.2705330884801085,[2.29311058],5.0,0.6,0.0,-0.002966512821252463,0.0842211483072647,1.403075936026721
9.233773946762085,2.2705330884801085,[2.29287924],5.0,0.6,0.0,-0.0027291917998901504,0.07913575250242345,1.4049549238754613
9.242345094680786,2.2705330884801085,[2.29264261],5.0,0.6,0.0,-0.0025108564589354614,0.08344845964286911,1.4068609093217175
9.253448486328125,2.2705330884801085,[2.29240158],5.0,0.6,0.0,-0.0023099879443461897,0.07840747564645777,1.4087854772123916
9.264710187911987,2.2705330884801085,[2.29215673],5.0,0.6,0.0,-0.002125188910286391,0.07883333516083073,1.4107230957215438
9.274476528167725,2.2705330884801085,[2.29190871],5.0,0.6,0.0,-0.0019551737985050053,0.07915637656221623,1.4126676567722753
9.283299207687378,2.2705330884801085,[2.29165891],5.0,0.6,0.0,-0.001798759895353674,0.08235412291146202,1.414607717387142
9.294165134429932,2.2705330884801085,[2.29140857],5.0,0.6,0.0,-0.0016548591042357258,0.07806955515943856,1.4165330633767819
9.304686546325684,2.2705330884801085,[2.29115829],5.0,0.6,0.0,-0.001522470376254109,0.07824452293784502,1.418439013069141
9.314589977264404,2.2705330884801085,[2.29090866],5.0,0.6,0.0,-0.001400672746403851,0.0781153386569174,1.420320974471775
9.323315143585205,2.2705330884801085,[2.29066091],5.0,0.6,0.0,-0.0012886189268665929,0.08191948174101517,1.4221698509969425
9.333153009414673,2.2705330884801085,[2.29041913],5.0,0.6,0.0,-0.0011855294128398012,0.1094991644336394,1.4239558995281671
9.343328714370728,2.2705330884801085,[2.29018746],5.0,0.6,0.0,-0.0010906870598983908,0.08244038152568753,1.4256502036071126
9.351533651351929,2.2705330884801085,[2.28996352],5.0,0.6,0.0,-0.0010034320951665611,0.0669111744151868,1.4272719830148313
9.362272024154663,2.2705330884801085,[2.28974432],5.0,0.6,0.0,-0.0009231575275952653,0.08392923413564381,1.4288441881808858
9.374817132949829,2.2705330884801085,[2.28953083],5.0,0.6,0.0,-0.0008493049254170662,0.07468958444067536,1.4303607537862317
9.383361339569092,2.2705330884801085,[2.28932339],5.0,0.6,0.0,-0.0007813605314042943,0.07701681911098843,1.4318205110233138
9.392447471618652,2.2705330884801085,[2.28912168],5.0,0.6,0.0,-0.0007188516889063665,0.07551801817472358,1.4332267100471503
9.400336265563965,2.2705330884801085,[2.28892565],5.0,0.6,0.0,-0.0006613435538039489,0.07386917444071846,1.4345807339103545
9.413386106491089,2.2705330884801085,[2.28873451],5.0,0.6,0.0,-0.0006084360695066974,0.06847202728562789,1.4358890348355566
9.42206597328186,2.2705330884801085,[2.28854735],5.0,0.6,0.0,-0.0005597611839511061,0.07068180226100815,1.437158641694954
9.436304807662964,2.2705330884801085,[2.28836333],5.0,0.6,0.0,-0.0005149802892384799,0.06336730259870253,1.4383957757732921
9.446195602416992,2.270337689763372,[2.28818096],5.0,0.6,0.0,-0.0004737818661018243,0.06164349882366877,1.4383085307000614
9.458265542984009,2.270337689763372,[2.28799855],5.0,0.6,0.0,-0.00043587931681537343,0.05806655768012673,1.4395246869990552
9.467284679412842,2.269946892329898,[2.28781453],5.0,0.6,0.0,-0.27643936865015234,0.05617311525757136,1.4380883319230275
9.47629976272583,2.2697514936131618,[2.28762712],5.0,0.6,0.0,-0.30953189109387713,0.052487268476615896,1.4380203381603722
9.48499321937561,2.269556094896425,[2.2874343],5.0,0.6,0.0,-0.5304434799203936,0.04864833795780317,1.437864974176466
9.495288610458374,2.2693606961796884,[2.28723386],5.0,0.6,0.0,-0.7634942844860859,0.044165471990526124,1.4376744803106891
9.50685977935791,2.268969898746215,[2.28702249],5.0,0.6,0.0,-0.9470123322384789,0.030422707325222616,1.436232416609457
9.51570725440979,2.268774500029478,[2.28679687],5.0,0.6,0.0,-1.0683482552371721,0.037934795862582124,1.4362549100688737
9.524636030197144,2.2685791013127417,[2.28655554],5.0,0.6,0.0,-1.1337875296325775,0.0315759153755838,1.4364577879754956
9.537279605865479,2.2679929051625316,[2.28629675],5.0,0.6,0.0,-1.1551891706870046,0.027023623204043147,1.434197062064333
9.550084352493286,2.267602107729058,[2.28601628],5.0,0.6,0.0,-1.144482111957053,0.00685479827094573,1.4334579636170097
9.560717582702637,2.267211310295585,[2.28570861],5.0,0.6,0.0,-1.1117366077117379,0.0035590893679011922,1.4329396039939737
9.571078777313232,2.2668205128621115,[2.28536969],5.0,0.6,0.0,-1.0647755305245417,-0.0007589500916454765,1.432656692438559
9.582328081130981,2.2662343167119015,[2.28499683],5.0,0.6,0.0,-0.7333439774706558,-0.0057049400533221465,1.4316148260489703
9.591325998306274,2.2660389179951648,[2.28458721],5.0,0.6,0.0,-0.6405231582169642,-0.013619260653725781,1.4332007141816712
9.600271940231323,2.2656481205616914,[2.28413787],5.0,0.6,0.0,-0.35844631332785226,-0.02163660707785194,1.4338153081335379
9.609055042266846,2.2652573231282185,[2.28364574],5.0,0.6,0.0,-0.34076063263181533,-0.03002359053667598,1.43452280703764
9.621142864227295,2.264671126978008,[2.2831077],5.0,0.6,0.0,-0.4074800585466113,-0.038058225841707156,1.4341542175398034
9.631301879882812,2.2640849308277984,[2.28252063],5.0,0.6,0.0,-0.20777311748504823,-0.04667425988164754,1.4342516856705294
9.641489028930664,2.263303335960851,[2.2818814],5.0,0.6,0.0,-0.23376628732765187,-0.05469838019651191,1.4332590656772664
9.651132822036743,2.262521741093905,[2.28118686],5.0,0.6,0.0,-0.3246909951633692,-0.0632300217497256,1.4326162333949921
9.66154170036316,2.2615447475102215,[2.28043393],5.0,0.6,0.0,-0.6913900314808032,-0.0706862412854098,1.4307706957167248
9.670321226119995,2.260567753926538,[2.27961958],5.0,0.6,0.0,-1.0689189042912686,-0.07845789296203673,1.4291281079450657
9.678266763687134,2.2595907603428547,[2.27874397],5.0,0.6,0.0,-1.3653774717670082,-0.05693570750998943,1.4278719751334807
9.68932843208313,2.2582229693256983,[2.27780691],5.0,0.6,0.0,-2.1150964628007354,-0.09958645834809214,1.4228428360398162
9.698288440704346,2.256855178308541,[2.27680194],5.0,0.6,0.0,-2.842937544370105,-0.10268134362945132,1.4175286630090174
9.708746910095215,2.2550965898579114,[2.27572344],5.0,0.6,0.0,-3.391328883061342,-0.10400765473790279,1.4099379824715073
9.717307806015015,2.2537287988407546,[2.27457324],5.0,0.6,0.0,-4.013085463276426,-0.07593346393111264,1.4049246085878175
9.726312160491943,2.2519702103901245,[2.27335656],5.0,0.6,0.0,-4.216136515783338,-0.08669886316468509,1.399525195461771
9.735384702682495,2.250407020656231,[2.27207455],5.0,0.6,0.0,-4.195191050202489,-0.09585875505752521,1.397446073435037
9.74457836151123,2.2484530334888646,[2.27072488],5.0,0.6,0.0,-4.055756051655314,-0.10116492407719928,1.393459183856753
9.753295421600342,2.2463036476047615,[2.26930579],5.0,0.6,0.0,-4.132029360275769,-0.10379563255438665,1.3870373561201963
9.762305498123169,2.2441542617206576,[2.26782],5.0,0.6,0.0,-3.9376461031643166,-0.07228166446195436,1.3826224842719095
9.771275520324707,2.241614078403081,[2.26627412],5.0,0.6,0.0,-3.921830857179093,-0.08077305917313674,1.3741623348087868
9.781796932220459,2.238683097652031,[2.26467038],5.0,0.6,0.0,-3.9194574372275333,-0.08368766209375308,1.3623508767738401
9.790980100631714,2.2361429143344544,[2.26300732],5.0,0.6,0.0,-3.874829745802909,-0.08570509818662697,1.3545413404666236
9.801249980926514,2.233211933583404,[2.26128423],5.0,0.6,0.0,-3.5025391237062715,-0.084157616728004,1.345132928871752
9.811041831970215,2.2300855541156173,[2.2595011],5.0,0.6,0.0,-3.3294841463258615,-0.08020772820796249,1.3329071525803617
9.822265863418579,2.2265683772143574,[2.25765857],5.0,0.6,0.0,-3.21350968249042,-0.07350892538139554,1.3165897479641708
9.833148956298828,2.2228558015963604,[2.25575379],5.0,0.6,0.0,-2.547311456597949,-0.0945888737229001,1.3005613480070202
9.844025135040283,2.219143225978364,[2.25378088],5.0,0.6,0.0,-2.352027824120886,-0.07886252071104624,1.282563390211124
9.854311466217041,2.2158214477938407,[2.2517395],5.0,0.6,0.0,-1.765181527647387,-0.06757829207000912,1.270264721810071
9.864862442016602,2.211913473459107,[2.24963396],5.0,0.6,0.0,-1.4186090310439385,-0.05512153991875074,1.250844058001829
9.875284671783447,2.2082008978411105,[2.24746861],5.0,0.6,0.0,-0.9221918043020974,-0.04430497170595717,1.2339955938233127
9.88632321357727,2.2039021260729035,[2.24524803],5.0,0.6,0.0,-0.7368159055636704,-0.030726552233630976,1.2100175329110827
9.896296739578247,2.200189550454907,[2.24297671],5.0,0.6,0.0,-0.4019365846572254,-0.02353708207696039,1.1932797629531242
9.906269073486328,2.19647697483691,[2.24065414],5.0,0.6,0.0,0.19831736590970037,-0.04505968562515067,1.1768080531541734
9.914273262023926,2.1933505953691235,[2.23828002],5.0,0.6,0.0,0.7675938882286654,-0.004553696757489542,1.1673856273305914
9.925014019012451,2.189247222317653,[2.2358631],5.0,0.6,0.0,0.9334836530737121,0.0006825636993953099,1.1468702325670517
9.936269760131836,2.185143849266183,[2.23341109],5.0,0.6,0.0,1.2028003825334164,0.006390731654154317,1.1264658152059535
9.945786237716675,2.1816266723649234,[2.23092645],5.0,0.6,0.0,1.7158551710899843,0.009210779492229417,1.1128373442963688
9.955357551574707,2.1783048941803997,[2.22841143],5.0,0.6,0.0,2.4653613024756043,0.011176325581771058,1.100734227504248
9.965291976928711,2.17478771727914,[2.2258681],5.0,0.6,0.0,3.39505262533786,0.014149354721464554,1.0849199550573143
9.977237701416016,2.17068434422767,[2.22329841],5.0,0.6,0.0,4.165381597007751,0.020002544871758964,1.0620987196484926
9.987259149551392,2.167557964759883,[2.22070415],5.0,0.6,0.0,4.964087167490969,0.02073994595540809,1.0504038266390998
9.998849868774414,2.1640407878586227,[2.21808242],5.0,0.6,0.0,5.0,-0.0041141720517344485,1.039339710906475
10.008252620697021,2.1613052058243096,[2.21542636],5.0,0.6,0.0,5.0,0.0013972678188047785,1.0383813147426628
