t_s,q_rad,q_des_rad,jerk
0.005866527557373047,0.0,6.6425281005887084e-06,0.0
0.014630317687988281,0.0,3.2101237607976395e-05,0.0
0.024027109146118164,0.0,7.978403192609926e-05,0.0
0.033737897872924805,0.0,0.00014564231274777868,0.0
0.041052818298339844,0.0,0.0002260177450502599,0.0
0.051050662994384766,0.0,0.0003176284445568646,0.0
0.0600886344909668,0.0,0.0004175533133208127,0.0
0.06915640830993652,0.0,0.0005232150604592015,0.0
0.07804369926452637,0.0,0.0006323594354107448,0.0
0.08717727661132812,0.0,0.0007430350743838083,0.0
0.09596514701843262,0.0,0.0008535724373607817,0.0
0.10605335235595703,0.0,0.000962560294407532,0.0
0.11637663841247559,0.0,0.0010688244014021597,0.0
0.12408137321472168,0.0,0.0011714074106892632,0.0
0.13408875465393066,0.0,0.0012695489039450895,0.0
0.14303803443908691,0.0,0.0013626644599315867,0.0
0.1525435447692871,0.0,0.0014503309576532615,0.0
0.16006231307983398,0.0,0.0015327739754965803,0.0
0.1700000762939453,0.0,0.0016120128358667692,0.0
0.17966175079345703,0.0,0.0016925984462043077,0.0
0.1881253719329834,0.0,0.0017815083206052858,0.0
0.19906091690063477,0.0,0.0018877023354936012,0.0
0.20900368690490723,0.0,0.0020215273028191235,0.0
0.21703791618347168,0.0,0.0021915166782061858,0.0
0.22603893280029297,0.0,0.002406364581772257,0.0
0.23660969734191895,0.0,0.0026789374331986204,0.0
0.24403595924377441,0.0,0.003017324634010281,0.0
0.2521982192993164,0.0,0.0034225501846289422,0.0
0.2618863582611084,0.0,0.003894465175621719,0.0
0.271028995513916,0.0,0.004431696222337191,0.0
0.281038761138916,0.0,0.0050361560151968915,0.0
0.2909369468688965,0.0,0.005711988121999481,0.0
0.30063748359680176,0.0,0.0064561197150947575,0.0
0.3080313205718994,0.0,0.007259672867886516,0.0
0.3180103302001953,0.0,0.008115055797622565,0.0
0.32679033279418945,0.0,0.009014360124326094,0.0
0.33600330352783203,0.0,0.009947749843653854,0.0
0.346210241317749,0.0,0.010906791906100433,0.0
0.3548312187194824,0.0,0.01188423933775977,0.0
0.3640282154083252,0.0,0.012872506679014366,0.0
0.3743312358856201,0.0,0.013863899761786412,0.0
0.3838512897491455,0.00019539871673667023,0.014850812465439183,0.0
0.3920309543609619,0.00019539871673667023,0.01582544508420555,0.0
0.40202975273132324,0.00039079743347334047,0.01678047246692419,0.276038359678681
0.411945104598999,0.0005861961502100108,0.017710019256827688,0.3091629628401227
0.42040348052978516,0.0007815948669466809,0.018608453757787864,0.530104065926939
0.4290347099304199,0.0009769935836833512,0.019470013006172623,0.7631820236121072
0.4389185905456543,0.0013677910171566918,0.020289728465856874,1.2227634119130986
0.447019100189209,0.0017585884506300322,0.021063573328059238,1.1012085607948776
0.4570577144622803,0.0019539871673667024,0.021788579725276973,1.3544854789239564
0.46770310401916504,0.0027355820343133836,0.022462878143995373,1.3880434268803723
0.47571873664855957,0.0029309807510500534,0.023085537870778647,1.3278193352069068
0.485034704208374,0.0035171769012600643,0.023656435564660662,1.5089445318467747
0.4943208694458008,0.004103373051470075,0.02417611898624151,1.4392247179011184
0.5047290325164795,0.004689569201680086,0.02464569993359442,1.5607472382604677
0.5140142440795898,0.005471164068626767,0.02506676892042646,1.4259931848599456
0.5230207443237305,0.006057360218836778,0.025441286033380313,1.4932477863152056
0.5340549945831299,0.0072297525192568,0.025771491642229787,1.5948518269217424
0.542515754699707,0.00781594866946681,0.02605985710961186,1.3930350376180125
0.5520267486572266,0.008597543536413491,0.02630900269176074,1.3911838702781483
0.5620312690734863,0.009574537120096843,0.026521612308368525,1.1613407888832041
0.5708630084991455,0.010356131987043523,0.026700440367138742,0.8878184071609625
0.5790121555328369,0.011137726853990204,0.026848285687833907,0.6415467223746255
0.588594913482666,0.012114720437673556,0.026967902230350758,0.7191811811212452
0.5960187911987305,0.012896315304620235,0.027061986340961172,0.601694337071472
0.6060187816619873,0.013873308888303588,0.027133170236406497,0.4364806018458727
0.6160256862640381,0.014850302471986938,0.02718395786950947,0.28205165013235856
0.6249170303344727,0.01563189733893362,0.027216725151075632,0.15705227973371855
0.6340241432189941,0.01660889092261697,0.027233750510315402,0.06339448753741725
0.6450216770172119,0.017781283223036994,0.027237174197144123,-0.27917542948957474
0.6545860767364502,0.018758276806720344,0.027228984308465994,-0.3574183016443574
0.6620171070098877,0.019344472956930356,0.027211042871190968,-0.6074310596998379
0.6711318492889404,0.020126067823877037,0.027185072541910535,-0.8579621242684055
0.6799886226654053,0.020907662690823715,0.027152640143325007,-1.050763635774925
0.6897873878479004,0.0216892575577704,0.02711559033533974,-1.4517731400586134
0.7000188827514648,0.022080054991243738,0.027076915973315168,-1.8262125345219653
0.7089991569519043,0.02247085242471708,0.0270409656044179,-2.375076677939521
0.7174551486968994,0.02286164985819042,0.027012018022395147,-2.8473204831357446
0.7260348796844482,0.02305704857492709,0.026994458076018264,-3.4470367303184486
0.7363324165344238,0.02305704857492709,0.026993810531620532,-3.932488576092277
0.7458462715148926,0.02305704857492709,0.02701384706934478,-4.793798290359662
0.7550156116485596,0.02305704857492709,0.02705581313815593,-5.0
0.7650344371795654,0.02305704857492709,0.02712156327791256,-4.900749219160563
0.7731566429138184,0.02305704857492709,0.02721204388363198,-4.38529632207571
0.7830288410186768,0.02305704857492709,0.027325763934272093,-4.057177197819742
0.7929997444152832,0.023252447291663758,0.02746142936265562,-3.250959336292099
0.8015356063842773,0.023252447291663758,0.02761716301853845,-2.6810019226964084
0.8111555576324463,0.02305704857492709,0.027789551138035398,-1.9872018991669465
0.8210391998291016,0.02305704857492709,0.027975014002579773,-1.3615001369194026
0.8318641185760498,0.02305704857492709,0.028169811065174737,-0.5842329883099657
0.8410162925720215,0.02305704857492709,0.02837011157732849,0.10116825233193039
0.8499860763549805,0.02305704857492709,0.02857245977209596,0.6255484158583381
0.8590738773345947,0.023252447291663758,0.02877389735897041,0.9909409804932381
0.8684754371643066,0.02305704857492709,0.028971926723953444,1.2238236592385239
0.8770105838775635,0.02305704857492709,0.029164485327696728,1.3551045618548918
0.886002779006958,0.02305704857492709,0.029349891394272017,1.4124650663183718
0.8945529460906982,0.02305704857492709,0.029526800313532525,1.4181751259327453
0.9030301570892334,0.023252447291663758,0.02969418526648177,1.3891507294677827
0.9119656085968018,0.02305704857492709,0.02985129780690842,1.3377866647200014
0.920407772064209,0.02305704857492709,0.029997637774039763,1.2729349591105907
0.9279942512512207,0.02305704857492709,0.03013292854189728,1.2007868377001958
0.9360120296478271,0.02305704857492709,0.030257078136480264,1.1255879714174597
0.9439792633056641,0.02305704857492709,0.030370150887789576,1.050187494222537
0.9540166854858398,0.02305704857492709,0.030472336365477762,0.9764459390502569
0.9619886875152588,0.02305704857492709,0.03056394120079135,0.9055321009833961
0.9710173606872559,0.02305704857492709,0.03064538685564269,0.8381360318453845
0.9819681644439697,0.02305704857492709,0.03071727180822955,0.774620305056541
0.9931323528289795,0.02305704857492709,0.030781486101072904,0.7151265929333297
1.0022985935211182,0.02305704857492709,0.030841860043362774,0.6596502557206634
1.0109784603118896,0.02305704857492709,0.03090468127794287,0.6080922142309501
1.0219790935516357,0.02305704857492709,0.030983637459723493,0.5602947852763024
1.0329842567443848,0.02305704857492709,0.031099992017442554,0.5160662476360122
1.0409972667694092,0.02305704857492709,0.03127117003743379,0.4751975201789698
1.050997018814087,0.02305704857492709,0.031514265616476474,0.43747333957562234
1.061711311340332,0.02305704857492709,0.03185586513587849,0.4026796172988934
1.068967580795288,0.02305704857492709,0.03231020664576049,0.3706081544283274
1.0779855251312256,0.02305704857492709,0.03288124465849901,0.3410595391788137
1.0879836082458496,0.023252447291663758,0.033589706494979416,0.31384480329054054
1.096724510192871,0.023252447291663758,0.034452760352440596,0.2887862387358724
1.1039540767669678,0.023252447291663758,0.03547283651823525,0.26571765375118156
1.112513780593872,0.023447846008400428,0.0366573963915586,0.5205226211687816
1.1213994026184082,0.0236432447251371,0.0380112006910944,0.534105297517869
1.1309878826141357,0.02383864344187377,0.03953667644442977,0.737062783745035
1.1418533325195312,0.024229440875347112,0.041247057761287134,0.9535922829648398
1.1503212451934814,0.02442483959208378,0.04314443769145231,1.1219082581209343
1.1589922904968262,0.02462023830882045,0.04521461585809504,1.2292565441514047
1.1677978038787842,0.025206434459030463,0.047449218969636935,1.2818259814078172
1.1759960651397705,0.0255972318925038,0.049838430102778455,1.2913865245033715
1.1849913597106934,0.025988029325977144,0.05237061795896571,1.5458234218756155
1.1954784393310547,0.026574225476187156,0.055044835274523356,1.8122176137617179
1.2037830352783203,0.027160421626397167,0.05785133766767696,1.7340621869791026
1.2129626274108887,0.027942016493343845,0.060767129195743536,1.815040927508788
1.222318410873413,0.02872361136029053,0.06377572781844452,1.9100944180822896
1.230865716934204,0.02950520622723721,0.06686117327301339,1.9686986819439494
1.2399966716766357,0.030482199810920558,0.07000267042520367,2.2568454601660326
1.2493655681610107,0.03165459211134058,0.0731860474270333,2.2610365349493042
1.257242202758789,0.03263158569502393,0.07639815639554665,2.421903490275737
1.2649824619293213,0.03360857927870728,0.07962669170539488,2.2975541560630655
1.273390293121338,0.0347809715791273,0.08286537571655825,2.3534592599251285
1.2810211181640625,0.035953363879547326,0.08609908517079487,2.4285428119943724
1.2910244464874268,0.03771195233017736,0.08931483412954991,2.4663934357492368
1.3011536598205566,0.039470540780807396,0.09251112432226306,2.7315050765231357
1.3089663982391357,0.04103373051470075,0.09568204845036078,2.710607132433161
1.3189914226531982,0.04318311639880412,0.0988268781440304,2.845095785483586
1.330305576324463,0.04591869843311751,0.10195347161649443,3.245963288986525
1.3380074501037598,0.04787268560048421,0.105054663931898,3.341450037523116
1.3469877243041992,0.05002207148458758,0.10811478072372868,3.556402659966977
1.3570268154144287,0.05275765351890097,0.11113193235776048,3.72630546362502
1.3654942512512207,0.054907039403004336,0.1141038785167746,3.52866666769686
1.3749902248382568,0.0578380201540544,0.11701979600052997,3.4839252075945977
1.3859834671020508,0.06115979833857779,0.1198751693274023,3.4551104645565553
1.394021987915039,0.06389538037289116,0.12266540685427153,3.3954376000157556
1.4042737483978271,0.06741255727415124,0.12537951370063305,3.296421013413628
1.4129385948181152,0.07053893674193797,0.12801137362276063,2.887953487922522
1.4219374656677246,0.07386071492646136,0.13055548725114088,2.698834507776065
1.429980754852295,0.07698709439424807,0.1330023868731159,2.0318156320077576
1.440000057220459,0.0806996700122448,0.13534630178888044,1.8653415080184295
1.4480280876159668,0.0840214481967682,0.13758351506055297,1.8692887795637345
1.4579463005065918,0.08773402381476494,0.13970838716301634,1.628891933844077
1.4689531326293945,0.09222819429970835,0.14171598340179495,1.0599066201670606
1.478065013885498,0.09613616863444177,0.14360335582804096,0.4805041499644276
1.4862730503082275,0.09945794681896515,0.14536822175432146,0.0020677748994416545
1.4959547519683838,0.10336592115369855,0.14700984742089454,-0.6290177792463145
1.5057201385498047,0.1070784967716953,0.14853022617831524,-1.4578402600961682
1.5139458179473877,0.11040027495621868,0.14993189416000927,-2.1753636768621085
1.5239665508270264,0.11450364800768877,0.15121825463725228,-2.9706533413637883
1.5319433212280273,0.11763002747547549,0.15239566429761028,-3.328192501606078
1.5406873226165771,0.12095180565999888,0.1534718048069934,-3.7129436086901735
1.5499470233917236,0.12466438127799562,0.15445616178289667,-3.9887989290070456
1.5610685348510742,0.12915855176293903,0.15536215039977538,-4.129311707976608
1.5690114498138428,0.1326757286641991,0.15620204870009102,-3.8739566604537123
1.5779623985290527,0.13638830428219584,0.15698515179719877,-3.7692005115828087
1.586024522781372,0.13951468374998255,0.1577225788828016,-3.687610470224353
1.5954909324645996,0.14342265808471594,0.15842473229586143,-3.584730697700382
1.6049487590789795,0.1471352337027127,0.15910152720967294,-3.451526020148215
1.6141822338104248,0.15065241060397278,0.15976411913744945,-3.2924472996700533
1.6241509914398193,0.15456038493870616,0.1604228583462374,-3.391791086343207
1.632951259613037,0.1582729605567029,0.1610875134972124,-3.5147701078151137
1.6429722309112549,0.16198553617469966,0.16176751752454097,-3.8558547791974656
1.6543948650360107,0.16589351050943302,0.162472193037288,-4.156093124938024
1.6623640060424805,0.16843369382700976,0.16320781732478495,-4.33626055063182
1.6709587574005127,0.17136467457805982,0.1639813022596451,-4.391498202581263
1.6820008754730225,0.17449105404584653,0.16480626058599726,-4.895392054440988
1.6903705596923828,0.17703123736342324,0.165691669671974,-4.837191946807737
1.7000072002410889,0.17976681939773664,0.16663900571351414,-5.0
1.708970546722412,0.1823070027153133,0.16765377839018997,-5.0
1.71976637840271,0.18484718603289005,0.16874491324953694,-5.0
1.7307255268096924,0.1873873693504668,0.1699203765295876,-5.0
1.7389841079711914,0.1891459578010968,0.1711871307557652,-5.0
1.7483842372894287,0.1909045462517268,0.17254639770953897,-5.0
1.7588653564453125,0.19285853341909354,0.1739993155143911,-5.0
1.7669565677642822,0.19403092571951355,0.17555652373119182,-5.0
1.7779638767242432,0.19559411545340694,0.17722705318405887,-5.0
1.7880244255065918,0.19657110903709027,0.17901360224581428,-5.0
1.7969071865081787,0.1975481026207736,0.18091251540112646,-5.0
1.8069465160369873,0.19832969748772028,0.1829197965973061,-4.902265744280774
1.8161096572875977,0.19911129235466699,0.1850361585703935,-5.0
1.8258874416351318,0.19969748850487698,0.18725496167273487,-4.9549658361259326
1.8349499702453613,0.20008828593835032,0.18956844606362508,-3.9257502788483762
1.844486951828003,0.20028368465508697,0.191972886145124,-3.556185344467413
1.8522720336914062,0.20047908337182369,0.19445751372312645,-2.8744943047006544
1.8619580268859863,0.20067448208856034,0.1970098401988098,-2.1873260248988924
1.8723347187042236,0.20086988080529702,0.1996248161638201,-1.8787464943480536
1.8819708824157715,0.20067448208856034,0.20229462789095704,-1.452119334249915
1.8899047374725342,0.20086988080529702,0.2050015810270595,-0.7750762061664207
1.8989484310150146,0.20086988080529702,0.20772474877434352,0.13930194342514302
1.909346342086792,0.20086988080529702,0.2104474734690002,0.6786601385201108
1.9179158210754395,0.20086988080529702,0.21315433557411015,1.2626782892155608
1.926931381225586,0.20086988080529702,0.2158303110325295,2.0109997171903498
1.9358632564544678,0.20086988080529702,0.2184639767245049,2.6459137325275863
1.9458961486816406,0.20106527952203365,0.22104260209491816,3.0919259332911415
1.9559226036071777,0.20106527952203365,0.22355433466129737,3.6313046800960542
1.9663910865783691,0.20145607695550702,0.22599202902892038,4.054689836672212
1.9754858016967773,0.2016514756722437,0.2283493086056624,4.587663959083844
1.983922004699707,0.202042273105717,0.230618107712604,4.9996086777272915
1.9943015575408936,0.2028238679726637,0.2327924910661322,5.0
2.0051369667053223,0.2034100641228737,0.23487051894904046,5.0
2.0150575637817383,0.20399626027308376,0.23685289098995832,5.0
2.0229361057281494,0.20458245642329373,0.23874307850552376,5.0
2.033222198486328,0.2055594500069771,0.24054719280292094,5.0
2.0435497760772705,0.2067318423073971,0.2422735849968924,5.0
2.05102276802063,0.2075134371743438,0.24392943952355636,5.0
2.061476945877075,0.2086858294747638,0.24552332554302095,5.0
2.0702760219573975,0.20985822177518385,0.24706702685723075,5.0
2.080519914627075,0.21142141150907717,0.24856877093518326,5.0
2.0899510383605957,0.21298460124297056,0.25003633525668867,4.946859648855574
2.099883556365967,0.21435239226012726,0.2514793428702069,5.0
2.1083736419677734,0.2159155819940206,0.2529027737790255,4.848913789065648
2.1171152591705322,0.217478771727914,0.2543098427088965,4.559777500029593
2.1273863315582275,0.21962815761201734,0.25570729732257375,4.50244601043997
2.1374402046203613,0.22138674606264738,0.2570995884786131,4.200580937490178
2.145012855529785,0.22294993579654077,0.25848469947662556,3.8269234433089636
2.1552560329437256,0.22509932168064412,0.25985996249504484,3.455220632065985
2.163529396057129,0.22685791013127415,0.2612227219934814,3.11330811528048
2.172001361846924,0.22881189729864085,0.2625686348189333,2.808591754116164
2.181959629058838,0.2311566818994809,0.2638978510951745,2.5400455626336975
2.191197395324707,0.2331106690668476,0.26521095536225087,2.0276510357401527
2.198929786682129,0.23506465623421427,0.26650550407653056,1.5097604925251364
2.209423303604126,0.23760483955179101,0.26778288161982056,1.3464206690338543
2.2190191745758057,0.24053582030284107,0.269048467993899,1.312123695728551
2.228172540664673,0.24268520618694442,0.2703064755955985,1.0341111010837012
2.238952875137329,0.24581158565473116,0.2715642261060685,0.7180351361370463
2.248093605041504,0.24854716768904456,0.2728390388575481,0.44114077765943505
2.256402015686035,0.2506965535731479,0.27414520534863723,0.22417913524368643
2.2649502754211426,0.2532367368907246,0.2754907026219453,-0.21098996984277793
2.2762722969055176,0.2561677176417747,0.27689825892695147,-0.35516950862595176
2.2849347591400146,0.25851250224261474,0.27839668968271136,-0.6500326202658444
2.2939233779907227,0.26105268556019146,0.2800012049054397,-0.9295914597108683
2.303896427154541,0.26359286887776817,0.28172837321794497,-1.1399510464980291
2.3125972747802734,0.2663284509120815,0.28359308611853506,-1.5504190995604938
2.320905923843384,0.2684778367961849,0.28560070609958843,-1.65268975980835
2.331286907196045,0.27160421626397163,0.28776469972356006,-1.8924955166838142
2.3392789363861084,0.27375360214807504,0.2900955769897804,-1.8322761749880772
2.3504562377929688,0.27687998161586175,0.2926010104959821,-1.9409414720534497
2.3599960803985596,0.2792247662167018,0.2953034139340775,-2.060049918692859
2.3702375888824463,0.28176494953427844,0.29821815214416914,-2.135169855609279
2.3785626888275146,0.28410973413511853,0.3013361232624328,-2.156230666113503
2.38588809967041,0.28567292386901194,0.3046365407357931,-2.4060464756025004
2.3972785472869873,0.2889947020535353,0.3081132163388659,-2.3771454735757667
2.405834436416626,0.29153488537111205,0.3117642396578546,-2.235463102943152
2.414930582046509,0.29407506868868866,0.3155674699078079,-2.0575592248043004
2.4254114627838135,0.2970060494397388,0.31950580515500043,-2.153141407075855
2.4329545497894287,0.29935083404057883,0.32356801015873643,-2.0167494296043937
2.4419236183166504,0.30169561864141886,0.32772792765542846,-1.807375255259989
2.4521777629852295,0.3046265993924689,0.33196109502453913,-1.5925934035848095
2.4603896141052246,0.3069713839933089,0.3362457023429908,-1.3977677107843856
2.4708831310272217,0.3097069660276223,0.34055649419330625,-1.2296115702443227
2.4813976287841797,0.31283334549540903,0.34488593186811023,-0.8111989937131193
2.4899489879608154,0.31537352881298575,0.3492354531638999,-0.3819678464090669
2.49788498878479,0.31752291469708915,0.3535871640300628,-0.30226178282571803
2.5061440467834473,0.3202584967314025,0.3579208299430271,-0.07058144720869955
2.515087842941284,0.3229940787657159,0.3622360434330765,0.1668623176023904
2.522905111312866,0.325338863366556,0.36654285389923563,0.35904524348871647
2.534105062484741,0.3290514389845527,0.3708532249311254,0.7718692400796223
2.543207883834839,0.3315916223021294,0.3751714165007056,1.1680406712042122
2.5550649166107178,0.3356949953535995,0.37950424820042616,1.4695609162805323
2.563899517059326,0.33862597610464956,0.3838787834637999,1.6656799018893844
2.574946641921997,0.34233855172264627,0.3883298916930586,1.7706089158613971
2.5859827995300293,0.3462465260573797,0.39288868197786275,2.081029299000019
2.5957682132720947,0.3497637029586398,0.39756072559907535,2.09762731894722
2.6049253940582275,0.3530854811431631,0.4023290798512634,1.9912893863295058
2.614021062850952,0.3569934554778965,0.407187988038365,2.117713171225961
2.6219117641448975,0.3603152336624199,0.41213108273371457,1.9936147922982295
2.631880760192871,0.36402780928041667,0.41714117190502387,2.0645419507864933
2.6428799629211426,0.3683265810486234,0.42222124156566115,2.1600166688005165
2.6515393257141113,0.37203915666662013,0.4273813694797617,1.9432969448548905
2.6617770195007324,0.3759471310013535,0.43260809541414125,1.919946154488362
2.671900510787964,0.3798551053360869,0.43789523372715794,1.6642190973713893
2.6810483932495117,0.3837630796708204,0.44325148683790005,1.0862460343658427
2.6900858879089355,0.3872802565720805,0.44866329159237767,0.5012896870228504
2.698895215988159,0.3907974334733405,0.4540992373938589,0.01921095187411087
2.7070772647857666,0.3941192116578639,0.45953082450034627,-0.614415123571049
2.7167842388153076,0.3980271859925973,0.4649325590015108,-0.8930391470955228
2.7259790897369385,0.40173976161059405,0.47028867574217775,-1.2697358353453967
2.7371206283569336,0.4064293308122741,0.4755917101875063,-1.5912027208451773
2.7458138465881348,0.4101419064302709,0.48083413218187565,-1.8147124689643757
2.7555012702941895,0.4144406781984775,0.4860090782900574,-1.9424366170768987
2.7640140056610107,0.4175670576662643,0.4911111201713929,-1.99174097444082
2.7740955352783203,0.4214750320009977,0.4961369102387778,-1.9825254395913152
2.781864643096924,0.42440601275204776,0.501078875152202,-1.9324271457954403
2.7922139167785645,0.42850938580351783,0.5059337032559632,-1.8554941536904637
2.8016583919525146,0.4322219614215146,0.5107085922816799,-1.4862333677069164
2.813241481781006,0.43671613190645797,0.5154145852701324,-1.3512061406975753
2.8208718299865723,0.439647112657508,0.5200664316127327,-1.3010428191213412
2.831165075302124,0.4443366818591881,0.52467342895919,-1.2721241923645383
2.8405802249908447,0.4480492574771848,0.5292508838156434,-1.2402754061150243
2.8505923748016357,0.4523480292453916,0.533828127356129,-1.1986510730229205
2.8588979244232178,0.4554744087131783,0.5384378141515015,-1.1474038242587477
2.8673367500305176,0.45879618689770174,0.543101307076921,-1.089026128022157
2.877332925796509,0.4628995599491718,0.547829011724928,-1.0263758764482374
2.8878841400146484,0.46719833171737857,0.5526633274941066,-0.9619368993373301
2.8988850116729736,0.47169250220232195,0.5576741888199679,-0.8976221154625241
2.906928777694702,0.4750142803868453,0.5628775126603041,-0.834795665360435
2.9178647994995117,0.4793130521550521,0.5682573667378855,-0.774367936268233
2.9260611534118652,0.4826348303395755,0.5738672670384501,-0.7169014486334806
2.937464475631714,0.4869336021077822,0.5797861646267146,-0.662704296015018
2.9453933238983154,0.490059981575569,0.586028239159937,-0.6119048767171591
2.9548771381378174,0.49396795591030235,0.5925676326930206,-0.5645085586944948
2.9646477699279785,0.4982667276785091,0.5993962874335531,-0.5204392370024955
2.972912073135376,0.5015885058630325,0.6065034537356944,-0.47956910840631695
2.9808828830718994,0.5047148853308193,0.6138756692228495,-0.44173961511943727
2.9916274547576904,0.5090136570990259,0.621531809169647,-0.6828142944239421
3.000422716140747,0.512530834000286,0.6294661459013061,-0.6836597970232301
3.0089333057403564,0.5160480109015461,0.6376348384755041,-0.5987869416652278
3.016862154006958,0.5191743903693328,0.645996849329151,-0.4952531742630393
3.0248584747314453,0.5224961685538563,0.6545136887677246,-0.39943897089794206
3.035879135131836,0.5269903390387995,0.6631652808958606,-0.31952189814132137
3.0438854694366455,0.5299213197898497,0.6719312660402916,-0.25607368248670903
3.052877902984619,0.5336338954078464,0.6807747336735818,0.06912764407518415
3.0639562606811523,0.5381280658927898,0.6896916261163621,0.1399573288949098
3.0750179290771484,0.5426222363777332,0.6987057706900498,0.11374221701110092
3.0829405784606934,0.5455532171287834,0.7078199188437222,0.059894645242614196
3.0920250415802,0.54926579274678,0.7170056754750563,0.006661724284369144
3.1018991470336914,0.5535645645149868,0.7262250268269268,-0.03633896482235063
3.1109087467193604,0.5574725388497203,0.735464087242614,-0.06743867676475096
3.1206846237182617,0.5615759119011904,0.744730996933408,-0.36402642434866717
3.130988359451294,0.5654838862359236,0.7540381683807325,-0.40934297059733704
3.1391212940216064,0.5688056644204471,0.7634017301682129,-0.36022793058169544
3.146886110305786,0.5719320438882337,0.7728210511367161,-0.2857150422248905
3.155979871749878,0.5752538220727572,0.7822803940684345,-0.2137529149833253
3.165827751159668,0.5791617964074907,0.791789586028518,-0.42975826169562453
3.17521333694458,0.5832651694589607,0.8013593410433131,-0.41625266032669395
3.183940887451172,0.5865869476434841,0.8109813007404364,-0.32641556601181715
3.193678379058838,0.5906903206949541,0.8206720189912927,-0.22515179209600727
3.202833652496338,0.5940120988794776,0.8304463304796383,-0.1367469228875685
3.2118163108825684,0.5975292757807376,0.8403177717418887,-0.06763858306987594
3.2218518257141113,0.601437250115471,0.8503416162804713,-0.017062647284500014
3.231220006942749,0.6057360218836778,0.8605627719224594,0.018141178370592554
3.2398619651794434,0.6092531987849378,0.8709936892041266,0.04148876354888255
3.2488465309143066,0.6131611731196712,0.881618785334431,0.05608473294721367
3.257836103439331,0.6166783500209313,0.8923982527239208,0.06441643108328854
3.266801595687866,0.620390925638928,0.9033140449184979,0.06837501405406657
3.2768778800964355,0.6244942986903982,0.9143654059907177,0.06935282300855239
3.2869858741760254,0.6284022730251315,0.9255438969170569,0.06835280515232059
3.2959210872650146,0.6319194499263915,0.9368343043639988,0.06608569679395376
3.30556321144104,0.6358274242611249,0.9482157174027979,0.06304830752035188
3.313905715942383,0.6393446011623851,0.9596466304024428,0.05958341206390767
3.321840524673462,0.6424709806301717,0.9710695162896319,0.0559241888084924
3.331841468811035,0.6465743536816418,0.9824469403643629,0.05222655415454221
3.3401665687561035,0.6498961318661652,0.9937584844695058,0.04859238296474974
3.350250720977783,0.6539995049176353,1.0049823436461616,0.04508603094088297
3.3590967655181885,0.6575166818188953,1.0160968403475235,0.04174601120171832
3.367865562438965,0.6610338587201554,1.0270687312758304,0.03859320207427176
3.3778648376464844,0.6649418330548889,1.0378564158458927,0.0356365900730687
3.387833595275879,0.6692406048230957,1.0484257729118163,0.03287727074582117
3.3988380432128906,0.6739301740247756,1.0587620967732083,0.0303112230829111
3.411864995956421,0.6790105406599292,1.068891839554776,0.027931223274805725
3.4235846996307373,0.683309312428136,1.0788631355130063,0.025728156160266438
3.4313371181488037,0.6866310906126593,1.088692910478197,0.023691906250838037
3.4392807483673096,0.6899528687971827,1.0983600829247493,0.02181195608918676
3.4478323459625244,0.6934700456984426,1.1078363230691153,0.020077781504016488
3.4558703899383545,0.6965964251662294,1.117099642393008,0.01847910644766721
3.4638595581054688,0.6997228046340161,1.12613365722046,0.017006061222819408
3.4767727851867676,0.7049985699859063,1.1349382986803214,0.015649274661845593
3.4848315715789795,0.708124949453693,1.1435271659997093,0.014399921541275416
3.495936393737793,0.7124237212218996,1.1519133453532815,0.01324974002288495
3.505902051925659,0.7165270942733698,1.1601204959138178,0.012191029368652555
3.5151641368865967,0.7202396698913666,1.1681701839898433,0.011216635004529404
3.5238935947418213,0.7237568467926265,1.1760709255842494,0.010319925794960468
3.5349326133728027,0.7282510172775699,1.1838316764529613,0.28553312652407303
3.5438969135284424,0.7319635928955668,1.1914507911093792,0.31789845291799435
3.5534214973449707,0.7356761685135634,1.1989177712177805,0.26210257032610634
3.561210870742798,0.7389979466980869,1.2062368617813553,0.18537476528934316
3.5708296298980713,0.7429059210328203,1.2134245629317084,0.11426066699886644
3.5788345336914062,0.7462276992173437,1.220485265595152,0.33313309263057134
3.588717460632324,0.7501356735520771,1.2274128417310377,0.047721101626211584
3.6018612384796143,0.7554114389039671,1.2342244993974527,-0.07037648678489405
3.609863042831421,0.7585378183717539,1.2409459563054892,-0.11131577792150966
3.622274398803711,0.763813583723644,1.2475874959874522,-0.11829584268467111
3.632262945175171,0.7675261593416408,1.254167042381761,-0.11159527413837689
3.6404709815979004,0.7714341336763741,1.2606991721911855,-0.10042350640057662
3.65190052986145,0.7751467092943709,1.2671857214324733,-0.08872956631648332
3.6610331535339355,0.7790546836291042,1.2736287972894158,-0.07802458055708683
3.668825387954712,0.782181063096891,1.2800212614053492,-0.06873569041779973
3.6778252124786377,0.7858936387148877,1.2863486096524843,-0.060842843909645436
3.686492919921875,0.7894108156161478,1.2926107753523894,-0.05416905016039947
3.69602108001709,0.7933187899508811,1.2988202927437509,-0.04850578360987395
3.7051944732666016,0.7970313655688779,1.304990280303742,-0.043661858058664446
3.7128381729125977,0.8001577450366647,1.3111229417002261,-0.03947816386728051
3.721827983856201,0.8036749219379247,1.3172108540692349,-0.03582822810373264
3.7298128604888916,0.8071920988391849,1.3232490913677346,-0.032613711611694005
3.7390248775482178,0.8109046744571815,1.3292461173951642,0.24627956595941147
3.7472646236419678,0.814226452641705,1.3352215252028752,0.28195796738927037
3.7598674297332764,0.8191114205601217,1.3411924419738104,0.22915878682130014
3.771883726119995,0.8234101923283283,1.3471847900245801,0.1551517637160909
3.7808332443237305,0.8273181666630619,1.3532196252132918,0.08651532853928068
3.7888200283050537,0.8306399448475852,1.359290776505104,0.03161096141658432
3.7968485355377197,0.8339617230321086,1.3653803979353323,-0.0088191815764375
3.8048222064971924,0.8370881024998954,1.3714829226227365,-0.03680106705209936
3.814866781234741,0.8411914755513653,1.3776028778034946,-0.05501644256214044
3.822861909866333,0.8443178550191521,1.3837318164365966,-0.06596588320564135
3.8308417797088623,0.8476396332036755,1.389850648943982,-0.0717037085013302
3.8408095836639404,0.8517430062551457,1.3959521363177105,-0.07381276234691997
3.8488380908966064,0.8546739870061957,1.402029365093679,-0.07346687840664617
3.8593013286590576,0.8589727587744024,1.4080750952083183,-0.07151461990716981
3.8677990436553955,0.8622945369589258,1.4140920061468567,-0.06855786247564472
3.8778135776519775,0.8663979100103958,1.4200721997050862,-0.06501674595026205
3.886350631713867,0.869915086911656,1.4260081466853571,-0.061180076985036774
3.8948421478271484,0.8734322638129159,1.4318934668018408,-0.33328140599250095
3.9051270484924316,0.8773402381476494,1.43772270388748,-0.3624977812851098
3.9138271808624268,0.881052813765646,1.4435094757334561,-0.3036041168005449
3.9228219985961914,0.8845699906669061,1.4492567481845842,-0.2238855663581975
3.9320759773254395,0.888282566284903,1.454949580169515,-0.14992130042513518
3.9398083686828613,0.8914089457526896,1.4605759803122316,-0.0900640690263195
3.948817253112793,0.8953169200874231,1.466126662568539,-0.045041407884937115
3.96047306060791,0.9002018880058399,1.4716125286891306,-0.012809287088738196
3.9688100814819336,0.9035236661903633,1.4770524725892449,0.009333888210112011
3.97918701171875,0.9076270392418332,1.4824539465512805,0.023909213093559655
3.987567663192749,0.9105580199928834,1.4878234721754287,0.03299146785818663
3.995810031890869,0.9142705956108801,1.493157894419838,0.03818342802504261
4.005409240722656,0.9179831712288767,1.498454589973439,0.040678039763399836
4.014010667800903,0.9215003481301368,1.5037201675432263,0.04134199260033516
4.022857189178467,0.9248221263146603,1.508960020842413,0.040794218320807485
4.030851364135742,0.9281439044991837,1.5141699009525778,0.03947081440298275
4.038805723190308,0.931465682683707,1.5193291348916698,0.037675454713260476
4.049706697463989,0.9361552518853872,1.5244202346256817,0.31165549782810853
4.058820962905884,0.9396724287866473,1.529444992940122,0.34260078680154665
4.068211317062378,0.9435804031213805,1.5344126562231568,0.2852980705949289
4.077382564544678,0.9472929787393772,1.5393301555957402,-0.06899492372626498
4.08579421043396,0.9506147569239006,1.5441950152012711,0.10130153976280584
4.096585988998413,0.9551089274088441,1.549004197899189,0.13090550244800167
4.109914779663086,0.9605800914774709,1.553776077098739,-0.16802749874388
4.118829011917114,0.9642926670954678,1.558525462327968,-0.5139358020927898
4.127790689468384,0.9680052427134643,1.5632428196888009,-0.5270419857961965
4.135798454284668,0.971131622181251,1.567912875330738,-0.424171208240553
4.150959253311157,0.9767981849666146,1.57253618734187,-0.29841124239618766
4.161398649215698,0.9809015580180845,1.5771333271083237,-0.46163277620326537
4.170209884643555,0.984809532352818,1.5817150507610604,-0.40531630848161065
4.178819179534912,0.9881313105373414,1.586270580480961,-0.2841449374329724
4.187137842178345,0.9914530887218647,1.5907845519141068,-0.16170310876316818
4.198815107345581,0.996142657923545,1.5952512290432053,-0.06017570288140969
4.206872940063477,0.9992690373913317,1.599673200802543,0.016049160179691033
4.214832305908203,1.002590815575855,1.604046806396393,0.0694512905486512
4.22379732131958,1.0064987899105884,1.608363167086534,0.38056304041284855
4.235141754150391,1.0115791565457417,1.61262949698767,0.4349409391166212
4.242809772491455,1.0143147385800553,1.6168597905909958,0.39109944572364064
4.251132249832153,1.0178319154813154,1.621053273635173,0.31926799847148496
4.2599334716796875,1.0213490923825752,1.6252034374291084,0.24824054507293655
4.267803907394409,1.0244754718503621,1.6293058664768056,0.18798830730009536
4.2767863273620605,1.0279926487516222,1.6333653967371267,0.14039775444793728
4.286623954772949,1.0319006230863554,1.6373948670391991,0.10424169612885054
4.298088073730469,1.036394793571299,1.6414148753115894,0.07738629577637646
4.305808782577515,1.0395211730390856,1.6454448490183768,0.057699597806861846
4.314802408218384,1.043429147373819,1.649479106059525,0.043369299445215594
4.324028730392456,1.0473371217085525,1.6535156049987692,0.03296608685268315
4.3319313526153564,1.0504635011763392,1.6575804486056709,0.025408413228084365
4.341809988021851,1.0545668742278094,1.6616885539270272,0.01989806018117358
4.350873708724976,1.0580840511290694,1.6658265437671222,0.015855134716950693
4.3606603145599365,1.0619920254638027,1.6699940899736923,0.012862615156008865
4.371352195739746,1.0662907972320095,1.6742214039779963,0.010622553630540448
4.378839015960693,1.0696125754165329,1.678524905482179,0.008922924638866911
4.389060020446777,1.0735205497512663,1.6828990111421451,0.007613169335753614
4.398847341537476,1.0776239228027364,1.6873496406839386,0.006586448835982482
4.409250020980835,1.0815318971374697,1.6918921059977992,0.0057669050517955974
4.417816877365112,1.0846582766052566,1.6965386576905799,0.005100582628340849
4.426851511001587,1.0881754535065165,1.7012982916116126,0.00454899175204476
4.434788703918457,1.0916926304077768,1.7061662501913055,0.0040845587993888245
4.444848537445068,1.09618680089272,1.7111260120097251,0.0036874182535136827
4.4537880420684814,1.0998993765107168,1.7161722501728665,0.0033431535472894093
4.462553977966309,1.1032211546952402,1.7213089506298707,0.003041207313127786
4.470813512802124,1.1067383315965003,1.7265271732616172,0.0027737629236035937
4.480957508087158,1.1108417046479702,1.7318169698792967,0.002534957407008983
4.491690158843994,1.115140476416177,1.7371875533072028,0.002320327166793214
4.499830961227417,1.1184622546007006,1.7426348191751513,0.0021264171851909227
4.50780177116394,1.1219794315019607,1.7481336318423397,0.0019505050171942768
4.518064737319946,1.1260828045534306,1.7536796374362522,0.2778287650754482
4.526077747344971,1.129404582737954,1.7592769348030748,0.3108072943200413
4.534838676452637,1.1327263609224774,1.7649090050994247,0.2555765021542625
4.54381251335144,1.1362435378237374,1.7705517298914721,0.17936924097999069
4.553351163864136,1.1399561134417342,1.776184332674422,0.10873450551632272
4.562295436859131,1.1438640877764674,1.7817982033124393,0.05200990900337009
4.5715062618255615,1.1473812646777275,1.7873952837552745,0.00991793166196504
4.578752756118774,1.1499214479953044,1.7929684922962401,-0.01958388179126163
4.588000297546387,1.1542202197635112,1.7985033390324239,-0.039191311334863324
4.598764419555664,1.1585189915317178,1.8039973394900224,-0.05141704191024302
4.607762813568115,1.1624269658664512,1.8094581620584356,-0.05832597210572352
4.617830991744995,1.1663349402011847,1.8148928683691934,-0.061510284176339934
4.627965211868286,1.1702429145359179,1.820307776100763,-0.0621521265073135
4.637098789215088,1.1737600914371782,1.8257083282750324,-0.061107518021072726
4.644787788391113,1.1770818696217016,1.831090017125921,-0.05898505776784513
4.655818462371826,1.1813806413899082,1.8364487430384142,-0.05621097600060349
4.664360284805298,1.1848978182911682,1.841789780431665,-0.053079615929568016
4.675905227661133,1.1895873874928484,1.847108333349075,-0.0497912152669896
4.686086654663086,1.1938861592610552,1.852399606960289,-0.04647954907675688
4.696219444274902,1.1977941335957885,1.8576673839211695,0.2328065063049537
4.7051098346710205,1.2015067092137852,1.86291343818853,0.26905992672940926
4.716968059539795,1.206391677132202,1.8681450354503273,0.2169399696962692
4.728169679641724,1.211276645050619,1.873373488278045,0.14366329732167143
4.737924098968506,1.2151846193853522,1.8785979957302008,0.0757727707904779
4.7485973834991455,1.219483391153559,1.883807958220687,0.021606510012244784
4.7584638595581055,1.2233913654882922,1.8889926432971762,-0.018108225765807555
4.7664711475372314,1.2265177449560791,1.8941415833882767,-0.045406471986742275
4.77468466758728,1.2296441244238658,1.8992450048570086,-0.06297506412452313
4.782795429229736,1.2327705038916528,1.9042880008345857,-0.07331697437180254
4.793752908706665,1.2370692756598594,1.909251893859701,-0.0784871264108691
4.8047709465026855,1.2413680474280662,1.9141339375775934,-0.08006779790263796
4.813787221908569,1.245471420479536,1.9189389597462096,-0.07923151549984599
4.822065114974976,1.2487931986640595,1.9236598562907612,-0.0768250894135144
4.832435131072998,1.253091970432266,1.928292051539879,-0.07344839694458717
4.841774940490723,1.256804546050263,1.9328394378024791,-0.06951946950619191
4.8497960567474365,1.2599309255180497,1.9373004751846155,-0.0653249849867889
4.859703063964844,1.263838899852783,1.9416689701064804,-0.061058043326246335
4.869062423706055,1.2677468741875166,1.9459476443255048,-0.05684579286180834
4.876762866973877,1.2712640510887767,1.9501402522249462,-0.05276933103644089
4.886510372161865,1.2749766267067733,1.9542449010719372,-0.048877888927186676
4.895648717880249,1.2784938036080336,1.958267896803317,-0.3212372221788395
4.907311677932739,1.2831833728097135,1.9622290121679489,-0.07486946575541459
4.914764404296875,1.2861143535607635,1.9661459644900035,0.016578613733356402
4.924787998199463,1.2900223278954968,1.9700211789319735,0.0405684787814754
4.933805465698242,1.2939303022302302,1.97385727403595,0.03779190267519082
4.94178581237793,1.2970566816980171,1.977656932320787,0.026470579145226783
4.95488429069519,1.3027232444833805,1.9814227676322644,0.014231251465841687
4.962758541107178,1.3056542252344305,1.9851639021596719,0.003851023691829405
4.972882032394409,1.3097575982859004,1.9888816238122495,-0.004004542919829145
4.9807493686676025,1.3128839777536871,1.9925770802351892,-0.2855449161447297
4.99024510383606,1.3167919520884206,1.9962578333646592,-0.3222542275139566
4.998875617980957,1.3203091289896807,1.9999301695705327,0.006752242603447062
5.009786605834961,1.3246079007578877,2.003599222058969,0.11488857844727127
5.017723083496094,1.327929678942411,2.00726905457372,0.12998016430329573
5.027123689651489,1.3316422545604079,2.010942721323439,0.1106841773789478
5.036602020263672,1.3353548301784044,2.0146223593061476,0.08265341940642201
5.045756578445435,1.3390674057964012,2.0183092713156348,0.05614406813824585
5.05526876449585,1.3429753801311346,2.0220039845499187,0.03448765775221473
5.0627686977386475,1.3459063608821848,2.025700298316079,0.018094760410556993
5.0715227127075195,1.3496189365001814,2.0293865047601862,0.006294227639135791
5.081494092941284,1.3537223095516515,2.0330585680566147,-0.0018609932457188932
5.089783668518066,1.3572394864529114,2.0367130269011366,-0.007270599816088075
5.098732233047485,1.3607566633541714,2.0403409210062486,-0.2867194058096729
5.109990358352661,1.3656416312725883,2.0439464835981975,-0.3218345683303928
5.1177637577056885,1.3683772133069014,2.047539188762139,-0.26774040195392546
5.125749588012695,1.3716989914914248,2.0511094431344774,-0.191985838460612
5.135876655578613,1.3756069658261585,2.0546490836807583,-0.12134616409788977
5.146008014678955,1.3797103388776286,2.0581686451457917,-0.34035722787364364
5.15575098991394,1.3836183132123618,2.0616769951651905,-0.33090108079946334
5.1647608280181885,1.3873308888303586,2.0651701007351675,-0.2457043468060615
5.173742771148682,1.3908480657316187,2.0686388280556818,-0.14935807112177396
5.181757688522339,1.3939744451994056,2.072081093673683,-0.06593513853955794
5.19005274772644,1.397296223383929,2.0755008588139696,-0.001732657964358661
5.197867393493652,1.4004226028517157,2.078896054751874,0.04410315765088897
5.206111192703247,1.4039397797529758,2.082259526464092,0.07478686429025784
5.214287042617798,1.407261557937499,2.085590882561691,0.09386424520645045
5.221752643585205,1.4103879374052857,2.0888900289700376,0.10445331592329972
5.231823682785034,1.4148821078902292,2.092151595712576,0.1090437875286129
5.239795684814453,1.418008487358016,2.0953766949236,0.10952199516468848
5.2487428188323975,1.421525664259276,2.098566691616807,0.38330929008845216
5.257758855819702,1.425238239877273,2.1017176956404717,0.4124444539236283
5.268109560012817,1.4295370116454795,2.1048319745634627,0.3523166169725257
5.27776837348938,1.433249587263476,2.1079168935250086,0.27064258338528047
5.285744667053223,1.4365713654479997,2.110973503277797,0.19430102986219383
5.293808221817017,1.4396977449157864,2.113997536749135,0.1318498177307631
5.302759647369385,1.443410320533783,2.116990634180165,0.08415482801961831
5.315314531326294,1.4482952884522,2.119964384201069,-0.22677482764192883
5.323007106781006,1.4514216679199867,2.1229284643731456,-0.28462975355346526
5.330847263336182,1.4545480473877732,2.1258808401228495,-0.2465866235196481
5.3390398025512695,1.45826062300577,2.128819582727652,-0.1819334746955799
5.347090721130371,1.4613870024735567,2.1317430254422023,-0.11881279640135359
5.3568127155303955,1.4649041793748168,2.1346448075710245,-0.06675274893680964
5.3671746253967285,1.4693983498597603,2.137529133598684,-0.027344600630381903
5.374835014343262,1.4725247293275467,2.14040430219766,0.0008302231764224788
5.3848466873168945,1.476628102379017,2.1432629226351225,0.02002473729293828
5.394463062286377,1.4805360767137503,2.1460939396424035,0.032440337159547854
5.403569221496582,1.4840532536150106,2.148897462444332,0.03992487861706066
5.413486003875732,1.4881566266664805,2.1516782326919968,0.04392045784660202
5.424635648727417,1.492650797151424,2.154444537599825,0.04550638569089456
5.432835578918457,1.495777176619211,2.157203084608373,0.0454690028704573
5.440899133682251,1.4990989548037343,2.159950261708378,0.044370388717404605
5.448845624923706,1.5022253342715206,2.1626783636152673,0.04260635009973429
5.4591052532196045,1.5065241060397276,2.165385026224831,0.04045193594061425
5.467019081115723,1.5094550867907774,2.1680724042338673,0.038095736316036265
5.477002859115601,1.5135584598422478,2.170737952157975,0.3117034505432146
5.484798192977905,1.5166848393100343,2.1733752160034223,0.3424072782421996
5.495352745056152,1.5209836110782413,2.1759827844164503,0.28495343987751937
5.5043721199035645,1.5248915854129745,2.178567393959264,0.20660962105103464
5.513729572296143,1.5284087623142348,2.181130660743253,0.13394523864028188
5.521735906600952,1.5315351417820213,2.183665878727375,0.07530852454974457
5.529717445373535,1.534661521249808,2.1861674291607307,0.03142599304089832
5.538702964782715,1.538374096867805,2.1886306963519475,0.0002548773936000108
5.548137664794922,1.5422820712025382,2.191055604796044,-0.020903708902036446
5.557271242141724,1.545994646820535,2.193445836734711,-0.03456728484348233
5.5647337436676025,1.549121026288322,2.195800918489363,-0.04280658060381577
5.5737855434417725,1.5526382031895818,2.1981169561069676,-0.0472201129841385
5.5837907791137695,1.556546177524315,2.200394298149916,-0.04899653704801015
5.593743801116943,1.5608449492925216,2.202636832316786,-0.04899833321735276
5.602889537811279,1.564362126193782,2.204847847750353,-0.047840377933773756
5.614907503128052,1.5692470941121985,2.207033334767935,-0.045954909651155285
5.624003648757935,1.5727642710134586,2.209198272030169,-0.043641962240639834
5.633013486862183,1.576281447914719,2.2113402854768442,-0.04110712301204515
5.640780687332153,1.5794078273825054,2.2134541790062765,-0.03848916859529075
5.652133464813232,1.5840973965841858,2.215538787485855,-0.035879992404092016
5.661152601242065,1.5878099722021823,2.217599292980093,-0.03333882636890763
5.669724225997925,1.5913271491034424,2.2196369585150393,-0.030902315234251285
5.680793285369873,1.595625920871649,2.221649897319485,-0.028591612310405266
5.690715312957764,1.5997292939231191,2.2236428229143876,0.24962100584058358
5.699216842651367,1.6032464708243792,2.2256168687906124,0.28477983149712793
5.707207918167114,1.606372850292166,2.22756709102557,-0.044460558560867725
5.715410232543945,1.610085425910163,2.229492400237889,-0.1519099355865525
5.7237162590026855,1.6134072040946863,2.2313920851978,0.11033405412482196
5.73273491859436,1.6169243809959462,2.2332657103934026,0.16443058155216742
5.742351770401001,1.6204415578972062,2.2351160155735528,0.13925211893417389
5.750766038894653,1.6237633360817296,2.2369397946453775,0.09165999199185323
5.763113975524902,1.6288437027168832,2.238737344686253,0.04479324935225446
5.771395444869995,1.6323608796181432,2.24051767614592,0.00652724256737899
5.780910491943359,1.635878056519403,2.2422828885276855,-0.021777112893914506
5.788807153701782,1.6397860308541365,2.244029213015385,-0.04123466373671846
5.7987682819366455,1.6431078090386602,2.2457564012149023,-0.0536517928673621
5.807911157608032,1.64721118209013,2.2474699376681064,-0.060798830157432836
5.817018985748291,1.6509237577081268,2.2491745406851575,-0.06416137482782988
5.826290130615234,1.6542455358926502,2.250868719519169,-0.06489649288940577
5.833710432052612,1.6571765166437002,2.252545813845758,-0.0638671492365824
5.842743396759033,1.6606936935449603,2.2542003679274893,-0.061698818414873256
5.852030515670776,1.6646016678796938,2.2558334790392904,-0.05883533075991582
5.86272931098938,1.6689004396479008,2.2574490167606265,-0.05558604129008861
5.872522354125977,1.6730038126993705,2.259050402277955,-0.3282012158182693
5.880721807479858,1.6761301921671574,2.260637953940974,-0.35787109032493514
5.8898351192474365,1.6796473690684175,2.2622093790627877,-0.29938084898454076
5.898626327514648,1.6835553434031507,2.263765565317403,-0.22002362600822017
5.910711765289307,1.688049513888094,2.2653100096164573,-0.14638482379857692
5.918672800064087,1.6915666907893543,2.266845638991632,-0.08682210761000647
5.928714990615845,1.6956700638408244,2.2683748359316978,-0.04206694190478298
5.936832427978516,1.6991872407420845,2.2698994452429004,-0.010078485636259075
5.945669412612915,1.7028998163600813,2.271418301287816,0.011842225330233174
5.955402135848999,1.706416993261341,2.2729301963777826,0.0262140805218783
5.962719678878784,1.709543372729128,2.274436467967266,0.035109982701267535
5.9729554653167725,1.7134513470638615,2.2759356266832396,0.04013108680432444
5.981584310531616,1.717163922681858,2.2774261955579886,0.042468923105553
5.99071192741394,1.7204857008663814,2.2789068507903982,0.04298893120004285
5.998668909072876,1.7236120803341684,2.280374014660808,0.04230892989958922
6.0076904296875,1.727324655952165,2.281826969118226,0.04086401866235813
6.018340826034546,1.7316234277203715,2.2832696343243972,0.03895697133648045
6.026931285858154,1.735531402055105,2.2847052092351645,0.0367959715260308
6.034710168838501,1.7384623828061552,2.286131770773998,0.034522237321195436
6.042709112167358,1.7417841609906786,2.2875454189085493,0.032229945292438875
6.052680015563965,1.7456921353254118,2.2889429170962465,0.029980453786334182
6.062702894210815,1.749795508376882,2.290323740521332,0.02781238198924394
6.070695877075195,1.753312685278142,2.29168752780672,0.0257487123960159
6.07868504524231,1.7564390647459287,2.2930319069614016,0.023801772986369332
6.089136362075806,1.7607378365141355,2.294359131736615,0.021976717907915666
6.099711656570435,1.7652320069990788,2.29567530367891,-0.2557644102445325
6.1076905727386475,1.768162987750129,2.2969814326016493,-0.2904721669763608
6.115719318389893,1.7714847659346524,2.2982742580807973,-0.23684303832792575
6.124707937240601,1.7748065441191758,2.2995511111283546,-0.16211685057033684
6.134680271148682,1.778909917170646,2.3008098543880844,-0.09284998324665157
6.143725872039795,1.7826224927886425,2.3020507797411236,-0.31342588177396674
6.1527099609375,1.7861396696899028,2.3032762388266437,-0.3056222599250903
6.162700653076172,1.7902430427413727,2.304488297883165,0.05394270613145094
6.173772096633911,1.7945418145095795,2.305688772021702,0.1817718093197404
6.182696580886841,1.7980589914108396,2.3068811785534042,-0.06752518633177895
6.191748857498169,1.8017715670288363,2.3080685214895564,-0.11404169472124034
6.200563192367554,1.8056795413635696,2.3092495383185643,0.19098211039700652
6.208718776702881,1.8090013195480932,2.3104232140128214,0.27291722848879807
6.220693826675415,1.8138862874665098,2.3115906593097217,-0.011863249499898088
6.230689525604248,1.81798966051798,2.3127528463375095,-0.08443713993602711
6.238715648651123,1.8213114387025033,2.3139087279832413,0.2021601353606638
6.249359607696533,1.8254148117539735,2.315055576263064,0.27149276241383036
6.257753849029541,1.8287365899384969,2.31619301968833,0.25443506044357445
6.26667594909668,1.832253766839757,2.317320797224969,-0.0662909445019941
6.275966644287109,1.8359663424577535,2.3184386766772893,-0.1470263510531417
6.2863311767578125,1.8400697155092236,2.319550107796888,0.14265761821480635
6.293676376342773,1.8431960949770103,2.320656147128952,0.21882642123825913
6.303037166595459,1.8471040693117438,2.3217557303362772,0.20914535110163923
6.31473445892334,1.8519890372301604,2.3228513589002397,-0.10488807875846237
6.3247833251953125,1.8560924102816307,2.3239449785843145,0.09607875952645188
6.332693099975586,1.859414188466154,2.3250346255896113,0.1475006800868171
6.344763517379761,1.864103757667834,2.326118457515136,-0.13680939560625346
6.352668762207031,1.8672301371356208,2.3271963931131787,-0.19752618728528215
6.362676382064819,1.871333510187091,2.3282664278560516,-0.17233943684541053
6.372697591781616,1.8754368832385613,2.329326675560695,-0.12220915518465691
6.381645202636719,1.8789540601398211,2.330375760627471,-0.07210530012409341
6.394035816192627,1.883643629341501,2.3314126134307767,-0.030664423288818986
6.402914524078369,1.8867700088092878,2.332439374178464,0.0004811810386560235
6.412725925445557,1.8910687805774946,2.3334577912005345,0.29842662830270855
6.424263000488281,1.8957583497791746,2.3344691638151223,0.3460525107938268
6.431759834289551,1.899080127963698,2.3354745152579266,0.29987394562511527
6.441722869873047,1.903183501015168,2.336471785188413,0.22866578834457224
6.449911594390869,1.9065052791996915,2.3374592286523863,0.16018366282723107
6.457771062850952,1.9096316586674782,2.338435437106229,0.10366871943195904
6.466433763504028,1.9131488355687383,2.339397890171469,0.06050102329186479
6.474816799163818,1.9164706137532617,2.3403445960873586,0.029106990755066647
6.4851133823394775,1.9209647842382052,2.3412754242313043,0.007119660191507338
6.492745637893677,1.9238957649892552,2.3421931738744384,-0.007746555451907566
6.501709938049316,1.927608340607252,2.3430989624331886,-0.017402232453357577
6.510075807571411,1.9309301187917753,2.343991104675012,-0.023336710592405732
6.518671989440918,1.9340564982595623,2.3448683098028216,-0.026665371324155848
6.528385877609253,1.9379644725942955,2.3457296511921504,-0.028202528855923566
6.53729510307312,1.9416770482122923,2.3465758911926544,-0.02853233207995004
6.544673442840576,1.944803427680079,2.347407844630669,-0.02806831661937271
6.554681062698364,1.9485160032980757,2.3482249919163998,0.24893832499822965
6.563091039657593,1.9520331801993358,2.349028379577535,0.2833348107523977
6.57270359992981,1.9559411545340692,2.3498203549268375,-0.04636288338236402
6.58267617225647,1.960044527585539,2.350602981305485,-0.15406162727655143
6.592321395874023,1.9641479006370093,2.351378052869593,0.10807315135253343
6.60068416595459,1.9672742801047958,2.3521471082650707,0.16215347879970898
6.609705448150635,1.9707914570060558,2.352910169149495,0.13701916900585975
6.61945915222168,1.9746994313407895,2.3536672542785495,0.08950903485306173
6.628742456436157,1.978607405675523,2.3544196668731714,0.04274670232749697
6.637286424636841,1.9819291838600464,2.355167218276045,0.004597044677851984
6.644700050354004,1.9848601646110962,2.3559084676230677,-0.02358606124444849
6.65324592590332,1.9883773415123565,2.3566422240435063,-0.04292211465039015
6.661734342575073,1.9916991196968798,2.357367521182975,-0.05522050162314737
6.673765659332275,1.9967794863320332,2.3580835819404258,-0.06225342046014084
6.681672096252441,1.9999058657998199,2.3587898070443467,-0.06550756293279135
6.6916773319244385,2.00400923885129,2.3594857476457354,-0.066140561591153
6.699772119522095,2.0073310170358134,2.3601722422678866,-0.06501559545716111
6.708783149719238,2.0112389913705466,2.3608511933334415,-0.06275812107994723
6.717208385467529,2.014756168271807,2.3615241644932743,-0.05981180172719375
6.727757930755615,2.0188595413232773,2.362193513737052,-0.056485733348536765
6.735716342926025,2.0219859207910633,2.362861137617003,-0.052991509975354484
6.745800733566284,2.025893895125797,2.3635263033983804,-0.04947114501513214
6.75564169883728,2.0298018694605307,2.364188269634177,-0.04601757806611689
6.765729665756226,2.033709843795264,2.3648474105449546,0.23334887281847658
6.7743494510650635,2.036836223263051,2.365503917811168,0.26964110050964535
6.783758640289307,2.040744197597784,2.3661578123673856,-0.05850614781357616
6.793624639511108,2.0446521719325172,2.3668090276250804,-0.16491449677950662
6.806070327758789,2.050123336001144,2.367458375897014,0.09831199979117795
6.815725803375244,2.053835911619141,2.368107335807481,0.15332977860006525
6.82566237449646,2.057743885953874,2.368756030045725,-0.14702734470604534
6.833660125732422,2.0610656641383978,2.369402575992746,-0.22694464524978183
6.8416359424591064,2.0641920436061842,2.370044406436634,-0.21797270001769997
6.850639343261719,2.0679046192241812,2.3706802222629735,-0.1794674148396811
6.859068870544434,2.071421796125441,2.37130979887673,-0.13661478940487787
6.8680360317230225,2.0749389730267014,2.371932921391872,-0.09886494176714748
6.8771398067474365,2.0786515486446984,2.3725485489135703,-0.06874428032997427
6.885669708251953,2.0819733268292215,2.373154122378438,-0.04597821115853698
6.897042751312256,2.086467497314165,2.373748396328479,-0.029354135305303994
6.908349990844727,2.0907662690823714,2.374333767925782,-0.017514106089003396
6.9164910316467285,2.094088047266895,2.374912300885631,-0.009253976167840756
6.926140546798706,2.098386819035102,2.3754832554176635,-0.0036049507906893725
6.935710668563843,2.1022947933698353,2.3760460268813017,0.00017324351111989338
6.945730686187744,2.106398166421305,2.3766009728489914,0.002629094367178479
6.953721046447754,2.1091337484556187,2.377147671654153,0.004160989838674722
6.962964773178101,2.1128463240736153,2.3776858202756235,0.005054379658673516
6.9717652797698975,2.116558899691612,2.3782160144846825,0.005511774037139655
6.98104453086853,2.120271475309609,2.378738041121543,0.0056757316630880236
6.988661289215088,2.1233978547773957,2.3792510034024943,0.005645941925945006
6.997277021408081,2.126719632961919,2.379754244947004,0.005491674284725814
7.006749629974365,2.1304322085799154,2.3802480948605806,0.00526073551880903
7.016381025314331,2.134535581631386,2.3807337020914106,0.004985858190104716
7.024667024612427,2.1376619610991727,2.3812113528027425,0.004689229038312086
7.033739805221558,2.1411791380004326,2.3816813318320724,0.0043856845898891834
7.042636156082153,2.144891713618429,2.3821446851716233,0.004084958646069684
7.052702903747559,2.148995086669899,2.382601587112501,0.0037932586862886955
7.061983108520508,2.1525122635711593,2.3830521798208,0.003514368981464386
7.070967197418213,2.156420237905893,2.3834973200281713,0.0032504207949218033
7.081657648086548,2.1609144083908363,2.383937720240445,0.0030024288831732955
7.091759443283081,2.165017781442306,2.3843739486430278,-0.2732676954701305
7.099748849868774,2.168144160910093,2.384806450966202,-0.3066080508181294
7.1090710163116455,2.1720521352448263,2.3852355667010325,-0.251711056420556
7.117671728134155,2.175178514712613,2.385660881689944,-0.17581153166340396
7.127171993255615,2.17889109033061,2.3860813637195766,-0.10546036345434902
7.13990592956543,2.1841668556825,2.3864974039658895,-0.048996963652059564
7.150749444961548,2.1886610261674435,2.3869105667393327,-0.0071455076753522175
7.160706043243408,2.19237360178544,2.387321467822091,0.02213487184609421
7.169870853424072,2.1958907786867,2.3877299306599573,0.041538474177618634
7.177666664123535,2.199017158154487,2.3881351796709533,-0.2224617515577626
7.186549186706543,2.2023389363390105,2.3885359535652126,0.027188293335134228
7.195729732513428,2.206637708107217,2.3889317672240993,0.11843559764195156
7.203679323196411,2.210154885008477,2.3893222453247427,0.13991900449005254
7.21201753616333,2.213281264476264,2.38970652342605,0.13317756100135708
7.22164249420166,2.2173846375277337,2.3900844635375655,0.11703045923518562
7.229645013809204,2.2205110169955207,2.3904560148581973,0.09951831932831395
7.238648414611816,2.224223592613517,2.390820654299073,0.08369972389054264
7.251176595687866,2.2291085605319343,2.3911791162289786,0.07042758621827841
7.259220361709595,2.2324303387164575,2.391533190410987,0.05965198306968157
7.267634153366089,2.2359475156177178,2.3918833561528237,0.05101180483906288
7.275625467300415,2.2390738950855043,2.3922289760560727,0.04408872563778199
7.285691022872925,2.2429818694202375,2.392569568452043,0.03850487266451784
7.295665264129639,2.246889843754971,2.3929047934646204,-0.24208723554904876
7.304317235946655,2.250407020656231,2.3932349937861352,-0.2789760948841533
7.312188386917114,2.253533400124018,2.3935610887411376,-0.22703591166808007
7.319652318954468,2.2566597795918044,2.3938833722955097,-0.15363698062165462
7.330188512802124,2.2607631526432748,2.3942016088638587,-0.08543048590512671
7.338571548461914,2.2640849308277984,2.3945162029608054,-0.03083002385210455
7.350235223770142,2.268774500029478,2.3948286441519637,0.009385168179409861
7.357630014419556,2.271705480780528,2.3951402253762972,0.03721479475987133
7.36667013168335,2.276004252548735,2.3954503925791593,0.33136042235632746
7.375624895095825,2.2791306320165217,2.3957581349688493,0.3753574482897348
7.385967016220093,2.2832340050679916,2.396063716363198,0.32594290018074623
7.395666837692261,2.2871419794027252,2.3963679098215542,-0.024111085110107983
7.405684471130371,2.291245352454195,2.396671354627905,-0.1281330192681297
7.414036512374878,2.2945671306387183,2.3969745686581696,0.1444074904384955
7.421611309051514,2.297498111389769,2.397277416822723,0.20864716066135983
7.43304181098938,2.3019922818747123,2.397579731712498,0.19110465730013595
7.444644927978516,2.3068772497931285,2.3978828797128173,-0.12777024588288644
7.453622579574585,2.310199027977652,2.398187942965147,0.07052201210439032
7.464687824249268,2.314693198462596,2.398494682893606,0.12078194314681849
7.472905158996582,2.317819577930382,2.3988027825979574,0.11237669469724218
7.481110334396362,2.3209459573981692,2.3991113951299936,-0.19070862435840003
7.4906158447265625,2.3248539317329024,2.3994197057434574,-0.2527678523576362
7.500621557235718,2.328957304784373,2.3997269706802227,0.05364614819019653
7.509839296340942,2.3326698804023693,2.4000320340307346,0.14380775476907853
7.517655372619629,2.3359916585868925,2.4003343074163452,0.14547969218267187
7.527539968490601,2.3397042342048895,2.40063367225113,0.11659453171031745
7.537638902664185,2.3438076072563594,2.4009299670977087,0.0819590318279447
7.545689344406128,2.3471293854408826,2.4012230033221766,0.05106915925122489
7.554733753204346,2.3508419610588795,2.40151219415778,0.02664162454551737
7.5639989376068115,2.35435913796014,2.401797003654059,0.008616494733827345
7.5715978145599365,2.3572901187111897,2.4020773287589168,-0.004025683974673767
7.580393314361572,2.3611980930459233,2.4023527111080094,-0.012484230265570152
7.588619709014893,2.36432447251371,2.4026224310088002,-0.017838712359507364
7.597605466842651,2.36784164941497,2.402885914603112,-0.02096226963593152
7.606626033782959,2.3711634275994937,2.403143019154501,-0.02252244600291471
7.615694999694824,2.3748760032174903,2.4033939768452837,-0.02301251085526617
7.626234769821167,2.379174774985697,2.4036390026490233,0.2532496223308936
7.63460111618042,2.382691951886957,2.4038779938383437,0.28705880283347984
7.644678115844727,2.386795324938427,2.4041108838064513,0.2329296826424055
7.653656005859375,2.3901171031229502,2.4043382264996316,-0.11806455340593544
7.662052154541016,2.3936342800242105,2.404560219390245,-0.22050531759176034
7.672625541687012,2.3975422543589437,2.4047764578948176,-0.22080205483135062
7.680659532546997,2.4006686338267307,2.404986869776002,-0.46154077033950136
7.689024925231934,2.403404215861044,2.405191663234938,-0.7284229576595325
7.697394847869873,2.4063351966120936,2.405390780578574,-1.220313011498832
7.706709623336792,2.4096569747966177,2.405583963173319,-1.9525910916686329
7.718100070953369,2.412783354264404,2.4057714730187487,-2.5997101879846194
7.726455211639404,2.4151281388652444,2.4059537626778646,-3.6173356603011007
7.737390756607056,2.417668322182821,2.4061307636028992,-5.0
7.74873423576355,2.4200131067836606,2.406302412213449,-5.0
7.762732982635498,2.422553290101238,2.4064690561005437,-5.0
7.772596597671509,2.4241164798351313,2.40663115364261,-5.0
7.780945539474487,2.425288872135551,2.406788873389035,-5.0
7.789625406265259,2.4264612644359707,2.406942004576712,-5.0
7.797635793685913,2.427242859302918,2.4070900824968335,-5.0
7.808260440826416,2.4282198528866012,2.407232894681904,-5.0
7.816481828689575,2.4290014477535475,2.4073707319606843,-5.0
7.827442646026611,2.429587643903758,2.4075038599338625,-5.0
7.836284637451172,2.4297830426204947,2.407632371175989,-4.7313299120045755
7.843705892562866,2.429978441337231,2.407756243945749,-4.635205391712603
7.856643199920654,2.429978441337231,2.4078755029592185,-4.55728173837605
7.865651369094849,2.4297830426204947,2.407990345479491,-4.169298517793912
7.875595331192017,2.429587643903758,2.4081008704471065,-4.257238065613125
7.885087966918945,2.429196846470284,2.4082072290441614,-3.326475935269808
7.894568920135498,2.428806049036811,2.408309765239975,-2.756695677457558
7.903985023498535,2.4282198528866012,2.4084088757940045,-1.5502144044190609
7.913288116455078,2.4274382580196545,2.4085049954233737,-0.625382633180722
7.923122882843018,2.4268520618694445,2.408598780664583,-0.23549380613782966
7.9331440925598145,2.425875068285761,2.408691114230349,0.1869288010883608
7.942609071731567,2.4250934734188143,2.408782511213938,0.5373238445475054
7.951914548873901,2.4241164798351313,2.4088731367301834,1.3435797874392006
7.9623703956604,2.423139486251448,2.4089636832180426,1.5752346339921413
7.972209453582764,2.422162492667764,2.4090550646477005,2.111027410428402
7.981932878494263,2.420990100367344,2.4091476902283846,2.341581284160383
7.992601156234741,2.4200131067836606,2.4092420188366277,2.6779823794812505
8.002604484558105,2.4186453157665038,2.4093387909468564,2.952414283489004
8.012588024139404,2.4174729234660846,2.4094387300316193,3.1193210747305975
8.021869659423828,2.4163005311656645,2.4095425319530333,3.458498996107501
8.032590389251709,2.4151281388652444,2.4096508524886704,3.471164068694385
8.044114828109741,2.4139557465648243,2.4097646524878784,3.6106700310337345
8.051647663116455,2.413174151697877,2.4098847846938787,3.997222946335171
8.062686204910278,2.412197158114194,2.4100112643036296,4.3419132512270995
8.071775197982788,2.4114155632472474,2.4101440991558016,4.831568038301663
8.080722332000732,2.410633968380301,2.4102836459507433,5.0
8.08860158920288,2.4102431709468273,2.410429781182641,5.0
8.096608638763428,2.409852373513354,2.410581982266484,5.0
8.106652975082397,2.4092661773631443,2.410740176544004,5.0
8.116616487503052,2.4088753799296705,2.4109046372580956,5.0
8.125836849212646,2.408679981212934,2.411075535917386,5.0
8.136077642440796,2.408289183779461,2.4112529673597356,5.0
8.143592357635498,2.408289183779461,2.4114365233252806,5.0
8.151652812957764,2.4080937850627238,2.411625371539918,5.0
8.160207748413086,2.4080937850627238,2.411819158910495,4.9593990048725995
8.168595790863037,2.4080937850627238,2.4120175143679914,4.939165583688782
8.177698612213135,2.407898386345987,2.4122196518462813,4.594026524656766
8.18692135810852,2.407898386345987,2.4124252668540347,4.154715953157847
8.196489572525024,2.407898386345987,2.41263444832666,3.4426562121128024
8.206720352172852,2.407898386345987,2.4128472105998218,2.7367507147270995
8.216636419296265,2.407898386345987,2.413063507827115,2.41014627940495
8.22559928894043,2.407898386345987,2.413283221471213,1.6867331540682506
8.233582019805908,2.407898386345987,2.4135061599331933,1.2287936861907056
8.243581533432007,2.407898386345987,2.4137316939619664,0.9285997106774488
8.252573013305664,2.407898386345987,2.4139588431694667,0.4490550828462027
8.260581493377686,2.407898386345987,2.414187120478487,-0.0025156367376560074
8.271569013595581,2.407898386345987,2.414416441439827,-0.35925013350406676
8.281132459640503,2.407898386345987,2.4146466639809376,-0.6133568105355998
8.290211915969849,2.407898386345987,2.4148776145836695,-0.7787767792500769
8.297577142715454,2.407898386345987,2.4151087432887133,-0.8748645124797108
8.306946992874146,2.4077029876292504,2.415339199735414,-0.9198722224198398
8.31555962562561,2.407898386345987,2.4155685916517546,-0.9288422333030869
8.32567048072815,2.407898386345987,2.415796557865059,-0.9133576962225622
8.336749792098999,2.407898386345987,2.4160227728133004,-0.8819805643883314
8.346654415130615,2.4077029876292504,2.416247638650212,-0.8408639053192526
8.354560136795044,2.407898386345987,2.416471485907195,-0.7943329168398459
8.363542079925537,2.407898386345987,2.4166939023252594,-0.7453674070993231
8.37458086013794,2.407898386345987,2.4169141949079913,-0.6959770194782278
8.3825523853302,2.407898386345987,2.417132114768474,-0.6474822705938577
8.392289161682129,2.407898386345987,2.4173481145588616,-0.6007201324236169
8.401269674301147,2.407898386345987,2.4175625841764616,-0.5561920595665897
8.408557653427124,2.407898386345987,2.4177748925371625,-0.5141693848684525
8.417575359344482,2.407898386345987,2.417984201943936,-0.47476772395170147
8.425806760787964,2.407898386345987,2.418190479097536,-0.43799913235932
8.434587001800537,2.4077029876292504,2.418394051698238,-0.40380843190362664
8.443570852279663,2.407898386345987,2.418594909916575,-0.3720983442976843
8.45384430885315,2.407898386345987,2.4187927501263657,-0.3427467505429186
8.461584329605103,2.407898386345987,2.4189873577526053,-0.3156184336151223
8.472414493560791,2.407898386345987,2.4191789051628563,-0.2905729708385099
8.481658458709717,2.407898386345987,2.419367864227256,-0.26746994937607343
8.490621566772461,2.407898386345987,2.4195543501603867,-0.24617232870215122
8.503860473632812,2.407898386345987,2.4197388028323275,-0.2265485270657504
8.513653039932251,2.407898386345987,2.4199222320940583,-0.2084736351455585
8.521633625030518,2.407898386345987,2.420105187056242,-0.1918300379970753
8.531050443649292,2.407898386345987,2.4202878216374826,-0.17650764076732947
8.540814399719238,2.407898386345987,2.4204701620486837,-0.16240383369586078
8.548551082611084,2.407898386345987,2.4206517941443293,-0.14942328999458587
8.557844877243042,2.407898386345987,2.4208323691585396,-0.13747766092182082
8.567623138427734,2.407898386345987,2.421011949456493,-0.12648521195219958
8.578562021255493,2.407898386345987,2.421190635409408,-0.11637042973659212
8.58884048461914,2.4077029876292504,2.4213688215286115,-0.10706361967990316
8.598586559295654,2.407898386345987,2.4215468548551367,-0.09850050713299832
8.60765528678894,2.407898386345987,2.4217244525069614,-0.09062185048255977
8.617569923400879,2.407898386345987,2.4219010658758076,-0.08337307118857605
8.626067161560059,2.407898386345987,2.422076520211552,-0.07670390361496485
8.635984420776367,2.4077029876292504,2.42225096844501,-0.07056806601092003
8.64461612701416,2.407898386345987,2.422424266469874,-0.06492295300971307
8.653620719909668,2.407898386345987,2.4225960054157065,-0.0597293493647328
8.662620067596436,2.407898386345987,2.4227661021729063,-0.05495116423262687
8.671971321105957,2.407898386345987,2.4229347586802397,-0.05055518506597506
8.679597616195679,2.407898386345987,2.4231021496931695,-0.04651085004107167
8.68913984298706,2.407898386345987,2.4232684254880112,-0.04279003788405003
8.697794198989868,2.407898386345987,2.423433438810793,-0.03936687394571179
8.705713510513306,2.407898386345987,2.4235967819000073,-0.03621755139472539
8.713575839996338,2.4077029876292504,2.4237581253937437,-0.03332016643841697
8.723659038543701,2.407898386345987,2.423917219760759,-0.030654566532032433
8.732625961303711,2.407898386345987,2.4240741124486416,-0.028202210595552078
8.74161982536316,2.4077029876292504,2.4242291029734013,-0.025946040318165563
8.753666877746582,2.407898386345987,2.424382450729347,-0.02387036169189264
8.761931896209717,2.407898386345987,2.4245343762774736,-0.02196073597596749
8.773936033248901,2.407898386345987,2.424685293808757,-0.020203879351488475
8.781962156295776,2.407898386345987,2.424835547336592,-0.018587570580888273
8.792316913604736,2.407898386345987,2.4249849483817965,-0.017100566038680393
8.802561283111572,2.407898386345987,2.425133332386221,-0.015732521528570208
8.811635971069336,2.407898386345987,2.4252807926557605,-0.014473920347373555
8.819595098495483,2.407898386345987,2.425427163709117,-0.013316007098345947
8.828076839447021,2.407898386345987,2.4255720857586454,-0.012250726795611872
8.836986064910889,2.407898386345987,2.425715499560423,-0.011270668837556444
8.846654891967773,2.407898386345987,2.4258575729942766,-0.010369015460467406
8.85563063621521,2.407898386345987,2.4259984422263985,-0.009539494314570835
8.863863706588745,2.407898386345987,2.4261380210326764,-0.008776334833063735
8.873706579208374,2.407898386345987,2.4262760269769217,-0.008074228090979636
8.88435959815979,2.4077029876292504,2.426412432313052,-0.007428289874893974
8.893365144729614,2.407898386345987,2.426547425031945,-0.0068340267067373405
8.9038565158844,2.407898386345987,2.426681166963988,-0.006287304585482789
8.914374351501465,2.407898386345987,2.4268138003535094,-0.005784320229343266
8.925131559371948,2.407898386345987,2.426945436685001,-0.005321574618485175
8.933944463729858,2.407898386345987,2.427076154581823,-0.004895848654248917
8.941916704177856,2.407898386345987,2.4272060169863794,-0.004504180765578784
8.951528310775757,2.407898386345987,2.427335072765164,-0.0041438463069013425
8.96153450012207,2.407898386345987,2.4274633404891186,-0.0038123386041474315
8.971622705459595,2.407898386345987,2.4275908028314572,-0.0035073515170743726
8.981909990310669,2.407898386345987,2.4277174092445315,-0.003226763396589542
8.991136312484741,2.407898386345987,2.4278430740210086,-0.0029686223254791577
9.000200271606445,2.407898386345987,2.427967685919789,-0.002731132539872571
9.007540941238403,2.407898386345987,2.4280909606640306,-0.002512641936984986
9.017542839050293,2.407898386345987,2.4282125979640794,-0.002311630582237748
9.026596069335938,2.407898386345987,2.4283324538899174,-0.002126700135806818
9.036095380783081,2.4077029876292504,2.428450215920851,-0.001956564125045936
9.043628692626953,2.407898386345987,2.4285654453710626,-0.0018000389951148233
9.05251145362854,2.407898386345987,2.4286777809116944,-0.0016560358755564326
9.061533689498901,2.4077029876292504,2.4287870062091117,-0.0015235530055474726
9.071850538253784,2.407898386345987,2.4288930064102696,-0.0014016687651285645
9.080641269683838,2.407898386345987,2.428995642005854,-0.0012895352639357006
9.088509798049927,2.407898386345987,2.4290946849504906,-0.0011863724428330417
9.097577095031738,2.407898386345987,2.4291898599914585,-0.0010914626474149345
9.10949182510376,2.407898386345987,2.4292810493289574,-0.001004145635627715
9.11753225326538,2.407898386345987,2.429368146295695,-0.0009238139847816818
9.128416061401367,2.407898386345987,2.4294509090853387,-0.0008499088660020757
9.140393495559692,2.407898386345987,2.429529230285742,-0.0007819161567239595
9.151230573654175,2.407898386345987,2.429603166171049,-0.0007193628641874786
9.159539937973022,2.4077029876292504,2.4296727346583906,-0.0006618138350534842
9.1675124168396,2.407898386345987,2.4297378746677842,-0.000608868728249908
9.177532196044922,2.407898386345987,2.429798527827672,-0.0005601592299904082
9.186861991882324,2.407898386345987,2.4298546805087495,-0.0005153464915915198
9.196179628372192,2.407898386345987,2.429906337018638,-0.0004741187722644404
9.204726696014404,2.407898386345987,2.4299535337645772,-0.0004361892704834541
9.212574005126953,2.4077029876292504,2.4299963469535006,-0.0004012941288448951
9.221991539001465,2.4077029876292504,2.430034887777979,-0.00036919059853738646
9.230104207992554,2.4077029876292504,2.4300692870820253,-0.0003396553506544537
9.238525390625,2.4077029876292504,2.430099688316367,-0.00031248292260213796
9.247568368911743,2.407898386345987,2.4301262684427956,-0.0002874842887939952
9.257503747940063,2.4077029876292504,2.430149211937717,-0.0002644855456904951
9.266759157180786,2.407898386345987,2.430166871086665,-0.00024332670203526952
9.274530410766602,2.407898386345987,2.430173624759988,-0.00022386056587245744
9.282660961151123,2.407898386345987,2.4301578643623984,-0.00020595172060266798
9.290508270263672,2.407898386345987,2.43010478024896,-0.00018947558295445897
9.299519777297974,2.407898386345987,2.430001913716419,-0.00017431753631810595
9.309545278549194,2.407898386345987,2.4298372614382218,-0.0001603721334126599
9.31951642036438,2.407898386345987,2.429599536719607,-0.00014754236273964859
9.329843044281006,2.4077029876292504,2.4292810380869128,-0.0001357389737204777
9.338550567626953,2.4077029876292504,2.42887715550889,-0.00012487985582284043
9.348499298095703,2.4077029876292504,2.4283861174050796,-0.0001148894673570137
9.358492136001587,2.407898386345987,2.427808963083443,-0.0001056983099684531
9.367558479309082,2.407898386345987,2.4271492282118285,-9.724244517097711e-05
9.376394033432007,2.407898386345987,2.426412081290894,-8.94630495572991e-05
9.386266708374023,2.407898386345987,2.4256039390318773,-8.230600559271533e-05
9.39564824104309,2.4077029876292504,2.424732322601319,-7.572152514529823e-05
9.405617952346802,2.4077029876292504,2.4238054453203492,-6.966380313367439e-05
9.413503885269165,2.407898386345987,2.422833208604509,-6.409069888298048e-05
9.422579050064087,2.407898386345987,2.4218251020630346,-5.896344297234209e-05
9.431588649749756,2.4077029876292504,2.420788375923562,-5.4246367534554706e-05
9.4395911693573,2.4077029876292504,2.4197322731651085,-4.990665813179031e-05
9.447620391845703,2.407898386345987,2.418665860236097,-4.591412548124717e-05
9.455474615097046,2.407898386345987,2.417594953292071,-4.224099544274745e-05
9.464909315109253,2.4077029876292504,2.4165236734213282,-3.8861715807327656e-05
9.474135160446167,2.4077029876292504,2.4154523546863866,-3.575277854274144e-05
9.48254919052124,2.4077029876292504,2.4143802191648196,-3.2892556259322176e-05
9.493906021118164,2.4077029876292504,2.4133046668417104,-3.026115175857644e-05
9.503759145736694,2.4077029876292504,2.4122166936094276,-2.7840259617890314e-05
9.513563632965088,2.4077029876292504,2.4111069512524446,-2.561303884845905e-05
9.522363424301147,2.4077029876292504,2.4099684805440975,-2.3563995740582308e-05
9.531517267227173,2.4073121901957775,2.408794180307077,-2.167887608133571e-05
9.542577266693115,2.4073121901957775,2.40757714909786,-1.994456599482884e-05
9.55206036567688,2.4073121901957775,2.406310899753863,-1.8349000715242535e-05
9.560747861862183,2.407116791479041,2.4049894597874957,-0.276055240759339
9.571499824523926,2.407116791479041,2.4036074434394785,-0.309178493434328
9.580589056015015,2.407116791479041,2.402164262999135,-0.25407999439492684
9.589543581008911,2.407116791479041,2.4006636498520795,-0.1779938461882392
9.597534894943237,2.406921392762304,2.3991049524240124,-0.10747011695469703
9.609511137008667,2.407116791479041,2.3974795998462346,-0.050847353781424395
9.61852741241455,2.407116791479041,2.3957808501787095,-0.008848858437103303
9.628665208816528,2.4067259940455674,2.3940122009768827,0.02056709485211957
9.637312889099121,2.4065305953288307,2.392177264493157,-0.23594272634225752
9.646515607833862,2.4063351966120936,2.390275279571693,-0.25691410849863444
9.656838655471802,2.405749000461884,2.388305590102324,-0.7470513007304418
9.664512395858765,2.4051628043116744,2.3862668458593324,-1.0101308419950483
9.673520565032959,2.404576608161464,2.384161622548633,-1.6900678560613631
9.682616710662842,2.4037950132945176,2.3819951577919114,-2.0787257697458097
9.691514253616333,2.402818019710834,2.3797558375309795,-2.82687881962766
9.70150899887085,2.401645627410414,2.37742355568874,-3.2386793183733156
9.710072994232178,2.4006686338267307,2.3749898739813893,-3.7011064087496375
9.718515872955322,2.399300842809574,2.3724408626877533,-4.047560837554539
9.72702693939209,2.397933051792417,2.3697611122891926,-4.24227499780986
9.736369132995605,2.3963698620585236,2.366941904553188,-4.5762641608486625
9.745496273040771,2.3948066723246306,2.363958610869946,-4.836726763876191
9.754482507705688,2.392657286440527,2.3607865765829685,-4.965985198838354
9.764388084411621,2.390507900556424,2.357412655910696,-5.0
9.776764392852783,2.3873815210886367,2.3537889249744395,-5.0
9.786503791809082,2.384450540337587,2.349837086345134,-5.0
9.79447627067566,2.382301154453484,2.3455203813450707,-4.833990950009557
9.802449226379395,2.3801517685693803,2.340840810286384,-4.500984690713449
9.813479661941528,2.3760483955179104,2.3357616134614134,-4.399503062677267
9.822489261627197,2.373312813483597,2.330233979576662,-4.33905983848154
9.831462144851685,2.3701864340158103,2.324258437351143,-3.975208115179174
9.840481281280518,2.3668646558312867,2.317837988648083,-3.811126544888449
9.850886106491089,2.3631520802132897,2.3109581464542206,-3.6968129436840385
9.860393762588501,2.359244105878557,2.3036102969515864,-3.5758824574300423
9.871262311935425,2.3545545366768765,2.295791401809857,-3.708925896767893
9.880459308624268,2.3508419610588795,2.2875033128412388,-3.3018868565535007
9.889468908309937,2.3469339867241463,2.278774091152764,-2.4826176736067445
9.899482727050781,2.342830613672676,2.2696540158359424,-1.6564801173767176
9.910001039505005,2.3383364431877327,2.2601458162156662,-0.9652193192246884
9.919805526733398,2.334037671419526,2.250211912701827,0.11493096236534378
9.928515434265137,2.330520494518266,2.239869568266877,1.1136959325719835
9.936678171157837,2.3273941150504793,2.2291825810522665,2.4352018563403823
9.944481372833252,2.323876938149219,2.2182092489417613,3.3042834596849238
9.953495979309082,2.319968963814486,2.207002728953974,3.822907525701304
9.962808609008789,2.316256388196489,2.1955893422305666,4.360309161525151
9.973258018493652,2.3117622177115456,2.1839727984361827,4.749327154082181
9.984700202941895,2.3072680472266023,2.1721603813556833,4.959660269072473
9.994487285614014,2.3031646741751324,2.1601631220988153,5.0
10.0033278465271,2.2994520985571354,2.147995889304141,4.938961086606084
10.015483379364014,2.2945671306387183,2.1356577615815926,4.789250511110669
10.025511980056763,2.290072960153775,2.1231548570371883,4.858000023308097
10.033496618270874,2.2869465806859886,2.110539047460099,4.649696916466665
10.042487621307373,2.2832340050679916,2.097844477663822,4.33596409359701
10.052428245544434,2.2793260307332583,2.085087966105808,3.995860569388312
10.061459302902222,2.275613455115262,2.0723415523012525,3.663935022115454
10.073533535003662,2.269946892329898,2.0596726580334295,3.3537414171323907
10.084118366241455,2.2654527218449547,2.047094538136911,3.069237385507815
10.092366933822632,2.262130943660431,2.034623032860301,2.810230313887348
10.103179693222046,2.257636773175488,2.0222916002603255,2.574921843229331
10.112213850021362,2.2539241975574913,2.010131996641474,2.3610538693875656
10.12346363067627,2.2492346283558113,1.9981622183132144,2.16639200411791
10.132610082626343,2.2453266540210777,1.9863998189331997,1.9889035561602006
10.141911029815674,2.241614078403081,1.9748848575834277,1.8268009110150858
10.152601718902588,2.236924509201401,1.9636525328619938,1.6785303860209804
10.163461685180664,2.232625737433194,1.9527122362653215,1.5427428388321123
10.172836780548096,2.228522364381724,1.9420722444559158,1.4182615303965171
10.180454969406128,2.225591383630674,1.9317671596767707,1.3040531410773633
10.189490795135498,2.2218788080126775,1.9218333389119322,1.1992035879914986
10.19848895072937,2.217970833677944,1.9122795870109068,1.102898552203143
10.20846676826477,2.213867460626474,1.9031002067261993,1.0144080251578949
10.218492031097412,2.2095686888582673,1.8942768144949549,0.9330740737646828
10.228445053100586,2.2050745183733236,1.8857888709022408,1.1343394612896298
10.238899946212769,2.200189550454907,1.877622604767262,1.0987109791023588
10.247090816497803,2.1968677722703833,1.8697612459557948,0.7043491910553173
10.25644302368164,2.1933505953691235,1.8621950739391975,0.5369901876364241
10.265036582946777,2.1900288171846003,1.8549111446942,0.46808040926578365
10.273884057998657,2.1863162415666033,1.8478849160833515,0.4383471743399026
10.281424283981323,2.183189862098817,1.8411012503423638,0.42161793494707256
10.290436029434204,2.179281887764083,1.8345629964453796,0.4071951223812248
10.302382469177246,2.17420152112893,1.8282599419138046,0.391368972172468
10.312455892562866,2.170293546794196,1.8221522641539767,0.6494398477951421
10.32146668434143,2.1667763698929363,1.8162045292964555,0.6628404615148739
10.330487966537476,2.1628683955582026,1.8104043318469079,0.3109186890782776
10.340281248092651,2.158569623789996,1.8047407354232554,0.1805355804719807
10.348502159118652,2.155247845605473,1.7991950180829612,0.14409428528862972
10.358465909957886,2.150949073837266,1.7937601063626833,0.14309696868891697
10.370448112487793,2.145673308485376,1.7884308023379718,0.1519849397226709
10.378465175628662,2.1423515303008527,1.7831950227191622,0.16054343960137918
10.392643451690674,2.1364895687987526,1.7780367763402338,0.16544321351601482
10.40048336982727,2.1335585880477024,1.7729442685612928,0.16624860206428949
10.410913228988647,2.1292598162794953,1.7679174041641688,0.16358759147558893
10.419129371643066,2.1257426393782355,1.7629519810735546,0.1583529412789151
10.427184820175171,2.1224208611937123,1.7580521480925728,0.15138392737047496
10.438547849655151,2.117731291992032,1.7532354427639334,0.14336395386103723
10.44716501235962,2.1140187163740354,1.7485116414528128,0.13480899888060235
10.45748257637024,2.1097199446058283,1.7438840001584726,0.12608951332608187
10.466452598571777,2.106007368987832,1.7393610550363314,0.11746067702225167
10.47789740562439,2.1015131985028885,1.7349507002642244,0.10909098055058787
10.486465692520142,2.097605224168155,1.7306547242756765,-0.1749524820107826
10.497386693954468,2.0927202562497382,1.7264748564562356,-0.21565684990361217
10.507180213928223,2.0886168831982683,1.7224086475987523,-0.167684317214674
10.516439437866211,2.0852951050137447,1.7184540505707617,-0.09826039194266209
10.525535345077515,2.081582529395748,1.714617421621053,-0.03394053935738415
10.533510684967041,2.0782607512112246,1.7109074590494673,0.01692231630397131
10.545088768005371,2.073375783292808,1.7073236537877579,0.05358500858446846
10.55453634262085,2.0694678089580743,1.7038580113801172,0.07806631661999114
10.562474489212036,2.066146030773551,1.7005102624142237,0.3690753342811427
10.570538520812988,2.0624334551555545,1.6972893456159628,0.4101472973960777
10.579532384872437,2.0589162782542942,1.6942017012273365,0.35801408838660376
10.588871240615845,2.0552037026362977,1.6912454126873322,0.281477954604161
10.597115516662598,2.0516865257350374,1.6884149577925558,0.20824820900825308
10.604504108428955,2.0487555449839876,1.6857077355671064,0.14749779356351955
10.612799406051636,2.045042969365991,1.683123510452196,0.10053832783914803
10.621527671813965,2.041330393747994,1.680661081355312,-0.21030297320033595
10.630505800247192,2.037617818129997,1.6783184721109954,-0.26849238265670367
10.639915466308594,2.033709843795264,1.676088617977844,-0.2310499866347243
10.648918867111206,2.0303880656107403,1.673960422898409,-0.16715560465320328
10.658204793930054,2.026480091276007,1.6719284939337788,-0.10487774851345036
10.6664297580719,2.0231583130914834,1.6699939492349525,-0.053694673379098494
10.678321123123169,2.0184687438898035,1.6681548891406273,-0.015164565923463384
10.689196825027466,2.01397457340486,1.666401075065882,0.2881908999928156
10.699510335922241,2.0094804029199165,1.6647231444565393,0.339685942330732
10.711199522018433,2.004400036284763,1.6631162977370195,0.02018327924550964
10.720451354980469,2.00049206195003,1.6615738272627072,-0.08227897867191424
10.72986102104187,1.9963886888985598,1.6600892657817046,0.18163931030167302
10.739556550979614,1.99228531584709,1.6586601015593962,0.2351696290668511
10.748573541641235,1.9885727402290931,1.6572871567382128,-0.06807613436789774
10.75780439376831,1.9848601646110962,1.6559685381778597,-0.15173182792738618
10.76811408996582,1.9803659941261529,1.65469637365207,-0.1469641552755627
10.776512384414673,1.9770442159416295,1.6534632567849241,-0.1128664466442065
10.785526275634766,1.973331640323633,1.6522640122721453,-0.07444863370766468
10.798278093338013,1.9680558749717427,1.6510914381513948,-0.04104574803836064
10.807533025741577,1.9645386980704826,1.6499386341730986,-0.015111668249837912
10.816962480545044,1.9606307237357492,1.648803033894581,0.2797096805830616
10.825497388839722,1.9569181481177527,1.6476838683541581,0.3257017979241998
10.833486557006836,1.953205572499756,1.6465798778852265,0.27892397885514747
10.841503858566284,1.9498837943152325,1.645486968066236,0.20781493813883867
10.850738525390625,1.9461712186972357,1.6443985300613921,0.13988818253053595
10.858445405960083,1.943044839229449,1.6433106325246762,0.08421354810228211
10.866739273071289,1.939527662328189,1.6422217075042338,0.042051714658128306
10.874449014663696,1.9364012828604023,1.6411298381773893,0.011747130909266424
10.884193897247314,1.9322979098089321,1.6400328101206854,-0.00912251309628232
10.894411087036133,1.9283899354741985,1.638925098133061,-0.022879403986274544
10.904427766799927,1.9240911637059919,1.6377983318655898,-0.031457626256130404
10.915871381759644,1.919206195787575,1.6366412353534674,-0.03636096348394285
10.923439502716064,1.9160798163197883,1.635443685417567,-0.03871302209313231
10.934104919433594,1.9117810445515817,1.634199968865903,0.23670623809246483
10.941992044448853,1.908459266367058,1.6329050632949695,0.27035936895885054
10.952194213867188,1.9041604945988515,1.6315583929243633,0.21652539889240718
10.961517572402954,1.900447918980855,1.6301593797113991,0.14215073185141835
10.971468448638916,1.8959537484959115,1.6287038896794324,0.07358733834027663
10.98140811920166,1.8916549767277049,1.627188447430193,0.0190391716127227
10.989508867263794,1.8881377998264446,1.6256142776593032,-0.020860410471553327
10.999552249908447,1.8840344267749745,1.6239825451924055,-0.04821190277913959
11.010327577590942,1.8799310537235043,1.6222863034078474,-0.0657475838067307
11.020832300186157,1.8756322819552977,1.620520084295401,-0.07600182320128682
11.0299232006073,1.8719197063373008,1.6186839469229681,-0.08105111102661466
11.040108919143677,1.8674255358523575,1.616778739276784,-0.0824924264275959
11.051928281784058,1.8625405679339408,1.614802021783302,-0.08150821566450003
11.061202764511108,1.8588279923159439,1.6127529218689247,-0.07895188693367217
11.069474220275879,1.8555062141314205,1.6106443626877067,-0.07542761603282452
11.077425003051758,1.8519890372301604,1.6084925016444314,-0.07135614783202103
11.085463285446167,1.8484718603289005,1.606303775291318,-0.06702578728485344
11.095393180847168,1.8441730885606937,1.6040805608738413,-0.0626305224586236
11.103429794311523,1.841046709092907,1.6018297020149599,-0.058297892502065886
11.111730813980103,1.8373341334749105,1.5995617040152947,-0.0541090559552837
11.120030403137207,1.834012355290387,1.5972824358386666,-0.05011309115885451
11.128750562667847,1.83029977967239,1.594993891721527,-0.0463371072833843
11.137512445449829,1.8269780014878667,1.5927020864238612,-0.0427933489135082
11.145440340042114,1.8236562233033433,1.5904196468261687,-0.039484161059647846
11.157264947891235,1.8185758566681898,1.588154345889937,-0.0364054406715522
11.165380477905273,1.815449477200403,1.5859063128358648,-0.03354902239299241
11.173378467559814,1.81212769901588,1.5836793456916671,-0.030904316598043532
11.186784744262695,1.806070338797043,1.5814712872026433,0.24757893515400195
11.198463439941406,1.801185370878626,1.5792747141070103,0.28296107397088277
11.207988739013672,1.7972773965438928,1.5770929600570522,-0.04609184451884718
11.217408657073975,1.7933694222091594,1.5749324024666072,-0.15338133513542118
11.226391553878784,1.7896568465911629,1.57279588427382,-0.16703742273811478
11.234998941421509,1.7861396696899028,1.5706886909909974,0.13009391082578
11.244436025619507,1.7820362966384327,1.5686180233642746,0.19324435401952045
11.252682209014893,1.7785191197371728,1.5665850391503742,-0.10930292561955024
11.260391473770142,1.7753927402693859,1.5645882602702996,-0.1947708940932649
11.269855976104736,1.7716801646513891,1.5626314364766505,-0.1917631596326533
11.279442310333252,1.767772190316656,1.560720094279744,-0.15853656045908637
11.28988528251648,1.7636688172651855,1.558858732601303,-0.11999010196550976
11.298350811004639,1.759760842930452,1.5570489294336556,-0.08561459466095357
11.30690312385559,1.756243666029192,1.555289869160531,-0.05808610489128613
11.317457914352417,1.7517494955442485,1.5535809606434914,-0.037295734565327615
11.326170682907104,1.747841521209515,1.5519217916991694,-0.02217766024740156
11.33584976196289,1.7437381481580454,1.5503120612598955,-0.011492367441535725
11.346497058868408,1.7396347751065753,1.5487515070537035,-0.00412672750637935
11.355802059173584,1.7357268007718416,1.5472398516661123,0.0008200333468254004
11.36453652381897,1.732014225153845,1.5457782199483827,0.004038190173384238
11.374659538269043,1.7275200546689018,1.5443673417077504,0.006039828424216321
11.383592367172241,1.7240028777676415,1.5430059716921363,0.007196958484952329
11.392736196517944,1.7200949034329083,1.541694065579424,0.007775938695081499
11.400394678115845,1.717163922681858,1.5404325446072313,0.007965437149079723
11.409394025802612,1.7132559483471248,1.5392216065294817,0.007897932525531849
11.418395519256592,1.7097387714458647,1.538059404719011,-0.26837263607956124
11.426429033279419,1.706416993261341,1.5369437037666596,-0.30183035194003305
11.434378623962402,1.7034860125102913,1.53587321816322,-0.2471233989800234
11.444286823272705,1.6991872407420845,1.5348444474234209,-0.17145626293437688
11.4557945728302,1.6939114753901945,1.5338501148217565,-0.10135922862862912
11.464644193649292,1.690003501055461,1.5328828385221729,-0.3211962525364069
11.474404096603394,1.6860955267207276,1.5319386393140988,-0.036691934258632514
11.483842134475708,1.6821875523859942,1.5310130065915923,0.08055641926255651
11.495725870132446,1.677497983184314,1.5300972869665854,0.12070448793189834
11.504403829574585,1.6739808062830537,1.529183384178446,0.12694967797660106
11.514395952224731,1.669877433231584,1.528265884000798,0.1195681588600071
11.522406816482544,1.6663602563303237,1.5273398228920663,0.10776651011927518
11.531819343566895,1.6622568832788538,1.5264030987650525,0.09549069477879202
11.539845705032349,1.659130503811067,1.5254538682867071,0.08424871437067177
11.549372673034668,1.6552225294763336,1.5244906821575355,0.07446462051582384
11.559520721435547,1.6513145551416004,1.523514746753839,0.06611536851731091
11.567885875701904,1.6476019795236037,1.522525121306077,0.05902110905410417
11.576812744140625,1.6438894039056067,1.5215191615002719,0.052970613176602725
11.585349798202515,1.6403722270043464,1.5204972364293035,0.047770156032281116
11.594397783279419,1.6364642526696132,1.5194622432355303,0.04325825634516042
11.602789402008057,1.6331424744850898,1.5184149016924173,0.039306234023566186
11.612435102462769,1.6290391014336199,1.517354098726438,0.03581370164651489
11.62236499786377,1.6249357283821497,1.5162813306076288,0.03270294176351794
11.633564710617065,1.6204415578972062,1.5151982778635222,-0.2461246379785193
11.641920566558838,1.6171197797126828,1.5141027596145458,-0.2817639382296553
11.64946985244751,1.6143841976783697,1.5129933629570462,0.04709438150037723
11.657371044158936,1.6108670207771094,1.5118732127061776,0.15423436185898876
11.666085481643677,1.6073498438758493,1.5107471955155207,0.16777362832952536
11.67406153678894,1.6036372682578528,1.5096178411254024,-0.12945063891997413
11.681426763534546,1.6007062875068025,1.5084892693371004,-0.19267638590421082
11.69107699394226,1.5966029144553326,1.507366898159356,0.10980875887363553
11.702538013458252,1.5919133452536525,1.5062480248880774,0.19522456850581182
11.711403608322144,1.588200769635656,1.505128478664111,0.19217235356888582
11.72030258178711,1.5842927953009225,1.504010034562777,-0.11713107236274163
11.730406284332275,1.5801894222494521,1.502893860882107,0.0872025549180521
11.738455533981323,1.576672245348192,1.5017806594385186,0.14101913381217157
11.747061252593994,1.5731550684469322,1.500672560773844,0.13445184353018313
11.756185293197632,1.569637891545672,1.4995688852045979,0.10807531040475021
11.76539397239685,1.5657299172109387,1.4984664417794378,0.0790348386526268
11.773489475250244,1.5626035377431517,1.4973641414840488,0.05370585023185757
11.782609462738037,1.5588909621251552,1.4962627984797257,0.03373999704086167
11.792557716369629,1.5545921903569486,1.49516039098985,0.018889705535671653
11.80033016204834,1.5512704121724252,1.494054927753405,0.008281503812942428
11.80840277671814,1.5481440327046383,1.4929467816783089,0.0009554352815989361
11.817556858062744,1.5444314570866415,1.4918335497915551,-0.003933298564415695
11.825382232666016,1.5409142801853815,1.4907130466251188,-0.007061151628315296
11.837273120880127,1.535833913550228,1.489583218651651,-0.00894297517863651
11.845753192901611,1.5323167366489678,1.4884371555287208,-0.00995871504894744
11.85337495803833,1.529385755897918,1.4872691138432703,-0.010383080818271995
11.862369775772095,1.5254777815631846,1.4860796326234498,0.26562656201754176
11.873675346374512,1.5205928136447677,1.484869613759573,0.02294188538378883
11.882441759109497,1.5170756367435079,1.4836377363532676,-0.06488921650459065
11.891348838806152,1.5135584598422478,1.4823859354617457,-0.0853908873681393
11.902030944824219,1.5088688906405676,1.4811141948866609,0.1967458863494959
11.91210412979126,1.5051563150225709,1.4798207377666712,0.2443269419009946
11.922424554824829,1.500857543254364,1.4785095571130227,-0.07162962733330246
11.93278169631958,1.4965587714861572,1.4771828596863008,0.10832271129135318
11.94238829612732,1.492650797151424,1.475841125880468,0.13642854169372431
11.95137095451355,1.4889382215334273,1.4744917724311422,0.10866254617163804
11.960368871688843,1.485030247198694,1.4731456499478575,0.0668774112971097
11.969331741333008,1.4815130702974335,1.4718103005710854,0.027714760241636893
11.978379487991333,1.4779958933961739,1.4704887089080456,-0.0034951244464132055
11.98965072631836,1.4735017229112304,1.4691804764593108,-0.02617239878011999
11.997359275817871,1.4699845460099703,1.4678858189892663,-0.04147942167091587
12.00636100769043,1.4660765716752369,1.4666071124227158,0.22503122349083426
12.015373945236206,1.4627547934907135,1.4653453879443377,0.2529114008242117
12.026241540908813,1.4592376165894534,1.4641018380778574,0.7476971163710906
12.037595987319946,1.4551342435379833,1.4628792534435335,1.5658831235509203
12.047382593154907,1.4518124653534599,1.4616802184262485,2.313958085789861
12.056779384613037,1.4486860858856732,1.46050708906792,2.869555551702815
12.064363718032837,1.4463413012848332,1.4593630471343388,3.49921543833372
12.073325634002686,1.4438011179672565,1.4582518843423027,3.715059101037201
12.081356525421143,1.441651732083153,1.4571756951609949,3.988101294188643
12.091360569000244,1.4389161500488394,1.4561351853969597,4.455864541593989
12.100374698638916,1.4365713654479997,1.4551318548551675,4.567944217284292
12.11065936088562,1.434031182130423,1.4541670758743923,4.489383313893677
12.1213960647583,1.4312956000961095,1.453239845586063,4.586528475595287
12.134385824203491,1.4285600180617963,1.452348872737881,4.666755067826051
12.143362998962402,1.4268014296111662,1.4514952534103989,4.670289767349464
12.153383255004883,1.4248474424437991,1.4506810690935785,4.3163762476248415
12.163817167282104,1.4230888539931694,1.4499073703058671,3.8628114550784405
12.174399375915527,1.4213302655425393,1.4491743213483819,3.416982525806411
12.184574842453003,1.4197670758086463,1.4484818357028497,3.293386610439325
12.192830324172974,1.4185946835082262,1.447829566064306,2.7054355907868115
12.201432228088379,1.4174222912078058,1.4472169101006283,2.323246053877627
12.21170973777771,1.416249898907386,1.4466426518589137,2.3280871334566138
12.222063302993774,1.4152729053237025,1.4461052980843994,2.152656861144642
12.232080936431885,1.414491310456756,1.4456036893610986,1.9266790829293337
12.240567207336426,1.4139051143065458,1.4451361848957038,1.7042406366789193
12.24869418144226,1.413318918156336,1.4447003318530107,1.228715912789967
12.258350372314453,1.4129281207228626,1.4442932633819112,1.2993792334441305
12.270334005355835,1.4123419245726525,1.443911691945069,1.5168965227155993
12.279927015304565,1.4121465258559158,1.44355191414686,1.4461313869689711
12.288316011428833,1.411951127139179,1.443210627478687,1.5546694691934357
12.297358751296997,1.411951127139179,1.4428849370890615,1.129588198994224
12.306564092636108,1.4115603297057058,1.4425708069230336,0.59989188026458
12.315319776535034,1.4115603297057058,1.4422642205194083,0.12995311390358016
12.324499368667603,1.411951127139179,1.4419619994576256,-0.5090531520316689
12.333632230758667,1.411951127139179,1.441659707219329,-0.798940964799072
12.341320991516113,1.411951127139179,1.4413531158208215,-1.1877850193217103
12.351001262664795,1.411951127139179,1.4410392626812125,-1.5203591930983709
12.361706972122192,1.411951127139179,1.4407121484310879,-1.7533810619400825
12.37108588218689,1.411951127139179,1.4403629791487014,-2.165070720448208
12.378313541412354,1.411951127139179,1.4399867107961366,-2.806127883145695
12.38774585723877,1.411951127139179,1.4395817878547525,-3.365566986681868
12.396572828292847,1.411951127139179,1.4391446914001051,-3.7520448416560495
12.405950546264648,1.411951127139179,1.4386702356285581,-3.9643738440483105
12.416312456130981,1.4115603297057058,1.4381536786793037,-4.032711919326072
12.425492763519287,1.411951127139179,1.4375907722902574,-3.9933081387382723
12.433375358581543,1.411951127139179,1.4369777545411277,-3.8787785012085907
12.441334247589111,1.411951127139179,1.436313807501455,-3.7152736268597693
12.449302911758423,1.411951127139179,1.4356032433267878,-3.5224813688591388
12.458343505859375,1.411951127139179,1.434849812892667,-3.31461932591643
12.468335390090942,1.411951127139179,1.434051560831256,-3.1016231684704882
12.476779222488403,1.411951127139179,1.4332039210579157,-2.890223618047595
12.4843590259552,1.4115603297057058,1.432305564980932,-2.6848214062498994
12.4934241771698,1.411951127139179,1.4313579618447145,-2.4881589008560834
12.503305673599243,1.411951127139179,1.4303588665161215,-2.3018185501388637
12.51239538192749,1.411951127139179,1.4293027230732134,-2.126584777262117
12.52116847038269,1.411951127139179,1.4281841881344548,-1.9627027219694382
12.529399394989014,1.411951127139179,1.4270020824229888,-1.8100610775808068
12.538334846496582,1.411951127139179,1.4257589906909345,-1.668320025006145
12.547340393066406,1.411951127139179,1.4244531945171968,-1.536999922684695
12.555342435836792,1.411951127139179,1.42307930087236,-1.415542186713639
12.565749168395996,1.411951127139179,1.421632680820314,-1.303350596301346
12.576375722885132,1.411951127139179,1.4201095362431584,-1.1998188997816968
12.585352897644043,1.4115603297057058,1.4185113471045885,-1.1043488846368295
12.59340786933899,1.4115603297057058,1.4168442364085814,-1.0163618471565257
12.602515459060669,1.4115603297057058,1.4151095802546403,-0.935305523439589
12.611355543136597,1.4115603297057058,1.4133047891219628,-0.8606579247794011
12.622344255447388,1.4115603297057058,1.4114284253923308,-0.7919290842355687
12.632380247116089,1.4115603297057058,1.4094802105689594,-0.728661414497705
12.640316724777222,1.4115603297057058,1.4074653955737415,-0.6704291620355842
12.652126789093018,1.4113649309889693,1.4053894743098347,-0.8928756516383091
12.663031339645386,1.4113649309889693,1.4032491521029131,-0.876682995663057
12.672790050506592,1.4113649309889693,1.4010422883138696,-0.7762049434990363
12.680333137512207,1.4113649309889693,1.3987764495335442,-0.6583633643514081
12.689359426498413,1.4111695322722326,1.3964627892214638,-0.5494202691808909
12.698318243026733,1.410974133555496,1.3941061305697642,-0.4574486307032307
12.710443258285522,1.4103879374052857,1.3917007185799894,-0.6589653887016682
12.720521688461304,1.4099971399718125,1.3892361772822819,-1.184828001359968
12.731154680252075,1.4092155451048658,1.386708037387333,-1.7009981467973456
12.740524530410767,1.408043152804446,1.3841168758969866,-2.647639731752278
12.75056529045105,1.4070661592207623,1.38146253163047,-3.245221182630719
12.758403778076172,1.406089165637079,1.3787499694719905,-4.1299988598354185
12.768659830093384,1.4045259759031858,1.375988509371654,-4.613547617251577
12.77731204032898,1.4031581848860288,1.3731793222954898,-4.820663827179733
12.785296440124512,1.4015949951521356,1.3703229044684486,-4.841568711004243
12.796331644058228,1.3994456092680323,1.3674183415672287,-5.0
12.806366920471191,1.3974916221006655,1.3644506133895689,-5.0
12.815788745880127,1.3953422362165622,1.3614062713053074,-5.0
12.825653076171875,1.392997451615722,1.3582802245945664,-5.0
12.833283185958862,1.3912388631650918,1.355075601174063,-5.0
12.843122243881226,1.3885032811307787,1.3517955903573484,-5.0
12.851308345794678,1.386158496529939,1.3484364694151947,-4.609614279274712
12.861284971237183,1.3828367183454155,1.3450105865655198,-4.495626385691233
12.872609853744507,1.3787333452939452,1.3415294778236422,-4.714387135278692
12.88132929801941,1.3759977632596319,1.3379894810695023,-4.666117400243511
12.889332294464111,1.3730667825085818,1.3343958532441043,-3.93296497065629
12.898376703262329,1.3697450043240584,1.3307544998079266,-3.6234604147543292
12.907747268676758,1.366423226139535,1.3270648534840952,-3.1896564551446893
12.916490316390991,1.362710650521538,1.3233281473404754,-2.759974962405234
12.92530083656311,1.3589980749035415,1.3195536092412443,-2.656179047748309
12.934703350067139,1.3548947018520714,1.3157506608788536,-2.0930886450884483
12.943946838378906,1.3507913288006015,1.3119220296287446,-1.463975530056
12.95163893699646,1.347469550616078,1.3080774594628661,-0.6395285274563374
12.96031141281128,1.343952373714818,1.304232439520996,-0.17719296090316228
12.970741748809814,1.3394582032298745,1.3003948816750215,0.3588636408074157
12.980353593826294,1.335550228895141,1.2965662625191638,1.088539657502729
12.989307165145874,1.332033051993881,1.2927543820008958,2.2809369261182986
12.998298168182373,1.3283204763758845,1.2889667072202833,3.0923653540231326
13.007430076599121,1.324412502041151,1.285204329454763,3.5898420296689504
13.017089128494263,1.3205045277064174,1.2814684615445597,4.124665928037261
13.027244329452515,1.3164011546549474,1.2777601374140606,4.520403100295821
13.037310600280762,1.3121023828867409,1.2740800321004806,4.465881087135664
13.045318603515625,1.308389807268744,1.2704283871785982,4.499182585404185
13.05342984199524,1.3052634278009572,1.266810418925208,4.500445778656882
13.06306266784668,1.3011600547494875,1.2632354921430309,4.43714728163257
13.073400259017944,1.296470485547807,1.2597056461769156,4.0358025077153865
13.082844972610474,1.2925625112130739,1.2562168181232918,3.82947106926905
13.092175722122192,1.2886545368783402,1.2527653736371624,3.6791832453179145
13.102234363555908,1.2847465625436068,1.2493482222157768,3.5313459528411952
13.11141324043274,1.28103398692561,1.245962858225442,3.64604902531432
13.121304512023926,1.27693061387414,1.2426073490258098,3.5037055635489516
13.130258560180664,1.2732180382561433,1.2392803074665872,3.2635939087316705
13.140681028366089,1.2687238677711998,1.2359808511390755,2.998458983262139
13.149406909942627,1.265011292153203,1.2327132996336245,2.739660692682656
13.158293724060059,1.2612987165352065,1.2294862318520299,2.4991985454357577
13.167779445648193,1.2571953434837364,1.2263021204647662,2.280338061773543
13.175346374511719,1.2542643627326862,1.2231583327444768,2.0826527489401463
13.187547445297241,1.2491839960975328,1.2200527774477572,1.9043542175647514
13.195914030075073,1.245666819196273,1.2169837788325895,1.7433227001693277
13.203301191329956,1.2423450410117491,1.2139499311509716,1.5975272771785605
13.215290307998657,1.237264674376596,1.210949954344377,1.4651686796282015
13.223254203796387,1.234333693625546,1.207986914460934,1.3447028492486441
13.2333824634552,1.2302303205740757,1.205067422368344,1.2348185634792204
13.241949081420898,1.2267131436728156,1.2021922707213126,1.1344017266087574
13.250729084014893,1.223000568054819,1.1993573325709856,1.0424997865698244
13.258307456970215,1.220069587303769,1.1965630241211593,0.9582910144791611
13.267312288284302,1.2163570116857723,1.193813622016629,0.8810596169913365
13.275848865509033,1.2130352335012489,1.1911081072972094,0.8101761842444495
13.283272743225098,1.2095180565999888,1.1884410458018437,0.7450825341551166
13.29372787475586,1.2052192848317822,1.1858075799080063,0.6852799971886276
13.301249265670776,1.2018975066472588,1.1832116169100801,0.6303203207050303
13.310254335403442,1.1981849310292618,1.180664291144764,0.5797985399803847
13.319313049316406,1.1942769566945284,1.178165840624597,0.533347317548019
13.33029580116272,1.1895873874928484,1.17570700402,0.4906323793373044
13.341460227966309,1.1848978182911682,1.173274156828184,0.4513487743539827
13.35129451751709,1.1809898439564348,1.1708499208237642,0.4152177583244846
13.36029314994812,1.1770818696217016,1.1684276733517662,0.658022515562525
13.369285345077515,1.1733692940037048,1.1660102165597588,0.3845386983732823
13.37829065322876,1.1698521171024447,1.1635944591875105,0.26819578078267414
13.389903783798218,1.1653579466175013,1.1611671504616976,0.22133903783564285
13.398290872573853,1.1622315671497148,1.1587163272995646,0.755180275187208
13.4087655544281,1.1577373966647713,1.1562360512453373,1.0894759041170576
13.418291091918945,1.1546110171969846,1.153715206439523,1.2829279667891385
13.427281618118286,1.151289239012461,1.1511495465750536,1.9309540929743523
13.435255289077759,1.1485536569781476,1.1485517122846165,2.30301829484121
13.445130109786987,1.145427277510361,1.1459323033362923,3.316009418220901
13.455302476882935,1.1423008980425742,1.143288780734033,3.7510418645094834
13.464786052703857,1.1393699172915244,1.140612911789594,3.872302949605726
13.473235368728638,1.1368297339739475,1.137897341687312,4.099060774513255
13.48225736618042,1.1342895506563708,1.13513565054774,3.991477473934783
13.490267515182495,1.1321401647722673,1.1323285366012368,4.024817788051154
13.499253034591675,1.1297953801714273,1.1294829111174853,3.7728646732818776
13.51113486289978,1.1266690007036406,1.1265927157012283,3.9837205094954804
13.522281169891357,1.1239334186693273,1.1236350981256764,3.7036568535736913
13.53026008605957,1.1219794315019607,1.120597918419974,2.9982469738878925
13.538602113723755,1.1198300456178572,1.1174905949675906,2.5299628832824803
13.54673147201538,1.1178760584504905,1.1143284279834411,1.920609359697824
13.554302453994751,1.1161174699998604,1.1111254498586667,1.634599695537343
13.562701225280762,1.1143588815492305,1.1078944799972898,1.2113950342767525
13.570287704467773,1.112795691815337,1.1046528358994812,1.085924088856777
13.579298973083496,1.111037103364707,1.1014157288477102,0.7910934308223401
13.590293645858765,1.1088877174806036,1.098185012502117,0.7642920088614156
13.599274635314941,1.1071291290299736,1.0949570619585371,0.8197167669823945
13.610299110412598,1.1047843444291336,1.0917239848574076,0.605212690164243
13.619345664978027,1.1026349585450301,1.0884743232569567,0.061246391130540534
13.62834906578064,1.1008763700944002,1.085209725747915,-0.4861881033337523
13.637500762939453,1.0983361867768233,1.081942646306205,-1.200930905217152
13.645280122756958,1.0965775983261934,1.078683617073671,-2.0953730385477045
13.653297901153564,1.0946236111588266,1.0754413058692995,-2.8525898748089418
13.662981033325195,1.0916926304077768,1.0722171445950124,-3.3875178880264394
13.673776626586914,1.0887616496567265,1.069000667397202,-4.260659082413613
13.68139910697937,1.0866122637726232,1.0657880092789962,-4.7496418255361625
13.689308404922485,1.08446287788852,1.062592199000577,-4.965023124251867
13.69757890701294,1.0819226945709433,1.0594180179378967,-5.0
13.705545663833618,1.0797733086868397,1.0562576243244222,-5.0
13.714262008666992,1.0772331253692629,1.0531038862143518,-5.0
13.722925424575806,1.0744975433349495,1.0499562723599798,-5.0
13.733242750167847,1.0709803664336897,1.0468199425546643,-5.0
13.741307020187378,1.0680493856826394,1.0436875557689747,-5.0
13.74976658821106,1.0651184049315896,1.0405471414745464,-4.845247961015049
13.7573561668396,1.0623828228972763,1.037406086099394,-4.6041176719364385
13.768262147903442,1.058279449845806,1.0342765947665475,-4.601777288868176
13.77734112739563,1.0549576716612825,1.0311576621088039,-4.3455122411730445
13.786567449569702,1.0512450960432858,1.0280430017509283,-4.00402766363609
13.794321537017822,1.0479233178587624,1.0249277455474892,-3.651936135258413
13.802379846572876,1.0447969383909759,1.0218191846030462,-3.3195033254786774
13.813362836837769,1.039911970472559,1.0187292047742695,-3.0167288170399145
13.82342004776001,1.035808597421089,1.0156514249307682,-2.744830692431865
13.833165407180786,1.0319006230863554,1.0125748897157465,-2.5015974387836204
13.842280149459839,1.028188047468359,1.0095011790412056,-2.0077510628335293
13.85281491279602,1.023889275700152,1.006431439091885,-1.5029450601787064
13.860339879989624,1.0207628962323652,1.0033609935200443,-0.7964494978285719
13.872461557388306,1.0154871308804754,1.0002857971350758,-0.1496866601291308
13.88032603263855,1.0123607514126884,0.9972024233145622,0.35675354099139606
13.891535520553589,1.0076711822110085,0.994108114645136,0.9935435321074416
13.904272556304932,1.002004619425645,0.9909953047494054,1.5393935349046388
13.915257215499878,0.9973150502239649,0.9878526495018316,1.6577382788342652
13.925321578979492,0.9932116771724948,0.9846713958643534,1.8720863283945293
13.933600902557373,0.9898898989879715,0.9814557897026369,2.0541562770107102
13.94222640991211,0.9863727220867115,0.9782262110577821,2.1665895115616256
13.953154802322388,0.9816831528850313,0.9749951964386702,2.209238335480139
13.964278221130371,0.9775797798335613,0.971758127648955,2.4708408022833463
13.978129386901855,0.9724994131984078,0.9685067717198762,2.9996301434542856
13.987561464309692,0.969373033730621,0.9652352206073392,3.7540264813062945
13.995230674743652,0.9668328504130442,0.9619492390304645,4.1166462904432795
14.003324508666992,0.9642926670954678,0.958664175709338,4.510854897791441
14.011239051818848,0.961752483777891,0.955383444599433,4.510166844315227
14.019252061843872,0.9590169017435776,0.9521099609319474,4.604369153760972
14.029229640960693,0.9558905222757909,0.9488606880287724,4.932013651106527
14.040411710739136,0.9523733453745308,0.9456397540906899,5.0
14.052274465560913,0.9490515671900073,0.9424353677061464,5.0
14.063496828079224,0.9459251877222207,0.9392418584567475,5.0
14.071755409240723,0.9437758018381173,0.9360587675428218,4.697737083821807
14.079333066940308,0.9418218146707505,0.9328902797743475,4.561900351079473
14.088268280029297,0.9396724287866473,0.9297445267225286,3.8986423050543753
14.098426580429077,0.9371322454690706,0.9266226934058222,3.4208282769148624
14.108200311660767,0.9347874608682304,0.9235200975630816,3.0524619485581805
14.118253707885742,0.932051878833917,0.9204323233241838,2.4766594788579055
14.12776803970337,0.9293162967996036,0.9173552903811618,1.6377067674630952
14.135274887084961,0.9271669109155003,0.9142852807243754,0.577729852519408
14.14526891708374,0.9244313288811868,0.9112189420807919,-0.3589540003579647
14.153215408325195,0.9220865442803469,0.908158564066362,-1.3496984668776415
14.162325859069824,0.9193509622460335,0.9051111740063332,-2.153412620748929
14.171583652496338,0.9166153802117202,0.9020771107750148,-2.994394732941527
14.180362701416016,0.9140751968941434,0.8990563570344474,-3.6516577896017237
14.188228845596313,0.9113396148598301,0.8960538237797095,-4.081063436139834
14.197232961654663,0.9086040328255167,0.8930677584765477,-4.306539162542673
14.206077098846436,0.9056730520744666,0.8900907982410299,-4.371830596694912
14.21427059173584,0.9031328687568898,0.8871163676695402,-4.596713708771902
14.223201990127563,0.9000064892891031,0.8841442399248801,-4.499058625662059
14.232526540756226,0.8966847111045797,0.8811796410125634,-4.262112005985005
14.24030613899231,0.8935583316367929,0.8782213661359449,-3.9741880252001547
14.251244068145752,0.8892595598685864,0.8752627734497173,-3.9529029938639653
14.259230375289917,0.8863285791175362,0.8723037434493384,-3.698046664599052
14.269364595413208,0.8828114022162762,0.8693442832434538,-3.37202651998627
14.277223825454712,0.879880421465226,0.866379037830407,-3.0445711360680106
14.287304401397705,0.8759724471304927,0.8634091426847519,-3.0183736340837495
14.297406673431396,0.8722598715124958,0.8604357549191719,-2.505861492492931
14.30787706375122,0.8681564984610259,0.8574490519943868,-2.1801013656197594
14.318819999694824,0.8636623279760824,0.8544354089208711,-1.9502085952041872
14.32930850982666,0.8595589549246124,0.8513889535432025,-1.771462236804396
14.33829116821289,0.8558463793066157,0.8483159161712192,-1.3458509246493897
14.346670627593994,0.8527199998388288,0.8452272804317756,-1.1815033952775478
14.356133460998535,0.8492028229375689,0.8421269389963968,-0.5662540744417899
14.366050481796265,0.8456856460363087,0.839012727444541,0.08408330117985807
14.376246690750122,0.8417776717015754,0.8358828904976713,0.6211459294603
14.38432502746582,0.839042089667262,0.832741612615845,1.5643151579273853
14.392756938934326,0.8361111089162119,0.8295980898186025,2.1642384166719837
14.401772737503052,0.8333755268818985,0.8264545943903543,3.0657569123618176
14.410079002380371,0.8306399448475852,0.8233074796010966,3.8563114772186537
14.420334815979004,0.8275135653797985,0.8201536517444706,4.414654551297774
14.428847551345825,0.8249733820622217,0.8169905290999521,4.739164486655856
14.43750548362732,0.8226285974613817,0.8138214830044819,4.869853289787899
14.44666862487793,0.820088414143805,0.810654739979082,5.0
14.45821738243103,0.8169620346760184,0.8074855270135801,5.0
14.46941328048706,0.814226452641705,0.8042981094356275,4.9545863489765125
14.478280782699585,0.8114908706073914,0.8010905740071766,4.401981054503999
14.48955249786377,0.808169092422868,0.797866892559251,3.462192924457897
14.497245073318481,0.8054335103885547,0.7946244944787398,2.534745350972337
14.509408473968506,0.8017209347705582,0.7913609391730929,1.2049928120925606
14.518211364746094,0.7989853527362445,0.788073886307839,0.25992950267652937
14.528817892074585,0.7954681758349845,0.7847672115429344,-0.9368977194525643
14.537065029144287,0.7929279925174079,0.7814437986746919,-1.9761529766373087
14.546204328536987,0.7898016130496212,0.7780996201147524,-2.4674593668465477
14.55560851097107,0.7864798348650976,0.7747308818651004,-2.935406855026489
14.563215732574463,0.7837442528307843,0.7713405293678333,-2.9956595120597616
14.572223424911499,0.7806178733629977,0.7679372781504563,-3.153276874161478
14.580289125442505,0.7776868926119475,0.7645217894287407,-3.2744590500059108
14.588167667388916,0.7747559118608975,0.7610944428808523,-3.0455526141863776
14.599374771118164,0.7708479375261642,0.7576551157454526,-2.9869015965251604
14.607220649719238,0.7681123554918509,0.7541968255757581,-2.958373697708285
14.615851640701294,0.7651813747408006,0.7507201485993465,-2.6334268998832417
14.6241934299469,0.762054995273014,0.7472320115631974,-2.243171985365767
14.63218069076538,0.7587332170884905,0.7437380348121058,-2.155156586886019
14.64125370979309,0.7554114389039671,0.7402356311546753,-1.879284999560182
14.649224042892456,0.7522850594361805,0.7367223445250903,-1.848826260701744
14.657209634780884,0.7491586799683937,0.7332028021595457,-1.6049533446258701
14.667349100112915,0.7452507056336604,0.7296733702919508,-1.5954758370834905
14.675292015075684,0.741928927449137,0.7261233551242995,-1.3680903077983808
14.68419337272644,0.7382163518311402,0.7225507037669565,-1.3733629220612442
14.695335626602173,0.7339175800629335,0.718953241257142,-1.160030947093299
14.706053256988525,0.7296188082947267,0.7153138831676703,-1.1789593579505016
14.716357231140137,0.7253200365265199,0.7116182100370539,-0.9788933430064554
14.726464033126831,0.7212166634750498,0.7078618978400294,-0.7345769456776126
14.736892223358154,0.7167224929901064,0.7040420334458448,-0.5136171173652202
14.744205713272095,0.7137915122390565,0.7001647421009313,-0.3359970662471833
14.754456281661987,0.7094927404708496,0.6962364034744225,0.07399009137549822
14.763218879699707,0.7059755635695895,0.6922559554063494,0.20397565656919445
14.772206544876099,0.7022629879515929,0.6882310249166705,0.21665574373521695
14.781226396560669,0.6985504123335962,0.6841691084313962,0.46259274116853
14.790802478790283,0.6946424379988627,0.6800699208790131,0.7313593213016515
14.798765897750854,0.6913206598143393,0.6759412246864405,0.9476350649831273
14.807191371917725,0.6876080841963426,0.6717974194906643,1.0945447472479404
14.815240383148193,0.6842863060118193,0.6676437221727684,0.9020328214605531
14.824994802474976,0.6805737303938224,0.6634774574147666,0.9020183696011185
14.83629560470581,0.6758841611921423,0.6592965071185674,0.9531666297645973
14.846906423568726,0.6711945919904623,0.6550991356277343,0.9996331142111952
14.854630470275879,0.6680682125226756,0.6508838738425862,1.0237678374616488
14.862329244613647,0.6645510356214154,0.6466568473284453,1.0238409221397742
14.871608972549438,0.6610338587201554,0.6424304783626855,1.0038661820430688
14.879220008850098,0.6577120805356321,0.638215038575578,1.2452232084814026
14.88959527015686,0.653608707484162,0.634011456125759,1.2338901905402981
14.897199392318726,0.6500915305829019,0.6298127555358839,1.1285375694313147
