t_s,q_rad,q_des_rad,K,B,Kff,jerk,tau_Nm,reward
0.005106687545776367,-0.01621809348914363,[-9.50394487e-06],9.825212432529046,0.9790254919034855,1.9737818648793566,0.0,-9.998999999999999,1.4488128807454728
0.01601552963256836,-0.01621809348914363,[-4.5929629e-05],9.650424865058092,0.9580509838069711,1.9475637297587132,0.0,-10.098989999999999,1.4490367304159024
0.023937463760375977,-0.01621809348914363,[-0.00011415],9.475637297587138,0.9370764757104565,1.92134559463807,0.0,-9.876264811066438,1.4494547791780568
0.03496146202087402,-0.01621809348914363,[-0.00020838],9.300849730116184,0.9161019676139419,1.8951274595174268,0.0,-6.804581875913654,1.450029578105939
0.04374837875366211,-0.01621809348914363,[-0.00032339],9.12606216264523,0.8951274595174274,1.8689093243967834,0.0,-4.65502228808977,1.4507269775572205
0.0543668270111084,-0.01621809348914363,[-0.00045446],8.951274595174274,0.8741529514209129,1.84269118927614,0.0,0.035089007405096066,1.451516348718647
0.0639033317565918,-0.01621809348914363,[-0.00059744],8.77648702770332,0.8531784433243983,1.8164730541554968,0.0,2.3089128098713276,1.4523706446986715
0.07186508178710938,-0.01621809348914363,[-0.00074862],8.601699460232366,0.8322039352278838,1.7902549190348536,0.0,3.180531534275136,1.4532663396624605
0.08124995231628418,-0.015241099905460279,[-0.00090478],8.426911892761412,0.8112294271313693,1.7640367839142101,0.0,3.29141200637916,1.459727383917481
0.09092235565185547,-0.012505517871146895,[-0.00106313],8.252124325290458,0.7902549190348547,1.7378186487935667,1.9322685177507668,3.0163181562071393,1.4713826135898775
0.10148787498474121,-0.008597543536413491,[-0.00122129],8.077336757819502,0.7692804109383402,1.7116005136729235,4.924524336667669,2.5788190117684353,1.4714467571203464
0.11090683937072754,-0.005275765351890096,[-0.00137723],7.902549190348549,0.7483059028418256,1.6853823785522803,5.0,2.111330113007786,1.478696956508597
0.12054729461669922,-0.0015631897338933619,[-0.00152927],7.727761622877595,0.727331394745311,1.659164243431637,5.0,1.6676743358499448,1.4817318320011081
0.12887883186340332,0.0017585884506300322,[-0.00167605],7.55297405540664,0.7063568866487966,1.6329461083109935,5.0,1.2792069405914306,1.4793754976530504
0.13886046409606934,0.005861961502100107,[-0.00181647],7.378186487935686,0.685382378552282,1.6067279731903503,5.0,0.9440024089471806,1.4700096353640455
0.1489105224609375,0.009769935836833513,[-0.00194971],7.203398920464732,0.6644078704557674,1.5805098380697071,5.0,0.6698268703323957,1.4546359118474683
0.1578667163848877,0.013287112738093578,[-0.00207514],7.028611352993777,0.643433362359253,1.5542917029490637,5.0,0.4513693904919387,1.4356288972752234
0.16857099533081055,0.01758588450630032,[-0.00219234],6.853823785522822,0.6224588542627384,1.5280735678284203,5.0,0.2729474834779756,1.4064785617723015
0.1786823272705078,0.02129846012429706,[-0.00230107],6.679036218051868,0.6014843461662238,1.501855432707777,5.0,0.1356548220449677,1.376324062686904
0.18934869766235352,0.025401833175767132,[-0.00240122],6.504248650580913,0.6,1.475637297587134,4.046920339898361,0.02431976867282931,1.3447121303738727
0.19883990287780762,0.02911440879376387,[-0.00249282],6.329461083109958,0.6,1.4494191624664907,1.58055629950679,-0.061028165895954334,1.3170355851849005
0.209092378616333,0.0328269844117606,[-0.002576],6.154673515639004,0.6,1.4232010273458477,-1.1994811789364934,-0.12795395207926505,1.2772059416332866
0.219679594039917,0.036148762596283995,[-0.00265099],5.97988594816805,0.6,1.3969828922252046,-4.089997328738372,-0.1780444644763456,1.2277168380795271
0.23007869720458984,0.039470540780807396,[-0.00271808],5.805098380697095,0.6,1.3707647571045614,-5.0,-0.21712232267287182,1.1822214995787987
0.24039125442504883,0.0420107240983841,[-0.00277762],5.63031081322614,0.6,1.3445466219839184,-5.0,-0.24288589108217548,1.151248763022989
0.24787187576293945,0.04396471126575081,[-0.00283],5.455523245755186,0.6,1.3183284868632752,-5.0,-0.2575966759470715,1.1270907293863213
0.2568507194519043,0.04552790099964417,[-0.00287565],5.280735678284231,0.6,1.292110351742632,-5.0,-0.26564894541575484,1.1076219560331537
0.26581501960754395,0.046700293300064186,[-0.00291502],5.105948110813277,0.6,1.2658922166219888,-5.0,-0.26752501880887547,1.0929291023093184
0.2778446674346924,0.04787268560048421,[-0.00294857],5.0,0.6,1.2396740815013456,-5.0,-0.2696546023062853,1.0783013318849166
0.2858302593231201,0.04826348303395755,[-0.00297675],5.0,0.6,1.2134559463807026,-5.0,-0.2718339599523761,1.0732209829616415
0.29644131660461426,0.048458881750694224,[-0.00300004],5.0,0.6,1.1872378112600595,-5.0,-0.27309821499814235,1.0705700874544073
0.3078925609588623,0.048068084317220885,[-0.00301889],5.0,0.6,1.1610196761394163,-5.0,-0.26910393600132654,1.0750791649925961
0.31585693359375,0.04767728688374754,[-0.00303373],5.0,0.6,1.1348015410187733,-5.0,-0.2650026731344249,1.0796382113279592
0.3248734474182129,0.04709109073353753,[-0.003045],5.0,0.6,1.10858340589813,-5.0,-0.25921516323204313,1.086611852032076
0.336301326751709,0.04572329971638084,[-0.0030531],5.0,0.6,1.082365270777487,-5.0,-0.24922499324492725,1.1031027603561747
0.34453248977661133,0.044746306132697485,[-0.00305841],5.0,0.6,1.0561471356568437,-5.0,-0.24155913533564427,1.1148755175358025
0.3520162105560303,0.04357391383227746,[-0.0030613],5.0,0.6,1.0299290005362005,-5.0,-0.23309829434413623,1.1290169887465606
0.35983896255493164,0.04220612281512077,[-0.00306211],5.0,0.6,1.0037108654155575,-5.0,-0.22351772933493774,1.1454868467042951
0.36885952949523926,0.040642933081227406,[-0.00306113],5.0,0.6,0.9774927302949143,-5.0,-0.21304434246338425,1.1642209351801323
0.37984776496887207,0.03829814848038737,[-0.00305867],5.0,0.6,0.9512745951742712,-5.0,-0.19928097882641743,1.192025346764622
0.3898959159851074,0.036148762596283995,[-0.00305499],5.0,0.6,0.9250564600536281,-5.0,-0.18506228758575993,1.217098157673743
0.39921998977661133,0.033999376712180625,[-0.00305031],5.0,0.6,0.898838324932985,-4.859090642990491,-0.1719866679270148,1.2426541748786903
0.40685510635375977,0.032045389544813924,[-0.00304486],5.0,0.6,0.8726201898123418,-3.746806965647269,-0.159748527836041,1.271373085705575
0.4175450801849365,0.02950520622723721,[-0.00303881],5.0,0.6,0.8464020546916986,-3.040189691621411,-0.1439080431962146,1.3022749987813913
0.4258444309234619,0.027355820343133833,[-0.00303233],5.0,0.6,0.8201839195710555,-2.28593364555051,-0.12993945167922147,1.327488891751492
0.43384313583374023,0.025401833175767132,[-0.00302556],5.0,0.6,0.7939657844504124,-0.8041002808519444,-0.11896052992555624,1.3502805088824252
0.4451591968536377,0.022080054991243738,[-0.00301863],5.0,0.6,0.7677476493297692,-0.18800123451380468,-0.10064609196828447,1.3815984230038083
0.4534111022949219,0.020126067823877037,[-0.00301165],5.0,0.6,0.741529514209126,0.8626436363582441,-0.08992846243771083,1.3979083964184897
0.46334147453308105,0.017195087072826982,[-0.00300473],5.0,0.6,0.715311379088483,1.5671996539495379,-0.07489501450540402,1.4198095273564735
0.4710111618041992,0.015045701188723608,[-0.00299795],5.0,0.6,0.6890932439678399,2.283681381273351,-0.06363088057529284,1.4330928762497015
0.481220006942749,0.012310119154410226,[-0.00299136],5.0,0.6,0.6628751088471967,2.840467482364251,-0.04888066165170589,1.4482823083722374
0.4901878833770752,0.009769935836833513,[-0.00298504],5.0,0.6,0.6366569737265535,3.4819949824911824,-0.03508547867065568,1.459041442652938
0.49985480308532715,0.007034353802520129,[-0.002979],5.0,0.6,0.6104388386059104,3.9871350482937133,-0.020432269532259822,1.468451300212486
0.5101888179779053,0.004103373051470075,[-0.0029733],5.0,0.6,0.5842207034852673,4.580574486840473,-0.005200801225593786,1.4746568055621165
0.5186066627502441,0.0017585884506300322,[-0.00296795],5.0,0.6,0.5580025683646241,5.0,0.007077499662979385,1.477274004153967
0.5292510986328125,-0.0009769935836833512,[-0.00296296],5.0,0.6,0.531784433243981,5.0,0.021132631301704854,1.480943558990615
0.5369038581848145,-0.0027355820343133836,[-0.00295835],5.0,0.6,0.5055662981233379,5.0,0.029778017735525433,1.4817221369927596
0.547893762588501,-0.005275765351890096,[-0.00295411],5.0,0.6,0.4793481630026947,5.0,0.042525927521358454,1.4806546261158302
0.5568397045135498,-0.007034353802520129,[-0.00295023],5.0,0.6,0.4531300278820516,5.0,0.05077085029748078,1.478401608931862
0.5663306713104248,-0.00879294225315016,[-0.00294671],5.0,0.6,0.42691189276140845,5.0,0.05880850569126306,1.47491968463215
0.5738403797149658,-0.010160733270306851,[-0.00294354],5.0,0.6,0.4006937576407653,5.0,0.0647474165390744,1.471368549222729
0.582200288772583,-0.011723923004200214,[-0.00294069],5.0,0.6,0.3744756225201221,5.0,0.07162911969560766,1.4664214572999594
0.5915231704711914,-0.013091714021356905,[-0.00293817],5.0,0.6,0.3482574873994789,5.0,0.07686107520866206,1.4613242849491905
0.5998117923736572,-0.0144595050385136,[-0.00293594],5.0,0.6,0.3220393522788358,5.0,0.08254362333335835,1.4555231490679568
0.6091499328613281,-0.01563189733893362,[-0.002934],5.0,0.6,0.2958212171581926,5.0,0.08697672359731994,1.4499991351836559
0.6168115139007568,-0.01680428963935364,[-0.00293231],5.0,0.6,0.2696030820375494,5.0,0.09158302287628738,1.443976895107367
0.6278326511383057,-0.018172080656510332,[-0.00293086],5.0,0.6,0.24338494691690624,5.0,0.09709793078884796,1.4363357954288203
0.6378121376037598,-0.019149074240193686,[-0.00292962],5.0,0.6,0.21716681179626307,5.0,0.10061089678431318,1.4304780706070264
0.6474297046661377,-0.020126067823877037,[-0.00292857],5.0,0.6,0.19094867667561988,5.0,0.10380976231426926,1.4242966972486806
0.6578309535980225,-0.020907662690823715,[-0.00292771],5.0,0.6,0.16473054155497668,5.0,0.10623210306852192,1.41912216917627
0.6673240661621094,-0.021493858841033726,[-0.00292701],5.0,0.6,0.13851240643433352,5.0,0.10772702419024006,1.4151095672349405
0.6758129596710205,-0.02188465627450707,[-0.00292646],5.0,0.6,0.11229427131369034,5.0,0.10834574345361668,1.412372201048363
0.6838641166687012,-0.022275453707980408,[-0.00292604],5.0,0.6,0.08607613619304716,5.0,0.10890283964757871,1.4095869268874779
0.6939940452575684,-0.02247085242471708,[-0.00292573],5.0,0.6,0.05985800107240398,4.683641428485705,0.10868901578798285,1.410377573438599
0.7024567127227783,-0.022666251141453746,[-0.00292551],5.0,0.6,0.0336398659517608,4.401399591280402,0.10830973592577903,1.4108056973402778
0.7104613780975342,-0.02305704857492709,[-0.00292538],5.0,0.6,0.0074217308311176206,3.8549141368175803,0.10905744412862252,1.4112006809069415
0.7191486358642578,-0.023252447291663758,[-0.00292532],5.0,0.6,0.0,3.2809155043039455,0.10896247335888418,1.4127348505006097
0.7278616428375244,-0.023252447291663758,[-0.00292533],5.0,0.6,0.0,2.7677463825839226,0.10792538341562695,1.4150140558994866
0.7378032207489014,-0.023252447291663758,[-0.00292538],5.0,0.6,0.0,2.614491899553877,0.10679747909498953,1.4156218276130565
0.7468750476837158,-0.023252447291663758,[-0.00292542],5.0,0.6,0.0,2.2988360194844093,0.10572614858934584,1.4167663039632319
0.7549424171447754,-0.023252447291663758,[-0.00292542],5.0,0.6,0.0,1.6872371148689569,0.10497872198543007,1.4185700890246737
0.7648916244506836,-0.023252447291663758,[-0.00292528],5.0,0.6,0.0,1.0763015028482044,0.10459225620320933,1.4198221058531855
0.7748234272003174,-0.02305704857492709,[-0.00292485],5.0,0.6,0.0,0.568741619292704,0.10329568089892846,1.4218966678221523
0.7848374843597412,-0.02305704857492709,[-0.00292394],5.0,0.6,0.0,-0.09195816093164177,0.1033623266162618,1.4221243193594362
0.7948200702667236,-0.022666251141453746,[-0.00292227],5.0,0.6,0.0,-0.6753325317095458,0.10177433610938663,1.4246574805407772
0.8041560649871826,-0.02247085242471708,[-0.00291952],5.0,0.6,0.0,-1.114862999817377,0.10124656790135583,1.425473990179744
0.8118295669555664,-0.02247085242471708,[-0.00291528],5.0,0.6,0.0,-1.6872249460058266,0.10211008334015359,1.4242530280864518
0.8219294548034668,-0.022275453707980408,[-0.00290911],5.0,0.6,0.0,-1.89732479932968,0.10185671966254292,1.425060695080956
0.832819938659668,-0.022080054991243738,[-0.00290055],5.0,0.6,0.0,-1.9280893890276345,0.10168331204571004,1.4263108090846983
0.8418197631835938,-0.022080054991243738,[-0.00288925],5.0,0.6,0.0,-2.148164038805801,0.10112677322911807,1.4255665857075905
0.8521952629089355,-0.02188465627450707,[-0.00287484],5.0,0.6,0.0,-2.085566016327587,0.1028908779174982,1.4270480245219528
0.8598549365997314,-0.0216892575577704,[-0.00285685],5.0,0.6,0.0,-2.194852585136438,0.10090195080251928,1.4279520540350592
0.8689041137695312,-0.021493858841033726,[-0.00283499],5.0,0.6,0.0,-2.3123833132443963,0.10119335609693918,1.4287736682299095
0.8798263072967529,-0.02129846012429706,[-0.00280902],5.0,0.6,0.0,-2.3824892225472256,0.10130329279108,1.4297055031478292
0.889646053314209,-0.021103061407560384,[-0.00277854],5.0,0.6,0.0,-2.119375987078024,0.10115258600250343,1.4317153171796342
0.9008338451385498,-0.020907662690823715,[-0.00274324],5.0,0.6,0.0,-2.0495635495651134,0.10103060077997476,1.4330236679295796
0.9113485813140869,-0.020712263974087045,[-0.00270267],5.0,0.6,0.0,-2.030663569526805,0.10283272344722465,1.4341299068232902
0.918806791305542,-0.020712263974087045,[-0.00265649],5.0,0.6,0.0,-2.0073804341682693,0.10084983015553327,1.4338873594962291
0.9268341064453125,-0.020516865257350376,[-0.00260505],5.0,0.6,0.0,-1.9630211533047273,0.09849983368438602,1.4349883922179458
0.9351334571838379,-0.020516865257350376,[-0.00254888],5.0,0.6,0.0,-1.8967473631129863,0.09980454731967038,1.4347998145433252
0.945704460144043,-0.020321466540613703,[-0.00248811],5.0,0.6,0.0,-1.8132481526966453,0.09985795586471008,1.4359333686121174
0.9562199115753174,-0.020126067823877037,[-0.00242252],5.0,0.6,0.0,-1.718308229114725,0.10174114609699467,1.437047990446953
0.9643154144287109,-0.019930669107140364,[-0.00235202],5.0,0.6,0.0,-1.617103282624676,0.09881762677450123,1.4381263518884482
0.9718234539031982,-0.019735270390403698,[-0.00227711],5.0,0.6,0.0,-1.5137046991998244,0.09667372804085018,1.439160511112497
0.9828166961669922,-0.019735270390403698,[-0.00219845],5.0,0.6,0.0,-1.4110810391422892,0.0981277004543662,1.438865419358872
0.9960336685180664,-0.019539871673667025,[-0.00211584],5.0,0.6,0.0,-1.3112724273502545,0.10287839615001645,1.4398089726786432
1.0048184394836426,-0.019344472956930356,[-0.00202871],5.0,0.6,0.0,-1.2155986282119944,0.09954719713250071,1.4406967197457319
1.0128204822540283,-0.019149074240193686,[-0.00193722],5.0,0.6,0.0,-1.1248470770459746,0.09950288875397083,1.441530492604194
1.020819902420044,-0.019149074240193686,[-0.00184188],5.0,0.6,0.0,-1.0394251195240094,0.09798049161520118,1.4410477986166346
1.0298125743865967,-0.019149074240193686,[-0.00174319],5.0,0.6,0.0,-1.235514721328995,0.09981900231909036,1.4400712045649935
1.0398194789886475,-0.018953675523457014,[-0.00164124],5.0,0.6,0.0,-1.1941294845596826,0.100898665430079,1.4407568532172936
1.0514650344848633,-0.018953675523457014,[-0.00153586],5.0,0.6,0.0,-1.0698109909409006,0.10241798343176109,1.440276823555639
1.0588228702545166,-0.018953675523457014,[-0.00142709],5.0,0.6,0.0,-1.205609130191547,0.10148157889574969,1.4393321219464104
1.0668010711669922,-0.018758276806720344,[-0.00131546],5.0,0.6,0.0,-1.1088575095275472,0.10006596480181461,1.4400495403109619
1.076183557510376,-0.018562878089983675,[-0.00120107],5.0,0.6,0.0,-0.9423013839828615,0.1049012853636215,1.4408342149960685
1.0859205722808838,-0.018562878089983675,[-0.00108354],5.0,0.6,0.0,-0.7736062551122898,0.10301614986932765,1.4402787178506582
1.0948138236999512,-0.018562878089983675,[-0.00096255],5.0,0.6,0.0,-0.6269911665948441,0.10857613826302728,1.4396332672374172
1.105804681777954,-0.018367479373247002,[-0.00083752],5.0,0.6,0.0,-0.5078188238902819,0.10834945932227275,1.4401987070630597
1.1149249076843262,-0.018367479373247002,[-0.00070832],5.0,0.6,0.0,-0.4140319645646524,0.10564120835423813,1.439408376603423
1.1247844696044922,-0.018367479373247002,[-0.00057556],5.0,0.6,0.0,-0.6173087102628133,0.10713653536287944,1.4383684274525423
1.1338553428649902,-0.018172080656510332,[-0.00043956],5.0,0.6,0.0,-0.5941712908941483,0.10741224848961069,1.4387854504580042
1.1448028087615967,-0.018172080656510332,[-0.00030033],5.0,0.6,0.0,-0.4953945645632839,0.1085370445829343,1.4379349947071605
1.1548573970794678,-0.017976681939773663,[-0.00015792],5.0,0.6,0.0,-0.3850848246186942,0.10873387224741611,1.4383621825058184
1.1647863388061523,-0.017976681939773663,[-1.23624728e-05],5.0,0.6,0.0,-0.2873992869845346,0.10987635091477024,1.4374339859936545
1.175421953201294,-0.017781283223036994,[0.00013632],5.0,0.6,0.0,-0.20889020320100832,0.11010238721899859,1.4377773295303478
1.1848020553588867,-0.017781283223036994,[0.00028813],5.0,0.6,0.0,-0.14896598103784361,0.11136590467060413,1.4367691638926772
1.1945950984954834,-0.017781283223036994,[0.0004431],5.0,0.6,0.0,-0.10462409475498276,0.11275715669214928,1.4357243576189378
1.2043368816375732,-0.01758588450630032,[0.00060131],5.0,0.6,0.0,-0.07246918988226336,0.1134207451205457,1.4359820189863914
1.2144136428833008,-0.01758588450630032,[0.00076295],5.0,0.6,0.0,-0.04947829467083899,0.11536464747640493,1.434879236401165
1.2249445915222168,-0.01739048578956365,[0.00092828],5.0,0.6,0.0,-0.033212741124473005,0.11621777057445233,1.4350864322204573
1.2351329326629639,-0.017195087072826982,[0.00109798],5.0,0.6,0.0,-0.021804649874571112,0.1214903987926395,1.4352628644563283
1.2428014278411865,-0.017195087072826982,[0.0012727],5.0,0.6,0.0,-0.013866543023117267,0.11786998216685894,1.4340624475007229
1.2533812522888184,-0.016999688356090312,[0.00145225],5.0,0.6,0.0,0.26765074674521905,0.11907459412377956,1.4341185787204045
1.2632343769073486,-0.01680428963935364,[0.00163653],5.0,0.6,0.0,0.3045220797171833,0.12025629209674239,1.4341795012953034
1.2709600925445557,-0.0164134922058803,[0.00182546],5.0,0.6,0.0,0.527995956058118,0.11538687067800188,1.435425630734779
1.2811999320983887,-0.0164134922058803,[0.00201899],5.0,0.6,0.0,0.48672150370770373,0.12363852790271879,1.4341296875959217
1.2891557216644287,-0.01621809348914363,[0.00221754],5.0,0.6,0.0,0.36219957742076214,0.1189905441568844,1.434186617836293
1.2989978790283203,-0.016022694772406962,[0.00242099],5.0,0.6,0.0,0.2301847355917297,0.12093422316495621,1.434189343406361
1.3094801902770996,-0.01582729605567029,[0.00262924],5.0,0.6,0.0,0.39411613775723775,0.12243679929903613,1.4340245609002953
1.3188440799713135,-0.01563189733893362,[0.0028427],5.0,0.6,0.0,0.3414275107457747,0.12383838296648426,1.43392882864662
1.328247308731079,-0.015436498622196948,[0.00306172],5.0,0.6,0.0,0.22490094334255703,0.12507731700493976,1.433814841331177
1.3378188610076904,-0.015241099905460279,[0.00328662],5.0,0.6,0.0,0.10725979561969361,0.12641359690534962,1.4336399209842026
1.3470978736877441,-0.014850302471986938,[0.00351771],5.0,0.6,0.0,0.2863628132324943,0.12642843079189514,1.434688422788761
1.3558659553527832,-0.014850302471986938,[0.00375471],5.0,0.6,0.0,0.24751316529947404,0.12268992190854774,1.433067113154004
1.3649334907531738,-0.0144595050385136,[0.00399688],5.0,0.6,0.0,0.14289403418438068,0.12459567223694182,1.4341260160981766
1.3768136501312256,-0.014264106321776927,[0.00424477],5.0,0.6,0.0,0.31129839566499534,0.13334251872477368,1.4337066630654205
1.384789228439331,-0.014068707605040257,[0.00449941],5.0,0.6,0.0,0.2558455526534508,0.12740546588442644,1.4333199241537113
1.3939952850341797,-0.013873308888303588,[0.00476062],5.0,0.6,0.0,0.13577658333578294,0.1301995053486613,1.4328980304509347
1.4018514156341553,-0.013482511454830247,[0.00502834],5.0,0.6,0.0,0.01608500651787198,0.13199037376270856,1.4337649841858044
1.4098243713378906,-0.013287112738093578,[0.00530254],5.0,0.6,0.0,0.19510168928075078,0.12702631677132967,1.4331909528730506
1.4178073406219482,-0.012896315304620235,[0.00558268],5.0,0.6,0.0,0.15790968195364857,0.13067023085246243,1.4339666753282154
1.425877332687378,-0.012700916587883566,[0.00586834],5.0,0.6,0.0,0.33230840130495876,0.12661158173171652,1.4332786111726272
1.4348456859588623,-0.012310119154410226,[0.00615926],5.0,0.6,0.0,0.2616775174756264,0.13135718136019353,1.4340006444946551
1.4441657066345215,-0.011919321720936885,[0.00645611],5.0,0.6,0.0,0.3984651988186731,0.1354489547750743,1.4345802878054188
1.4536480903625488,-0.011528524287463544,[0.00676039],5.0,0.6,0.0,0.295232056627543,0.1389183867529489,1.435226791531775
1.4618470668792725,-0.011137726853990204,[0.00707268],5.0,0.6,0.0,0.40682208127387376,0.13254425163439923,1.4357046320232216
1.471484661102295,-0.010746929420516863,[0.00739368],5.0,0.6,0.0,0.2854628363050977,0.14769558233558663,1.4362421287181388
1.4791483879089355,-0.010356131987043523,[0.00772499],5.0,0.6,0.0,0.3847649887073431,0.13954733643318232,1.436596202506758
1.4887454509735107,-0.009769935836833513,[0.00806715],5.0,0.6,0.0,0.5316355222421427,0.14310672431407362,1.4381396185990303
1.4987587928771973,-0.009379138403360172,[0.0084208],5.0,0.6,0.0,0.6595380468631091,0.1473527787761247,1.4382747081412222
1.508129358291626,-0.008597543536413491,[0.00878763],5.0,0.6,0.0,0.7491169363734758,0.14937233908272213,1.4409243354840187
1.516782522201538,-0.008011347386203481,[0.00916816],5.0,0.6,0.0,0.8003462231347833,0.13997754169801122,1.4422046073411408
1.5271141529083252,-0.0072297525192568,[0.00956304],5.0,0.6,0.0,0.8198892186486222,0.15722985367649353,1.444661249928052
1.5367686748504639,-0.006838955085783458,[0.00997526],5.0,0.6,0.0,0.8156773886093673,0.1600209557211871,1.4445302698105287
1.5459001064300537,-0.006057360218836778,[0.01040755],5.0,0.6,0.0,0.7948286237861658,0.16081907700068265,1.4467549176290482
1.5553340911865234,-0.005275765351890096,[0.01085989],5.0,0.6,0.0,1.0390844474721834,0.1478194854365183,1.448457525285757
1.5634355545043945,-0.004494170484943416,[0.01133107],5.0,0.6,0.0,1.0337879691094747,0.15266369527611845,1.4503511171051808
1.5718224048614502,-0.0037125756179967346,[0.01181987],5.0,0.6,0.0,1.2127748844253725,0.14002234431164928,1.4518005599964923
1.5836780071258545,-0.002540183317576713,[0.01232662],5.0,0.6,0.0,1.4025402399826459,0.16212643827016232,1.455296228075773
1.5948503017425537,-0.0013677910171566918,[0.01285473],5.0,0.6,0.0,1.2668519931832831,0.16108654163897246,1.4591581288236872
1.6035454273223877,-0.00039079743347334047,[0.01340701],5.0,0.6,0.0,1.3129845890774585,0.16056600407357063,1.461358208996482
1.6117770671844482,0.0005861961502100108,[0.01398275],5.0,0.6,0.0,1.1171041283514311,0.14469107848397875,1.4638149341268474
1.6207644939422607,0.0017585884506300322,[0.0145798],5.0,0.6,0.0,0.8671075013914327,0.1484893435002837,1.4670984718039277
1.6318774223327637,0.0031263794677867237,[0.01519789],5.0,0.6,0.0,0.9128178976884926,0.14998944087395796,1.4706564407434726
1.6430490016937256,0.004494170484943416,[0.01583983],5.0,0.6,0.0,1.0341071654056084,0.1670777132532018,1.4737883653303148
1.6518266201019287,0.005666562785363437,[0.01650788],5.0,0.6,0.0,1.1442785828688664,0.14568431267701082,1.475793553804184
1.6614460945129395,0.007034353802520129,[0.01720225],5.0,0.6,0.0,0.9401677805592608,0.1636760160007707,1.478877529189377
1.6698081493377686,0.008011347386203481,[0.017923],5.0,0.6,0.0,0.6623571425548933,0.14340539002675579,1.480217121289544
1.6812388896942139,0.009769935836833513,[0.01866998],5.0,0.6,0.0,0.6816892526456846,0.1594436080577625,1.4839368727730475
1.6907711029052734,0.011137726853990204,[0.01944281],5.0,0.6,0.0,0.5088095959954133,0.13675964383971026,1.4861071507517827
1.7027876377105713,0.012896315304620235,[0.02024094],5.0,0.6,0.0,0.3007791700661595,0.1532070754142745,1.4892019552358384
1.7133140563964844,0.0144595050385136,[0.02106538],5.0,0.6,0.0,0.11734662731480583,0.1474386061989466,1.4913002120758927
1.7238059043884277,0.016022694772406962,[0.02191678],5.0,0.6,0.0,0.2513169862204061,0.1422808702315202,1.4930290192619062
1.7317557334899902,0.01739048578956365,[0.02279202],5.0,0.6,0.0,0.18298254775416767,0.12066558656925305,1.4941567507484086
1.7399005889892578,0.018562878089983675,[0.02368651],5.0,0.6,0.0,0.06029371726972138,0.12406924170248626,1.494760738749041
1.749162197113037,0.020321466540613703,[0.02459793],5.0,0.6,0.0,-0.057309874259792254,0.12349246512316488,1.4963466062359505
1.756798505783081,0.02129846012429706,[0.02552595],5.0,0.6,0.0,-0.15024361796406321,0.1258147236609887,1.4964152480856048
1.7673590183258057,0.02305704857492709,[0.0264701],5.0,0.6,0.0,-0.2157733359492542,0.12353093411479855,1.49763827318092
1.7770156860351562,0.02462023830882045,[0.02742982],5.0,0.6,0.0,-0.25743903120430955,0.12172944010554497,1.4983731602812465
1.785792350769043,0.025988029325977144,[0.0284027],5.0,0.6,0.0,-0.28041476066734683,0.1021080997615534,1.4987760177750447
1.7957987785339355,0.027551219059870506,[0.02938481],5.0,0.6,0.0,-0.5656803150980411,0.10550049047000984,1.4990896654427097
1.8074679374694824,0.02950520622723721,[0.03037633],5.0,0.6,0.0,-0.8744145740453304,0.12402155008141483,1.499279393027622
1.8152680397033691,0.030872997244393897,[0.03138067],5.0,0.6,0.0,-1.1215532717584344,0.11754413556859063,1.4990129632714635
1.8253183364868164,0.03263158569502393,[0.03239679],5.0,0.6,0.0,-1.288443206927536,0.0951937169969189,1.49875473090936
1.8337602615356445,0.033999376712180625,[0.03342046],5.0,0.6,0.0,-1.3823226343921995,0.09869602968041356,1.4985125817473937
1.8426904678344727,0.03556256644607399,[0.03444993],5.0,0.6,0.0,-1.4182677155450545,0.09813603787045563,1.498257331400132
1.8522493839263916,0.03712575617996735,[0.03548513],5.0,0.6,0.0,-1.1356707995012454,0.09703818865931266,1.4985026432096746
1.8622255325317383,0.038884344630597374,[0.0365257],5.0,0.6,0.0,-1.0666070844930973,0.09398608008910897,1.4980418310960213
1.8708767890930176,0.040252135647754074,[0.03756952],5.0,0.6,0.0,-1.066623881056055,0.07470164025629268,1.4977155687491492
1.8796844482421875,0.04161992666491077,[0.03861289],5.0,0.6,0.0,-1.0760819244252868,0.07829858850580428,1.4973319435045647
1.8897736072540283,0.0433785151155408,[0.03965434],5.0,0.6,0.0,-1.0738700379328736,0.07803375630102605,1.4963722415152982
1.8997950553894043,0.04494170484943416,[0.04069415],5.0,0.6,0.0,-1.3314726116820337,0.07714571678192242,1.495080207774568
1.9087786674499512,0.046309495866590854,[0.04173236],5.0,0.6,0.0,-1.6078132812764876,0.07646209266469971,1.4938981095600512
1.9187753200531006,0.048068084317220885,[0.04276883],5.0,0.6,0.0,-1.5423507714561773,0.07285306929981535,1.4926316391195336
1.9286975860595703,0.04943587533437757,[0.04380326],5.0,0.6,0.0,-1.6367956651513684,0.07098731686208025,1.4916844670649092
1.9387621879577637,0.05099906506827094,[0.04483524],5.0,0.6,0.0,-1.7451446649946407,0.06755972613521773,1.4901682911107097
1.948085069656372,0.05217145736869095,[0.04586424],5.0,0.6,0.0,-1.8164427410674635,0.06596698950534231,1.4896252668928398
1.9587817192077637,0.05353924838584765,[0.04688961],5.0,0.6,0.0,-1.8404664723395283,0.06300424467423395,1.4886802859838837
1.9697566032409668,0.05510243811974101,[0.04791064],5.0,0.6,0.0,-1.8226177579759966,0.059040731632346764,1.4872421789323864
1.9784948825836182,0.05627483042016103,[0.04892653],5.0,0.6,0.0,-1.496767599072477,0.056573601610337095,1.487593690970416
1.9872207641601562,0.05725182400384438,[0.04993647],5.0,0.6,0.0,-1.391729653708559,0.055280626572448796,1.4879144293351647
1.9957334995269775,0.0584242163042644,[0.05093826],5.0,0.6,0.0,-1.361049694879044,0.03829535412816756,1.4874776001976422
2.0046281814575195,0.059401209887947753,[0.0519286],5.0,0.6,0.0,-1.343809603552657,0.04138337140743458,1.4875516910078384
2.0150861740112305,0.06057360218836778,[0.05290607],5.0,0.6,0.0,-1.31804705167167,0.042495581779004844,1.4870191132542485
2.0234155654907227,0.061355197055314455,[0.05387092],5.0,0.6,0.0,-1.278618587729414,0.044547184814267414,1.4876441253157022
2.0307979583740234,0.06213679192226114,[0.05482206],5.0,0.6,0.0,-1.226937685199715,0.031859464280937014,1.4882366351256051
2.039727210998535,0.06330918422268116,[0.05575731],5.0,0.6,0.0,-1.1664076167030868,0.035269746976350755,1.4876469121152707
2.049771785736084,0.0642861778063645,[0.05667635],5.0,0.6,0.0,-1.1005319383790713,0.03845855770315974,1.4875841220067554
2.059770107269287,0.06526317139004786,[0.05758041],5.0,0.6,0.0,-1.3082833289902913,0.04085797419159407,1.486991956152341
2.0691988468170166,0.06624016497373121,[0.05847077],5.0,0.6,0.0,-1.2729321119559776,0.04229396996939822,1.4867951502599608
2.0782673358917236,0.06702175984067789,[0.05934865],5.0,0.6,0.0,-1.1507434011528406,0.044229235634007054,1.487308955906566
2.0865275859832764,0.06799875342436125,[0.06021527],5.0,0.6,0.0,-1.0099999515949298,0.045134373153021955,1.4871978039552274
2.0951600074768066,0.06878034829130793,[0.06107055],5.0,0.6,0.0,-0.8779031321548303,0.03221137644957753,1.4876088004658603
2.1057493686676025,0.0695619431582546,[0.06191461],5.0,0.6,0.0,-0.7631540857204158,0.05222859164806821,1.4879384561485285
2.1141624450683594,0.07053893674193797,[0.06274912],5.0,0.6,0.0,-0.6666354919877409,0.03698263942723792,1.4876063799497197
2.1236772537231445,0.07112513289214797,[0.06357427],5.0,0.6,0.0,-0.5863260109303825,0.042404101871329064,1.4884058325009826
2.1341192722320557,0.07190672775909465,[0.06439046],5.0,0.6,0.0,-0.5194587534241846,0.04591331460659951,1.4885638963970427
2.1467723846435547,0.07288372134277801,[0.06520088],5.0,0.6,0.0,-0.46339116578658496,0.06230923778651403,1.48810436864204
2.1575851440429688,0.07366531620972468,[0.06600976],5.0,0.6,0.0,-0.4158932195083349,0.06006699203164983,1.488218170347604
2.1657660007476807,0.0742515123599347,[0.06681795],5.0,0.6,0.0,-0.37518858890660983,0.04510168033601838,1.4889044904703812
2.1744980812072754,0.07483770851014471,[0.06762328],5.0,0.6,0.0,-0.33990302270014516,0.047616045539315435,1.4895584003717606
2.18516206741333,0.07561930337709137,[0.06842668],5.0,0.6,0.0,-0.03294945685711248,0.06652501643484354,1.4897057688203559
2.194549322128296,0.0762054995273014,[0.06923061],5.0,0.6,0.0,0.027517061162336598,0.05042339019837649,1.490316801942682
2.204179048538208,0.07698709439424807,[0.07003443],5.0,0.6,0.0,-0.00320409337505681,0.053225553693886755,1.4903786800398326
2.2137951850891113,0.07737789182772142,[0.07083753],5.0,0.6,0.0,0.21862614968552424,0.057174511852229076,1.4914456352835108
2.2222647666931152,0.07796408797793142,[0.07164074],5.0,0.6,0.0,0.20096832311625992,0.0595557312329087,1.49200489094516
2.2303972244262695,0.07835488541140477,[0.07244339],5.0,0.6,0.0,0.3831770649756107,0.04768927583075418,1.492925924161525
2.241527557373047,0.07913648027835145,[0.07324481],5.0,0.6,0.0,0.31448669645729244,0.06712567574975013,1.4930080805843007
2.2507340908050537,0.07972267642856146,[0.07404582],5.0,0.6,0.0,0.4503225037370665,0.05271843570973487,1.4934244479280836
2.26265287399292,0.08050427129550815,[0.074847],5.0,0.6,0.0,0.6208030661958022,0.07029496078277563,1.4933326922920747
2.2717337608337402,0.08109046744571814,[0.07564879],5.0,0.6,0.0,0.7625982961606826,0.05504228558615072,1.4936624104636937
2.284043312072754,0.08167666359592816,[0.07645142],5.0,0.6,0.0,0.8590645758152715,0.07216641162838945,1.4940051961329244
2.2945139408111572,0.08245825846287484,[0.07725624],5.0,0.6,0.0,0.6362592057471097,0.06946199446138425,1.4943011484973432
2.3031721115112305,0.08304445461308485,[0.07806416],5.0,0.6,0.0,0.621384633990895,0.06792930609567979,1.4947642753372639
2.3142874240875244,0.0834352520465582,[0.07887445],5.0,0.6,0.0,0.6688333323169062,0.0676265927498211,1.4955155673023446
2.3217520713806152,0.08382604948003153,[0.07968625],5.0,0.6,0.0,0.719308870939654,0.06763878965718469,1.4961932640730873
2.3324427604675293,0.08460764434697822,[0.08049864],5.0,0.6,0.0,0.7525369933483627,0.06577046254106986,1.4962075238640145
2.3407530784606934,0.08519384049718824,[0.08130948],5.0,0.6,0.0,0.7648676605583062,0.05233774394228827,1.4965515883500187
2.3497605323791504,0.08578003664739824,[0.08211561],5.0,0.6,0.0,0.7589481084976528,0.055451611100068895,1.4968894004176925
2.3587636947631836,0.08617083408087158,[0.08291545],5.0,0.6,0.0,0.7391693234214336,0.0584276976297968,1.4974761891790167
2.366830825805664,0.08695242894781824,[0.08370766],5.0,0.6,0.0,0.7098158025976202,0.046803764244078026,1.4975215873132317
2.377760171890259,0.08753862509802827,[0.08449098],5.0,0.6,0.0,0.6744385961884328,0.06277488175426481,1.4978056083649343
2.3872060775756836,0.08832021996497495,[0.08526654],5.0,0.6,0.0,0.9117885287629184,0.06095097945635249,1.4975182596750667
2.3957107067108154,0.08890641611518496,[0.08603413],5.0,0.6,0.0,0.9048802908771584,0.04879527338376781,1.4977422106844194
2.404756546020508,0.08949261226539497,[0.08679143],5.0,0.6,0.0,0.8097749238109757,0.051423905938287245,1.4980538902117333
2.412750005722046,0.08988340969886832,[0.08753645],5.0,0.6,0.0,0.6946228018055332,0.04313743281370186,1.4985399207115828
2.4241726398468018,0.09066500456581499,[0.08826864],5.0,0.6,0.0,0.5865590542690208,0.05740757359356208,1.4985961017761
2.43314266204834,0.09144659943276168,[0.08898957],5.0,0.6,0.0,0.4942711666922026,0.056122598627251746,1.4986114996248001
2.4426422119140625,0.09203279558297167,[0.08970055],5.0,0.6,0.0,0.14262819098302504,0.055505349368630476,1.4988975756961982
2.452977418899536,0.09261899173318171,[0.09040165],5.0,0.6,0.0,0.048611863666857075,0.0548140454744024,1.4990154006886636
2.4622957706451416,0.0932051878833917,[0.09109287],5.0,0.6,0.0,0.054831076959303046,0.05408635356936943,1.4991057833307746
2.472729444503784,0.09379138403360171,[0.09177422],5.0,0.6,0.0,0.09148651087865045,0.053119022888542804,1.4991803064420506
2.4829676151275635,0.0945729789005484,[0.09244563],5.0,0.6,0.0,-0.1461583224140537,0.05135038602427055,1.499079386891148
2.4909651279449463,0.09496377633402173,[0.09310706],5.0,0.6,0.0,-0.14918306387576097,0.05142747038041778,1.4992941892289253
2.499791145324707,0.09554997248423175,[0.09375758],5.0,0.6,0.0,-0.07429523812366311,0.04128587281251295,1.4993535625952925
2.5087456703186035,0.0959407699177051,[0.09439476],5.0,0.6,0.0,0.01234329023587185,0.034892204463963135,1.4995219719595638
2.520493507385254,0.09672236478465177,[0.09501748],5.0,0.6,0.0,-0.1898822547148257,0.0471615882185025,1.499392001119288
2.5291409492492676,0.0971131622181251,[0.09562742],5.0,0.6,0.0,-0.16838223099552113,0.048005962876062735,1.4995375060213
2.536721706390381,0.09769935836833513,[0.09622528],5.0,0.6,0.0,-0.07690699189919609,0.0387686496251092,1.4995611121546302
2.5457804203033447,0.09828555451854513,[0.09681007],5.0,0.6,0.0,0.02064285502301176,0.04081252079697062,1.4995643672325032
2.5537540912628174,0.09867635195201847,[0.09738184],5.0,0.6,0.0,0.1013665404896626,0.042929079893413956,1.4996572574449754
2.5624489784240723,0.09906714938549181,[0.09794157],5.0,0.6,0.0,0.16011830324308102,0.0446161186799846,1.4997275603785338
2.5707406997680664,0.0996533455357018,[0.09848938],5.0,0.6,0.0,0.19871085232077718,0.03634730645025839,1.49969968261197
2.583343982696533,0.10023954168591184,[0.09902553],5.0,0.6,0.0,-0.05494333963640294,0.04738272934677947,1.4997030298332814
2.5907304286956787,0.10063033911938518,[0.09955108],5.0,0.6,0.0,-0.07780900598063334,0.039027199468236996,1.499762559637365
2.5995447635650635,0.1010211365528585,[0.10006628],5.0,0.6,0.0,-0.021082582400322347,0.041564493779470676,1.499817334801619
2.6093552112579346,0.10141193398633185,[0.10057144],5.0,0.6,0.0,0.050747464644228996,0.0435500011483404,1.4998568074543885
2.61934757232666,0.10199813013654188,[0.10106772],5.0,0.6,0.0,-0.16285415974859951,0.04400958006206743,1.4998071386422946
2.628706693649292,0.10258432628675188,[0.10155615],5.0,0.6,0.0,-0.14978786411396944,0.04423937133331715,1.4997718916763434
2.6367385387420654,0.10297512372022523,[0.10203696],5.0,0.6,0.0,-0.06441964003170308,0.03678597021780069,1.4998208975013991
2.6457712650299072,0.10317052243696188,[0.10251043],5.0,0.6,0.0,0.028782878115446706,0.04910150390493385,1.499912243964627
2.6573548316955566,0.1037567185871719,[0.10297839],5.0,0.6,0.0,0.10645416596614365,0.04792768390590241,1.4998704124744213
2.6654129028320312,0.10414751602064523,[0.10344167],5.0,0.6,0.0,0.16308940297815797,0.03960451168535704,1.4998805619252389
2.673471450805664,0.10453831345411858,[0.10389952],5.0,0.6,0.0,0.20023326375209305,0.041936071796060695,1.4998885474101038
2.6841928958892822,0.10512450960432859,[0.10435212],5.0,0.6,0.0,0.22164076866530175,0.042716394028499145,1.499844122360838
2.691729784011841,0.10551530703780194,[0.10479968],5.0,0.6,0.0,-0.04478430784482676,0.03607432857620939,1.499896087720308
2.704012393951416,0.10590610447127527,[0.10524246],5.0,0.6,0.0,-0.07669493966353017,0.047661836863647014,1.499907540143298
2.713763952255249,0.10649230062148528,[0.10568222],5.0,0.6,0.0,-0.026108560970071706,0.04674643693664329,1.499868254772905
2.72371244430542,0.1070784967716953,[0.10612047],5.0,0.6,0.0,0.04174374588820524,0.04585960750778239,1.4998151581808867
2.73227858543396,0.10727389548843196,[0.10655777],5.0,0.6,0.0,0.10176281836180347,0.046846285887294316,1.4998897294447846
2.7426939010620117,0.10786009163864198,[0.10699457],5.0,0.6,0.0,0.14663481177320548,0.045963755362999605,1.4998341802456945
2.753848075866699,0.10844628778885199,[0.107432],5.0,0.6,0.0,0.17634414923713645,0.05315256108906677,1.49977111849149
2.7637321949005127,0.10883708522232532,[0.10787101],5.0,0.6,0.0,0.19341020757700195,0.04287905766536835,1.4997855118137007
2.771799087524414,0.10922788265579866,[0.10831012],5.0,0.6,0.0,0.20084165646340887,0.0354548094538979,1.4998015314347337
2.781512975692749,0.10981407880600867,[0.10874808],5.0,0.6,0.0,0.2013486859398313,0.04552468403779274,1.499742575614825
2.7927405834198,0.11020487623948202,[0.10918602],5.0,0.6,0.0,0.19711353253442893,0.04525813819553143,1.4997634842349616
2.8007400035858154,0.11059567367295536,[0.10962415],5.0,0.6,0.0,0.18979071299771066,0.03709954867949386,1.4997844345143325
2.808732271194458,0.1109864711064287,[0.11006119],5.0,0.6,0.0,0.18058751212269836,0.03944161069029798,1.499804510494625
2.8193886280059814,0.11157266725663871,[0.11049678],5.0,0.6,0.0,0.17036038647753698,0.04010746137752797,1.4997469167151394
2.82702374458313,0.11176806597337538,[0.11093136],5.0,0.6,0.0,0.15970238629123362,0.04227205172820245,1.4998410091683132
2.8360953330993652,0.11235426212358537,[0.11136529],5.0,0.6,0.0,0.1490142359025846,0.04211296965384724,1.499787876281556
2.847259521484375,0.11274505955705873,[0.11179885],5.0,0.6,0.0,0.13855895489179934,0.04257476319681571,1.4998066609209295
2.854825258255005,0.11313585699053208,[0.11223152],5.0,0.6,0.0,0.12850245375404043,0.035194204588365335,1.4998241577392908
2.8654284477233887,0.11372205314074207,[0.11266216],5.0,0.6,0.0,0.11894306550651335,0.03663575099194014,1.4997648202698652
2.874721050262451,0.11411285057421541,[0.11309048],5.0,0.6,0.0,0.10993271459059958,0.03837082115396311,1.4997819779611246
2.8836820125579834,0.11450364800768877,[0.11351694],5.0,0.6,0.0,0.101491927794405,0.039427309648687445,1.4997976328460745
2.897606372833252,0.11528524287463544,[0.11394249],5.0,0.6,0.0,0.09362038700247749,0.04466655914259534,1.499632945343337
2.9066808223724365,0.1156760403081088,[0.11436783],5.0,0.6,0.0,0.08630429153038968,0.03578883309277696,1.4996522303199018
2.9165384769439697,0.11606683774158212,[0.11479221],5.0,0.6,0.0,0.07952145609261388,0.03671383844921152,1.4996704099474727
2.9271397590637207,0.11665303389179212,[0.11521573],5.0,0.6,0.0,0.07324481164595258,0.04369366756354032,1.499582920786101
2.9361751079559326,0.11704383132526547,[0.11563976],5.0,0.6,0.0,0.06744478540353352,0.04186895359336831,1.4996024063987052
2.9437015056610107,0.11743462875873882,[0.11606407],5.0,0.6,0.0,0.06209089778410605,0.03320493038794952,1.4996215132445565
2.954289197921753,0.11802082490894884,[0.11648706],5.0,0.6,0.0,0.05715281467556878,0.03317050132043856,1.4995271935205228
2.962035655975342,0.1182162236256855,[0.11690798],5.0,0.6,0.0,0.0526010226340443,0.03450162529697251,1.49965570059519
2.971790075302124,0.11880241977589551,[0.11732679],5.0,0.6,0.0,0.048407244532382314,0.033773695142941075,1.4995628524692552
2.98272967338562,0.11919321720936885,[0.11774339],5.0,0.6,0.0,0.04454467782429161,0.033636738006459437,1.4995782100584352
2.9937031269073486,0.11977941335957885,[0.11815766],5.0,0.6,0.0,0.0409881127255641,0.0324513157487931,1.499472871210104
3.0016965866088867,0.12017021079305219,[0.11856887],5.0,0.6,0.0,0.037713970161103824,0.025645194132332117,1.4994862119188015
3.011070489883423,0.12056100822652555,[0.11897635],5.0,0.6,0.0,0.0347002870980035,0.033563428658945745,1.4994970020692955
3.019721269607544,0.12095180565999888,[0.11938015],5.0,0.6,0.0,0.03192666833114074,0.026353410917070493,1.4995053429513496
3.031155586242676,0.12153800181020889,[0.11978027],5.0,0.6,0.0,0.02937421781340588,0.03250204863739323,1.4993816260057475
3.0406851768493652,0.12192879924368223,[0.12017669],5.0,0.6,0.0,0.02702545845650144,0.024975594175314173,1.4993856666066585
3.049718141555786,0.12231959667715558,[0.12056879],5.0,0.6,0.0,-0.2511741132489769,0.025780873043964793,1.499340163082419
3.0580925941467285,0.12271039411062891,[0.12095605],5.0,0.6,0.0,-0.28628727886898236,0.026145268371759664,1.4993236385916007
3.0657432079315186,0.12310119154410225,[0.12133805],5.0,0.6,0.0,-0.23301967291523246,0.020325435731085723,1.4993380436874175
3.0765063762664795,0.12329659026083893,[0.12171447],5.0,0.6,0.0,-0.1586180675709642,0.028928827447892786,1.4994807747266892
3.0847928524017334,0.12368738769431226,[0.1220856],5.0,0.6,0.0,-0.08964420262750061,0.022236456913320296,1.4994810035237798
3.094667911529541,0.12407818512778561,[0.12245116],5.0,0.6,0.0,-0.034447374000833496,0.02314311018680684,1.4994698135327889
3.1047065258026123,0.12446898256125893,[0.12281092],5.0,0.6,0.0,-0.2697991396979107,0.02382575225411927,1.499396133853184
3.1156089305877686,0.12485977999473229,[0.12316577],5.0,0.6,0.0,-0.2747147679297318,0.029656823674311147,1.499370056388301
3.1247501373291016,0.1252505774282056,[0.12351648],5.0,0.6,0.0,-0.20119941331853894,0.022366481795492027,1.49936862772771
3.1337857246398926,0.12564137486167898,[0.12386266],5.0,0.6,0.0,-0.11398280664818972,0.02246998415140154,1.499357766711578
3.1446914672851562,0.1260321722951523,[0.12420402],5.0,0.6,0.0,-0.31359611808107385,0.022605993823897216,1.499258591459379
3.1551973819732666,0.12642296972862566,[0.12454131],5.0,0.6,0.0,-0.28784062087529994,0.028003966981831392,1.4992304512103567
3.1640021800994873,0.1266183684453623,[0.12487524],5.0,0.6,0.0,-0.19095582430646427,0.0217274167327829,1.4993653446513298
3.1732616424560547,0.126813767162099,[0.12520543],5.0,0.6,0.0,-0.36332239447780346,0.022965340696284458,1.4993845312863805
3.1836326122283936,0.12739996331230902,[0.12553156],5.0,0.6,0.0,-0.309240027994514,0.02185722834818648,1.4992308743983236
3.1957314014434814,0.12759536202904564,[0.12585386],5.0,0.6,0.0,-0.18880587320432268,0.02259981898638038,1.499367083112831
3.2040040493011475,0.12779076074578233,[0.12617256],5.0,0.6,0.0,-0.06762326151099465,0.023145615994845773,1.4994730177309457
3.2157089710235596,0.1281815581792557,[0.12648786],5.0,0.6,0.0,-0.24445122345713782,0.02291913657317897,1.4993819630992702
3.2256884574890137,0.128572355612729,[0.12679998],5.0,0.6,0.0,-0.2046695029852569,0.022526663962627733,1.4993407518420627
3.237063407897949,0.12896315304620237,[0.12710958],5.0,0.6,0.0,-0.1002419576286056,0.027250126391994263,1.4993056126890658
3.2456624507904053,0.12915855176293903,[0.12741729],5.0,0.6,0.0,0.006363213214720137,0.021238613576240854,1.4993937537938395
3.2548539638519287,0.12935395047967568,[0.1277227],5.0,0.6,0.0,-0.18270012123273632,0.022380331735554152,1.4994431019808436
3.264248847961426,0.12954934919641237,[0.12802555],5.0,0.6,0.0,-0.15281591970533215,0.023430795496624898,1.4995183314722773
3.2727203369140625,0.12974474791314905,[0.12832611],5.0,0.6,0.0,-0.056274818847762184,0.02442925886857965,1.4995952178037724
3.2816929817199707,0.1301355453466224,[0.12862422],5.0,0.6,0.0,0.04406229225735204,0.019047763793696687,1.4995418353542886
3.294755697250366,0.13052634278009573,[0.1289198],5.0,0.6,0.0,-0.15000943963356064,0.026187914610311426,1.4994671852702488
3.307689666748047,0.13052634278009573,[0.12921441],5.0,0.6,0.0,-0.12416871695564137,0.03355162960578163,1.4996443471021155
3.3184828758239746,0.13091714021356907,[0.12950995],5.0,0.6,0.0,-0.03093589661189295,0.031734177897930885,1.499603330899653
3.3298208713531494,0.13111253893030572,[0.12980711],5.0,0.6,0.0,0.06665417407427972,0.03146190537238082,1.4996559210733582
3.3386614322662354,0.1313079376470424,[0.13010598],5.0,0.6,0.0,-0.12973304382723636,0.03180939130560859,1.499698573194555
3.347141742706299,0.1315033363637791,[0.13040671],5.0,0.6,0.0,-0.10587222104808398,0.032283188701438925,1.4997511668653944
3.357393264770508,0.13169873508051574,[0.13070946],5.0,0.6,0.0,-0.01435461884522208,0.03312217831028599,1.4998041307729126
3.3667309284210205,0.1318941337972524,[0.13101385],5.0,0.6,0.0,0.08173237733967753,0.02785742851049954,1.4998400607538016
3.375657558441162,0.13208953251398908,[0.13131908],5.0,0.6,0.0,0.16005340058357925,0.03052278025958653,1.4998622186913722
3.385014533996582,0.13228493123072574,[0.13162503],5.0,0.6,0.0,0.21585214531714317,0.032786763529012795,1.4998782285672223
3.3932034969329834,0.13248032994746242,[0.13193224],5.0,0.6,0.0,0.25120672912718767,0.034738522843579284,1.4998929473250895
3.40250563621521,0.1326757286641991,[0.13224119],5.0,0.6,0.0,0.27024644144643195,0.036526534828988134,1.4999078730821658
3.416112184524536,0.13306652609767244,[0.13255298],5.0,0.6,0.0,0.27717226250761967,0.04375868373401972,1.4998900704203086
3.425870656967163,0.1332619248144091,[0.13286853],5.0,0.6,0.0,0.2755554374319968,0.03655352138097816,1.499912529376757
3.434764862060547,0.13345732353114578,[0.13318742],5.0,0.6,0.0,0.26818841181550734,0.038373154953487955,1.499931891906395
3.4440512657165527,0.13365272224788244,[0.13350926],5.0,0.6,0.0,0.2571512955502041,0.039993345964639423,1.4999466611189956
3.4516713619232178,0.1338481209646191,[0.13383371],5.0,0.6,0.0,0.24394364663978685,0.034432938772982286,1.4999556622611487
3.461655616760254,0.13404351968135578,[0.13415983],5.0,0.6,0.0,0.22961921575094646,0.03762552785908699,1.4999580474470249
3.472147226333618,0.13443431711482912,[0.13448804],5.0,0.6,0.0,0.21490139234492572,0.04573647177163932,1.4999650456384812
3.4812474250793457,0.1346297158315658,[0.1348199],5.0,0.6,0.0,0.20027446628737083,0.0458112321747785,1.4999629089574198
3.490236520767212,0.13482511454830248,[0.13515548],5.0,0.6,0.0,0.18605263153151036,0.039256999155986384,1.4999524045835455
3.5001401901245117,0.13482511454830248,[0.13549355],5.0,0.6,0.0,0.17243075320003437,0.04250516253424773,1.4998885095294827
3.5088517665863037,0.13521591198177582,[0.13583369],5.0,0.6,0.0,0.15952104868178735,0.04370188716344656,1.4999047316098097
3.518519639968872,0.13560670941524913,[0.13617616],5.0,0.6,0.0,0.14737925540568886,0.044558074146313416,1.499918979238363
3.5296623706817627,0.13580210813198582,[0.1365212],5.0,0.6,0.0,0.1360231192071487,0.0459295763255916,1.4998828126522383
3.5376806259155273,0.1359975068487225,[0.13686901],5.0,0.6,0.0,0.1254453530348234,0.04755049214953415,1.4998363930992173
3.5486931800842285,0.13638830428219584,[0.13721976],5.0,0.6,0.0,0.11562265334725831,0.04783247489345766,1.4998517955065935
3.5584301948547363,0.13638830428219584,[0.1375736],5.0,0.6,0.0,0.3825602858469442,0.050121017101250415,1.4996101236025932
3.568891763687134,0.13677910171566918,[0.13793069],5.0,0.6,0.0,0.4072675120271321,0.05047028881753149,1.499611349149367
3.5796592235565186,0.13716989914914252,[0.13829118],5.0,0.6,0.0,0.3443949642538885,0.050705986886429875,1.499660294694086
3.5894320011138916,0.13756069658261585,[0.13865517],5.0,0.6,0.0,0.26113477377350186,0.051034893425074966,1.4997096945263217
3.5995981693267822,0.13775609529935254,[0.13902278],5.0,0.6,0.0,0.1839955812474108,0.05248993393167243,1.4996539553841703
3.6102123260498047,0.13814689273282588,[0.13939409],5.0,0.6,0.0,0.39731420934626827,0.05259360312049137,1.4995714514011518
3.6177964210510254,0.13834229144956253,[0.13976852],5.0,0.6,0.0,0.3828235861567417,0.04649844238116833,1.4994841758460637
3.627781391143799,0.13873308888303587,[0.14014488],5.0,0.6,0.0,0.2931377194244882,0.04900810269131254,1.4995374888656618
3.6366961002349854,0.13892848759977253,[0.14052289],5.0,0.6,0.0,0.19276164631750775,0.05204247881666865,1.4994640461526922
3.6446921825408936,0.1391238863165092,[0.14090304],5.0,0.6,0.0,0.10570164089238362,0.05444603613211515,1.499358807852143
3.6557865142822266,0.13951468374998255,[0.14128646],5.0,0.6,0.0,0.038202390600880466,0.06361701025412858,1.499371272368292
3.6646764278411865,0.1399054811834559,[0.14167415],5.0,0.6,0.0,0.26540649200926403,0.0543428509892359,1.4993221254321454
3.6736843585968018,0.14029627861692923,[0.1420655],5.0,0.6,0.0,0.2651130558146212,0.05575468096761508,1.4993218482608452
3.684656858444214,0.14068707605040257,[0.14246001],5.0,0.6,0.0,0.1884398087190119,0.05696664179380329,1.4993451044643118
3.69345760345459,0.14107787348387593,[0.14285797],5.0,0.6,0.0,0.3755172614355023,0.05775521450246255,1.4992614911469464
3.7021195888519287,0.1412732722006126,[0.14325964],5.0,0.6,0.0,0.33143315665945544,0.05961735073648263,1.4991294193796347
3.712681531906128,0.1416640696340859,[0.14366524],5.0,0.6,0.0,0.21731381239835168,0.06050638603732081,1.4991642283071407
3.7220511436462402,0.14225026578429595,[0.14407499],5.0,0.6,0.0,0.37575639036256453,0.05987372738850953,1.499229201471077
3.729628324508667,0.1424456645010326,[0.14448824],5.0,0.6,0.0,0.31131238110710147,0.05296307416165955,1.4990937848660548
3.7410435676574707,0.14303186065124263,[0.14490439],5.0,0.6,0.0,0.459645863630828,0.06285648328539889,1.4991417230332083
3.75260591506958,0.14361805680145262,[0.14532444],5.0,0.6,0.0,0.3667562267856992,0.06157335591427894,1.4993176992846955
3.760652780532837,0.144008854234926,[0.14574844],5.0,0.6,0.0,0.20944070178294835,0.05301973083694843,1.4993622979661398
3.769951105117798,0.1443996516683993,[0.14617486],5.0,0.6,0.0,0.33479506180124435,0.05523152456661625,1.4992864918855404
3.779634475708008,0.14479044910187266,[0.14660316],5.0,0.6,0.0,0.2472958959725502,0.056919146766431186,1.4992975115251486
3.789644241333008,0.14537664525208266,[0.14703358],5.0,0.6,0.0,0.10491518557690635,0.05712601030440483,1.4994428672648994
3.7980449199676514,0.14576744268555603,[0.14746631],5.0,0.6,0.0,-0.029344029421046122,0.057933406714571666,1.4994222958242196
3.806682825088501,0.14615824011902934,[0.14790142],5.0,0.6,0.0,0.140911615980405,0.058405571362075984,1.4993776714427394
3.814624071121216,0.1465490375525027,[0.14833818],5.0,0.6,0.0,0.09914317473374236,0.05056637203603136,1.49935268468065
3.824188232421875,0.1471352337027127,[0.14877518],5.0,0.6,0.0,-0.0041507366735585235,0.052324961682009764,1.4994622440946488
3.832914352416992,0.14752603113618606,[0.14921199],5.0,0.6,0.0,-0.10758019746510916,0.05433863252658023,1.4994230532126438
3.8428661823272705,0.14811222728639603,[0.14964896],5.0,0.6,0.0,0.08592761444026792,0.05460953105717994,1.499522305746816
3.8516359329223633,0.1485030247198694,[0.15008563],5.0,0.6,0.0,0.06121325284007287,0.04748738396875357,1.499496408283612
3.8626456260681152,0.14928461958681605,[0.15052161],5.0,0.6,0.0,-0.029807478958963837,0.05672987044884373,1.499693355528295
3.8733983039855957,0.14987081573702607,[0.15095807],5.0,0.6,0.0,0.151511126505971,0.0556698560486805,1.4997465135444217
3.8831396102905273,0.1502616131704994,[0.151396],5.0,0.6,0.0,0.10821597033482262,0.05542320432076419,1.499733948238054
3.8916401863098145,0.15084780932070943,[0.1518347],5.0,0.6,0.0,-0.00047732905464475256,0.04639347564052781,1.4998052282964638
3.9036786556243896,0.1516294041876561,[0.15227359],5.0,0.6,0.0,0.16646698395092127,0.05497050466493127,1.499896381578602
3.913313150405884,0.1524109990546028,[0.1527137],5.0,0.6,0.0,0.11241122519054618,0.05268752747909815,1.4999722683989951
3.920680284500122,0.15280179648807612,[0.15315517],5.0,0.6,0.0,-0.003884897216287382,0.04413986087609583,1.4999750143597266
3.930274486541748,0.15338799263828612,[0.1535966],5.0,0.6,0.0,-0.11807953469338142,0.04550207843720732,1.4999809176812138
3.942073345184326,0.15416958750523282,[0.15403835],5.0,0.6,0.0,0.06755480119254166,0.05378686018997086,1.4999931582724917
3.9497156143188477,0.15456038493870616,[0.15448154],5.0,0.6,0.0,0.037614525390049204,0.04447906253994059,1.499997703543922
3.9592602252960205,0.15514658108891616,[0.15492559],5.0,0.6,0.0,-0.05650349727831795,0.04527253681774622,1.499987856210548
3.967695474624634,0.15573277723912618,[0.15536925],5.0,0.6,0.0,-0.15272628816317552,0.037498054519496594,1.4999562066646406
3.976724863052368,0.1563189733893362,[0.15581231],5.0,0.6,0.0,-0.22951176868765133,0.0490658124448887,1.499909448827352
3.985945701599121,0.15690516953954617,[0.15625544],5.0,0.6,0.0,-0.0066566930735027785,0.039757410193732794,1.4999155420281494
3.9958839416503906,0.15749136568975622,[0.15669847],5.0,0.6,0.0,-0.005618302111211684,0.04162482700216844,1.499874246697539
4.00529408454895,0.15807756183996624,[0.15714125],5.0,0.6,0.0,-0.07613475826431254,0.0429849389172608,1.4998203648626278
4.013854503631592,0.15885915670691292,[0.15758455],5.0,0.6,0.0,-0.1553801314203085,0.043020154926006186,1.4996571574291382
4.022659778594971,0.1594453528571229,[0.15802906],5.0,0.6,0.0,-0.2205150333745668,0.0434912198590416,1.4995627070954751
4.032796144485474,0.16003154900733293,[0.15847538],5.0,0.6,0.0,-0.26608455183004714,0.043745390145669166,1.4994630819148664
4.041682720184326,0.16061774515754293,[0.1589232],5.0,0.6,0.0,-0.2935027936704272,0.03492150722254888,1.499361745990382
4.051295757293701,0.16120394130775295,[0.15937148],5.0,0.6,0.0,-0.30634482496702753,0.037583624823550744,1.4992587872607543
4.060046195983887,0.16179013745796297,[0.15982021],5.0,0.6,0.0,-0.3083771926225693,0.03949202407662479,1.499153396374889
4.070889234542847,0.16237633360817297,[0.16027026],5.0,0.6,0.0,-0.30284217241966127,0.04066273503080468,1.4990450187874302
4.081636667251587,0.162962529758383,[0.16072238],5.0,0.6,0.0,-0.2922880010958627,0.041521613479900944,1.4989332543120995
4.091724395751953,0.163548725908593,[0.16117722],5.0,0.6,0.0,-0.2786154996494973,0.04199569992375845,1.4988180417655481
4.101951599121094,0.16433032077553966,[0.16163624],5.0,0.6,0.0,-0.26319328518268403,0.050872452435458494,1.498497878401663
4.111044645309448,0.16491651692574968,[0.16210154],5.0,0.6,0.0,-0.5230179241284814,0.04845169273358877,1.49821285194834
4.11863112449646,0.165307314359223,[0.16257311],5.0,0.6,0.0,-0.5397907937052079,0.03812563083836396,1.4982890931121
4.128649473190308,0.16589351050943302,[0.16304916],5.0,0.6,0.0,-0.4686366588010493,0.039602559147124766,1.4982197816191318
4.1371190547943115,0.16647970665964307,[0.16352904],5.0,0.6,0.0,-0.37706567418022263,0.04073407121610958,1.4981544007458532
4.1446850299835205,0.1668705040931164,[0.16401219],5.0,0.6,0.0,-0.2917941629384193,0.03269425545570378,1.4983039688679174
4.1544578075408936,0.1674567002433264,[0.16449815],5.0,0.6,0.0,-0.22125113930534315,0.04578892238361743,1.4982144877507229
4.162946462631226,0.16784749767679974,[0.1649874],5.0,0.6,0.0,-0.1661988495009083,0.03649595437884005,1.498344747694745
4.1709699630737305,0.1682382951102731,[0.16547946],5.0,0.6,0.0,-0.12460012485811726,0.039802673218044586,1.4984673617907986
4.18073582649231,0.16882449126048307,[0.16597297],5.0,0.6,0.0,-0.09374200438122013,0.031670947122828266,1.4983685457645846
4.192949295043945,0.16960608612742978,[0.16646773],5.0,0.6,0.0,-0.07108049728376913,0.044484591938387455,1.498028320793814
4.202146530151367,0.16999688356090312,[0.16696536],5.0,0.6,0.0,-0.05451102007560356,0.04532364017458909,1.4981614461248312
4.209731578826904,0.1705830797111131,[0.16746629],5.0,0.6,0.0,-0.042397244920443375,0.03517945356387828,1.4980576688070117
4.219981908798218,0.17116927586132313,[0.16796902],5.0,0.6,0.0,-0.03351105616677647,0.03763963709897655,1.4979529306375428
4.229472637176514,0.17175547201153316,[0.16847316],5.0,0.6,0.0,-0.026950393423596612,0.03937037581043471,1.4978470607458003
4.238014459609985,0.17214626944500647,[0.16897925],5.0,0.6,0.0,-0.022061671255901687,0.041331616363399014,1.4979956461957178
4.248092889785767,0.1727324655952165,[0.16948772],5.0,0.6,0.0,-0.018375431110317877,0.041971106335278945,1.497896292514095
4.256687164306641,0.1733186617454265,[0.16999799],5.0,0.6,0.0,-0.015556270630180528,0.03237449274562005,1.4977968728815334
4.267336130142212,0.17390485789563648,[0.1705095],5.0,0.6,0.0,-0.01336527504598671,0.04506210785191602,1.4976968368338612
4.2781312465667725,0.17449105404584653,[0.17102359],5.0,0.6,0.0,-0.011632454418728778,0.044175349603121986,1.4975981313661342
4.285609722137451,0.17507725019605655,[0.17154042],5.0,0.6,0.0,-0.010236812593755973,0.03358660498002207,1.4975012222817674
4.2956249713897705,0.17566344634626652,[0.17205828],5.0,0.6,0.0,-0.009092072538748722,0.035629951304730845,1.4974038737566346
4.307626724243164,0.17644504121321322,[0.17257747],5.0,0.6,0.0,-0.008136518593643036,0.045739799915841026,1.4970128059925656
4.318619251251221,0.17703123736342324,[0.17310002],5.0,0.6,0.0,-0.007325799602385344,0.04382597832275376,1.4969138349638387
4.327942848205566,0.17761743351363324,[0.17362668],5.0,0.6,0.0,-0.0066278444793712084,0.04229260461038387,1.4968198152780758
4.337188005447388,0.1780082309471066,[0.17415717],5.0,0.6,0.0,-0.006019276661552149,0.0422539639844579,1.4970382410775223
4.3467793464660645,0.17859442709731663,[0.17469121],5.0,0.6,0.0,-0.005482888121452487,0.04132149539131434,1.496957591197244
4.354942798614502,0.1791806232475266,[0.17522758],5.0,0.6,0.0,-0.005005860473932893,0.030934954188066608,1.496879552970556
4.36310887336731,0.17957142068099996,[0.17576436],5.0,0.6,0.0,-0.0045785119611701924,0.03431378534493004,1.4971054446556868
4.374839544296265,0.18015761683120995,[0.17630173],5.0,0.6,0.0,-0.0041934142036959094,0.04572574881720522,1.4970308346565468
4.383690118789673,0.18074381298141998,[0.17684074],5.0,0.6,0.0,-0.0038447687928944317,0.034385912034838664,1.4969578371127885
4.394188404083252,0.18133000913162997,[0.1773805],5.0,0.6,0.0,-0.0035279664402603932,0.03599119187548858,1.496885122013885
4.401642084121704,0.18191620528184,[0.17792026],5.0,0.6,0.0,-0.0032392744020827728,0.03734325760951391,1.4968115637768087
4.410651683807373,0.1823070027153133,[0.17845943],5.0,0.6,0.0,-0.0029756140795801304,0.029239143608777295,1.497043608715565
4.4213080406188965,0.18289319886552335,[0.17899756],5.0,0.6,0.0,-0.27877276174052434,0.042951046322413804,1.4969115526515246
4.4296300411224365,0.18328399629899667,[0.17953525],5.0,0.6,0.0,-0.31167639869699415,0.03413896604378852,1.4971210254715228
4.43896484375,0.18387019244920672,[0.18007217],5.0,0.6,0.0,-0.25637651740052303,0.036469201899336647,1.4970702323234877
4.448399543762207,0.1844563885994167,[0.18060798],5.0,0.6,0.0,-0.18010556246413556,0.03825733904981191,1.497018181499323
4.458101272583008,0.1850425847496267,[0.18114333],5.0,0.6,0.0,-0.10941213650404233,0.03951174112925569,1.4969548774968784
4.468967437744141,0.18562878089983675,[0.18167885],5.0,0.6,0.0,-0.052633480168676805,0.04052651708019946,1.4968824085340513
4.479062557220459,0.18621497705004675,[0.18221509],5.0,0.6,0.0,-0.010491722594176005,0.04128927171612363,1.496805211400683
4.486618280410767,0.1866057744835201,[0.18275162],5.0,0.6,0.0,0.019055920311308414,0.032366704842334816,1.4970332322252622
4.497600317001343,0.1871919706337301,[0.18328808],5.0,0.6,0.0,0.03870553509758475,0.0460445140644597,1.496955446677881
4.505651473999023,0.18758276806720342,[0.18382514],5.0,0.6,0.0,0.05097009159891419,0.03610660959038703,1.497178098457828
4.5185911655426025,0.18836436293415013,[0.18436341],5.0,0.6,0.0,0.0579147524980462,0.0480830806905816,1.4968011036026572
4.52661919593811,0.18875516036762346,[0.18490341],5.0,0.6,0.0,0.06113194441246518,0.03748760379731286,1.497034425211809
4.537652015686035,0.18934135651783346,[0.18544559],5.0,0.6,0.0,0.06180404151711706,0.0500828787850498,1.4969663526478985
4.5469465255737305,0.19012295138478016,[0.18599128],5.0,0.6,0.0,0.0607872711449359,0.04778363969196406,1.4965889276626254
4.557008981704712,0.19070914753499016,[0.18654163],5.0,0.6,0.0,0.05869042456219463,0.046774702306309486,1.4965298143605146
4.564612627029419,0.1910999449684635,[0.18709561],5.0,0.6,0.0,0.05593990919561842,0.03645838267514863,1.4967958631989366
4.575742483139038,0.1918815398354102,[0.18765232],5.0,0.6,0.0,0.3288685911686312,0.04835027483788303,1.4963486261970287
4.583677530288696,0.19227233726888354,[0.18821096],5.0,0.6,0.0,0.3587247423374105,0.049215260518431114,1.496610692563555
4.592599630355835,0.19285853341909354,[0.18876886],5.0,0.6,0.0,0.3003341729571233,0.04776660591670838,1.4965933640619327
4.602630615234375,0.19324933085256688,[0.18932477],5.0,0.6,0.0,0.22101835766679084,0.047788930957725746,1.496887941212752
4.6120710372924805,0.1938355270027769,[0.18988061],5.0,0.6,0.0,0.147382397806593,0.05773911347636515,1.4968604373130834
4.61961030960083,0.1942263244362502,[0.19043803],5.0,0.6,0.0,0.08779759499466239,0.04464741529298307,1.4971281379659862
4.628615856170654,0.1950079193031969,[0.19099549],5.0,0.6,0.0,0.04300480614659377,0.03351811778079985,1.4967838765570787
4.637669801712036,0.19559411545340694,[0.19155166],5.0,0.6,0.0,0.28700797768096453,0.04736108945141875,1.4966757358807643
4.646176099777222,0.1961803116036169,[0.19210744],5.0,0.6,0.0,0.298160390456084,0.03625668569952421,1.49662166423234
4.659571409225464,0.1969619064705636,[0.1926636],5.0,0.6,0.0,0.22863797579797296,0.04856422727931908,1.4962728176106461
4.67015814781189,0.19774350133751029,[0.19322184],5.0,0.6,0.0,0.14360386978183057,0.0465521323744177,1.495903908282782
4.680005311965942,0.19832969748772028,[0.19378358],5.0,0.6,0.0,0.0680082328540937,0.04577215695907848,1.4958716514474697
4.689675331115723,0.1989158936379303,[0.19434904],5.0,0.6,0.0,0.2850372148735129,0.045107842583533515,1.4957769812929032
4.698681116104126,0.19950208978814032,[0.19491736],5.0,0.6,0.0,0.2755970113530656,0.03383735420008794,1.4957483460281378
4.707580804824829,0.20008828593835032,[0.19548681],5.0,0.6,0.0,0.19172020462144046,0.036756764367903115,1.4957468728012533
4.717621803283691,0.20067448208856034,[0.19605691],5.0,0.6,0.0,0.09751076247935761,0.03905004432117292,1.4957376130590658
4.729431867599487,0.20145607695550702,[0.19662937],5.0,0.6,0.0,0.016703876592351452,0.05095296037486308,1.4953512123514958
4.739604473114014,0.20223767182245372,[0.19720767],5.0,0.6,0.0,-0.04463452438109456,0.058856791883833866,1.4949511185905882
4.752612829208374,0.20301926668940037,[0.1977947],5.0,0.6,0.0,-0.08751416273483832,0.053356164806179794,1.4945499476386952
4.762457609176636,0.2036054628396104,[0.19839074],5.0,0.6,0.0,-0.11525277828501959,0.05018529792505697,1.4945662119755307
4.7734375,0.2043870577065571,[0.19899495],5.0,0.6,0.0,-0.13146261419849514,0.04713420441545993,1.4941890522753543
4.782097101211548,0.20516865257350375,[0.19960651],5.0,0.6,0.0,-0.13930276287501475,0.044588738862074685,1.493817173611417
4.790611267089844,0.2055594500069771,[0.20022461],5.0,0.6,0.0,-0.1412866108581842,0.04459394297655993,1.4943091958846213
4.7997589111328125,0.2061456461571871,[0.20084743],5.0,0.6,0.0,-0.13931235957100252,0.032783615471554756,1.4943870589350365
4.8096022605896,0.2069272410241338,[0.20147235],5.0,0.6,0.0,0.14127139993020246,0.03449084178237595,1.49405164458634
4.820613622665405,0.20770883589108044,[0.20209917],5.0,0.6,0.0,0.18052289029325047,0.04665318533477168,1.493701834513094
4.829776763916016,0.20829503204129046,[0.20272872],5.0,0.6,0.0,0.13244133214131473,0.03377268948655678,1.4938093470108016
4.83860969543457,0.20907662690823717,[0.2033596],5.0,0.6,0.0,0.06378473243071985,0.034743672934975954,1.4934814095573894
4.8486316204071045,0.20966282305844713,[0.20398956],5.0,0.6,0.0,0.0007823064940899876,0.025292074649119325,1.493583490519991
4.857674598693848,0.21024901920865718,[0.20461674],5.0,0.6,0.0,-0.04843840223729675,0.029621409043506346,1.4936738320998317
4.86864709854126,0.2110306140756039,[0.20524064],5.0,0.6,0.0,-0.08328820254278502,0.031972735548649135,1.493312506402501
4.877894639968872,0.21161681022581388,[0.20586188],5.0,0.6,0.0,-0.10588964984656973,0.034085231835398105,1.493389701945436
4.887599468231201,0.21220300637602388,[0.20648102],5.0,0.6,0.0,-0.11898217669793563,0.035857309921732826,1.493462631130297
4.8956944942474365,0.21278920252623387,[0.20709858],5.0,0.6,0.0,-0.12509746494149285,0.03717232305856479,1.4935326503603867
4.906005382537842,0.2133753986764439,[0.20771505],5.0,0.6,0.0,-0.40234136768643414,0.03820662169934586,1.4934920974536923
4.9146153926849365,0.21396159482665392,[0.20832982],5.0,0.6,0.0,-0.43334588668836277,0.027908010631071185,1.4935369256174056
4.923618793487549,0.2145477909768639,[0.20894136],5.0,0.6,0.0,-0.3739703148744241,0.03168402979519057,1.4936292068447838
4.938859701156616,0.2153293858438106,[0.20955153],5.0,0.6,0.0,-0.5683244283626003,0.055833041722551956,1.4931051340022683
4.948352098464966,0.2159155819940206,[0.210165],5.0,0.6,0.0,-0.5245939661362733,0.0515397584706487,1.4932031796603678
4.958802938461304,0.21650177814423063,[0.21078364],5.0,0.6,0.0,-0.4062139307592466,0.04829678056423234,1.493359103468937
4.968613147735596,0.21728337301117734,[0.21140687],5.0,0.6,0.0,-0.28141437238022426,0.045065044987601034,1.49305818183193
4.978894948959351,0.21767417044465065,[0.21203411],5.0,0.6,0.0,-0.4509210308966944,0.04468607333061105,1.493506812915283
4.986990690231323,0.21826036659486067,[0.21266484],5.0,0.6,0.0,-0.4015386140859373,0.04364417209446172,1.4936375822845362
4.998107671737671,0.21884656274507067,[0.21329852],5.0,0.6,0.0,-0.2862381108448204,0.04300328842229799,1.4938017767171554
5.008601188659668,0.21962815761201734,[0.21393465],5.0,0.6,0.0,-0.16818422205880776,0.04154938944500336,1.4935167093023685
5.018390893936157,0.22021435376222737,[0.21457275],5.0,0.6,0.0,-0.06965577133197401,0.04128457637811234,1.4936510573609834
5.02992582321167,0.22080054991243736,[0.21521238],5.0,0.6,0.0,0.0047009519576917055,0.041199947387998835,1.4937739067778077
5.039165019989014,0.22138674606264738,[0.21585314],5.0,0.6,0.0,0.05709019016405145,0.04107006856676105,1.4938921229948718
5.047101974487305,0.2219729422128574,[0.21649465],5.0,0.6,0.0,0.09176686063242634,0.041067774948117836,1.494009375795778
5.057459831237793,0.2225591383630674,[0.21713656],5.0,0.6,0.0,0.11305031457257307,0.04104373763152486,1.4941268801611614
5.065626382827759,0.22314533451327742,[0.21777755],5.0,0.6,0.0,0.12462069276713922,0.030285046345645515,1.494242380148349
5.076207399368286,0.22353613194675076,[0.21841547],5.0,0.6,0.0,0.1293696404014533,0.03444028917796225,1.4947570403304122
5.085588216781616,0.22431772681369744,[0.21904959],5.0,0.6,0.0,0.12946735166004003,0.03595689883228611,1.4944522357125674
5.096142053604126,0.22490392296390746,[0.21968028],5.0,0.6,0.0,0.12649519144657895,0.03756174017184359,1.4945456609762446
5.1040332317352295,0.22529472039738077,[0.22030793],5.0,0.6,0.0,0.1215813007623188,0.03987436952306752,1.495027722373473
5.112602472305298,0.22588091654759082,[0.22093188],5.0,0.6,0.0,0.11551683648732503,0.029875451331159816,1.4951034586069794
5.121565103530884,0.22627171398106416,[0.22155064],5.0,0.6,0.0,0.10884793369050848,0.03465196435083548,1.4955433887970293
5.130563974380493,0.22685791013127415,[0.22216398],5.0,0.6,0.0,0.10194531801677893,0.03746448150614661,1.495595358360979
5.14356803894043,0.22763950499822086,[0.22277378],5.0,0.6,0.0,0.09505559995849747,0.049053813147412306,1.4952694169539542
5.152092218399048,0.2280303024316942,[0.22338265],5.0,0.6,0.0,0.08833841416395163,0.0481612002088435,1.4956833782833954
5.160103797912598,0.22842109986516748,[0.22399078],5.0,0.6,0.0,0.0818929880893301,0.037046436363888206,1.4960771585263797
5.1706085205078125,0.22900729601537753,[0.22459634],5.0,0.6,0.0,-0.20026137593704285,0.039168681491051995,1.4960863931196173
5.180683851242065,0.22978889088232424,[0.22519876],5.0,0.6,0.0,-0.23914319262895578,0.03989758720853883,1.4957524281116028
5.191593885421753,0.23017968831579752,[0.2257986],5.0,0.6,0.0,-0.18943398559615462,0.041891614084655734,1.4961418541750116
5.201587915420532,0.23076588446600757,[0.22639634],5.0,0.6,0.0,-0.11837001043307516,0.042531964909407784,1.4961782599219295
5.210581064224243,0.2313520806162176,[0.22699236],5.0,0.6,0.0,-0.052511515087837184,0.04285398546922884,1.496203731215695
5.220416069030762,0.2317428780496909,[0.22758699],5.0,0.6,0.0,-0.00021216017848379662,0.04403579123728669,1.4965516761258557
5.22958517074585,0.2323290741999009,[0.22818047],5.0,0.6,0.0,-0.23825153967880103,0.044156855573861696,1.4965214881257476
5.237565755844116,0.23271987163337426,[0.22877205],5.0,0.6,0.0,-0.2456551313991504,0.03488744928883017,1.4968428814369776
5.248388290405273,0.23330606778358423,[0.22936109],5.0,0.6,0.0,-0.17443945545068412,0.04815826668972337,1.4968696191923165
5.258354425430298,0.23389226393379428,[0.22994895],5.0,0.6,0.0,-0.0893460802776678,0.047125801308066914,1.4968889454250276
5.268436908721924,0.2344784600840043,[0.23053676],5.0,0.6,0.0,-0.014879674273879241,0.046270721445086725,1.49689726184452
5.278133869171143,0.23486925751747764,[0.2311245],5.0,0.6,0.0,0.042194786607977,0.04663508745468025,1.4971979623208682
5.285693645477295,0.23526005495095098,[0.23171118],5.0,0.6,0.0,0.08231855615372308,0.036760256454191814,1.4974792219596254
5.293597936630249,0.23565085238442432,[0.23229501],5.0,0.6,0.0,0.10837286420170446,0.04033736201867661,1.497741452771252
5.3026673793792725,0.2360416498178977,[0.23287544],5.0,0.6,0.0,0.12364601274787401,0.043098064382410345,1.497985645361211
5.311263084411621,0.2368232446848443,[0.23345204],5.0,0.6,0.0,0.1310619775577082,0.033220021854107086,1.4977167907898807
5.320575475692749,0.23721404211831768,[0.23402357],5.0,0.6,0.0,0.13296615215988994,0.03793170255642944,1.4979530844990903
5.330559968948364,0.23780023826852767,[0.23458994],5.0,0.6,0.0,0.1311381433148665,0.04049294148232953,1.497928123470057
5.339136838912964,0.238191035702001,[0.23515209],5.0,0.6,0.0,0.12688203536061388,0.04327434311399139,1.4981426848955282
5.347559928894043,0.23877723185221103,[0.23570992],5.0,0.6,0.0,0.12113015558018492,0.03440853135191071,1.4981091675075855
5.360158920288086,0.23936342800242105,[0.23626342],5.0,0.6,0.0,0.11453593256303227,0.048280191342043435,1.4980700763463028
5.370615482330322,0.2397542254358944,[0.23681548],5.0,0.6,0.0,0.10754894620617017,0.059233055239500315,1.498265632516808
5.379708766937256,0.24034042158610439,[0.23736856],5.0,0.6,0.0,0.10047243010724258,0.046082146193450794,1.4982276583067544
5.388547897338867,0.2409266177363144,[0.23792202],5.0,0.6,0.0,0.09350595432888012,0.0468838641712078,1.4981895930649953
5.3980982303619385,0.24131741516978775,[0.23847532],5.0,0.6,0.0,0.0867764704796832,0.04877671627753988,1.4983801991036967
5.408375024795532,0.24190361131999777,[0.23902907],5.0,0.6,0.0,0.08036058231726582,0.0494201363988558,1.4983439585827758
5.4176952838897705,0.24248980747020776,[0.23958381],5.0,0.6,0.0,0.07430036372905105,0.050166888985391664,1.4983083563541455
5.425819158554077,0.24288060490368113,[0.24014009],5.0,0.6,0.0,0.0686145079107339,0.051683952488617124,1.4984955352514002
5.433910369873047,0.24327140233715447,[0.24069739],5.0,0.6,0.0,0.0633061354148827,0.042505499419386965,1.4986727862312734
5.444579839706421,0.24385759848736446,[0.24125436],5.0,0.6,0.0,0.3344065893767651,0.04597774046041491,1.4985623096279375
5.455556154251099,0.24463919335431117,[0.24181193],5.0,0.6,0.0,0.36295036045408824,0.05877174936263911,1.4983045417457799
5.466554164886475,0.24522538950452114,[0.24237299],5.0,0.6,0.0,0.303612158812447,0.05789734161937246,1.4983054771205733
5.475304365158081,0.24581158565473116,[0.24293799],5.0,0.6,0.0,0.22360687436145382,0.04597112367670109,1.4983126320926115
5.4835591316223145,0.2462023830882045,[0.24350523],5.0,0.6,0.0,0.14946451079921308,0.04987369405531772,1.498529501021786
5.492670059204102,0.24678857923841455,[0.2440733],5.0,0.6,0.0,0.08950348271037246,0.040813668299671105,1.4985205803695516
5.504494905471802,0.2475701741053612,[0.24464213],5.0,0.6,0.0,0.3204657578670063,0.05624262541383629,1.498210333175309
5.514487981796265,0.24815637025557122,[0.2452138],5.0,0.6,0.0,0.32133855561583236,0.056782267508634375,1.498192895399447
5.523075819015503,0.2487425664057812,[0.24579015],5.0,0.6,0.0,0.24410064739969067,0.05726081735983513,1.498213818056217
5.530569553375244,0.24913336383925455,[0.24637059],5.0,0.6,0.0,0.1534570866550863,0.04686573745450401,1.4984570462047906
5.543593406677246,0.24991495870620126,[0.24695457],5.0,0.6,0.0,0.07387769729793958,0.06147790797543398,1.498244691935736
5.554563283920288,0.2506965535731479,[0.24754384],5.0,0.6,0.0,0.012094522737841243,0.06007113247247194,1.498013945794984
5.565044641494751,0.25128274972335796,[0.24813985],5.0,0.6,0.0,-0.03236460176405697,0.059897159416936636,1.4980256124243527
5.573061227798462,0.2516735471568313,[0.24874273],5.0,0.6,0.0,-0.06240977327067464,0.06095300686146662,1.4982806427518156
5.580547094345093,0.2520643445903046,[0.24935142],5.0,0.6,0.0,0.19468220763137756,0.04977751094020227,1.4985008769069008
5.590588808059692,0.2528459394572513,[0.24996384],5.0,0.6,0.0,0.21701032906736878,0.052538254332752096,1.498305024470896
5.5991387367248535,0.2532367368907246,[0.25057936],5.0,0.6,0.0,0.1568980207336367,0.05640360751373861,1.4985703448066678
5.606613636016846,0.2538229330409346,[0.25119743],5.0,0.6,0.0,0.07977845634866329,0.046215623159595556,1.4986175592627478
5.617560386657715,0.25460452790788135,[0.25181755],5.0,0.6,0.0,0.2869162909508328,0.06248775353607582,1.4983864840386136
5.628342628479004,0.255386122774828,[0.25244158],5.0,0.6,0.0,0.26674746428235563,0.0616827807520614,1.498214469660295
5.639595031738281,0.255972318925038,[0.25307102],5.0,0.6,0.0,0.17401700018035438,0.06167398321918038,1.4982953658067746
5.64762544631958,0.256558515075248,[0.25370593],5.0,0.6,0.0,0.34949063268065744,0.061641665207349566,1.4982829590341773
5.657540559768677,0.2573401099421947,[0.25434629],5.0,0.6,0.0,0.2977537468409904,0.060791260032151434,1.498143017557855
5.665569543838501,0.25792630609240474,[0.25499088],5.0,0.6,0.0,0.17911203744330473,0.04893047820107145,1.4982542587047476
5.673938751220703,0.25851250224261474,[0.25563752],5.0,0.6,0.0,0.05931955519617518,0.05272109162135569,1.4983456397184431
5.683101177215576,0.25909869839282473,[0.25628543],5.0,0.6,0.0,-0.03879473894387378,0.055437945269828606,1.4984172371346587
5.6915483474731445,0.2594894958262981,[0.25693391],5.0,0.6,0.0,0.16521695591917224,0.045945189682671514,1.4986743276873045
5.700574636459351,0.2602710906932448,[0.25758119],5.0,0.6,0.0,0.14973003406751895,0.04996332488711737,1.4985372426115071
5.710568189620972,0.26105268556019146,[0.25822692],5.0,0.6,0.0,0.0647103123767527,0.05255212815502658,1.4984011700280897
5.719544887542725,0.26163888171040145,[0.25887195],5.0,0.6,0.0,0.2487166121891881,0.05492843129448186,1.4984239414370975
5.728545904159546,0.2624204765773481,[0.25951695],5.0,0.6,0.0,0.20536513493634498,0.05555157975663531,1.4982839285285703
5.737872838973999,0.2632020714442948,[0.26016242],5.0,0.6,0.0,0.09457685252727858,0.055488220268434446,1.4981471519996878
5.745589971542358,0.2637882675945048,[0.26080765],5.0,0.6,0.0,-0.01801122971469512,0.044678403761828155,1.4982245179280755
5.754206418991089,0.26437446374471485,[0.26145093],5.0,0.6,0.0,-0.10957097712031028,0.04869773399885213,1.4982831131054795
5.763558626174927,0.2653514573283982,[0.26209192],5.0,0.6,0.0,0.10038996270257458,0.049492006121798,1.4978698431546063
5.773352861404419,0.2661330521953449,[0.26273142],5.0,0.6,0.0,0.09030494601556906,0.05039777836390662,1.4976823843666145
5.782972574234009,0.26691464706229157,[0.26337006],5.0,0.6,0.0,0.010197625150726815,0.05070568679152239,1.497490251159731
5.790726900100708,0.2673054444957649,[0.26400728],5.0,0.6,0.0,-0.0773588581968598,0.04112548914529186,1.4978223354474667
5.799193620681763,0.26808703936271155,[0.26464156],5.0,0.6,0.0,-0.14974993372949869,0.04415405591235908,1.4976118639607199
5.809216260910034,0.26886863422965823,[0.26527269],5.0,0.6,0.0,-0.20170644438975688,0.04619268612259427,1.4973868953514315
5.818360328674316,0.2694548303798682,[0.26590158],5.0,0.6,0.0,-0.2347908108029934,0.04817841830770894,1.4974370307384215
5.828227519989014,0.27023642524681496,[0.26652899],5.0,0.6,0.0,-0.25269482742053706,0.048591661308115694,1.4972072337296813
5.835559606552124,0.27082262139702495,[0.26715452],5.0,0.6,0.0,-0.2592766703174801,0.03813368414964632,1.4972625788038973
5.845567941665649,0.2717996149807083,[0.26777674],5.0,0.6,0.0,-0.25785090308216546,0.040206082960925926,1.496719036150144
5.85556697845459,0.272581209847655,[0.26839556],5.0,0.6,0.0,-0.25102337032198324,0.04213181694343639,1.4964552914203626
5.865616798400879,0.27336280471460167,[0.26901197],5.0,0.6,0.0,-0.516779779522056,0.04338040496671426,1.4960224506748179
5.873564720153809,0.27394900086481166,[0.26962687],5.0,0.6,0.0,-0.5375747832523633,0.04507827829295367,1.4960557316749483
5.8829662799835205,0.2745351970150217,[0.27024108],5.0,0.6,0.0,-0.4690902663136187,0.046782981446999605,1.4961551349311262
5.892201662063599,0.2753167918819684,[0.2708554],5.0,0.6,0.0,-0.37924071874203724,0.04660243113226269,1.4959200513762743
5.903632879257202,0.276098386748915,[0.27147041],5.0,0.6,0.0,-0.2950321567203774,0.04608215244479954,1.4956607453912218
5.913540601730347,0.27687998161586175,[0.27208659],5.0,0.6,0.0,-0.22509923294927447,0.045542906390824846,1.495377498762709
5.924728631973267,0.27785697519954505,[0.2727043],5.0,0.6,0.0,-0.17034912941596286,0.04417848373951768,1.4946824536365242
5.936083793640137,0.2786385700664918,[0.273325],5.0,0.6,0.0,-0.12884622411755142,0.05547081905842861,1.4943567516016927
5.943952322006226,0.2792247662167018,[0.27394996],5.0,0.6,0.0,-0.0979483139680696,0.041097424995687144,1.4944435882985914
5.95454216003418,0.28000636108364846,[0.27457917],5.0,0.6,0.0,-0.07516043541732784,0.05372630413040653,1.494122239929551
5.964846611022949,0.2807879559505952,[0.27521381],5.0,0.6,0.0,0.2176266009376681,0.05087892588179419,1.4937697941046753
5.972668886184692,0.2811787533840685,[0.27585372],5.0,0.6,0.0,0.26307395030824443,0.03856279041218491,1.4942933456899252
5.982031583786011,0.28215574696775186,[0.27649656],5.0,0.6,0.0,0.21708603668574145,0.03960595157318131,1.4935801062288534
5.991080045700073,0.2825465444012252,[0.2771415],5.0,0.6,0.0,0.147788639527503,0.043350331967017285,1.4941578764459928
5.999544620513916,0.28352353798490854,[0.27778792],5.0,0.6,0.0,0.08237863045650368,0.031085467940007636,1.4934370726975439
6.009568929672241,0.28410973413511853,[0.27843417],5.0,0.6,0.0,0.0296597185075999,0.03651179254071202,1.493577657072313
6.0208635330200195,0.2848913290020652,[0.27908133],5.0,0.6,0.0,-0.009311983519791508,0.052655465397154814,1.493271446877685
6.029536008834839,0.2854775251522752,[0.27973151],5.0,0.6,0.0,-0.31237907644369123,0.03975614314607262,1.493345782983
6.038666248321533,0.2862591200192219,[0.28038421],5.0,0.6,0.0,-0.36311522898471216,0.042555354573187584,1.4930227221167518
6.0485639572143555,0.2868453161694319,[0.28103905],5.0,0.6,0.0,-0.31860356699184966,0.04565466374327301,1.493204577888717
6.058579206466675,0.2876269110363786,[0.28169695],5.0,0.6,0.0,-0.248056081693808,0.04727595799085889,1.4929459932347453
6.06853985786438,0.2884085059033253,[0.28235876],5.0,0.6,0.0,-0.45559077019649896,0.04851131689542252,1.4925523644900842
6.077977895736694,0.2889947020535353,[0.2830252],5.0,0.6,0.0,-0.4317308789264605,0.050300713615346285,1.4927596186683092
6.087534189224243,0.28977629692048196,[0.28369687],5.0,0.6,0.0,-0.33271454176379717,0.050865923955062085,1.49255296114973
6.097155809402466,0.2905578917874287,[0.28437425],5.0,0.6,0.0,-0.22431835858344318,0.05122564664773334,1.492344233110086
6.104539394378662,0.290948689220902,[0.28505647],5.0,0.6,0.0,-0.13080531948666468,0.0397252534363508,1.4930676699380339
6.114199876785278,0.2917302840878486,[0.28574145],5.0,0.6,0.0,-0.05828246637933873,0.043589984288049964,1.4928499202397019
6.1220386028289795,0.2923164802380587,[0.28642867],5.0,0.6,0.0,-0.005598405654461812,0.047242471306143924,1.4930906910091541
6.131546974182129,0.29329347382174203,[0.28711764],5.0,0.6,0.0,0.0307547732533919,0.034528683032088614,1.492400138622028
6.141535997390747,0.29387966997195203,[0.28780668],5.0,0.6,0.0,0.0545732469446311,0.04029728201456222,1.4926486745521177
6.14981746673584,0.2944658661221621,[0.28849555],5.0,0.6,0.0,0.34521351627013996,0.04440190957760388,1.4928077143225764
6.157526016235352,0.29505206227237213,[0.28918528],5.0,0.6,0.0,0.38636783074410774,0.0472315706997773,1.4930287046121853
6.167974233627319,0.29583365713931875,[0.28987665],5.0,0.6,0.0,0.33473193403690105,0.04816301633110888,1.4928445368314056
6.176215410232544,0.2964198532895288,[0.29057021],5.0,0.6,0.0,0.2590116264952718,0.04953655321210974,1.4931297625708417
6.183530330657959,0.2968106507230021,[0.29126513],5.0,0.6,0.0,-0.08922350209875243,0.03854316466487791,1.4938623796275086
6.194169759750366,0.2977876443066855,[0.29195937],5.0,0.6,0.0,-0.18193468693491804,0.04095732021589005,1.493204622628222
6.201814651489258,0.2981784417401588,[0.29265233],5.0,0.6,0.0,-0.17256882051895853,0.0449370264188491,1.493888872795169
6.209507942199707,0.2987646378903688,[0.29334348],5.0,0.6,0.0,-0.13004283237262118,0.03444636970685427,1.4941268717396476
6.218271493911743,0.29935083404057883,[0.29403113],5.0,0.6,0.0,-0.08335870878843528,0.03939408219406936,1.4943509604022127
6.2281694412231445,0.3001324289075255,[0.29471495],5.0,0.6,0.0,-0.04320534456879786,0.04185314804366738,1.4941459861603539
6.236528158187866,0.3005232263409988,[0.29539579],5.0,0.6,0.0,-0.012265559931451439,0.04503707205449007,1.494755563656613
6.245513200759888,0.30130482120794555,[0.29607318],5.0,0.6,0.0,0.0099760797184863,0.033478423739523804,1.4945408607111004
6.254504203796387,0.30169561864141886,[0.29674555],5.0,0.6,0.0,0.02507129219236317,0.038833060107992326,1.4951108902806256
6.26288104057312,0.30228181479162886,[0.29741269],5.0,0.6,0.0,0.034696409239200865,0.04188635532995495,1.495268652309822
6.273086309432983,0.30306340965857553,[0.29807548],5.0,0.6,0.0,0.040315026408771173,0.04272778048496974,1.4950352516271146
6.280491352081299,0.30345420709204884,[0.29873355],5.0,0.6,0.0,-0.23294612663994785,0.03366468854259815,1.4955125982311517
6.293888330459595,0.3044312006757322,[0.29938658],5.0,0.6,0.0,-0.2652532334213411,0.04734685426265148,1.4948709270800005
6.302988529205322,0.3048219981092056,[0.30003643],5.0,0.6,0.0,-0.21065174821512922,0.04781832088305533,1.49539711730051
6.310949087142944,0.3054081942594156,[0.30068462],5.0,0.6,0.0,-0.13591215759951186,0.04734767716200496,1.495533758773726
6.318553924560547,0.30579899169288893,[0.3013303],5.0,0.6,0.0,-0.34329603304651957,0.03688585238981173,1.4959263956005793
6.3265221118927,0.30618978912636224,[0.30197067],5.0,0.6,0.0,-0.321962816155521,0.02971773962045611,1.4963689811924243
6.336841344833374,0.3069713839933089,[0.30260444],5.0,0.6,0.0,-0.22717245294710886,0.04524923728103007,1.4961548171331984
6.344550371170044,0.30736218142678234,[0.30323264],5.0,0.6,0.0,-0.12401298819872089,0.035794136393888315,1.496583734373137
6.353684425354004,0.3079483775769923,[0.30385515],5.0,0.6,0.0,-0.036270815198270766,0.039350969575403225,1.496653720328403
6.362348794937134,0.30853457372720233,[0.30447194],5.0,0.6,0.0,0.030271226771631615,0.04194752722583956,1.4967037650224373
6.371500253677368,0.3091207698774123,[0.30508408],5.0,0.6,0.0,0.07698058385415947,0.04369591934755533,1.4967419229048804
6.382127523422241,0.3095115673108857,[0.3056925],5.0,0.6,0.0,0.1075052715510286,0.04592273798829,1.497078596325463
6.390524864196777,0.3100977634610957,[0.30629702],5.0,0.6,0.0,0.1257287417846874,0.03578665366814173,1.4971032742972883
6.400813817977905,0.31087935832804237,[0.30689753],5.0,0.6,0.0,-0.1410183439292891,0.04985194379042056,1.496819234512171
6.409515857696533,0.31127015576151573,[0.30749503],5.0,0.6,0.0,-0.17111342256691314,0.03948952170668089,1.4971319437024848
6.41963791847229,0.31205175062846235,[0.30808935],5.0,0.6,0.0,-0.11723512891401579,0.041330308474852515,1.4968545679498895
6.429720640182495,0.3126379467786724,[0.30868041],5.0,0.6,0.0,-0.04514746363063827,0.0434592873996214,1.4968709598457786
6.438364505767822,0.3132241429288824,[0.30926919],5.0,0.6,0.0,0.019648732477467987,0.04482216336021796,1.4968762660669397
6.447197437286377,0.31381033907909234,[0.30985655],5.0,0.6,0.0,0.0695500134608766,0.04589396299345609,1.4968747867422352
6.456538200378418,0.3143965352293024,[0.31044222],5.0,0.6,0.0,0.10433928822574842,0.03559337303695457,1.4968694587504698
6.467567443847656,0.3151781300962491,[0.31102499],5.0,0.6,0.0,0.40243882300289446,0.03814012959160965,1.496435685011045
6.476564407348633,0.31576432624645917,[0.31160489],5.0,0.6,0.0,0.44781772434162614,0.040736765973627825,1.4963965368169148
6.48800253868103,0.3165459211134058,[0.31218401],5.0,0.6,0.0,0.39782477776673725,0.052483819655932344,1.4960841780771004
6.498212099075317,0.31713211726361584,[0.31276514],5.0,0.6,0.0,0.32184685867967555,0.0505338483953471,1.4961160634492963
6.506547451019287,0.31771831341382584,[0.31334959],5.0,0.6,0.0,0.2480754207660869,0.049136818592187215,1.496144326349158
6.514714479446411,0.31830450956403583,[0.31393642],5.0,0.6,0.0,0.1860541379447463,0.03717962321221171,1.4961654576183279
6.524528741836548,0.3188907057142458,[0.31452376],5.0,0.6,0.0,0.13736779914381933,0.03981145514941479,1.4961791820738375
6.534520626068115,0.31967230058119256,[0.31511111],5.0,0.6,0.0,0.1005773030999321,0.04078485124282726,1.4958402229485215
6.546444654464722,0.32045389544813924,[0.31570007],5.0,0.6,0.0,0.07340053503493858,0.052315645108842485,1.495486420258073
6.555498361587524,0.3208446928816125,[0.31629202],5.0,0.6,0.0,0.05360216689107834,0.040185718272743816,1.4958610814836222
6.565503835678101,0.3216262877485592,[0.31688608],5.0,0.6,0.0,0.039298107466465594,0.04104554971034051,1.4955150175366543
6.575528144836426,0.32221248389876916,[0.31748151],5.0,0.6,0.0,0.029009409450525225,0.04260599495804997,1.4955329598566363
6.585521459579468,0.3229940787657159,[0.31807879],5.0,0.6,0.0,0.021620397517804302,0.04304773146804532,1.4951792894105336
6.5945892333984375,0.32358027491592595,[0.31867835],5.0,0.6,0.0,0.016309552000892524,0.04415235133553654,1.4952055567066935
6.604787111282349,0.32436186978287257,[0.31928062],5.0,0.6,0.0,0.01248122209406216,0.04430253522364723,1.4948493730282997
6.6134021282196045,0.3249480659330826,[0.319886],5.0,0.6,0.0,0.009707870230848282,0.045310490650330645,1.4948881405088756
6.623518943786621,0.32572966080002924,[0.32049489],5.0,0.6,0.0,0.2837230233876029,0.045214161500386436,1.4944744988114396
6.633033990859985,0.3263158569502393,[0.32110766],5.0,0.6,0.0,0.3153581601016709,0.046194759241973554,1.4945155949047668
6.640601873397827,0.3269020531004493,[0.32172468],5.0,0.6,0.0,0.2591519576242991,0.047097319120930375,1.4946033153425924
6.648975610733032,0.32748824925065934,[0.32234515],5.0,0.6,0.0,0.1822301989064916,0.03584885939296944,1.494698957294919
6.6565165519714355,0.3280744454008694,[0.32296733],5.0,0.6,0.0,0.11106640284876718,0.04075635198831396,1.4947878709173374
6.664473295211792,0.3286606415510793,[0.32358981],5.0,0.6,0.0,0.05394499518437776,0.03165448846381154,1.494868373048552
6.67548131942749,0.32944223641802606,[0.32421141],5.0,0.6,0.0,0.287589323775346,0.0366278368137518,1.4944810767272376
6.685474157333374,0.33022383128497274,[0.3248323],5.0,0.6,0.0,0.29097836544426203,0.04026840659719292,1.4941401210817093
6.6975603103637695,0.3310054261519194,[0.32545385],5.0,0.6,0.0,0.21608954642185935,0.042688738869177144,1.493820201931013
6.709487676620483,0.3319824197356028,[0.32607848],5.0,0.6,0.0,0.1276310573140451,0.05622076881642122,1.4930408140456506
6.717546224594116,0.3325686158858127,[0.32670827],5.0,0.6,0.0,0.05007867468145021,0.04201016962509592,1.493152943654323
6.7265119552612305,0.33335021075275945,[0.32734263],5.0,0.6,0.0,-0.009827933062119164,0.04385801035596492,1.4928077206296257
6.736491441726685,0.33393640690296944,[0.32798106],5.0,0.6,0.0,0.22348594905529903,0.04593743904969436,1.4928946837464365
6.749295949935913,0.3349134004866528,[0.32862554],5.0,0.6,0.0,0.22816700023828404,0.059013986999714135,1.4920849996554584
6.757604122161865,0.3356949953535995,[0.32927778],5.0,0.6,0.0,0.15560087613275908,0.04280731946744945,1.491779679966121
6.76646614074707,0.3362811915038095,[0.32993672],5.0,0.6,0.0,0.07008151465078837,0.04510458467554463,1.4919781932414922
6.7744834423065186,0.3368673876540195,[0.3306014],5.0,0.6,0.0,-0.004201088760623833,0.04726881539265614,1.4921782166479511
6.784092903137207,0.33745358380422946,[0.33127223],5.0,0.6,0.0,-0.060701348360031666,0.04893305282977384,1.4923845605313586
6.7926130294799805,0.3382351786711762,[0.33194953],5.0,0.6,0.0,-0.10001222774775177,0.049535663002289086,1.492121804277345
6.800841569900513,0.3388213748213862,[0.33263224],5.0,0.6,0.0,-0.12511891289068147,0.03730385571715958,1.4923565501472746
6.810491323471069,0.33960296968833287,[0.33331821],5.0,0.6,0.0,-0.1393801503549365,0.04135845561746975,1.4921170267443467
6.820135116577148,0.34018916583854286,[0.33400683],5.0,0.6,0.0,-0.14576695674420168,0.04529150786284664,1.4923690738588111
6.829049110412598,0.34077536198875297,[0.33469884],5.0,0.6,0.0,-0.14665549963242097,0.04818478302151498,1.4926263642652375
6.8364949226379395,0.34136155813896296,[0.33539358],5.0,0.6,0.0,-0.14384491252895532,0.036981102928047654,1.4928865508752915
6.845870018005371,0.34214315300590964,[0.33608922],5.0,0.6,0.0,0.13738728151120755,0.04158118799816657,1.4926827164915362
6.856504678726196,0.3429247478728562,[0.33678546],5.0,0.6,0.0,0.17715010906053075,0.04483473505584447,1.4924668183577063
6.865494251251221,0.34370634273980294,[0.33748334],5.0,0.6,0.0,0.12947906205672083,0.0470879091550613,1.4922722884597255
6.874986171722412,0.3444879376067496,[0.3381837],5.0,0.6,0.0,0.06115805763282993,0.04844076321271654,1.4920800288540175
6.885551452636719,0.34526953247369635,[0.3388872],5.0,0.6,0.0,-0.0015651389313735345,0.04940496425245756,1.491886272348622
6.897198438644409,0.34605112734064297,[0.33959568],5.0,0.6,0.0,-0.05054965235037863,0.06338676401363984,1.4916981723208367
6.904493570327759,0.346637323490853,[0.34031059],5.0,0.6,0.0,-0.08519665641882351,0.04728021002883481,1.4920210356509158
6.9124915599823,0.347223519641063,[0.34103054],5.0,0.6,0.0,-0.1076216918263483,0.04943933405487078,1.4923501345939558
6.924156665802002,0.3480051145080097,[0.34175432],5.0,0.6,0.0,-0.12055903629572395,0.05032619874552582,1.4922051479073022
6.932321786880493,0.3487867093749564,[0.34248209],5.0,0.6,0.0,-0.12653654039827855,0.05088243260407626,1.4920699403848636
6.941730499267578,0.3497637029586398,[0.34321393],5.0,0.6,0.0,0.14841954804022828,0.050005101684681925,1.4914404039570974
6.95350456237793,0.3505452978255864,[0.34394987],5.0,0.6,0.0,0.18377520221847754,0.05008073489904711,1.4913126674328014
6.961498975753784,0.35132689269253303,[0.3446886],5.0,0.6,0.0,0.13305663984444316,0.03654918124928054,1.491212168254543
6.96957802772522,0.3519130888427431,[0.34542772],5.0,0.6,0.0,0.0626620269134936,0.0413721248219834,1.491620353680944
6.98147439956665,0.35289008242642644,[0.34616771],5.0,0.6,0.0,-0.0014452421628597459,0.05679623036464707,1.4910026682952149
6.992189884185791,0.3536716772933732,[0.34691153],5.0,0.6,0.0,-0.05133026248756302,0.05470292671553861,1.4908997593505608
7.001624584197998,0.3544532721603198,[0.34766033],5.0,0.6,0.0,-0.08654160170270644,0.05314806255861767,1.4908080626832603
7.010554313659668,0.3552348670272665,[0.3484125],5.0,0.6,0.0,-0.10929936192924891,0.038493140625902714,1.4907253503953601
7.0210347175598145,0.3564072593276865,[0.34916662],5.0,0.6,0.0,-0.12241150293527073,0.05314761199120702,1.489558265395891
7.02948784828186,0.3569934554778965,[0.34992276],5.0,0.6,0.0,-0.12845750972591613,0.03894704619293104,1.4900386046873328
7.038423538208008,0.3577750503448432,[0.35067967],5.0,0.6,0.0,-0.12953798989228274,0.04160098777468438,1.4899691479576591
7.046491622924805,0.3583612464950532,[0.35143628],5.0,0.6,0.0,-0.12725982337530858,0.04442982976054243,1.4904427610929663
7.0547568798065186,0.3591428413619999,[0.35219169],5.0,0.6,0.0,-0.12280590638402517,0.03219710300184955,1.4903716284414572
7.063636064529419,0.3595336387954733,[0.3529439],5.0,0.6,0.0,-0.11702397109175092,0.038874180032670395,1.49134247886307
7.074463844299316,0.3605106323791566,[0.35369249],5.0,0.6,0.0,-0.11050869395897958,0.041272866292648175,1.4907365785652615
7.0834972858428955,0.36109682852936664,[0.35443842],5.0,0.6,0.0,-0.10366907908129233,0.04464277153340397,1.4911643255553124
7.091482877731323,0.36187842339631326,[0.3551813],5.0,0.6,0.0,-0.09678052532752943,0.03254096759370792,1.4910628533064987
7.101838827133179,0.36266001826325994,[0.35591954],5.0,0.6,0.0,-0.36606203184363234,0.037678483831507376,1.4908546144793957
7.110222578048706,0.36324621441346994,[0.35665313],5.0,0.6,0.0,-0.3926757074677708,0.04217138367232653,1.4912291474050428
7.120896100997925,0.36402780928041667,[0.35738462],5.0,0.6,0.0,-0.33138163468649506,0.0579817181389583,1.4911306986269837
7.130509853363037,0.36480940414736335,[0.3581162],5.0,0.6,0.0,-0.24945056113088251,0.04216794388481828,1.4910339121053655
7.141463279724121,0.36539560029757334,[0.3588472],5.0,0.6,0.0,-0.17344787056793265,0.04519470656176126,1.4914379755702396
7.152737140655518,0.36637259388125676,[0.3595783],5.0,0.6,0.0,-0.11171325608876047,0.05903019426343265,1.490800715645742
7.16046667098999,0.36676339131473,[0.36031132],5.0,0.6,0.0,-0.06496197978654268,0.04458915029679956,1.4917055867054676
7.173451900482178,0.36793578361515006,[0.36104651],5.0,0.6,0.0,-0.3071768967959581,0.057726805952358615,1.4904822598859506
7.181547164916992,0.3685219797653601,[0.36178527],5.0,0.6,0.0,-0.31669361137971463,0.05599322369919198,1.4908897673950572
7.190448760986328,0.3691081759155701,[0.36252748],5.0,0.6,0.0,-0.24567300567493067,0.04149043994172798,1.4913313657837595
7.198939561843872,0.3698897707825168,[0.36327046],5.0,0.6,0.0,-0.15926522185304712,0.04370994061833534,1.4912563486967885
7.207741022109985,0.37047596693272683,[0.36401316],5.0,0.6,0.0,-0.08240906294138364,0.04635703352475726,1.4916761735102129
7.218412399291992,0.37106216308293677,[0.36475595],5.0,0.6,0.0,-0.022242288688720066,0.048320265810549795,1.4920775184946233
7.227863550186157,0.3718437579498835,[0.36549911],5.0,0.6,0.0,0.021385724059991548,0.04889308568548531,1.4919810579019666
7.23691463470459,0.3724299541000935,[0.36624282],5.0,0.6,0.0,0.05114230449346359,0.05011165071922247,1.4923711676050668
7.24954080581665,0.37340694768377686,[0.36698845],5.0,0.6,0.0,0.07016482578515246,0.062088749788731155,1.4917907604117768
7.257990837097168,0.37399314383398685,[0.36773706],5.0,0.6,0.0,0.08127472307833206,0.04624281028890959,1.4921979181722131
7.266448259353638,0.37457933998419685,[0.36848584],5.0,0.6,0.0,0.08675057828134913,0.034919192729728175,1.4925957466592426
7.276838779449463,0.37555633356788015,[0.36923238],5.0,0.6,0.0,0.08833085250339284,0.05151325256546968,1.4920276262593375
7.2854602336883545,0.37614252971809026,[0.36997713],5.0,0.6,0.0,0.08729652731733281,0.03872228540661602,1.4924207196198704
7.295478582382202,0.37731492201851025,[0.37071923],5.0,0.6,0.0,0.08456926457940186,0.039930371785738925,1.4913317797226486
7.3034508228302,0.3779011181687203,[0.371458],5.0,0.6,0.0,0.3568385843737039,0.04301205595631055,1.4916368332977386
7.31241774559021,0.37848731431893023,[0.37219413],5.0,0.6,0.0,0.38560521029130335,0.04533322795096408,1.4919997755465502
7.321498394012451,0.37926890918587697,[0.37292701],5.0,0.6,0.0,0.32587104733276384,0.033122672916829285,1.4919092745469915
7.329446077346802,0.37965970661935033,[0.37365493],5.0,0.6,0.0,0.24507866875023482,0.03948435949719083,1.4927697669098425
7.338124752044678,0.38063670020303364,[0.37437777],5.0,0.6,0.0,0.16991515264246762,0.04165189062766222,1.4921742838773657
7.345471620559692,0.38122289635324363,[0.37509671],5.0,0.6,0.0,0.10880621648033112,0.044712728982006504,1.4925132443769729
7.355530023574829,0.382199889936927,[0.37581157],5.0,0.6,0.0,0.06252787833373054,0.03201277675329414,1.4918681806863991
7.364232063293457,0.3825906873704003,[0.37652107],5.0,0.6,0.0,0.029067542455990126,0.03865202506462386,1.492658392230767
7.373711109161377,0.38356768095408367,[0.37722542],5.0,0.6,0.0,0.005743256616116939,0.04110735719114429,1.4919873922400786
7.383441209793091,0.38434927582103035,[0.37792613],5.0,0.6,0.0,-0.009954525881388402,0.043475605522478984,1.491782525020627
7.393463373184204,0.38532626940471365,[0.37862459],5.0,0.6,0.0,-0.02009454131753821,0.04420774641378535,1.4910574130599685
7.4029624462127686,0.38591246555492376,[0.37932207],5.0,0.6,0.0,-0.026277218331262994,0.046806947815067536,1.4913504440324852
7.411477565765381,0.38649866170513375,[0.38001852],5.0,0.6,0.0,-0.029695597120370773,0.03499971819885986,1.491636076256158
7.421289682388306,0.38747565528881706,[0.38071266],5.0,0.6,0.0,-0.031218032745784004,0.0384049275740128,1.4908933630962973
7.4314680099487305,0.38825725015576373,[0.38140467],5.0,0.6,0.0,-0.03146609551070634,0.041635334770377175,1.4906516673143961
7.441473484039307,0.38903884502271047,[0.38209609],5.0,0.6,0.0,-0.030879085143095245,0.0439722055652995,1.4904052420598235
7.449479341506958,0.38962504117292046,[0.38278828],5.0,0.6,0.0,-0.02976416417493318,0.046723025236003336,1.490694651825779
7.45759391784668,0.3900158386063938,[0.3834825],5.0,0.6,0.0,-0.028333921007242774,0.050018697305905566,1.4914988467908032
7.46593165397644,0.3906020347566038,[0.38417987],5.0,0.6,0.0,-0.026733883241077696,0.052095959615223036,1.4917845598404238
7.474507570266724,0.39118823090681387,[0.38488006],5.0,0.6,0.0,-0.025062372190890095,0.039817219195785174,1.4920725226228735
7.484470367431641,0.3919698257737605,[0.38558153],5.0,0.6,0.0,-0.0233846853764764,0.044576259346027464,1.4918707419921118
7.493756294250488,0.39275142064070717,[0.38628432],5.0,0.6,0.0,-0.021743154236213192,0.04815237789978508,1.4916698678020601
7.502976894378662,0.3935330155076539,[0.38698989],5.0,0.6,0.0,-0.020164238288850618,0.050805284817509365,1.4914737480396298
7.511500835418701,0.3941192116578639,[0.38769812],5.0,0.6,0.0,-0.018663507604123504,0.03911839708605133,1.4917875617665655
7.519542694091797,0.3947054078080739,[0.38840761],5.0,0.6,0.0,-0.01724912931280869,0.04572434165292989,1.4920986934555693
7.527761459350586,0.39548700267502057,[0.38911856],5.0,0.6,0.0,-0.015924298815778316,0.04991213771695014,1.491921197042068
7.536421537399292,0.3960731988252306,[0.38983117],5.0,0.6,0.0,-0.014688928917149378,0.03898600576304182,1.4922375414263174
7.548448324203491,0.39685479369217724,[0.39054567],5.0,0.6,0.0,-0.013540818464946074,0.06031635887847784,1.492070448114012
7.559863328933716,0.3978317872758606,[0.39126645],5.0,0.6,0.0,-0.012476456718829014,0.07461885598304155,1.4914161981325746
7.570573091506958,0.39880878085954397,[0.39199722],5.0,0.6,0.0,0.2645467863714805,0.054606194065684975,1.4907113632305293
7.5804443359375,0.3997857744432273,[0.39273684],5.0,0.6,0.0,0.2985814519523081,0.05503022943733785,1.4900453699691145
7.58844518661499,0.4003719705934373,[0.39348429],5.0,0.6,0.0,0.24432423169130985,0.057342199605151675,1.4905124109905754
7.59683632850647,0.401153565460384,[0.39424008],5.0,0.6,0.0,0.4450523649372198,0.05822900360538884,1.4903388744402624
7.605414867401123,0.4019351603273307,[0.39500316],5.0,0.6,0.0,0.40836844863769595,0.04373195121956496,1.490311392093496
7.61676025390625,0.40291215391101404,[0.3957726],5.0,0.6,0.0,0.2973073750978055,0.06320297354198882,1.489791341865202
7.627446174621582,0.4038891474946974,[0.39655045],5.0,0.6,0.0,0.45586913207659474,0.061618760297930786,1.4891318424020525
7.635532379150391,0.40447534364490745,[0.39733697],5.0,0.6,0.0,0.38961391739283935,0.0467002266251518,1.4897474847673229
7.645428895950317,0.40545233722859075,[0.39812937],5.0,0.6,0.0,0.2588807616149516,0.05013018321436288,1.4892822527591354
7.655447006225586,0.40623393209553743,[0.39892822],5.0,0.6,0.0,0.12911843926314753,0.06906328559392153,1.4893696885927161
7.666544675827026,0.4072109256792208,[0.39973692],5.0,0.6,0.0,0.2988125049289313,0.06612036526886352,1.4888235529853715
7.675463438034058,0.4079925205461675,[0.40055528],5.0,0.6,0.0,0.2530655453220365,0.04907254399466037,1.4889507988329511
7.684792995452881,0.4087741154131142,[0.40138014],5.0,0.6,0.0,0.14360171135879501,0.05279202063660983,1.4891100278553253
7.69443416595459,0.4097511089967975,[0.40221019],5.0,0.6,0.0,0.032695951769509374,0.05476701084850507,1.4886905466858393
7.703314542770386,0.41053270386374413,[0.40304581],5.0,0.6,0.0,-0.05799436497063071,0.05697561058238729,1.4888493715278004
7.7127509117126465,0.41131429873069086,[0.40388723],5.0,0.6,0.0,-0.1242482165530737,0.05872059189185609,1.489016880139092
7.723445177078247,0.41248669103111085,[0.40473463],5.0,0.6,0.0,-0.16855431595541795,0.05805488184392538,1.488031904082785
7.734937906265259,0.4134636846147942,[0.40558954],5.0,0.6,0.0,0.08068593120080654,0.07353937172441687,1.4876712974556576
7.743102788925171,0.41424527948174095,[0.40645317],5.0,0.6,0.0,0.1000858641361034,0.05421347413299966,1.4879225923496437
7.750448226928711,0.41522227306542425,[0.40732345],5.0,0.6,0.0,0.04059019826495973,0.055119913623045594,1.4875980188552116
7.760644197463989,0.4161992666491076,[0.4081985],5.0,0.6,0.0,0.24254560339313797,0.055543769609052225,1.4872353721548666
7.769689083099365,0.4169808615160543,[0.40907668],5.0,0.6,0.0,0.21136781948933425,0.04089883000983461,1.487549273226621
7.780456304550171,0.41834865253321096,[0.40995504],5.0,0.6,0.0,0.3845468735037746,0.04337978463039891,1.4858981887566025
7.791443824768066,0.419521044833631,[0.41083404],5.0,0.6,0.0,0.3099718869044138,0.06107938414457038,1.4849490111122896
7.801106214523315,0.42049803841731437,[0.41171702],5.0,0.6,0.0,0.16606968403845124,0.05828250206975471,1.484676512470176
7.808514356613159,0.4212796332842611,[0.41260371],5.0,0.6,0.0,0.025192699870703883,0.04157219171435503,1.4850579617872453
7.817452669143677,0.4220612281512078,[0.4134909],5.0,0.6,0.0,-0.08824584928279519,0.0454188513011947,1.4854114578064714
7.825445890426636,0.4230382217348911,[0.41437582],5.0,0.6,0.0,0.10580141184751611,0.03147014009574474,1.4850962761488267
7.834272861480713,0.42381981660183776,[0.41525616],5.0,0.6,0.0,0.08468214765362342,0.03799769472128326,1.4854344461929527
7.848012208938599,0.4251876076189945,[0.41613288],5.0,0.6,0.0,-0.002724263269661284,0.055218002493423145,1.4837360976452452
7.857409238815308,0.42616460120267785,[0.41700977],5.0,0.6,0.0,-0.09483522620515841,0.05314289596426055,1.48337080853591
7.868396043777466,0.42714159478636116,[0.41788849],5.0,0.6,0.0,-0.4458603088950472,0.0514462767807742,1.4828738362337333
7.879453897476196,0.4281185883700445,[0.41876896],5.0,0.6,0.0,-0.5321722890493598,0.04996463884330831,1.4824580485578445
7.889446496963501,0.4292909806704645,[0.41965103],5.0,0.6,0.0,-0.5104613064893138,0.04781169998992019,1.4813919717839341
7.9004175662994385,0.43026797425414787,[0.42053453],5.0,0.6,0.0,-0.4519664809437685,0.04667393572396474,1.4810783552574271
7.909435749053955,0.4310495691210946,[0.42141927],5.0,0.6,0.0,-0.3873176770392326,0.046630144015775456,1.4815107850140696
7.9207444190979,0.4322219614215146,[0.42230647],5.0,0.6,0.0,-0.32832275272049793,0.05975642415411956,1.4804484341806168
7.928512811660767,0.43300355628846127,[0.4231971],5.0,0.6,0.0,-0.2784175402163005,0.04063251940291791,1.480892763325476
7.9395153522491455,0.43398054987214457,[0.42408908],5.0,0.6,0.0,-0.23758019480958004,0.041106685054771414,1.4805799523410372
7.948845148086548,0.434957543455828,[0.42498061],5.0,0.6,0.0,-0.20457083589781097,0.04142749268752051,1.4802578463379972
7.958511590957642,0.4361299357562479,[0.42587159],5.0,0.6,0.0,-0.17789901679986447,0.04048940419236134,1.4791496437059735
7.969075679779053,0.43691153062319465,[0.42676194],5.0,0.6,0.0,-0.1562007429490027,0.04136496343107396,1.4795897776181013
7.979418754577637,0.43808392292361464,[0.42765158],5.0,0.6,0.0,-0.13835221378397045,0.0401411598805699,1.478454168785303
7.989400386810303,0.4392563152240347,[0.42854044],5.0,0.6,0.0,-0.12347429638371545,0.03881993915367598,1.4772843693512794
7.997909307479858,0.44003791009098137,[0.42942846],5.0,0.6,0.0,-0.3869363883998582,0.03949664961756233,1.4776280009860592
8.00540542602539,0.4406241062411914,[0.43031418],5.0,0.6,0.0,-0.40928456962553,0.0260337642977577,1.4788407612412755
8.013890027999878,0.4416010998248747,[0.43119493],5.0,0.6,0.0,-0.3448365023082828,0.029980442127186535,1.4784866756637438
8.02331256866455,0.44218729597508477,[0.43206997],5.0,0.6,0.0,-0.2605471377227916,0.03440281686276601,1.4796855270068576
8.0335693359375,0.4433596882755048,[0.43294006],5.0,0.6,0.0,-0.4587956487142037,0.03517826610493316,1.4783636576297812
8.043703556060791,0.4443366818591881,[0.43380593],5.0,0.6,0.0,-0.4288102310897186,0.036093862928026264,1.4779279382245794
8.052200317382812,0.44492287800939817,[0.4346682],5.0,0.6,0.0,-0.3258849950264908,0.03842219829694796,1.4791088849080825
8.061420679092407,0.4457044728763448,[0.43552744],5.0,0.6,0.0,-0.49115667201638247,0.0395883085493093,1.479319113354704
8.07054615020752,0.44648606774329147,[0.43638274],5.0,0.6,0.0,-0.7054922563171169,0.02574503423606936,1.47942117618511
8.079859256744385,0.44746306132697483,[0.43723199],5.0,0.6,0.0,-0.6103983910002931,0.02979459504020056,1.4790053740448075
8.089590311050415,0.44824465619392156,[0.43807485],5.0,0.6,0.0,-0.4264112966248098,0.03344551496233621,1.479392137210067
8.098109722137451,0.44902625106086824,[0.43891251],5.0,0.6,0.0,-0.24364119486428976,0.03610362726932431,1.479706085781933
8.105494737625122,0.44961244721107824,[0.43974465],5.0,0.6,0.0,-0.36910394940058283,0.0243028028284626,1.4806123237675544
8.115386247634888,0.45039404207802497,[0.44056977],5.0,0.6,0.0,-0.28951215323108415,0.030817368928118507,1.4808194624840816
8.123419523239136,0.4509802382282349,[0.44138812],5.0,0.6,0.0,-0.15554108716774906,0.03562665859123396,1.4817485201890341
8.132420063018799,0.45176183309518164,[0.44219991],5.0,0.6,0.0,-0.027647905704604625,0.02349336055692954,1.4818795379109082
8.142464876174927,0.4523480292453916,[0.44300535],5.0,0.6,0.0,0.07432026730770638,0.04565251802859353,1.482690254961862
8.154396295547485,0.453325022829075,[0.4438089],5.0,0.6,0.0,-0.1283635681598415,0.059850000545669045,1.482039444156139
8.166127920150757,0.4541066176960216,[0.44461576],5.0,0.6,0.0,-0.113056699122472,0.055779905653379085,1.4821365291083588
8.173476457595825,0.45469281384623167,[0.44542611],5.0,0.6,0.0,-0.029108447962141952,0.03909378445044102,1.4829716556198034
8.184203863143921,0.4554744087131783,[0.44623727],5.0,0.6,0.0,-0.21469689778184103,0.041600198376950163,1.483045512199033
8.19499945640564,0.45645140229686165,[0.44704975],5.0,0.6,0.0,-0.17319963739928648,0.05715925141830415,1.482454801078017
8.205190896987915,0.4572329971638084,[0.44786676],5.0,0.6,0.0,-0.06438686215550914,0.05416748151734231,1.48260466051558
8.214552402496338,0.4578191933140183,[0.44868813],5.0,0.6,0.0,0.046199723923143525,0.038161750468451404,1.483461426250345
8.225409746170044,0.45860078818096506,[0.44951088],5.0,0.6,0.0,0.1357916290486089,0.041061804192066044,1.4835967899011564
8.236540079116821,0.4591869843311751,[0.45033524],5.0,0.6,0.0,-0.07606707429396374,0.05886056291507039,1.4844471532591172
8.24441909790039,0.45996857919812173,[0.45116274],5.0,0.6,0.0,-0.06778855535795425,0.04152370881884557,1.4846076442492522
8.254417419433594,0.4605547753483318,[0.45199184],5.0,0.6,0.0,0.010614693218225488,0.04479198060775592,1.485442157384899
8.264759063720703,0.4613363702152784,[0.45282122],5.0,0.6,0.0,0.0965741111904321,0.04642711356065048,1.4855961329615037
8.275227069854736,0.46211796508222514,[0.45365245],5.0,0.6,0.0,0.1674754369591675,0.06210096618432811,1.4857483561440885
8.286640167236328,0.46309495866590844,[0.4544882],5.0,0.6,0.0,0.2180470998988117,0.05780818257080595,1.4852585636568398
8.295502185821533,0.46368115481611855,[0.45532791],5.0,0.6,0.0,0.2498474302501614,0.04185055523882624,1.486095125642478
8.304418802261353,0.4642673509663285,[0.45616828],5.0,0.6,0.0,0.2665631595783292,0.045313856060748024,1.4869138030495308
8.31490683555603,0.4652443445500118,[0.45700921],5.0,0.6,0.0,0.2720469008897455,0.060558206596168035,1.4864729779445267
8.32510495185852,0.4658305407002219,[0.45785192],5.0,0.6,0.0,0.26960746839991,0.04430833237532493,1.4872949146754744
8.333565950393677,0.46661213556716846,[0.45869469],5.0,0.6,0.0,0.2618449764983502,0.04634787366152514,1.4874900322306819
8.343400955200195,0.46719833171737857,[0.45953604],5.0,0.6,0.0,0.2507011932095267,0.04917031855827122,1.4882797568336157
8.351410627365112,0.4681753253010619,[0.46037478],5.0,0.6,0.0,0.23757753860037317,0.03494026474647798,1.4878620286719042
8.365530967712402,0.46915231888474523,[0.46120983],5.0,0.6,0.0,0.2234589293385996,0.052931561921418034,1.4874254615601263
8.375448226928711,0.46993391375169197,[0.46204296],5.0,0.6,0.0,0.20902097328636826,0.05230740512885406,1.48759127317779
8.385399103164673,0.4707155086186386,[0.46287697],5.0,0.6,0.0,0.1947151475380875,0.06553750940148319,1.4877584239148756
8.394269227981567,0.47130170476884864,[0.46371282],5.0,0.6,0.0,0.4568717525480716,0.04790538647194271,1.4883924969144735
8.402365446090698,0.4720832996357954,[0.46454733],5.0,0.6,0.0,0.4767186846010687,0.03448024902188514,1.4885369504040922
8.414097785949707,0.472864894502742,[0.46537775],5.0,0.6,0.0,0.40905036065663924,0.05301463109609155,1.4887266206004681
8.422369480133057,0.47345109065295204,[0.46620572],5.0,0.6,0.0,0.3211505015025936,0.053203608260318024,1.4894790767485628
8.43141508102417,0.47423268551989867,[0.4670313],5.0,0.6,0.0,0.23958325523228247,0.03866226355832515,1.4896388875118909
8.43940806388855,0.4748188816701087,[0.46785194],5.0,0.6,0.0,0.17267788803911266,0.04307782125213433,1.4903171023832682
8.450836420059204,0.475795875253792,[0.46866807],5.0,0.6,0.0,0.1211335310190215,0.05825808270162197,1.489879400259527
8.459419012069702,0.476382071404002,[0.4694814],5.0,0.6,0.0,-0.19316311494243615,0.04346589784881628,1.490493568835788
8.468136310577393,0.4767728688374754,[0.47029079],5.0,0.6,0.0,-0.2539933181523415,0.04776019190184844,1.4915837330931059
8.47658896446228,0.47755446370442206,[0.47109536],5.0,0.6,0.0,-0.2186016683685461,0.049536246167030076,1.4916551271100555
8.485385417938232,0.4781406598546321,[0.47189437],5.0,0.6,0.0,-0.15632777535927317,0.038043902824765025,1.4922089467176125
8.497766733169556,0.4791176534383154,[0.47268732],5.0,0.6,0.0,-0.09535390639885148,0.055680210089475185,1.4917574997836045
8.507815837860107,0.47970384958852547,[0.47347643],5.0,0.6,0.0,-0.32127779308653226,0.05647731389643533,1.4921970296135343
8.518389701843262,0.4804854444554721,[0.47426366],5.0,0.6,0.0,-0.31676352542652636,0.05628967996875309,1.4922130921003316
8.52771282196045,0.48107164060568214,[0.47504944],5.0,0.6,0.0,-0.23510472061684018,0.05720852198469494,1.492731712594199
8.535397052764893,0.48165783675589213,[0.47583288],5.0,0.6,0.0,-0.1412992911114048,0.044350812193626826,1.49322208548248
8.546385288238525,0.4826348303395755,[0.47661202],5.0,0.6,0.0,-0.05971008856661794,0.04759761286631948,1.4927687400217897
8.558381795883179,0.4834164252065221,[0.47738792],5.0,0.6,0.0,0.003160061476116853,0.06491361651792335,1.4927577608027187
8.569844007492065,0.48419802007346885,[0.47816556],5.0,0.6,0.0,0.04801942736735783,0.0774082845300282,1.492746600731549
8.577796936035156,0.4847842162236789,[0.47894791],5.0,0.6,0.0,0.07797980811407702,0.05921237100116669,1.4932061398921264
8.585402250289917,0.48537041237388884,[0.47973213],5.0,0.6,0.0,0.09651448560501802,0.046360907093151736,1.4936551894060566
8.594232320785522,0.48615200724083557,[0.48051451],5.0,0.6,0.0,0.10669032409705226,0.05123512112319569,1.4936554048068997
8.60437297821045,0.48673820339104557,[0.4812947],5.0,0.6,0.0,0.11096092322879408,0.056086699632186536,1.4940820104356622
8.615184307098389,0.4877151969747289,[0.48207387],5.0,0.6,0.0,0.38722545005142583,0.05775870033959518,1.4935436932536186
8.626932382583618,0.4886921905584123,[0.48285449],5.0,0.6,0.0,0.41789669641492394,0.0736339833179651,1.4930774529479436
8.635818243026733,0.4894737854253589,[0.48363873],5.0,0.6,0.0,0.3586446093045427,0.05643750984703036,1.493117817432535
8.645055294036865,0.49025538029230564,[0.48442566],5.0,0.6,0.0,0.2773913700548828,0.05909191909283532,1.493168649146897
8.653633832931519,0.49084157644251564,[0.48521458],5.0,0.6,0.0,0.4772015385118283,0.06218793451460011,1.4935178955531012
8.663391590118408,0.4916231713094623,[0.48600633],5.0,0.6,0.0,0.44778541410267025,0.06400426218114318,1.493560850376929
8.671352624893188,0.49220936745967236,[0.48680027],5.0,0.6,0.0,0.3447740620591285,0.051137067764645695,1.494076942852823
8.681365251541138,0.4931863610433557,[0.48759444],5.0,0.6,0.0,0.23349991486087462,0.055888167667398736,1.4937250054969142
8.69244933128357,0.4941633546270391,[0.4883887],5.0,0.6,0.0,0.13790523661214854,0.059416210447565884,1.4933386978259198
8.702899932861328,0.49494494949398576,[0.48918597],5.0,0.6,0.0,0.06386747339307897,0.07854095132031612,1.4933857560970738
8.71238374710083,0.49553114564419576,[0.48998882],5.0,0.6,0.0,0.010071802144463203,0.06201098721719918,1.4938752751978104
8.723062992095947,0.49650813922787906,[0.49079794],5.0,0.6,0.0,-0.027105599578161704,0.08041454602374144,1.4934993908573022
8.730407238006592,0.49728973409482574,[0.49161396],5.0,0.6,0.0,-0.051542944991177016,0.062781129058277,1.4935758528641454
8.740967750549316,0.4982667276785091,[0.49243589],5.0,0.6,0.0,-0.06661638130413189,0.06550584930709165,1.493220027168141
8.749465703964233,0.49904832254545584,[0.49326292],5.0,0.6,0.0,0.20102707026692335,0.06841731551670735,1.493298090020247
8.758370637893677,0.49963451869566583,[0.49409435],5.0,0.6,0.0,0.2304024194162384,0.055252074794796116,1.4938405968338526
8.771390438079834,0.5008069109960859,[0.49492965],5.0,0.6,0.0,0.1747092942144015,0.07665586692714894,1.4930926384627257
8.78039264678955,0.5017839045797692,[0.4957715],5.0,0.6,0.0,0.37614766220793483,0.0759930233523352,1.4926909636774808
8.790211200714111,0.5027608981634525,[0.4966222],5.0,0.6,0.0,0.34155694946643955,0.07541268001736896,1.4924047622884293
8.801744222640991,0.5037378917471359,[0.49748364],5.0,0.6,0.0,0.509476784434244,0.09146255920329664,1.4920142098828983
8.809647798538208,0.5045194866140825,[0.49835738],5.0,0.6,0.0,0.42854816602864637,0.07071316108412125,1.4922977665394048
8.819772481918335,0.5054964801977658,[0.49924141],5.0,0.6,0.0,0.5537625648202357,0.07166145003306867,1.4919771448917638
8.82994794845581,0.5064734737814492,[0.50013395],5.0,0.6,0.0,0.7149191286010541,0.07234353458106424,1.4916139689636756
8.837385416030884,0.507255068648396,[0.50103337],5.0,0.6,0.0,0.5724119331681636,0.05678603499826162,1.4920441402772526
8.845346689224243,0.5080366635153426,[0.50193664],5.0,0.6,0.0,0.35233243120270075,0.06296080635080072,1.4924931648246442
8.858862161636353,0.5094044545324993,[0.50284434],5.0,0.6,0.0,0.4209001224114195,0.08133741020965868,1.491298047739252
8.868162870407104,0.5103814481161826,[0.50376011],5.0,0.6,0.0,0.2882951873449713,0.07879433683450042,1.4912080358620206
8.878330945968628,0.511358441699866,[0.50468532],5.0,0.6,0.0,0.3886864217110626,0.07684366384169457,1.4910209825176608
8.888158798217773,0.5123354352835494,[0.50561938],5.0,0.6,0.0,0.26432549136566486,0.07506582314410107,1.4909674924859857
8.897652387619019,0.5133124288672327,[0.50656161],5.0,0.6,0.0,0.08805103485240165,0.07363331909488109,1.4909209234055965
8.906772136688232,0.514289422450916,[0.50751121],5.0,0.6,0.0,-0.0725040427676092,0.07249476104756211,1.4908493417887845
8.91437029838562,0.5150710173178628,[0.50846581],5.0,0.6,0.0,-0.1966219671229754,0.05602045013898997,1.4912834385902136
8.924373626708984,0.5160480109015461,[0.50942172],5.0,0.6,0.0,-0.007026899215466051,0.05977079572220328,1.491256856550676
8.933380603790283,0.5170250044852295,[0.51037728],5.0,0.6,0.0,-0.0283933475898202,0.062413936689851304,1.491199890946769
8.941336631774902,0.5178065993521761,[0.51133107],5.0,0.6,0.0,-0.11328905884475551,0.04865303131630893,1.4916390203148202
8.950528860092163,0.5187835929358594,[0.51228186],5.0,0.6,0.0,-0.2011515389026332,0.07070567405019232,1.4915510017469935
8.95870065689087,0.5195651878028061,[0.51323012],5.0,0.6,0.0,0.005176730841438465,0.05451256025893793,1.4920054869349952
8.969338417053223,0.5207375801032261,[0.51417471],5.0,0.6,0.0,-0.009068429678413994,0.05734021918494226,1.4914226948459202
8.979387760162354,0.5217145736869095,[0.51511467],5.0,0.6,0.0,-0.09152283308832382,0.05988685096776551,1.4913198447839429
8.988579750061035,0.5228869659873295,[0.51605069],5.0,0.6,0.0,-0.17917600206389853,0.060557206000193924,1.4906727154123542
8.99665379524231,0.5236685608542763,[0.5169834],5.0,0.6,0.0,0.026339400257183607,0.06229295026764027,1.4911010406868983
9.004371643066406,0.5246455544379596,[0.51791181],5.0,0.6,0.0,0.010852723613019803,0.04669782061350573,1.4909722518882502
9.012690544128418,0.5254271493049063,[0.5188336],5.0,0.6,0.0,-0.07298438657890235,0.05245061245489228,1.49133873614746
9.022876977920532,0.526794940322063,[0.51974835],5.0,0.6,0.0,-0.16202547279780644,0.053793393821062525,1.4900987096770513
9.03083872795105,0.5275765351890096,[0.5206558],5.0,0.6,0.0,-0.23388012724224763,0.04096968919588773,1.4904256985456255
9.038328170776367,0.5283581300559563,[0.52155281],5.0,0.6,0.0,-0.28374180478393524,0.03188602486884119,1.4907203610614623
9.048379182815552,0.5295305223563763,[0.52243685],5.0,0.6,0.0,-0.3136431233726197,0.03972868729791932,1.4899132174358365
9.059908390045166,0.5307029146567964,[0.52331042],5.0,0.6,0.0,-0.6037105980448145,0.06076796013493367,1.4888584928396766
9.067371368408203,0.531484509523743,[0.52417726],5.0,0.6,0.0,-0.6391558679329268,0.04539115061202193,1.4890736210892324
9.07737684249878,0.5324615031074265,[0.5250376],5.0,0.6,0.0,-0.5782083161866515,0.049325293820867686,1.4887888544155983
9.087335586547852,0.5336338954078464,[0.52589176],5.0,0.6,0.0,-0.7669021705903449,0.05124376399519139,1.487645829868584
9.095418214797974,0.5342200915580564,[0.5267416],5.0,0.6,0.0,-0.7148875397118383,0.05500380777442043,1.4884964563185277
9.10333800315857,0.5351970851417398,[0.52758725],5.0,0.6,0.0,-0.5866689059628558,0.04023819050026433,1.488228741160433
9.113362312316895,0.5361740787254231,[0.52842742],5.0,0.6,0.0,-0.7272724565089856,0.04569823148598814,1.4876760207124176
9.122384309768677,0.5371510723091065,[0.52926262],5.0,0.6,0.0,-0.6429564466376219,0.04942513697678321,1.4873239677990768
9.131944417953491,0.5381280658927898,[0.53009488],5.0,0.6,0.0,-0.49452090282772104,0.05196519393606163,1.486994495310448
9.14099907875061,0.5389096607597365,[0.53092598],5.0,0.6,0.0,-0.3477073715795558,0.05461685277184182,1.4872430811196489
9.149404287338257,0.5396912556266832,[0.53175752],5.0,0.6,0.0,-0.225138210854461,0.056659462143753704,1.4874523405058324
9.159820795059204,0.5406682492103666,[0.53259089],5.0,0.6,0.0,-0.13096221944531858,0.057371584418663336,1.4870232475394933
9.168354034423828,0.5414498440773132,[0.53342575],5.0,0.6,0.0,-0.062250720290299336,0.04239226477139812,1.4872024510795507
9.17735767364502,0.5424268376609965,[0.5342603],5.0,0.6,0.0,-0.01404696383709041,0.04737260682030561,1.4867499452117123
9.18614411354065,0.5432084325279433,[0.53509461],5.0,0.6,0.0,0.018563149306097676,0.05183892497702386,1.4869192230822657
9.195764303207397,0.5441854261116267,[0.53593035],5.0,0.6,0.0,0.03973343001455269,0.054373111792549805,1.4864620146204477
9.203346729278564,0.5449670209785733,[0.5367674],5.0,0.6,0.0,-0.22331742949443809,0.04056405182399893,1.4866061333190572
9.215071678161621,0.5459440145622566,[0.53760575],5.0,0.6,0.0,-0.2491896640141134,0.06327619998695584,1.4861446689989548
9.22333836555481,0.5467256094292033,[0.53844695],5.0,0.6,0.0,-0.1907843807603273,0.047017544994603484,1.4863591889484233
9.236711978912354,0.5478980017296233,[0.53929397],5.0,0.6,0.0,-0.39008768771127195,0.08378377902797934,1.4851899459240625
