t_s,q_rad,q_des_rad,K,B,jerk,tau_Nm,ilc_ff_Nm
0.00519108772277832,-0.04884967918416756,[0.00054545],0.005,0.1,0.0,9.998999999999999,0
0.015193700790405273,-0.04884967918416756,[0.00263605],0.005,0.1,0.0,4.407330088867434,0
0.025678157806396484,-0.04865428046743089,[0.00655185],0.005,0.1,0.0,1.9885282571063725,0
0.03636336326599121,-0.046309495866590854,[0.0119607],0.005,0.1,0.552076719357362,0.9214443259955187,0
0.04670977592468262,-0.04259692024859412,[0.01856249],0.005,0.1,3.1026711627883743,0.4373228258302391,0
0.055695295333862305,-0.03907974334733405,[0.02608805],0.005,0.1,5.0,0.2145409371773752,0
0.06436300277709961,-0.03536716772933732,[0.03429782],0.005,0.1,5.0,0.10656050165847736,0
0.0724186897277832,-0.031849990828077254,[0.04298035],0.005,0.1,5.0,0.05357641286838899,0
0.08183932304382324,-0.028528212643553853,[0.05195087],0.005,0.1,5.0,0.02694058527434049,0
0.09080338478088379,-0.02501103574229379,[0.06104961],0.005,0.1,5.0,0.013364274487977772,0
0.10173869132995605,-0.020712263974087045,[0.07013988],0.005,0.1,5.0,0.006436909907840688,0
0.1104426383972168,-0.017195087072826982,[0.0791063],0.005,0.1,5.0,0.003264505690148506,0
0.1194911003112793,-0.013677910171566917,[0.08785297],0.005,0.1,5.0,0.0019150168152851455,0
0.12989020347595215,-0.010160733270306851,[0.09630174],0.005,0.1,4.932975244492863,0.0014517823383683145,0
0.1393733024597168,-0.007034353802520129,[0.10439025],0.005,0.1,2.34453441787587,0.0014079045436818226,0
0.15140080451965332,-0.0027355820343133836,[0.11207051],0.005,0.1,-1.1442097589531552,0.001514391892546072,0
0.16215991973876953,0.00039079743347334047,[0.1193076],0.005,0.1,-4.246259703845502,0.0017075959365785425,0
0.17041969299316406,0.0029309807510500534,[0.12607782],0.005,0.1,-5.0,0.0019338352682844546,0
0.18036413192749023,0.006057360218836778,[0.13236685],0.005,0.1,-5.0,0.0021439152709170793,0
0.19344854354858398,0.009574537120096843,[0.1381688],0.005,0.1,-5.0,0.0022414420679386436,0
0.20376086235046387,0.012310119154410226,[0.14348539],0.005,0.1,-5.0,0.002386665072087743,0
0.2134103775024414,0.014850302471986938,[0.14832436],0.005,0.1,-5.0,0.0025092586190004693,0
0.22434067726135254,0.01758588450630032,[0.15269828],0.005,0.1,-5.0,0.002591223345069383,0
0.2346665859222412,0.019930669107140364,[0.15662401],0.005,0.1,-5.0,0.0026439230580968193,0
0.24259281158447266,0.021493858841033726,[0.16012163],0.005,0.1,-5.0,0.0027761506878602473,0
0.25176119804382324,0.02305704857492709,[0.16321328],0.005,0.1,-5.0,0.002847019150133714,0
0.2603299617767334,0.02442483959208378,[0.16592278],0.005,0.1,-5.0,0.002935329939795847,0
0.26935625076293945,0.025988029325977144,[0.16827525],0.005,0.1,-5.0,0.0029545757170004777,0
0.27840757369995117,0.027160421626397167,[0.17029679],0.005,0.1,-5.0,0.0029821371162652766,0
0.28934788703918457,0.028528212643553853,[0.17201401],0.005,0.1,-5.0,0.002985656001559397,0
0.29734277725219727,0.02950520622723721,[0.17345339],0.005,0.1,-5.0,0.0030028914462724675,0
0.3054368495941162,0.030091402377447216,[0.1746409],0.005,0.1,-5.0,0.0030328759427684137,0
0.31334972381591797,0.030677598527657227,[0.1756018],0.005,0.1,-5.0,0.003052086448771785,0
0.32442498207092285,0.031459193394603915,[0.1763604],0.005,0.1,-5.0,0.003048862468891401,0
0.3335301876068115,0.032045389544813924,[0.17693988],0.005,0.1,-5.0,0.0030491421716076464,0
0.342663049697876,0.03263158569502393,[0.17736194],0.005,0.1,-5.0,0.00303823313414397,0
0.3523242473602295,0.03302238312849727,[0.17764673],0.005,0.1,-4.639270932377595,0.003034666934632813,0
0.36065006256103516,0.03302238312849727,[0.17781331],0.005,0.1,-3.8670624953717105,0.0030507898183898415,0
0.37039852142333984,0.03341318056197061,[0.17787954],0.005,0.1,-3.338710914189692,0.0030390772692881463,0
0.3817312717437744,0.03341318056197061,[0.17786185],0.005,0.1,-3.225241869715962,0.0030474692521199223,0
0.3902139663696289,0.03360857927870728,[0.17777519],0.005,0.1,-2.9521828583970042,0.0030423763096021216,0
0.3993659019470215,0.03360857927870728,[0.17763309],0.005,0.1,-2.092114176246408,0.0030428642097439494,0
0.40921831130981445,0.03360857927870728,[0.17744772],0.005,0.1,-1.4573744192603162,0.0030432544207021138,0
0.41844916343688965,0.03360857927870728,[0.17722974],0.005,0.1,-0.7222642772947822,0.0030152313223747954,0
0.4267115592956543,0.033803977995443955,[0.17698831],0.005,0.1,-0.08583862701175299,0.0030007306066845547,0
0.43732452392578125,0.033803977995443955,[0.1767317],0.005,0.1,0.6749581665985465,0.0029954654453204547,0
0.44832468032836914,0.033999376712180625,[0.17646731],0.005,0.1,1.3231515795750868,0.0029749778856789475,0
0.4574151039123535,0.033999376712180625,[0.17620146],0.005,0.1,2.0720904962457922,0.0029611078104479624,0
0.46537017822265625,0.033999376712180625,[0.17593948],0.005,0.1,2.4102676253049458,0.0029487216535874256,0
0.47492504119873047,0.034194775428917294,[0.17568581],0.005,0.1,2.7990409524069753,0.0029218463857533265,0
0.4849731922149658,0.034194775428917294,[0.17544408],0.005,0.1,3.096650831700538,0.002907205816831,0
0.493483304977417,0.034194775428917294,[0.1752172],0.005,0.1,3.271200393753593,0.0028937405611752804,0
0.5039658546447754,0.034390174145653964,[0.17500723],0.005,0.1,3.3337057121400786,0.002845084615471706,0
0.5133652687072754,0.034390174145653964,[0.17481546],0.005,0.1,3.3082523050268127,0.0028389909282334866,0
0.5221021175384521,0.03458557286239063,[0.17464295],0.005,0.1,3.219613307993828,0.0028207409265595734,0
0.5319042205810547,0.03458557286239063,[0.17449053],0.005,0.1,3.088834600747039,0.0028128531636642017,0
0.5393157005310059,0.03458557286239063,[0.17435839],0.005,0.1,2.9322688459793254,0.0027853495292440235,0
0.54988694190979,0.03458557286239063,[0.17424626],0.005,0.1,2.7619599291639902,0.0027848356841284126,0
0.5573501586914062,0.0347809715791273,[0.17415362],0.005,0.1,2.5864408892142685,0.002753088531040976,0
0.5673952102661133,0.0347809715791273,[0.17407975],0.005,0.1,2.4115555165351514,0.0027552133468745294,0
0.576127290725708,0.0347809715791273,[0.17402399],0.005,0.1,2.2411637393277726,0.0027579457006595347,0
0.5873520374298096,0.03497637029586397,[0.17398576],0.005,0.1,2.077699372659766,0.0027501956828204282,0
0.5953159332275391,0.03497637029586397,[0.17396442],0.005,0.1,1.9225914693804427,0.0027586798468335278,0
0.6073122024536133,0.03517176901260064,[0.17395962],0.005,0.1,1.7765737513027797,0.002793204003174165,0
0.6153824329376221,0.03517176901260064,[0.17397133],0.005,0.1,1.6399075542791701,0.002807027691821131,0
0.6233255863189697,0.03517176901260064,[0.17399902],0.005,0.1,1.5125402338181084,0.002781365152586849,0
0.6329612731933594,0.03536716772933732,[0.17404217],0.005,0.1,1.394216459691965,0.002887148975460031,0
0.6423509120941162,0.03536716772933732,[0.17410085],0.005,0.1,1.284555627053332,0.0028489515016192697,0
0.6521623134613037,0.03536716772933732,[0.17417485],0.005,0.1,1.1831051522503797,0.0029307084230581998,0
0.661848783493042,0.03556256644607399,[0.17426436],0.005,0.1,1.089376741056068,0.003027274339000353,0
0.672154426574707,0.03556256644607399,[0.17437035],0.005,0.1,1.0028707115779882,0.0031624967506840196,0
0.6823148727416992,0.03556256644607399,[0.17449408],0.005,0.1,0.923091986074434,0.003334002031061885,0
0.6909089088439941,0.035757965162810657,[0.1746371],0.005,0.1,0.8495603064634594,0.0035442605629106114,0
0.6983349323272705,0.035757965162810657,[0.17480033],0.005,0.1,0.781816471078419,0.0034114812343901822,0
0.7079184055328369,0.035757965162810657,[0.174984],0.005,0.1,0.7194258526043471,0.0037474494037986928,0
0.7155721187591553,0.035953363879547326,[0.17518964],0.005,0.1,0.6619800772544269,0.004134540884197733,0
0.7246859073638916,0.035953363879547326,[0.17542004],0.005,0.1,0.6090974777799162,0.004601634039813189,0
0.7333877086639404,0.035953363879547326,[0.17567682],0.005,0.1,0.5604227451040832,0.004293674201554326,0
0.743267297744751,0.036148762596283995,[0.17596049],0.005,0.1,0.5156260718045864,0.004972572999141953,0
0.7513337135314941,0.036148762596283995,[0.17627337],0.005,0.1,0.4744019886895182,0.00575595564104469,0
0.7612638473510742,0.036148762596283995,[0.1766194],0.005,0.1,0.4364680315414245,0.006635707718027665,0
0.7711617946624756,0.036148762596283995,[0.17700264],0.005,0.1,0.40156333043433634,0.007596357283859493,0
0.780022144317627,0.036148762596283995,[0.17742718],0.005,0.1,0.3694471830175875,0.00864579520205801,0
0.7887372970581055,0.036344161313020665,[0.17789704],0.005,0.1,0.3398976517021013,0.009757665329027556,0
0.7983989715576172,0.036344161313020665,[0.17841391],0.005,0.1,0.31271020990073706,0.008393226366656958,0
0.8085179328918457,0.036344161313020665,[0.1789773],0.005,0.1,0.28769645234637087,0.010072037822701557,0
0.8163635730743408,0.036344161313020665,[0.17958926],0.005,0.1,0.2646828776267103,0.011801819331656499,0
0.8263840675354004,0.036344161313020665,[0.18025413],0.005,0.1,0.24350974644504075,0.013573783327580852,0
0.8368656635284424,0.036539560029757334,[0.18097607],0.005,0.1,0.22403001604978057,0.015403235957563086,0
0.8442955017089844,0.036539560029757334,[0.18175608],0.005,0.1,0.20610834929024596,0.01279017157394634,0
0.8536736965179443,0.036734958746494004,[0.18259551],0.005,0.1,0.18962019551424475,0.02097814779784572,0
0.8617429733276367,0.036734958746494004,[0.18349857],0.005,0.1,0.17445093979021015,0.016816392537564884,0
0.871330976486206,0.03693035746323068,[0.18446586],0.005,0.1,0.16049511654899273,0.019909991841070125,0
0.8811774253845215,0.03693035746323068,[0.18549833],0.005,0.1,0.42369404326316706,0.023058672525631325,0
0.8892860412597656,0.03712575617996735,[0.18659668],0.005,0.1,0.4450063151894442,0.018874944616091092,0
0.8973195552825928,0.03732115489670401,[0.18775809],0.005,0.1,0.3790416768257536,0.023272882747887958,0
0.9052791595458984,0.03732115489670401,[0.18898399],0.005,0.1,0.29295865451588593,0.027608749938691005,0
0.9133117198944092,0.03751655361344069,[0.1902755],0.005,0.1,0.2132377829600327,0.022700144530504302,0
0.9219002723693848,0.03751655361344069,[0.1916256],0.005,0.1,0.14815363614706373,0.01979189724721671,0
0.9313175678253174,0.03771195233017736,[0.19302838],0.005,0.1,0.37440901864068366,0.026467183771194613,0
0.9433081150054932,0.0381027497636507,[0.19449179],0.005,0.1,0.3709559389948691,0.045457704344888765,0
0.9533143043518066,0.03829814848038737,[0.19603197],0.005,0.1,0.5657797080836025,0.04931765270440914,0
0.962853193283081,0.038493547197124035,[0.19765903],0.005,0.1,0.5046043901623178,0.053752166819778714,0
0.9719436168670654,0.03868894591386071,[0.19937789],0.005,0.1,0.36656542394690317,0.05890899042635796,0
0.9796216487884521,0.038884344630597374,[0.20119346],0.005,0.1,0.5016433411530266,0.0648818760086634,0
0.9913108348846436,0.03927514206407072,[0.20311077],0.005,0.1,0.6929803704578847,0.07158798247687445,0
1.000335931777954,0.03966593949754405,[0.20512891],0.005,0.1,0.5817246741664371,0.05614105565595411,0
1.0100746154785156,0.040056736931017405,[0.20724811],0.005,0.1,0.6632303661170391,0.0958125938375509,0
1.0197954177856445,0.04044753436449074,[0.20948168],0.005,0.1,0.7833603792175592,0.10305217657862947,0
1.027327537536621,0.04083833179796408,[0.21183471],0.005,0.1,0.6076640370099623,0.07934178420668003,0
1.0372416973114014,0.04142452794817409,[0.21430585],0.005,0.1,0.9148786643258415,0.13036857459359472,0
1.046403408050537,0.04181532538164743,[0.21690062],0.005,0.1,1.0322029409876685,0.09839133346363052,0
1.0569515228271484,0.04259692024859412,[0.21961605],0.005,0.1,1.3297428365599733,0.1129526746701582,0
1.0669183731079102,0.0433785151155408,[0.22244929],0.005,0.1,1.336784307545312,0.1260018387013485,0
1.0763154029846191,0.044160109982487476,[0.22540441],0.005,0.1,1.508944354314575,0.1371064530813372,0
1.085500717163086,0.04494170484943416,[0.22848389],0.005,0.1,1.6834548413483248,0.14622842104429515,0
1.096135139465332,0.04611409714985418,[0.23168859],0.005,0.1,1.805363719514645,0.15333902634932528,0
1.1059377193450928,0.0472864894502742,[0.23501772],0.005,0.1,1.8655078281398776,0.1586728332795478,0
1.1138789653778076,0.048068084317220885,[0.23846886],0.005,0.1,1.871950206396408,0.16300151805965624,0
1.1215498447418213,0.049045077900904226,[0.24203077],0.005,0.1,1.8374131731287198,0.12144210797546912,0
1.1323325634002686,0.050608267634797595,[0.24568479],0.005,0.1,2.0502322072722254,0.13450604620343765,0
1.1428351402282715,0.05197605865195429,[0.2494207],0.005,0.1,2.27766149214761,0.14393622425511737,0
1.1522834300994873,0.053343849669110974,[0.25323537],0.005,0.1,2.4392517757265537,0.14963965946264984,0
1.1619086265563965,0.054907039403004336,[0.25712413],0.005,0.1,2.519668725699331,0.1521498781707429,0
1.1713054180145264,0.05607943170342436,[0.26108092],0.005,0.1,2.2523942573690365,0.1527301826083515,0
1.1812841892242432,0.0578380201540544,[0.26509846],0.005,0.1,1.8969165702394557,0.15096556316366633,0
1.1892924308776855,0.05920581117121108,[0.26916199],0.005,0.1,1.8338535680469512,0.11012544389486835,0
1.198282241821289,0.060769000905104446,[0.27325076],0.005,0.1,1.3028471026468234,0.11783654833137641,0
1.2072906494140625,0.06213679192226114,[0.27735219],0.005,0.1,1.2584966246454763,0.12222125591292352,0
1.215294361114502,0.06369998165615451,[0.28145472],0.005,0.1,1.08813564623236,0.09143121013416862,0
1.2266960144042969,0.06624016497373121,[0.28554724],0.005,0.1,0.896510244830338,0.1330865490358508,0
1.2352910041809082,0.06799875342436125,[0.28963117],0.005,0.1,0.7236884025543391,0.12839142082928592,0
1.2445204257965088,0.06995274059172794,[0.29370667],0.005,0.1,0.5810731955187133,0.1235871138648903,0
1.2533040046691895,0.07190672775909465,[0.29776153],0.005,0.1,0.4683085360210127,0.08971451373369972,0
1.262662410736084,0.07386071492646136,[0.30177933],0.005,0.1,0.38096133570282076,0.09423059578959658,0
1.272289514541626,0.0762054995273014,[0.3057513],0.005,0.1,0.0377846295938028,0.09668839341639734,0
1.2810511589050293,0.07796408797793142,[0.30967528],0.005,0.1,-0.046980659095609834,0.09776407102862221,0
1.2932624816894531,0.08050427129550815,[0.31354919],0.005,0.1,-0.30790665829445274,0.09725597661825047,0
1.3012938499450684,0.08226285974613817,[0.31737106],0.005,0.1,-0.8483239462086919,0.09639530519685122,0
1.3138010501861572,0.08499844178045156,[0.32114385],0.005,0.1,-0.8138015376737204,0.12097243630797945,0
1.3221683502197266,0.08714782766455492,[0.32486989],0.005,0.1,-0.866980545730348,0.08558146749091203,0
1.333801031112671,0.08988340969886832,[0.32854605],0.005,0.1,-0.9278916318499519,0.10911251783555867,0
1.3433640003204346,0.09183739686623502,[0.33216956],0.005,0.1,-0.9685846411608989,0.07814083347293543,0
1.3522725105285645,0.09379138403360171,[0.33573371],0.005,0.1,-0.9834127422764444,0.07883113958028182,0
1.36026930809021,0.09574537120096842,[0.33922851],0.005,0.1,-1.2513324105124837,0.060129946812915246,0
1.3697338104248047,0.09789475708507178,[0.34265048],0.005,0.1,-1.258788477791636,0.08485187908455173,0
1.3782744407653809,0.09984874425243849,[0.34600167],0.005,0.1,-1.1658531510461767,0.06351472814061633,0
1.3882784843444824,0.10219352885327855,[0.34928005],0.005,0.1,-1.3202976293725166,0.06708841369400147,0
1.40057373046875,0.10512450960432859,[0.35248887],0.005,0.1,-1.233172022818842,0.08942626014764775,0
1.4083797931671143,0.10668769933822195,[0.35564021],0.005,0.1,-1.3460550095838388,0.0858313254285893,0
1.417285442352295,0.10883708522232532,[0.35873647],0.005,0.1,-1.4857403357970995,0.0641053549941899,0
1.4270169734954834,0.1109864711064287,[0.36177193],0.005,0.1,-1.5896869193026195,0.06821442084476709,0
1.436368703842163,0.11333125570726875,[0.36474714],0.005,0.1,-1.6432995337585428,0.07170763539998856,0
1.4442896842956543,0.11508984415789876,[0.36766354],0.005,0.1,-1.6507986190287935,0.05661271087521825,0
1.4523506164550781,0.11704383132526547,[0.37051903],0.005,0.1,-1.6222147382715286,0.06411693247389312,0
1.462691068649292,0.11938861592610552,[0.37331755],0.005,0.1,-1.5679765029380492,0.07064836854231797,0
1.4756028652191162,0.12231959667715558,[0.37607303],0.005,0.1,-1.496967112109174,0.09982272024685446,0
1.484403371810913,0.12427358384452228,[0.37879851],0.005,0.1,-1.4160855881229188,0.07503164810890699,0
1.4923441410064697,0.1260321722951523,[0.3814967],0.005,0.1,-1.3303996997598952,0.0815157110574194,0
1.503225326538086,0.128572355612729,[0.38417609],0.005,0.1,-1.5195206881380579,0.11483958965417054,0
1.515721082687378,0.1315033363637791,[0.38685475],0.005,0.1,-1.466923895098729,0.11260307065953323,0
1.5236718654632568,0.1332619248144091,[0.38953868],0.005,0.1,-1.32888428037927,0.08452672138828303,0
1.5332832336425781,0.13560670941524913,[0.39222335],0.005,0.1,-1.1736129925109537,0.0923819818880241,0
1.5422694683074951,0.1379514940160892,[0.3949107],0.005,0.1,-1.0282112946735475,0.09940535589973419,0
1.5512900352478027,0.14010087990019257,[0.39760272],0.005,0.1,-0.9012753918791234,0.07775195613065333,0
1.5611038208007812,0.1424456645010326,[0.40029613],0.005,0.1,-0.5175496322382233,0.08940617260527821,0
1.571277379989624,0.14479044910187266,[0.40299403],0.005,0.1,-0.3938731971163796,0.09936180408308562,0
1.5849535465240479,0.14772142985292272,[0.40571613],0.005,0.1,-0.09666632911877088,0.18241318517199473,0
1.595919132232666,0.1504570118872361,[0.4084906],0.005,0.1,0.20110802929479335,0.16666513807249542,0
1.6037635803222656,0.15260639777133944,[0.41132425],0.005,0.1,0.16403633549344931,0.11896084718777271,0
1.6129136085510254,0.15475578365544285,[0.41420545],0.005,0.1,0.3002577583539252,0.12332104208276146,0
1.6206345558166504,0.15690516953954617,[0.41712972],0.005,0.1,0.18675604165710116,0.12739959877289855,0
1.628237247467041,0.15885915670691292,[0.42009286],0.005,0.1,0.2882060873739882,0.09686520088803953,0
1.6382725238800049,0.1613993400244896,[0.42308526],0.005,0.1,0.436136618853432,0.10848423745953283,0
1.6483080387115479,0.16393952334206632,[0.42610441],0.005,0.1,0.5656934263410665,0.1174307440406018,0
1.6572792530059814,0.16647970665964307,[0.42915376],0.005,0.1,0.6579297801645543,0.12437815992781401,0
1.6662683486938477,0.16882449126048307,[0.43223598],0.005,0.1,0.712728883319823,0.12980826183448027,0
1.6773476600646973,0.17175547201153316,[0.43535306],0.005,0.1,1.0125469752392042,0.1335556555748059,0
1.686842441558838,0.17429565532910984,[0.4385064],0.005,0.1,0.7700684610157552,0.13678260728262548,0
1.6972317695617676,0.1772266360801599,[0.44169681],0.005,0.1,0.6658388954632306,0.139140157419826,0
1.7052505016326904,0.17937602196426328,[0.4449187],0.005,0.1,0.6179390420922207,0.10486340665218638,0
1.7157442569732666,0.1823070027153133,[0.44816714],0.005,0.1,0.5898630596790029,0.15554280780287869,0
1.726480484008789,0.18543338218310007,[0.45144977],0.005,0.1,0.5664264436565373,0.15405245785225463,0
1.7358107566833496,0.18816896421741344,[0.45477296],0.005,0.1,0.5421395433323499,0.153747766868555,0
1.7432832717895508,0.1905137488182535,[0.45812989],0.005,0.1,0.5156876880045382,0.11469548875887005,0
1.7529494762420654,0.19324933085256688,[0.46150869],0.005,0.1,0.48737631742182025,0.1267552557569218,0
1.7608416080474854,0.19559411545340694,[0.46490572],0.005,0.1,0.4579968275287313,0.13778945117757513,0
1.7684569358825684,0.19793890005424694,[0.46831814],0.005,0.1,0.42835954436694923,0.10692901981129257,0
1.77828049659729,0.20086988080529702,[0.47173768],0.005,0.1,0.3991300210410415,0.12483749006181231,0
1.7885065078735352,0.20399626027308376,[0.47516455],0.005,0.1,0.3707958455617403,0.1407828995526565,0
1.7983644008636475,0.20712263974087047,[0.47860635],0.005,0.1,0.3436839152833042,0.15504389518106246,0
1.807328701019287,0.20985822177518385,[0.48207069],0.005,0.1,0.31799260772908644,0.16873167440477235,0
1.8163554668426514,0.21278920252623387,[0.48555797],0.005,0.1,0.01778581815589636,0.13043004038248096,0
1.8263754844665527,0.2159155819940206,[0.48906247],0.005,0.1,-0.03795073674761071,0.154361453501816,0
1.8358302116394043,0.21884656274507067,[0.49258765],0.005,0.1,-0.003922521814900312,0.17679008022754086,0
1.8446030616760254,0.22177754349612072,[0.49614504],0.005,0.1,0.05259165842965289,0.19761569324250106,0
1.8523304462432861,0.22412232809696078,[0.49973776],0.005,0.1,-0.17106083432169086,0.15403670085201993,0
1.862257480621338,0.22763950499822086,[0.50336166],0.005,0.1,-0.1643419324644072,0.18576869005128818,0
1.8713672161102295,0.2303750870325342,[0.5070224],0.005,0.1,0.1932904299722647,0.21577197849482996,0
1.881479263305664,0.2336968652170576,[0.51073424],0.005,0.1,0.3176089330141587,0.24289593833853806,0
1.8943493366241455,0.23799563698526438,[0.51451981],0.005,0.1,0.6154069102354588,0.3650352183747657,0
1.9036576747894287,0.24151281388652443,[0.5184089],0.005,0.1,0.6290604198689727,0.36528271523175954,0
1.9128391742706299,0.2450299907877845,[0.52241889],0.005,0.1,0.8171148787491292,0.37092423994804846,0
1.9202640056610107,0.24796097153883453,[0.52654623],0.005,0.1,1.015790717554423,0.27375024928949626,0
1.9285995960235596,0.25128274972335796,[0.53077832],0.005,0.1,1.4439871023907156,0.31279422779602517,0
1.9407627582550049,0.2563631163585114,[0.5351251],0.005,0.1,1.847403944701365,0.47559312160980394,0
1.949279546737671,0.2596848945430347,[0.53961586],0.005,0.1,2.1440237269433506,0.4754524206454287,0
1.9582419395446777,0.2633974701610315,[0.54425447],0.005,0.1,2.3241688124938795,0.3450242710059631,0
1.9695663452148438,0.2678916406459749,[0.54903381],0.005,0.1,2.4046914537052975,0.5314889612503246,0
1.9782395362854004,0.27160421626397163,[0.55395811],0.005,0.1,2.1329417088861486,0.38389737083822906,0
1.987325668334961,0.2755121905987051,[0.55901906],0.005,0.1,1.4977590470955509,0.42534468930786085,0
1.9960126876831055,0.2788339687832284,[0.56420922],0.005,0.1,0.8482625832151188,0.46304365747255094,0
2.0052638053894043,0.2825465444012252,[0.56953285],0.005,0.1,0.30738225220052134,0.4948570020461366,0
2.014727830886841,0.2862591200192219,[0.57499291],0.005,0.1,-0.3754833678436351,0.5225279982622563,0
2.022812604904175,0.28919010077027196,[0.58057927],0.005,0.1,-0.9698179827327668,0.38951422452070084,0
2.0315299034118652,0.292707277671532,[0.58627067],0.005,0.1,-1.411084221340219,0.45070671681508884,0
2.0407774448394775,0.2968106507230021,[0.59206016],0.005,0.1,-1.4262504871148547,0.5006900571926912,0
2.0511133670806885,0.3009140237744722,[0.59795294],0.005,0.1,-1.5602543249733674,0.5408960561071599,0
2.0612778663635254,0.30501739682594226,[0.60395267],0.005,0.1,-1.6883400799502082,0.5734888844524871,0
2.0724449157714844,0.3095115673108857,[0.61006159],0.005,0.1,-1.769923837834026,0.5998560300877489,0
2.0843329429626465,0.3143965352293024,[0.61629294],0.005,0.1,-1.799793952602014,0.833166278581281,0
2.0952816009521484,0.3186953069975092,[0.62266914],0.005,0.1,-1.7857394250495708,0.7916000313472181,0
2.1047539710998535,0.3224078826155059,[0.62919561],0.005,0.1,-1.7387826498043157,0.7671006469837797,0
2.113325595855713,0.32572966080002924,[0.63586336],0.005,0.1,-1.6692877463009266,0.7563618006170134,0
2.1223392486572266,0.3292468377012893,[0.64265103],0.005,0.1,-1.585708144208449,0.5473150912528844,0
2.1305506229400635,0.3325686158858127,[0.64952709],0.005,0.1,-1.4944448958373082,0.6057519729519677,0
2.140888214111328,0.33706278637075615,[0.6564767],0.005,0.1,-1.4001141918049538,0.6538179894140547,0
2.148591995239258,0.33999376712180623,[0.66349951],0.005,0.1,-1.5819555901928233,0.697713574073875,0
2.1572437286376953,0.3435109440230663,[0.67058213],0.005,0.1,-1.523152713105382,0.522981712192708,0
2.1663453578948975,0.347223519641063,[0.67770032],0.005,0.1,-1.3797570934041903,0.6073237971887596,0
2.175629138946533,0.3505452978255864,[0.6848466],0.005,0.1,-1.2198106932037605,0.6798888846296691,0
2.184701442718506,0.35464867087705654,[0.69202784],0.005,0.1,-1.0702870294021694,0.7386643650990139,0
2.1932778358459473,0.3581658477783165,[0.6992503],0.005,0.1,-0.9396855384905198,0.7900761185028854,0
2.2025585174560547,0.36187842339631326,[0.7065063],0.005,0.1,-0.8287150440607827,0.5938080808855024,0
2.215007781982422,0.3675449861816767,[0.71378986],0.005,0.1,-0.7352055439110851,0.9498483987298794,0
2.224213123321533,0.37086676436620014,[0.72110963],0.005,0.1,-0.6562628224211127,0.6989012813142645,0
2.233233690261841,0.3741885425507235,[0.7284597],0.005,0.1,-0.5891345668735641,0.7852544767481746,0
2.245065927505493,0.37907351046914023,[0.7358495],0.005,0.1,-0.5314953231110735,1.1623740727639127,0
2.2564697265625,0.383372282237347,[0.74331491],0.005,0.1,-0.48148505358092203,1.1409078700975055,0
2.2682693004608154,0.38825725015576373,[0.75087273],0.005,0.1,-0.4376554443212916,1.1307432677524127,0
2.2783353328704834,0.39216522449049723,[0.75852324],0.005,0.1,-0.3988917680963031,1.135556747685317,0
2.290116310119629,0.39724559112565055,[0.76628085],0.005,0.1,-0.3643377195740347,1.519056391533245,0
2.298980951309204,0.40095816674364737,[0.77417186],0.005,0.1,-0.3333323877563481,1.4319815532414002,0
2.306281805038452,0.4038891474946974,[0.78218895],0.005,0.1,-0.30536076710988785,1.0205875825104358,0
2.316359519958496,0.4077971218294308,[0.79029624],0.005,0.1,-0.2800162801779782,1.0932738483394302,0
2.3243069648742676,0.4111189000139542,[0.79846274],0.005,0.1,-0.25697298745714403,0.8272960998571368,0
2.3358569145202637,0.4158084692156343,[0.80667692],0.005,0.1,-0.23596522903976563,1.3297992496271955,0
2.344611167907715,0.41932564611689427,[0.81495889],0.005,0.1,-0.21677280401890797,1.355097559753147,0
2.353259563446045,0.4230382217348911,[0.82332566],0.005,0.1,-0.19921020345745616,1.3803324045088918,0
2.3624160289764404,0.4269461960696245,[0.83176132],0.005,0.1,-0.4591571377157191,1.0193337284336905,0
2.3708057403564453,0.43026797425414787,[0.84023702],0.005,0.1,-0.47752397934565183,1.151531719303649,0
2.3804714679718018,0.43398054987214457,[0.8487437],0.005,0.1,-0.4088820434875205,1.2633203487461397,0
2.391322374343872,0.43808392292361464,[0.85728919],0.005,0.1,-0.32035866456930734,1.3546875092458683,0
2.399214744567871,0.4412103023914014,[0.8658648],0.005,0.1,-0.5144469586841296,1.0263918402957368,0
2.4110195636749268,0.44609527030981816,[0.87446352],0.005,0.1,-0.48044771245086393,1.6361592536911922,0
2.421231746673584,0.45019864336128823,[0.88311098],0.005,0.1,-0.37369876246047373,1.6593935684599588,0
2.4310245513916016,0.4541066176960216,[0.89182889],0.005,0.1,-0.2593223232088415,1.6833523501954206,0
2.441394567489624,0.45820999074749164,[0.90061977],0.005,0.1,-0.1611094879944367,1.7114235728357508,0
2.4502387046813965,0.46192256636548845,[0.90948544],0.005,0.1,-0.08482845811479933,1.744223536759543,0
2.4593193531036377,0.46543974326674853,[0.91841108],0.005,0.1,-0.0290849237328105,1.2928941016538777,0
2.468205451965332,0.4693477176014819,[0.92736782],0.005,0.1,0.009803284651267785,1.4535669300461023,0
2.4773027896881104,0.4730602932194786,[0.93634732],0.005,0.1,0.03575767905522889,1.5893228682355334,0
2.4886364936828613,0.47774986242115874,[0.94537496],0.005,0.1,0.05218695827211686,2.271188832947623,0
2.4994306564331055,0.48204863418936544,[0.9544884],0.005,0.1,0.06180134384829324,2.198751911245474,0
2.5071964263916016,0.4851750136571522,[0.96368642],0.005,0.1,0.34269134396525386,1.5933314341413123,0
2.5154592990875244,0.4884967918416756,[0.97293473],0.005,0.1,0.37741233613577496,1.7308372157413239,0
2.5233137607574463,0.49181857002619894,[0.98220396],0.005,0.1,0.32174097120159423,1.3247628354893883,0
2.5358567237854004,0.49650813922787906,[0.99148573],0.005,0.1,0.24367993496268145,2.117628839915641,0
2.5442850589752197,0.4998299174124025,[1.00078957],0.005,0.1,0.17031686222960946,1.5743184567045923,0
2.552323341369629,0.5033470943136626,[1.0101071],0.005,0.1,0.11036171521783995,1.758185686628787,0
2.564767360687256,0.5086228596655527,[1.01944803],0.005,0.1,0.06479105763800863,2.554484199155781,0
2.573242425918579,0.511944637850076,[1.02883716],0.005,0.1,0.03173313790371328,1.85350503072629,0
2.5837526321411133,0.5164388083350194,[1.03827866],0.005,0.1,0.008604526850388688,2.6673830490103096,0
2.592205286026001,0.5197605865195428,[1.04777573],0.005,0.1,-0.007035665029726263,1.9335539052935728,0
2.602241277694702,0.523863959571013,[1.05733065],0.005,0.1,-0.017208521498452554,2.7737013911086708,0
2.6102473735809326,0.5269903390387995,[1.06694492],0.005,0.1,-0.02348155097774886,2.0120551640777222,0
2.6212637424468994,0.5312891108070064,[1.07660252],0.005,0.1,-0.027025181953572834,2.1555544758303853,0
2.6311421394348145,0.5353924838584764,[1.08628966],0.005,0.1,-0.028692354542539204,2.278696902100943,0
2.6410698890686035,0.5394958569099465,[1.09601133],0.005,0.1,-0.02909423648445341,2.377511070658923,0
2.649212598800659,0.5426222363777332,[1.10575456],0.005,0.1,-0.028663206431186375,1.7959980120606078,0
2.6592283248901367,0.5465302107124667,[1.11549129],0.005,0.1,-0.02770191594848076,2.0372254788200452,0
2.6683154106140137,0.5500473876137267,[1.12521488],0.005,0.1,-0.026420103807861528,2.233447842622516,0
2.678820848464966,0.5543461593819334,[1.13495382],0.005,0.1,-0.02496158675437412,3.1736867244029754,0
2.6872661113739014,0.5580587349999302,[1.14474909],0.005,0.1,-0.023423749918006664,3.0715051207687414,0
2.6958861351013184,0.5615759119011904,[1.15460076],0.005,0.1,-0.021871476111545482,2.2392465121506113,0
2.70619535446167,0.5656792849526604,[1.16447416],0.005,0.1,-0.020347027910566563,2.409911584192924,0
2.717233180999756,0.570564252871077,[1.17435653],0.005,0.1,-0.0188770203777555,2.5456370728534856,0
2.727177619934082,0.5742768284890738,[1.18425373],0.005,0.1,-0.017477319926835502,2.655143113238368,0
2.7391884326934814,0.5789663976907539,[1.19417036],0.005,0.1,0.259881886075736,2.735890151070815,0
2.7481770515441895,0.5826789733087506,[1.20410984],0.005,0.1,0.2942448614139853,2.8061422538902927,0
2.759202241897583,0.5873685425104307,[1.21407463],0.005,0.1,0.24030314682708437,2.8596040357480197,0
2.7697200775146484,0.5918627129953741,[1.22408316],0.005,0.1,0.1652926100938313,3.8002669065893855,0
2.778221368789673,0.5953798898966343,[1.23415036],0.005,0.1,0.09576640328766484,2.7181748119144653,0
2.7861831188201904,0.5981154719309476,[1.24425435],0.005,0.1,0.04006693317174334,2.825259302213297,0
2.797826051712036,0.6030004398493644,[1.25439286],0.005,0.1,-0.0010782316059186094,3.8143445405463616,0
2.805692672729492,0.6059314206004144,[1.26458026],0.005,0.1,-0.029706389977704098,2.7516492835793307,0
2.8142032623291016,0.6092531987849378,[1.27479451],0.005,0.1,-0.048508245516395626,2.881584591573073,0
2.822183132171631,0.6123795782527245,[1.28499988],0.005,0.1,-0.059991580044272796,2.206695842952345,0
2.8321852684020996,0.6164829513041946,[1.29516627],0.005,0.1,-0.06621661828583977,2.4980778672931203,0
2.8411738872528076,0.620390925638928,[1.30528554],0.005,0.1,-0.3448094881165369,2.736230380605457,0
2.8499643802642822,0.623908102540188,[1.31536835],0.005,0.1,-0.3779960809150532,2.925120253184217,0
2.8591933250427246,0.6278160768749216,[1.32540742],0.005,0.1,-0.045282087227858814,2.2609400542486293,0
2.870340347290039,0.632310247359865,[1.33539728],0.005,0.1,0.06654126187519875,3.4546313292197284,0
2.878202199935913,0.6350458293941783,[1.34535084],0.005,0.1,0.08519289195017415,2.606869633272257,0
2.8882150650024414,0.6391492024456484,[1.35526282],0.005,0.1,0.06927710408041979,2.867646058310915,0
2.898296594619751,0.643447974213855,[1.36512945],0.005,0.1,0.04442328207874066,3.0743193970770055,0
2.9080076217651367,0.6471605498318519,[1.3749651],0.005,0.1,0.020880559881949236,3.245428081837087,0
2.917515277862549,0.6508731254498485,[1.38478257],0.005,0.1,0.00198256232114535,3.3821986067968153,0
2.9265127182006836,0.6547810997845819,[1.39459318],0.005,0.1,-0.0118530051181616,3.4938962544043024,0
2.9352071285247803,0.6581028779691054,[1.40440679],0.005,0.1,-0.021287476183503577,3.590081954716157,0
2.9442310333251953,0.661815453587102,[1.41421478],0.005,0.1,-0.02725679499974517,2.7386784668670456,0
2.9522180557250977,0.6651372317716254,[1.42399309],0.005,0.1,-0.03064908267673355,3.055683583783248,0
2.9605698585510254,0.6688498073896222,[1.43373884],0.005,0.1,-0.0321992426761205,3.3113511230150023,0
2.972167730331421,0.6733439778745656,[1.44346718],0.005,0.1,-0.03247531625135281,3.505745693791347,0
2.980275869369507,0.6768611547758258,[1.45317416],0.005,0.1,0.24413938345507274,2.7238432137076902,0
2.9892048835754395,0.6803783316770857,[1.46283982],0.005,0.1,0.278388086933804,3.091493848874729,0
3.000286817550659,0.6850679008787659,[1.47246502],0.005,0.1,0.22474702892298976,3.382005532546836,0
3.0094192028045654,0.6885850777800259,[1.48206822],0.005,0.1,0.1503003043875475,3.614771783254629,0
3.021528482437134,0.693274646981706,[1.4916827],0.005,0.1,0.08149542924025166,4.944927448806374,0
3.032130479812622,0.6973780200331761,[1.50135385],0.005,0.1,0.026602210723032205,4.754415681326558,0
3.0459282398223877,0.702849184101803,[1.51111944],0.005,0.1,0.26233739030901904,5.898615273979457,0
3.055194854736328,0.7065617597197996,[1.52101017],0.005,0.1,-0.00835953807822018,5.429172819511438,0
3.064192771911621,0.710469734054533,[1.53101598],0.005,0.1,-0.1145565147036544,3.931640438354443,0
3.07220458984375,0.7137915122390565,[1.54109241],0.005,0.1,0.1298059565522887,4.071834576726473,0
3.081205129623413,0.7173086891403164,[1.5512179],0.005,0.1,0.16302366932999546,4.193650072303271,0
3.090087890625,0.7210212647583132,[1.56139049],0.005,0.1,-0.1560532392607303,4.287452290005147,0
3.0985183715820312,0.7243430429428366,[1.57160749],0.005,0.1,-0.25003340474993846,4.363386014996237,0
3.1075587272644043,0.7280556185608333,[1.58186559],0.005,0.1,-0.25067578666058565,4.419601510248307,0
3.115248680114746,0.7311819980286202,[1.59214405],0.005,0.1,-0.21813324025600297,3.390672535860073,0
3.123969793319702,0.7348945736466168,[1.60240773],0.005,0.1,-0.17847063186764828,3.7174401377816353,0
3.1349687576293945,0.7393887441315602,[1.61264338],0.005,0.1,-0.1419096115318913,3.963004924948121,0
3.1458022594451904,0.743687515899767,[1.62285634],0.005,0.1,-0.1115909810744952,4.147456478530969,0
3.1546058654785156,0.7470092940842904,[1.63305081],0.005,0.1,-0.08770384817197596,4.285282790337343,0
3.164181709289551,0.7507218697022872,[1.64321343],0.005,0.1,-0.0693737665555853,3.335549592263388,0
3.1736886501312256,0.7548252427537571,[1.65333258],0.005,0.1,-0.05548328576168865,4.79399011451608,0
3.182241201400757,0.7581470209382805,[1.66341491],0.005,0.1,-0.04499574835438182,3.6618671408046874,0
3.191253423690796,0.762054995273014,[1.67344974],0.005,0.1,-0.037056641844615996,3.9347257152293302,0
3.200417995452881,0.7659629696077473,[1.68344426],0.005,0.1,-0.031001880618641786,5.325770705812885,0
3.208181858062744,0.7688939503587974,[1.69340471],0.005,0.1,-0.02633226063954987,5.399180729100532,0
3.218189239501953,0.7728019246935308,[1.70328803],0.005,0.1,-0.022679896810346892,5.198279790414485,0
3.228203773498535,0.7767098990282643,[1.7130746],0.005,0.1,-0.01977687982717594,5.059559035675916,0
3.2371790409088135,0.7806178733629977,[1.72278082],0.005,0.1,-0.017429403197356964,4.966446223891637,0
3.2472147941589355,0.7847212464144676,[1.73242108],0.005,0.1,-0.015497678282558013,4.9043450572394125,0
3.2555770874023438,0.788043024598991,[1.74200771],0.005,0.1,-0.01388088101445659,4.857726033687263,0
3.2647411823272705,0.7917556002169878,[1.75155127],0.005,0.1,-0.012506111357320913,4.8463005127476055,0
3.2721807956695557,0.794686580968038,[1.76104525],0.005,0.1,-0.011320407489534102,3.7552918597451095,0
3.2822749614715576,0.7987899540195079,[1.7704686],0.005,0.1,-0.010285021650889407,4.041830630737939,0
3.2938055992126465,0.8032841245044513,[1.77983502],0.005,0.1,-0.00937134126717029,5.423830411045142,0
3.3015007972717285,0.8064105039722381,[1.789172],0.005,0.1,-0.008557993217554523,4.121346868149083,0
3.31085467338562,0.8103184783069715,[1.79847162],0.005,0.1,-0.007828792390482925,4.317307326229254,0
3.319228172302246,0.8134448577747583,[1.80771175],0.005,0.1,-0.0071712896174317715,3.4708734642432115,0
3.3282384872436523,0.8173528321094915,[1.81687416],0.005,0.1,-0.006575743669292367,3.8464684124175155,0
3.3372256755828857,0.821260806444225,[1.82595926],0.005,0.1,-0.282072752303516,4.135888764578415,0
3.3463146686553955,0.8249733820622217,[1.83498313],0.005,0.1,-0.31470389916652597,4.345459875987094,0
3.3541862964630127,0.8280997615300084,[1.8439594],0.005,0.1,-0.2591558738451284,4.497531088729537,0
3.3646962642669678,0.8322031345814787,[1.85289911],0.005,0.1,-0.4586967690839853,4.578902217387272,0
3.3742151260375977,0.8359157101994752,[1.86181095],0.005,0.1,-0.4209208057401705,4.651238306066535,0
3.3824820518493652,0.839042089667262,[1.87068721],0.005,0.1,-0.3088551972992047,3.696269178608832,0
3.3912487030029297,0.8425592665685222,[1.8795062],0.005,0.1,-0.19045452637320595,3.982849046306135,0
3.40079927444458,0.8464672409032555,[1.88826372],0.005,0.1,-0.09022463848637466,4.190784931197593,0
3.4093284606933594,0.850375215237989,[1.89697048],0.005,0.1,-0.013806725774886737,4.327672107484141,0
3.4192161560058594,0.8540877908559856,[1.90562089],0.005,0.1,0.040590008224299895,3.5041943652555103,0
3.4271647930145264,0.8570187716070357,[1.9141957],0.005,0.1,0.07707346311951509,3.8032193980576934,0
3.4372544288635254,0.8611221446585058,[1.9226923],0.005,0.1,0.09993210415576317,4.006496387725699,0
3.4462924003601074,0.8644439228430292,[1.93112181],0.005,0.1,0.11286122808272732,4.135189882005443,0
3.4556682109832764,0.8685472958944992,[1.93949259],0.005,0.1,0.1187821792173529,4.196097124895335,0
3.4641449451446533,0.8722598715124958,[1.94779757],0.005,0.1,0.11989613184660847,3.409915441254112,0
3.472188949584961,0.8755816496970192,[1.95601678],0.005,0.1,0.11781182637541376,3.624119596362973,0
3.4826552867889404,0.879880421465226,[1.96414534],0.005,0.1,0.11367995791893598,3.7597695937776625,0
3.4916253089904785,0.8835929970832228,[1.97219097],0.005,0.1,0.10830966969294725,3.8265763818165404,0
3.500232219696045,0.8869147752677462,[1.98014719],0.005,0.1,0.37829960870635826,3.1662327796189498,0
3.5101583003997803,0.8910181483192163,[1.98799588],0.005,0.1,0.4050794974952552,3.352059582266207,0
3.5184545516967773,0.8945353252204764,[1.99574421],0.005,0.1,0.3435966172719951,4.16653531974261,0
3.5282461643218994,0.8984432995552097,[2.00342003],0.005,0.1,0.26125171326191926,3.9958126588515572,0
3.5372097492218018,0.9019604764564698,[2.01102323],0.005,0.1,0.18469974879534012,3.233049241092581,0
3.5462570190429688,0.9056730520744666,[2.01853061],0.005,0.1,0.12234158712480618,3.2989797588958814,0
3.556227207183838,0.9095810264092,[2.02593249],0.005,0.1,0.07493378162653262,3.3229678598931667,0
3.565850257873535,0.9136843994606699,[2.03323045],0.005,0.1,0.04044826848095041,3.3099868339791723,0
3.5732107162475586,0.9164199814949833,[2.0404149],0.005,0.1,-0.25984775792985243,2.799438537314937,0
3.585172414779663,0.9213049494134001,[2.04747655],0.005,0.1,-0.30952199182030227,3.3655316557280788,0
3.596208095550537,0.9257991198983436,[2.05442562],0.005,0.1,-0.26534364017808615,3.2439328970295556,0
3.606226682662964,0.929707094233077,[2.06126944],0.005,0.1,-0.1961545191242322,3.1345960523520744,0
3.616149663925171,0.933810467284547,[2.06800343],0.005,0.1,-0.1297040090905724,3.0343889406890114,0
3.6269359588623047,0.9385000364862272,[2.0746227],0.005,0.1,-0.07520448060270027,2.9370288421239685,0
3.638341188430786,0.9431896056879073,[2.08112214],0.005,0.1,-0.03400562481811841,2.8459852529579273,0
3.648176670074463,0.9469021813059041,[2.08749654],0.005,0.1,-0.004509300745222419,2.766075577936502,0
3.6581716537475586,0.9508101556406374,[2.09374067],0.005,0.1,0.015668618151686364,2.68882887311095,0
3.6700143814086914,0.9558905222757909,[2.09985589],0.005,0.1,0.02882418257361117,2.8886871635177815,0
3.680180788040161,0.9597984966105241,[2.10584884],0.005,0.1,0.31291146110216844,2.7150665369635605,0
3.6907732486724854,0.9640972683787309,[2.11171747],0.005,0.1,0.3504688714408064,2.582741067967133,0
3.7001681327819824,0.9678098439967278,[2.11744718],0.005,0.1,0.29730212980062276,2.2876175459968864,0
3.7092556953430176,0.9713270208979877,[2.12301985],0.005,0.1,0.22145626657736928,2.27281403632711,0
3.7181599140167236,0.9748441977992479,[2.12842586],0.005,0.1,0.1500609650178237,2.246267290254556,0
3.726635456085205,0.9785567734172447,[2.13366301],0.005,0.1,0.09186312003008525,2.2243622037403847,0
3.735161304473877,0.9816831528850313,[2.13872534],0.005,0.1,0.04787008916571463,2.076718852782968,0
3.743152141571045,0.984809532352818,[2.14359924],0.005,0.1,-0.2598031164352795,1.9897906905770744,0
3.7537386417388916,0.989499101554498,[2.14827883],0.005,0.1,-0.03872907248273126,2.1181930233695216,0
3.763150215148926,0.9930162784557581,[2.15276979],0.005,0.1,0.03502390666619973,2.004943820425599,0
3.7722580432891846,0.9967288540737549,[2.15707357],0.005,0.1,0.04690615002999478,2.012912932803856,0
3.7838518619537354,1.0012230245586982,[2.16119597],0.005,0.1,0.03604551643158833,2.0930521442892953,0
3.79116153717041,1.0041540053097484,[2.16514712],0.005,0.1,-0.2565457090407453,1.9821512082908064,0
3.80324649810791,1.0092343719449017,[2.16893218],0.005,0.1,-0.3051449440697279,2.0387761138087077,0
3.8158352375030518,1.0141193398633186,[2.17256282],0.005,0.1,-0.2622831641915315,2.06595109805065,0
3.8241755962371826,1.0180273141980518,[2.17605268],0.005,0.1,-0.19496727771972583,2.0054066601120595,0
3.8346407413482666,1.0217398898160488,[2.17940674],0.005,0.1,-0.1302275800218708,1.9601071933640188,0
3.843217372894287,1.0252570667173089,[2.18262358],0.005,0.1,-0.07705522671153803,1.8809161026102863,0
3.851691484451294,1.028774243618569,[2.18569998],0.005,0.1,-0.0367856427024221,1.8701638217674148,0
3.862215518951416,1.0326822179533022,[2.18863706],0.005,0.1,-0.00788054365761097,1.856315100265272,0
3.8712222576141357,1.0361993948545623,[2.19143951],0.005,0.1,0.01196778893406458,1.843406923229996,0
3.880589008331299,1.0397165717558223,[2.19411203],0.005,0.1,0.024985046068269928,1.8301145802139451,0
3.8898940086364746,1.0438199448072925,[2.19665938],0.005,0.1,0.033029597496788354,1.8137366413773623,0
3.89815354347229,1.0471417229918158,[2.19908417],0.005,0.1,0.313586477425402,1.7790180286208592,0
3.9066927433013916,1.0506588998930757,[2.20138729],0.005,0.1,0.3487851225368218,1.7733202649947954,0
3.916625499725342,1.054762272944546,[2.20357264],0.005,0.1,0.2941052519954203,1.7624984205782797,0
3.9263737201690674,1.0586702472792793,[2.20564657],0.005,0.1,0.21734441179281155,1.7510388956502265,0
3.935851573944092,1.0621874241805394,[2.20761517],0.005,0.1,0.14544992605631257,1.7403615272949176,0
3.945884943008423,1.0664861959487462,[2.20948426],0.005,0.1,0.0870369596350834,1.725071837809914,0
3.954909324645996,1.0700033728500062,[2.21125938],0.005,0.1,0.04301906253787031,1.7130623270123089,0
3.9642927646636963,1.0739113471847397,[2.21294581],0.005,0.1,0.01148354946091645,1.6991420206987096,0
3.9748940467834473,1.0782101189529465,[2.21454862],0.005,0.1,-0.010178691070410395,1.6831090927393977,0
3.9821293354034424,1.0811410997039963,[2.2160711],0.005,0.1,-0.02442376784817167,1.664870340097439,0
3.99031925201416,1.0840720804550465,[2.21751512],0.005,0.1,-0.033280868095425395,1.6581279866262746,0
4.000189781188965,1.0877846560730433,[2.21888298],0.005,0.1,-0.038320820435699066,1.6406537648395485,0
4.011477470397949,1.0924742252747233,[2.2201787],0.005,0.1,-0.04071421036005478,1.6322250836612786,0
4.019159555435181,1.09560060474251,[2.22140757],0.005,0.1,-0.041312092576503326,1.6158871407172672,0
4.028145790100098,1.0993131803605067,[2.22257313],0.005,0.1,-0.04072247857896254,1.6042176033312758,0
4.036640644073486,1.1026349585450301,[2.2236787],0.005,0.1,-0.039373847717129005,1.5938238570067442,0
4.046175003051758,1.1065429328797636,[2.22472877],0.005,0.1,-0.037564567116109386,1.5801739607867427,0
4.055201053619385,1.1102555084977603,[2.22572749],0.005,0.1,-0.03549994580790561,1.5673655964090922,0
4.063154458999634,1.1135772866822837,[2.22667768],0.005,0.1,-0.033319383490789056,1.5531616121540217,0
4.074152946472168,1.1178760584504905,[2.22758108],0.005,0.1,-0.031115962407261877,1.5383278364647437,0
4.083403825759888,1.1213932353517506,[2.22844161],0.005,0.1,-0.028950439257846898,1.5294200604874773,0
4.0911149978637695,1.1243242161028004,[2.22926396],0.005,0.1,-0.02686116337057401,1.5165123461562984,0
4.101098299026489,1.1286229878710075,[2.23005128],0.005,0.1,-0.024871067559805872,1.503469663912581,0
4.109204292297363,1.1317493673387942,[2.23080649],0.005,0.1,-0.02299257312706047,1.4901106831217432,0
4.118922710418701,1.1360481391070005,[2.23153043],0.005,0.1,-0.021231017402652052,1.4732640772650734,0
4.128151178359985,1.1395653160082608,[2.23222311],0.005,0.1,-0.019587039321200518,1.4613289946221195,0
4.139795541763306,1.144254885209941,[2.23288749],0.005,0.1,-0.018058232604312552,1.44582794142719,0
4.150209188461304,1.1481628595446745,[2.2335281],0.005,0.1,-0.016640285551880938,1.4314917391534954,0
4.1593406200408936,1.1516800364459343,[2.23414719],0.005,0.1,-0.015327761824637125,1.4177888884894028,0
4.167968273162842,1.155392612063931,[2.23474509],0.005,0.1,-0.014114630774487708,1.4047835659182324,0
4.179174900054932,1.1600821812656115,[2.23532303],0.005,0.1,-0.01299462349651396,1.3877885196341941,0
4.189186096191406,1.164380953033818,[2.23588302],0.005,0.1,-0.011961467974120888,1.3723513842288422,0
4.198296546936035,1.1678981299350781,[2.2364269],0.005,0.1,-0.011009040650553381,1.3601099332051059,0
4.208177328109741,1.1718061042698116,[2.23695626],0.005,0.1,-0.28616982018927545,1.3463363550605727,0
4.216118812561035,1.1747370850208614,[2.2374718],0.005,0.1,-0.3184861067043764,1.336001218703643,0
4.225127935409546,1.1782542619221215,[2.23797345],0.005,0.1,-0.26264453874763627,1.323980710213863,0
4.234147310256958,1.1819668375401182,[2.23846199],0.005,0.1,-0.18587430509768235,1.311202653487744,0
4.245110750198364,1.186265609308325,[2.23893897],0.005,0.1,-0.11472089382694592,1.2961429490103702,0
4.255209445953369,1.1901735836430585,[2.23940574],0.005,0.1,-0.05751859677769748,1.2826188000372531,0
4.263864517211914,1.1936907605443183,[2.23986347],0.005,0.1,-0.014986771785889669,1.2706852126307406,0
4.274118185043335,1.1979895323125254,[2.24031322],0.005,0.1,0.014919955716389509,1.255814353109391,0
4.286867141723633,1.2030698989476787,[2.24075657],0.005,0.1,0.03490008413313397,1.2386111784042533,0
4.297769784927368,1.2073686707158855,[2.24119553],0.005,0.1,0.047468822235433875,1.223692121593988,0
4.307121753692627,1.211081246333882,[2.2416311],0.005,0.1,0.054693406550303844,1.2111746311867104,0
4.316368103027344,1.214793821951879,[2.24206343],0.005,0.1,0.058168181447145736,1.1988166062150785,0
4.326113939285278,1.2190925937200856,[2.24249262],0.005,0.1,0.0590772923036435,1.1844204275100925,0
4.334929943084717,1.2226097706213457,[2.24291873],0.005,0.1,0.05827860076870896,1.1729721392606953,0
4.343129873275757,1.226126947522606,[2.24334113],0.005,0.1,-0.2196559546325036,1.1615584969465922,0
4.352618455886841,1.2298395231406025,[2.24375929],0.005,0.1,-0.25534646153813734,1.149740023750572,0
4.361052751541138,1.233161301325126,[2.24417335],0.005,0.1,-0.2031890309776701,1.139134404057544,0
4.372642517089844,1.2374600730933325,[2.24458287],0.005,0.1,-0.13021620798787842,1.125265614864658,0
4.381680727005005,1.2409772499945926,[2.2449874],0.005,0.1,-0.06284307050808685,1.1142021539701579,0
4.394702911376953,1.2460576166297461,[2.24538778],0.005,0.1,-0.28535817071623504,1.0979377847811764,0
4.4041197299957275,1.2499655909644793,[2.24578473],0.005,0.1,-0.2794767566930204,1.0855627008242725,0
4.413614749908447,1.253873565299213,[2.24617822],0.005,0.1,-0.19781541267141836,1.0734812849626805,0
4.422100782394409,1.2571953434837364,[2.24656821],0.005,0.1,-0.1048948016024294,1.0633819232506014,0
4.432565450668335,1.2612987165352065,[2.24695463],0.005,0.1,-0.024744885028063664,1.0507624903717665,0
4.440565586090088,1.26462049471973,[2.24733744],0.005,0.1,0.03636132239029358,1.040850266804215,0
4.449096918106079,1.2681376716209898,[2.24771603],0.005,0.1,0.07928894018216481,1.0303236935841857,0
4.459183931350708,1.27224104467246,[2.24808936],0.005,0.1,0.1072553374517628,1.0181778879934054,0
4.469378471374512,1.27634441772393,[2.2484571],0.005,0.1,0.1238035421824672,1.0055983762099532,0
4.477874040603638,1.27986159462519,[2.2488195],0.005,0.1,0.1320452875107211,0.9954703407764371,0
4.486385822296143,1.2831833728097135,[2.24917629],0.005,0.1,0.1344618778487991,0.9857902767612418,0
4.495746850967407,1.2870913471444472,[2.24952725],0.005,0.1,0.13293007358160677,0.9743282790074861,0
4.504806041717529,1.290608524045707,[2.24987269],0.005,0.1,0.12882276817938462,0.9641716565430507,0
4.514113426208496,1.2943210996637038,[2.25021288],0.005,0.1,0.12312066621987916,0.9534824285052964,0
4.5221168994903564,1.2970566816980171,[2.2505476],0.005,0.1,0.11651099114668252,0.9462000055695876,0
4.531476736068726,1.3009646560327504,[2.25087618],0.005,0.1,0.10946678390092127,0.9349572115911842,0
4.541174650192261,1.3050680290842205,[2.25119856],0.005,0.1,0.3783458149442907,0.9232022512385132,0
4.553119421005249,1.3099529970026373,[2.25151515],0.005,0.1,0.404406603360359,0.9092017877103971,0
4.562263250350952,1.313665572620634,[2.2518263],0.005,0.1,0.06643712893247916,0.8988181182118179,0
4.571102619171143,1.317182749521894,[2.25213225],0.005,0.1,-0.04929477585839477,0.8891427247301302,0
4.582145690917969,1.3216769200068375,[2.25243322],0.005,0.1,-0.070885584005636,0.8766576485799641,0
4.593182802200317,1.325975691775044,[2.25272978],0.005,0.1,0.21882828120121575,0.8646047237466186,0
4.601463317871094,1.3292974699595674,[2.2530224],0.005,0.1,0.27507231778562585,0.8560590032180346,0
4.610086917877197,1.3326192481440908,[2.25331064],0.005,0.1,-0.03388652488965532,0.8472394556485696,0
4.620065450668335,1.3371134186290345,[2.25359375],0.005,0.1,-0.1252935166007315,0.8355027655947422,0
4.630947828292847,1.3412167916805044,[2.2538715],0.005,0.1,0.14826039800160606,0.8241175288862882,0
4.64239501953125,1.3455155634487113,[2.25414443],0.005,0.1,0.20953899620770303,0.8127916944105809,0
4.6501710414886475,1.3484465441997613,[2.25441304],0.005,0.1,0.18830754092061294,0.8053316938059527,0
4.660932302474976,1.3523545185344947,[2.25467733],0.005,0.1,0.14228213442219306,0.7952627600903583,0
4.673068046569824,1.3578256826031216,[2.25493733],0.005,0.1,0.09531051725534845,0.7809907922821794,0
4.683258533477783,1.3619290556545915,[2.25519307],0.005,0.1,0.05581510130783081,0.7705183669706293,0
4.691579580307007,1.3654462325558518,[2.25544457],0.005,0.1,0.02556136996738067,0.7617282714780585,0
4.700030088424683,1.3689634094571117,[2.25569184],0.005,0.1,-0.27231342609328973,0.7529932987579285,0
4.7093634605407715,1.3726759850751085,[2.25593492],0.005,0.1,-0.32045987295045786,0.7438268365681981,0
4.718183517456055,1.3761931619763685,[2.25617351],0.005,0.1,0.00083791169280234,0.7356040375016276,0
4.728645086288452,1.3802965350278384,[2.25640742],0.005,0.1,0.10400174517805089,0.7250892023797263,0
4.7373785972595215,1.3836183132123618,[2.25663682],0.005,0.1,0.1160772970860059,0.7174920362729226,0
4.746040105819702,1.3873308888303586,[2.25686157],0.005,0.1,0.09513513989852554,0.7084963022301144,0
4.757198095321655,1.3918250593153023,[2.2570816],0.005,0.1,0.06639866856919727,0.6976190133158097,0
4.765932321548462,1.3953422362165622,[2.2572972],0.005,0.1,0.03981557361597926,0.6892671887763517,0
4.776666879653931,1.3994456092680323,[2.25750864],0.005,0.1,0.018498867013475195,0.6795827877792917,0
4.787080526351929,1.4035489823195024,[2.25771615],0.005,0.1,0.00270612531030503,0.6699646543342606,0
4.797097444534302,1.4076523553709723,[2.25791998],0.005,0.1,-0.00833975227542761,0.6604395374094176,0
4.806097030639648,1.410974133555496,[2.25812038],0.005,0.1,-0.015658345846777673,0.6528875300702419,0
4.816091775894165,1.4148821078902292,[2.25831754],0.005,0.1,-0.020198321036768697,0.643989542913938,0
4.824184894561768,1.418008487358016,[2.25851171],0.005,0.1,-0.022738605969405978,0.637026737488089,0
4.832629203796387,1.4217210629760126,[2.25870276],0.005,0.1,-0.023879473230291423,0.6291184049156334,0
4.843088150024414,1.4262152334609561,[2.25889038],0.005,0.1,-0.024066409542574333,0.6189811487392168,0
4.853090047836304,1.4301232077956894,[2.25907458],0.005,0.1,-0.02362186527562256,0.610307260753317,0
4.8648669719696045,1.4344219795638962,[2.25925595],0.005,0.1,-0.0227749852895206,0.6005483246497582,0
4.874986886978149,1.4381345551818931,[2.25943525],0.005,0.1,-0.02168616057578404,0.5926137456298127,0
4.883116006851196,1.441651732083153,[2.25961263],0.005,0.1,-0.020466072428409716,0.5855142422492295,0
4.893651247024536,1.4459505038513598,[2.25978792],0.005,0.1,-0.01918994133421761,0.5760015448876881,0
4.901082754135132,1.4488814846024096,[2.25996129],0.005,0.1,-0.017907950023102664,0.570303022042943,0
4.910717010498047,1.4525940602204066,[2.2601326],0.005,0.1,-0.016652754670943213,0.5625656941860612,0
4.919162273406982,1.45591583840493,[2.26030146],0.005,0.1,-0.01544484167846304,0.5560611437512818,0
4.92807412147522,1.4596284140229265,[2.26046761],0.005,0.1,-0.01429631897417598,0.548352609355772,0
4.9368932247161865,1.4633409896409235,[2.26063108],0.005,0.1,-0.013213583428888143,0.5407379894737633,0
4.946667432785034,1.46705356525892,[2.26079219],0.005,0.1,-0.012199188101176145,0.5332279253021113,0
4.9578375816345215,1.4715477357438635,[2.26095121],0.005,0.1,-0.011253143178644665,0.5242026713415786,0
4.96690821647644,1.475455710078597,[2.26110839],0.005,0.1,-0.01037381790363531,0.5164673486226516,0
4.976274490356445,1.4793636844133302,[2.26126396],0.005,0.1,-0.00955856234263947,0.5088274699614797,0
4.9841039180755615,1.4822946651643805,[2.26141787],0.005,0.1,0.2672342266407761,0.5035558696507966,0
4.9961230754852295,1.4869842343660604,[2.26157011],0.005,0.1,0.30105598108090625,0.49412210896853975,0
5.005077600479126,1.4905014112673207,[2.26172093],0.005,0.1,-0.029436102397203567,0.4877961581392552,0
5.017097234725952,1.494995581752264,[2.26187056],0.005,0.1,0.13798620676208345,0.47894959826156813,0
5.029479265213013,1.4998805496706806,[2.26201969],0.005,0.1,0.15623251745044642,0.4695894101237545,0
5.039130449295044,1.503397726571941,[2.26216895],0.005,0.1,0.12110256739100406,0.4635624816731482,0
5.049445390701294,1.5075010996234108,[2.26231832],0.005,0.1,-0.20203143860534603,0.4558120288298974,0
5.057790756225586,1.5112136752414076,[2.26246782],0.005,0.1,-0.2780445525321532,0.4495069416040095,0
5.066640377044678,1.5147308521426677,[2.26261724],0.005,0.1,0.01933264674266799,0.4432861302427241,0
5.074159383773804,1.517661832893718,[2.26276614],0.005,0.1,0.10416950756657238,0.43849639471307533,0
5.084083557128906,1.5213744085117145,[2.26291415],0.005,0.1,0.10319934176200418,0.4319259631868528,0
5.095156669616699,1.525868578996658,[2.26306147],0.005,0.1,0.07354525278466845,0.42377679815561997,0
5.105474472045898,1.529971952048128,[2.26320877],0.005,0.1,0.03940667441806255,0.4168097571813031,0
5.114724636077881,1.5336845276661246,[2.26335634],0.005,0.1,0.00983754026477342,0.4105959203098316,0
5.12319016456604,1.5373971032841214,[2.26350418],0.005,0.1,-0.012760147845980013,0.4044387335204777,0
5.133095741271973,1.5413050776188546,[2.26365205],0.005,0.1,-0.028666347815748748,0.3983276390237004,0
5.143079042434692,1.5452130519535883,[2.26379948],0.005,0.1,-0.03905171443613867,0.39188545507879846,0
5.152091026306152,1.5487302288548483,[2.26394631],0.005,0.1,-0.04521753248689087,0.38618302057267717,0
5.163064002990723,1.5528336019063185,[2.26409263],0.005,0.1,-0.048310540078770746,0.37960473271197986,0
5.175050258636475,1.557718569824735,[2.26423852],0.005,0.1,-0.04924670477944473,0.37185126182672107,0
5.184061050415039,1.5612357467259954,[2.26438403],0.005,0.1,-0.048719534318665644,0.36637711811861573,0
5.192071914672852,1.5647529236272555,[2.26452918],0.005,0.1,-0.04723669791167266,0.3609851438411868,0
5.201068639755249,1.568465499245252,[2.26467398],0.005,0.1,-0.04516103561227754,0.3553526993199105,0
5.210128545761108,1.5717872774297754,[2.26481844],0.005,0.1,-0.04274692678518985,0.35038335217119704,0
5.219098329544067,1.5753044543310357,[2.2649623],0.005,0.1,-0.3162079154105494,0.34541917585196347,0
5.231096506118774,1.5799940235327155,[2.26510535],0.005,0.1,-0.34671024291318553,0.3381471168498087,0
5.240321636199951,1.5837065991507122,[2.26524783],0.005,0.1,-0.2890239163937957,0.3327560126400725,0
5.250872611999512,1.5878099722021823,[2.26538992],0.005,0.1,-0.21043295832133532,0.3268902371618738,0
5.2613303661346436,1.5919133452536525,[2.26553152],0.005,0.1,-0.13751779542267767,0.32108168172234314,0
5.273038864135742,1.596407515738596,[2.26567254],0.005,0.1,-0.078633905975624,0.31477591000017685,0
5.281986236572266,1.599924692639856,[2.26581286],0.005,0.1,-0.0345124187032029,0.3099312815623981,0
5.292036771774292,1.6038326669745895,[2.2659524],0.005,0.1,-0.003113358488404997,0.30459269121521576,0
5.300084114074707,1.6069590464423762,[2.26609109],0.005,0.1,0.01826061907491406,0.30041884848209693,0
5.308692216873169,1.610671622060373,[2.26622863],0.005,0.1,0.03212633685856078,0.29570727530427626,0
5.320766448974609,1.6153611912620527,[2.26636478],0.005,0.1,0.04055439257195066,0.28917699339472125,0
5.3280417919158936,1.618292172013103,[2.26649952],0.005,0.1,0.04514353780229038,0.2856468848033224,0
5.337224006652832,1.622395545064573,[2.26663266],0.005,0.1,0.04708289380961936,0.2802703950297359,0
5.346667528152466,1.6261081206825696,[2.26676405],0.005,0.1,0.04723554532012413,0.2755042234869954,0
5.355097770690918,1.629429898867093,[2.26689357],0.005,0.1,-0.22982131202685893,0.2715224124652535,0
5.365524768829346,1.6335332719185633,[2.26702111],0.005,0.1,-0.2647026129071142,0.26606810941752074,0
5.373088598251343,1.6364642526696132,[2.26714678],0.005,0.1,-0.21179950608282927,0.2626950661171507,0
5.384065628051758,1.6403722270043464,[2.26727051],0.005,0.1,-0.13813981620134266,0.2578760396273882,0
5.392031669616699,1.6434986064721333,[2.26739223],0.005,0.1,-0.0701341698585134,0.2540768851563522,0
5.402528762817383,1.6477973782403401,[2.26751221],0.005,0.1,-0.016028588302013855,0.24871725376942616,0
5.410565376281738,1.6509237577081268,[2.26763071],0.005,0.1,0.02351345495720008,0.24528529470814775,0
5.420796155929565,1.6552225294763336,[2.26774757],0.005,0.1,0.050570889206037764,0.2402390479215055,0
5.433074235916138,1.6595213012445402,[2.26786268],0.005,0.1,0.06786051617568264,0.23527373850248484,0
5.4421775341033936,1.6632338768625372,[2.26797608],0.005,0.1,-0.19813280579554648,0.2310351964596536,0
5.453064441680908,1.6675326486307438,[2.2680878],0.005,0.1,-0.22638855280299708,0.22619422649450716,0
5.463123321533203,1.6720268191156873,[2.26819786],0.005,0.1,0.10603081357162031,0.22122978556259862,0
5.472090244293213,1.6755439960169474,[2.26830626],0.005,0.1,0.21411715740254042,0.21741679929530514,0
5.484040975570679,1.6802335652186273,[2.26841303],0.005,0.1,-0.04917590292089517,0.2123397397063899,0
5.493847846984863,1.6843369382700975,[2.26851828],0.005,0.1,-0.10539897940692994,0.20784398522291953,0
5.503031015396118,1.6878541151713575,[2.26862209],0.005,0.1,-0.08299834881213178,0.20437993764965257,0
5.5130369663238525,1.6917620895060912,[2.26872426],0.005,0.1,-0.0385410241645448,0.20035357086096794,0
5.524871826171875,1.6962562599910345,[2.26882473],0.005,0.1,0.005034156574953014,0.19561870501416279,0
5.534039258956909,1.6997734368922943,[2.26892356],0.005,0.1,0.03998559275673542,0.19228070785400325,0
5.543210506439209,1.7034860125102913,[2.2690206],0.005,0.1,0.06503958320323076,0.18860841053310762,0
5.554036617279053,1.7073939868450245,[2.26911566],0.005,0.1,-0.1946724967389822,0.18476999915087736,0
5.564218759536743,1.7113019611797582,[2.26920884],0.005,0.1,-0.49439788619656777,0.18084111766213568,0
5.573035717010498,1.7144283406475447,[2.26930023],0.005,0.1,-0.7441269626866334,0.1779903125723437,0
5.582996606826782,1.7181409162655412,[2.26938971],0.005,0.1,-0.9213791783158487,0.17448488268735773,0
5.5930702686309814,1.7218534918835382,[2.26947713],0.005,0.1,-0.7545210139598864,0.17102421057804776,0
5.601340055465698,1.7247844726345882,[2.26956248],0.005,0.1,-0.775546465987537,0.16832509272164098,0
5.610103130340576,1.727910852102375,[2.26964575],0.005,0.1,-0.8437690490134404,0.16546919247582767,0
5.619023084640503,1.7312326302868983,[2.26972688],0.005,0.1,-0.9041015888578544,0.1625794287512566,0
5.62700080871582,1.7339682123212117,[2.26980572],0.005,0.1,-0.93958113316105,0.16009144900036434,0
5.635322332382202,1.737289990505735,[2.26988228],0.005,0.1,-0.9490419258844172,0.15713303591641803,0
5.646162509918213,1.7410025661237318,[2.26995665],0.005,0.1,-1.2129769865496494,0.15385359527197648,0
5.654037237167358,1.7435427494413085,[2.27002885],0.005,0.1,-1.2181110164486018,0.15173071596919743,0
5.664008378982544,1.7464737301923585,[2.27009882],0.005,0.1,-1.4003566762413189,0.14915793647751177,0
5.673008441925049,1.7494047109434088,[2.27016666],0.005,0.1,-1.3121629657055687,0.14663498242314668,0
5.685823202133179,1.7537034827116156,[2.27023264],0.005,0.1,-1.413936987016054,0.14290328049224768,0
5.694028854370117,1.756243666029192,[2.27029703],0.005,0.1,-1.264537950409167,0.14088556466093358,0
5.702861547470093,1.7589792480635058,[2.27035979],0.005,0.1,-1.323510910381935,0.13870429860513636,0
5.715720891952515,1.762887222398239,[2.27042094],0.005,0.1,-1.4224926599340735,0.13537635418601415,0
5.726769208908081,1.7660136018660257,[2.27048082],0.005,0.1,-1.4984807953965462,0.13285041419668464,0
5.73650598526001,1.768749183900339,[2.27053973],0.005,0.1,-1.534645471839558,0.13066123827982834,0
5.747042655944824,1.7714847659346524,[2.27059786],0.005,0.1,-1.5326999602920197,0.12849762568215153,0
5.756331205368042,1.7742203479689658,[2.27065538],0.005,0.1,-1.500460215882084,0.1263556971063047,0
5.765771389007568,1.7767605312865427,[2.27071249],0.005,0.1,-1.1705473976590781,0.1243967382672536,0
5.774008750915527,1.7787145184539093,[2.27076927],0.005,0.1,-1.0694590760373437,0.1229767228491432,0
5.784016132354736,1.7814501004882224,[2.27082573],0.005,0.1,-1.0484255145169625,0.12087759622650233,0
5.791995525360107,1.7835994863723261,[2.270882],0.005,0.1,-1.044584856263879,0.11923570533620532,0
5.8010406494140625,1.7857488722564294,[2.27093834],0.005,0.1,-1.0344750196557806,0.11761821887118384,0
5.812883138656616,1.7886798530074792,[2.27099513],0.005,0.1,-1.0118536763370085,0.11537893197440667,0
5.823035478591919,1.7910246376083194,[2.27105285],0.005,0.1,-0.9773594389719773,0.1136862747410241,0
5.831324815750122,1.7929786247756863,[2.27111178],0.005,0.1,-0.9338677215556767,0.11229067903808258,0
5.841935157775879,1.7953234093765262,[2.27117204],0.005,0.1,-0.8845358292133625,0.11064079636545836,0
5.851127624511719,1.7972773965438928,[2.27123374],0.005,0.1,-0.5560436704606488,0.10926869302234404,0
5.8613927364349365,1.7994267824279964,[2.27129699],0.005,0.1,-0.7454796113986335,0.10777833299162631,0
5.8711676597595215,1.8013807695953632,[2.27136189],0.005,0.1,-0.7807114566433446,0.1064332438732489,0
5.882249355316162,1.8035301554794665,[2.27142849],0.005,0.1,-0.750226994998595,0.10497775101269857,0
5.890692949295044,1.8052887439300964,[2.27149685],0.005,0.1,-0.695371206307958,0.10379395938203499,0
5.898029565811157,1.806656534947253,[2.27156686],0.005,0.1,-0.6347459956840764,0.10294627879658684,0
5.909465551376343,1.8088059208313563,[2.2716384],0.005,0.1,-0.5761648692679834,0.10146349524118264,0
5.9180214405059814,1.8101737118485133,[2.2717115],0.005,0.1,-0.5224583735547002,0.10063048008143043,0
5.928049564361572,1.8119323002991432,[2.27178601],0.005,0.1,-0.19821788295186138,0.09949124493211535,0
5.937647581100464,1.8133000913163,[2.27186182],0.005,0.1,-0.12213088429244529,0.0986162017614431,0
5.946365118026733,1.8146678823334566,[2.27193893],0.005,0.1,-0.1389402691725173,0.0977537283443771,0
5.954031944274902,1.8158402746338766,[2.27201717],0.005,0.1,-0.18080122319508513,0.097065124597118,0
5.963027238845825,1.8170126669342965,[2.27209624],0.005,0.1,-0.22060558653887066,0.09632694814955321,0
5.974125862121582,1.8185758566681898,[2.27217605],0.005,0.1,-0.5255759912889799,0.09534961500428489,0
5.986622095108032,1.82033444511882,[2.27225678],0.005,0.1,-0.5756402128952541,0.09423428259301919,0
5.994662046432495,1.8211160399857669,[2.27233875],0.005,0.1,-0.5272047588693196,0.09377726435192622,0
6.002013921737671,1.82209303356945,[2.27242191],0.005,0.1,-0.4499286884482834,0.09323310300869328,0
6.013022422790527,1.8232654258698702,[2.27250592],0.005,0.1,-0.37264924866662164,0.09253340794449608,0
6.024635314941406,1.8246332168870267,[2.27259081],0.005,0.1,-0.3055800265253697,0.09170778823185056,0
6.0340399742126465,1.8254148117539735,[2.27267676],0.005,0.1,-0.2508746863528445,0.09128197386859045,0
6.0429699420928955,1.8263918053376569,[2.27276361],0.005,0.1,-0.207534034570851,0.09072282471894179,0
6.052993535995483,1.8271734002046034,[2.27285125],0.005,0.1,-0.17359712787430095,0.09028885615636424,0
6.063072919845581,1.8279549950715501,[2.27293975],0.005,0.1,-0.14705307383308552,0.08986065357051264,0
6.071986436843872,1.8287365899384969,[2.27302918],0.005,0.1,-0.12616825172875545,0.08943701899151317,0
6.0812766551971436,1.8293227860887067,[2.27311962],0.005,0.1,-0.10955979948718941,0.0891358173099009,0
6.090408802032471,1.829908982238917,[2.27321116],0.005,0.1,-0.09616922667346678,0.08883910865432837,0
6.098804473876953,1.83029977967239,[2.27330386],0.005,0.1,-0.08520498915004046,0.0886638419693479,0
6.107405662536621,1.8306905771058632,[2.27339779],0.005,0.1,0.19995558282893627,0.08849139838883635,0
6.116645097732544,1.8310813745393368,[2.27349285],0.005,0.1,0.2407890391539572,0.08830017275952733,0
6.125993251800537,1.8316675706895469,[2.27358873],0.005,0.1,0.1923013390668234,0.08801757182947728,0
6.137815713882446,1.8320583681230203,[2.2736854],0.005,0.1,0.12195727356271371,0.08785519546456823,0
6.146967887878418,1.8324491655564934,[2.27378298],0.005,0.1,0.0564773435573689,0.0876955855059627,0
6.157185792922974,1.8328399629899665,[2.27388161],0.005,0.1,0.28036548343963374,0.08753711572423935,0
6.167981386184692,1.8330353617067037,[2.2739814],0.005,0.1,0.27548864976813064,0.08749291960825016,0
6.176062107086182,1.8332307604234404,[2.27408221],0.005,0.1,0.1945702292127043,0.08741231320353551,0
6.184981346130371,1.833426159140177,[2.27418374],0.005,0.1,0.37824443451428014,0.08737890442125457,0
6.1963114738464355,1.833426159140177,[2.27428612],0.005,0.1,0.33164207344167096,0.08752324733706977,0
6.20559549331665,1.8336215578569135,[2.27438981],0.005,0.1,0.4918037613977564,0.08747633173835202,0
6.213985919952393,1.8336215578569135,[2.27449481],0.005,0.1,0.4061727476139497,0.08748798650928592,0
6.224027395248413,1.833426159140177,[2.27460071],0.005,0.1,0.528830663196143,0.08769228185391723,0
6.233009576797485,1.8336215578569135,[2.27470732],0.005,0.1,0.41286828243654783,0.08766836144233421,0
6.242996454238892,1.8336215578569135,[2.27481468],0.005,0.1,0.51318695888866,0.08775103653600579,0
6.25302267074585,1.8336215578569135,[2.27492277],0.005,0.1,0.6579293437303615,0.0878291569134447,0
6.2639782428741455,1.833426159140177,[2.27503156],0.005,0.1,0.7815799574288402,0.08802551347041417,0
6.272011756896973,1.8336215578569135,[2.27514098],0.005,0.1,1.1416048044060154,0.0879797684805164,0
6.281675338745117,1.833426159140177,[2.27525097],0.005,0.1,1.2195998162417232,0.08816855205991056,0
6.290332078933716,1.833426159140177,[2.27536143],0.005,0.1,1.453365330796863,0.08823815034053548,0
6.300659894943237,1.8336215578569135,[2.27547228],0.005,0.1,1.6754331154926332,0.08818272208174188,0
6.3094329833984375,1.833426159140177,[2.27558337],0.005,0.1,1.8314361546955746,0.08836234247101879,0
6.318977355957031,1.833426159140177,[2.27569444],0.005,0.1,1.9145485345449154,0.08836840307436565,0
6.330877780914307,1.8336215578569135,[2.2758052],0.005,0.1,1.9354241874964828,0.08838803169002359,0
6.341899394989014,1.8336215578569135,[2.27591576],0.005,0.1,1.9090681500762172,0.08844173171473521,0
6.354057550430298,1.833426159140177,[2.27602616],0.005,0.1,1.849602337665154,0.08861328746629196,0
6.363993406295776,1.833426159140177,[2.27613625],0.005,0.1,1.7685784540131713,0.08867634050547488,0
6.373051643371582,1.833426159140177,[2.27624591],0.005,0.1,1.6747844678673316,0.08873441686645839,0
6.382971525192261,1.833426159140177,[2.27635502],0.005,0.1,1.5746019524717738,0.08879428087962153,0
6.3934197425842285,1.8336215578569135,[2.27646362],0.005,0.1,1.4725017851533044,0.08878717402533379,0
6.403118371963501,1.833426159140177,[2.27657184],0.005,0.1,1.3715131442843238,0.08894914461847886,0
6.411483287811279,1.8336215578569135,[2.27667954],0.005,0.1,1.2736120989657727,0.08883357997216054,0
6.4204018115997314,1.8336215578569135,[2.27678628],0.005,0.1,1.1800231128373968,0.0889024245892438,0
6.429955244064331,1.8336215578569135,[2.27689186],0.005,0.1,1.0914442397785993,0.0889708118723946,0
6.438958406448364,1.833426159140177,[2.27699614],0.005,0.1,1.0082112781320345,0.0891078821379771,0
6.4469921588897705,1.8336215578569135,[2.27709884],0.005,0.1,0.9304154273354701,0.08907221008553022,0
6.455979108810425,1.8336215578569135,[2.27719976],0.005,0.1,0.8579865527559283,0.08909871498037857,0
6.465590715408325,1.833426159140177,[2.27729878],0.005,0.1,0.7907514920553105,0.08929833508663668,0
6.473990201950073,1.833426159140177,[2.27739581],0.005,0.1,0.7284744830521581,0.08933228657239195,0
6.482947826385498,1.833426159140177,[2.27749079],0.005,0.1,0.6708849046095646,0.08941212664229227,0
6.49425196647644,1.833426159140177,[2.27758404],0.005,0.1,0.6176960798562476,0.08953446519883884,0
6.504627704620361,1.8336215578569135,[2.27767613],0.005,0.1,0.5686178215357336,0.089471661397893,0
6.515648126602173,1.8336215578569135,[2.2777676],0.005,0.1,0.5233646208290508,0.08958395521993524,0
6.524132251739502,1.8336215578569135,[2.27785876],0.005,0.1,0.48166082135834265,0.08956976588441885,0
6.53555703163147,1.833426159140177,[2.27794971],0.005,0.1,0.4432437211287532,0.08980534464144622,0
6.543607234954834,1.8336215578569135,[2.27804059],0.005,0.1,0.40786526244488097,0.0896776917450646,0
6.553399324417114,1.833426159140177,[2.2781315],0.005,0.1,0.37529277033932645,0.08991862391782124,0
6.56122088432312,1.8336215578569135,[2.27822256],0.005,0.1,0.3453090597279739,0.08979277764263953,0
6.57114052772522,1.8336215578569135,[2.27831371],0.005,0.1,0.31771213305717594,0.08985579487215356,0
6.580973863601685,1.8336215578569135,[2.2784049],0.005,0.1,0.2923146212860014,0.0899234510928522,0
6.590750217437744,1.8336215578569135,[2.27849628],0.005,0.1,0.26894307289359765,0.08998586815778041,0
6.600251913070679,1.8336215578569135,[2.27858797],0.005,0.1,0.24743716202899052,0.0900482747861025,0
6.610188245773315,1.833426159140177,[2.27868008],0.005,0.1,0.22764886356826208,0.0902275542124356,0
6.619752883911133,1.8336215578569135,[2.27877271],0.005,0.1,0.20944162664630162,0.09017220950639349,0
6.630150556564331,1.833426159140177,[2.27886593],0.005,0.1,0.1926895670352412,0.09035236617780401,0
6.638945579528809,1.8336215578569135,[2.27895965],0.005,0.1,0.1772766910399694,0.09023493559962122,0
6.649720191955566,1.833426159140177,[2.27905378],0.005,0.1,0.16309615831560353,0.09049198312266601,0
6.65895938873291,1.833426159140177,[2.27914841],0.005,0.1,0.15004958744231173,0.09048431976656277,0
6.670067071914673,1.8336215578569135,[2.2792436],0.005,0.1,0.13804640570168322,0.09050016408103222,0
6.678981781005859,1.8336215578569135,[2.27933939],0.005,0.1,0.1270032429240716,0.09049069991850348,0
6.687988519668579,1.833426159140177,[2.27943567],0.005,0.1,0.116843368265209,0.09068254843601738,0
6.696921348571777,1.8336215578569135,[2.27953232],0.005,0.1,0.10749616814658486,0.0906314326790686,0
6.707278490066528,1.8336215578569135,[2.27962957],0.005,0.1,0.09889666323469692,0.09076127391359788,0
6.715914964675903,1.833426159140177,[2.27972759],0.005,0.1,0.09098506215382049,0.09085742250852454,0
6.725084066390991,1.8336215578569135,[2.27982599],0.005,0.1,0.08370634956605022,0.09075601515693373,0
6.735772609710693,1.833426159140177,[2.27992443],0.005,0.1,0.07700990626994414,0.09100402850360854,0
6.74398136138916,1.833426159140177,[2.28002309],0.005,0.1,0.07084915903677466,0.09105637628615922,0
6.752975225448608,1.833426159140177,[2.2801219],0.005,0.1,0.06518125800173176,0.0910606857593678,0
6.763680934906006,1.8336215578569135,[2.28022048],0.005,0.1,0.05996677954312289,0.09101368668669657,0
6.77312970161438,1.833426159140177,[2.28031867],0.005,0.1,0.05516945270674403,0.09119337420414166,0
6.785661935806274,1.8336215578569135,[2.28041657],0.005,0.1,0.05075590735915429,0.09117919985790274,0
6.79433798789978,1.8336215578569135,[2.28051437],0.005,0.1,0.046695442378686836,0.0912241693684609,0
6.805377244949341,1.8336215578569135,[2.28061206],0.005,0.1,0.042959812314177365,0.0912719096711887,0
6.81443452835083,1.833426159140177,[2.28070937],0.005,0.1,0.039523031057093004,0.09139865560856508,0
6.824030876159668,1.833426159140177,[2.28080589],0.005,0.1,0.036361191182160454,0.09146206861650596,0
6.834012746810913,1.8336215578569135,[2.28090138],0.005,0.1,0.03345229771433199,0.09139941170769032,0
6.843224287033081,1.833426159140177,[2.28099584],0.005,0.1,0.030776115175906518,0.09159453659538694,0
6.850989103317261,1.8336215578569135,[2.28108917],0.005,0.1,0.028314026856938797,0.09149084796332252,0
6.860720634460449,1.833426159140177,[2.28118111],0.005,0.1,0.026048905334957004,0.09166832934486874,0
6.868627548217773,1.8336215578569135,[2.28127147],0.005,0.1,0.023964993346761786,0.09160339454099665,0
6.877140045166016,1.8336215578569135,[2.28136008],0.005,0.1,0.022047794186041806,0.09162700459367702,0
6.886169910430908,1.8336215578569135,[2.28144666],0.005,0.1,0.020283970866073107,0.09168677688079772,0
6.896813869476318,1.833426159140177,[2.28153113],0.005,0.1,0.018661253347227534,0.09186159275898412,0
6.906402111053467,1.8336215578569135,[2.28161583],0.005,0.1,0.017168353184757505,0.09315106800542095,0
6.915887832641602,1.8336215578569135,[2.28170797],0.005,0.1,0.015794885003692638,0.09601602062404384,0
6.924497127532959,1.833426159140177,[2.28181259],0.005,0.1,0.014531294254998245,0.0929045473561001,0
6.9339306354522705,1.833426159140177,[2.2819275],0.005,0.1,0.013368790750719091,0.09281827936984362,0
6.945254325866699,1.8336215578569135,[2.28204999],0.005,0.1,0.012299287515946026,0.09271098973923267,0
6.956958770751953,1.833426159140177,[2.28217876],0.005,0.1,0.011315344532369487,0.09246830231366389,0
6.966949701309204,1.8336215578569135,[2.2823108],0.005,0.1,0.010410116982169332,0.09217692332086745,0
6.976612329483032,1.8336215578569135,[2.28244165],0.005,0.1,0.009577307632268372,0.0922968063613632,0
6.985960960388184,1.833426159140177,[2.28256598],0.005,0.1,0.008811123027757727,0.09293463953574937,0
6.996550559997559,1.833426159140177,[2.2826777],0.005,0.1,0.008106233189786663,0.09394828040948189,0
7.00542688369751,1.8336215578569135,[2.28277009],0.005,0.1,0.007457734537578416,0.09542047292893314,0
7.013012170791626,1.8336215578569135,[2.28283733],0.005,0.1,0.006861115776654437,0.0954229433407307,0
7.025260925292969,1.833426159140177,[2.28287307],0.005,0.1,0.006312226515979692,0.10149572252763273,0
7.033928394317627,1.8336215578569135,[2.2828696],0.005,0.1,0.005807248395721639,0.10023112726890517,0
7.044011354446411,1.833426159140177,[2.28282118],0.005,0.1,0.005342668524778124,0.10444408899890117,0
7.056844234466553,1.833426159140177,[2.28271936],0.005,0.1,0.004915255043295833,0.11771787366737639,0
7.066949129104614,1.8336215578569135,[2.28255154],0.005,0.1,0.0045220346401821454,0.12274616123937736,0
7.0772621631622314,1.833426159140177,[2.28230774],0.005,0.1,0.004160271869212549,0.12899972942591686,0
7.084996223449707,1.8336215578569135,[2.28198363],0.005,0.1,0.0038274501198470303,0.12129242630841322,0
7.0953898429870605,1.8336215578569135,[2.28157467],0.005,0.1,0.0035212541103793087,0.1488674457221962,0
7.105055332183838,1.833426159140177,[2.28107002],0.005,0.1,0.0032395537816329863,0.15650000999275426,0
7.113945722579956,1.833426159140177,[2.28046367],0.005,0.1,0.0029803894791611656,0.1414616220251411,0
7.122949838638306,1.8336215578569135,[2.27975713],0.005,0.1,0.002741958320869447,0.15406708754203607,0
7.132936477661133,1.833426159140177,[2.27894792],0.005,0.1,0.0025226016552287135,0.16662164176959526,0
7.144575357437134,1.833426159140177,[2.27802569],0.005,0.1,0.0023207935228305894,0.21360504323712368,0
7.151949405670166,1.833426159140177,[2.27698163],0.005,0.1,0.0021351300410182694,0.18048913831351862,0
7.161989688873291,1.833426159140177,[2.27581717],0.005,0.1,0.0019643196377466927,0.1933544494969462,0
7.172043085098267,1.833426159140177,[2.27453375],0.005,0.1,0.0018071740667338762,0.20531121529481933,0
7.180559396743774,1.8336215578569135,[2.27312864],0.005,0.1,0.0016626001414000121,0.21565860225251762,0
7.187954425811768,1.8336215578569135,[2.27160005],0.005,0.1,0.001529592130091401,0.22501609407108022,0
7.196506023406982,1.833426159140177,[2.26994716],0.005,0.1,0.0014072247596864616,0.23324458021046682,0
7.20595908164978,1.833426159140177,[2.26817524],0.005,0.1,0.001294646778913206,0.19444575565175365,0
7.216176509857178,1.833426159140177,[2.26629486],0.005,0.1,0.0011910750366013138,0.21146102683290544,0
7.228040933609009,1.833426159140177,[2.2643053],0.005,0.1,0.0010957890336740208,0.27853057476480225,0
7.238018989562988,1.833426159140177,[2.26220163],0.005,0.1,0.0010081259109806706,0.2222747696937293,0
7.250936031341553,1.8336215578569135,[2.25998565],0.005,0.1,0.0009274758381026157,0.29123877385098085,0
7.2599036693573,1.8336215578569135,[2.25765965],0.005,0.1,0.0008532777710546853,0.22990805190511307,0
7.2725489139556885,1.8336215578569135,[2.25522607],0.005,0.1,0.0007850155493705068,0.30455841230566655,0
7.280970811843872,1.8336215578569135,[2.25268167],0.005,0.1,0.0007222143054210023,0.29840470021696364,0
7.289541721343994,1.8336215578569135,[2.25002465],0.005,0.1,0.0006644371609874181,0.29345046908854683,0
7.297955751419067,1.8338169565736502,[2.24726608],0.005,0.1,0.2766496418667894,0.23166367318960063,0
7.309029579162598,1.834012355290387,[2.24441552],0.005,0.1,0.3097253424531825,0.31477712569558086,0
7.31923508644104,1.834012355290387,[2.24146917],0.005,0.1,0.25458309549227315,0.3116298186832055,0
7.32799768447876,1.834012355290387,[2.23843061],0.005,0.1,0.4544950588764788,0.24264714980301846,0
7.3393096923828125,1.8344031527238602,[2.23530949],0.005,0.1,0.6930972642422943,0.32960160121335663,0
7.348321914672852,1.8345985514405967,[2.23210189],0.005,0.1,0.8905061413357759,0.32329761507682586,0
7.357929706573486,1.8347939501573334,[2.2288116],0.005,0.1,1.026457006381775,0.24857112753070343,0
7.368149757385254,1.835184747590807,[2.22545528],0.005,0.1,1.1044702431131648,0.2640318100047932,0
7.376999378204346,1.8355755450242803,[2.22204112],0.005,0.1,1.1357514056309272,0.2755162680431936,0
7.3873021602630615,1.8359663424577535,[2.21857001],0.005,0.1,1.1324124025059554,0.2834423069153093,0
7.396148681640625,1.8363571398912268,[2.21504317],0.005,0.1,1.1049711678076972,0.2883575391611672,0
7.403911590576172,1.8367479373247004,[2.21146214],0.005,0.1,1.0617231951218178,0.29091683599929374,0
7.4139039516448975,1.8373341334749105,[2.20783543],0.005,0.1,1.0088618892727794,0.22472419093860835,0
7.423194408416748,1.8377249309083836,[2.20417082],0.005,0.1,0.9508423955852451,0.3115057420814361,0
7.430919885635376,1.8381157283418568,[2.20046879],0.005,0.1,0.8907755604673278,0.2354871217392278,0
7.441578149795532,1.838701924492067,[2.19673682],0.005,0.1,0.830772873355619,0.2478371237206404,0
7.448933839797974,1.8392881206422769,[2.192988],0.005,0.1,0.7722220779728708,0.19629836223030075,0
7.458987236022949,1.839874316792487,[2.18922708],0.005,0.1,0.7159967779138969,0.2791719609753559,0
7.46693229675293,1.8402651142259603,[2.18545194],0.005,0.1,0.6626111330254107,0.21294646555120494,0
7.477365493774414,1.8408513103761703,[2.18166745],0.005,0.1,0.6123317960343344,0.2268702232964341,0
7.486523151397705,1.8412421078096437,[2.17787769],0.005,0.1,0.2892194229834344,0.23606035482248552,0
7.494129657745361,1.841632905243117,[2.17407963],0.005,0.1,-0.06382446987486745,0.24149834561270145,0
7.502034425735474,1.8422191013933271,[2.17027743],0.005,0.1,-0.3586620788295661,0.18571006653684793,0
7.51094388961792,1.8426098988268003,[2.16648118],0.005,0.1,-0.5744341737199536,0.20260395891632565,0
7.521726846694946,1.8430006962602736,[2.16269265],0.005,0.1,-0.7168572649678336,0.2144299066371909,0
7.532925367355347,1.8437822911272206,[2.15890648],0.005,0.1,-1.07603766220479,0.2216776308667798,0
7.54288911819458,1.8441730885606937,[2.15511799],0.005,0.1,-1.147818824870067,0.22616561122977066,0
7.551945447921753,1.844563885994167,[2.15132306],0.005,0.1,-1.3756835468770987,0.22860231014883772,0
7.561271905899048,1.8449546834276405,[2.14751807],0.005,0.1,-1.5940046752483221,0.22928703075211054,0
7.571902513504028,1.8453454808611136,[2.14369993],0.005,0.1,-1.7486436959752996,0.22879489329737668,0
7.580920457839966,1.8455408795778505,[2.13986598],0.005,0.1,-1.832411939750994,0.2278439789416632,0
7.589636325836182,1.8457362782945872,[2.13601398],0.005,0.1,-1.579416524075306,0.2264465169591807,0
7.598007440567017,1.8459316770113239,[2.1321489],0.005,0.1,-1.5231377004244298,0.16946035557955694,0
7.609545469284058,1.8465178731615337,[2.12827487],0.005,0.1,-1.5226169434941184,0.2400192169623827,0
7.617056608200073,1.8465178731615337,[2.12438841],0.005,0.1,-1.2458394648639772,0.17689236231889482,0
7.630337715148926,1.8469086705950069,[2.12048649],0.005,0.1,-1.1937833288865258,0.24492180273403982,0
7.6399290561676025,1.8471040693117438,[2.1165592],0.005,0.1,-1.2096527311323257,0.23714016055141188,0
7.650098562240601,1.8472994680284807,[2.11259821],0.005,0.1,-1.2298631374857192,0.2266233458271513,0
7.659313201904297,1.8474948667452171,[2.10860395],0.005,0.1,-0.956834652626102,0.22065004602373073,0
7.670915603637695,1.8476902654619538,[2.10457699],0.005,0.1,-0.9058150007663943,0.2154977922942843,0
7.680579662322998,1.8476902654619538,[2.1005178],0.005,0.1,-0.6490677872981216,0.2110758593384871,0
7.689458131790161,1.8478856641786905,[2.09642714],0.005,0.1,-0.6431078157819612,0.20648531720550212,0
7.696907997131348,1.848081062895427,[2.09231311],0.005,0.1,-0.4352780772943939,0.151212378693285,0
7.7050230503082275,1.848081062895427,[2.08819708],0.005,0.1,-0.4727489469058207,0.11699183929326987,0
7.715373992919922,1.848081062895427,[2.08409015],0.005,0.1,-0.30037580005740067,0.18252283803658206,0
7.724589109420776,1.848081062895427,[2.07998044],0.005,0.1,-0.3656176278880956,0.18135373081585235,0
7.733051300048828,1.848081062895427,[2.07586522],0.005,0.1,-0.4905881187429808,0.13276624506870918,0
7.745827913284302,1.848081062895427,[2.07174971],0.005,0.1,-0.6051597884043115,0.1884155990695359,0
7.756805896759033,1.848081062895427,[2.06762481],0.005,0.1,-0.6873525029448133,0.17920015440056009,0
7.7669384479522705,1.848081062895427,[2.06348351],0.005,0.1,-0.7352543481383715,0.17032815936542187,0
7.776799917221069,1.848081062895427,[2.05932769],0.005,0.1,-0.4781517709591004,0.1620297091350088,0
7.785778522491455,1.8482764616121639,[2.05515982],0.005,0.1,-0.1659494381883311,0.15402299862607274,0
7.798120021820068,1.8482764616121639,[2.0509829],0.005,0.1,0.10666796591471768,0.14640976504041672,0
7.808417797088623,1.848081062895427,[2.046794],0.005,0.1,0.3134617006162019,0.1787391249679397,0
7.8179004192352295,1.8482764616121639,[2.04259157],0.005,0.1,0.45600786376970626,0.1220839278933062,0
7.829558849334717,1.848081062895427,[2.03838174],0.005,0.1,0.5453104435203598,0.15292599692190065,0
7.838209867477417,1.8482764616121639,[2.03417029],0.005,0.1,0.5939573739404271,0.10644121677700383,0
7.84654974937439,1.8482764616121639,[2.02996871],0.005,0.1,0.6131427800089473,0.10331471788053136,0
7.853923082351685,1.848081062895427,[2.02579354],0.005,0.1,0.6118386347231419,0.0751414423296703,0
7.862903118133545,1.848081062895427,[2.02165873],0.005,0.1,0.5968425778888699,0.07999924662739513,0
7.8709142208099365,1.848081062895427,[2.01756972],0.005,0.1,0.5731248653998369,0.08264929584522386,0
7.878890752792358,1.848081062895427,[2.01353072],0.005,0.1,0.5442276467780882,0.061137347539327674,0
7.887965679168701,1.848081062895427,[2.00954487],0.005,0.1,0.5126223669584017,0.09044957011445327,0
7.896559953689575,1.848081062895427,[2.00560838],0.005,0.1,0.4799986261952187,0.06492582719388924,0
7.904909133911133,1.848081062895427,[2.0017234],0.005,0.1,0.44748546823889157,0.06857956963044799,0
7.914829969406128,1.848081062895427,[1.99789106],0.005,0.1,0.4158155923392081,0.07078929368909209,0
7.924501180648804,1.848081062895427,[1.99410574],0.005,0.1,0.38544474257463235,0.07177769282227267,0
7.931899070739746,1.8478856641786905,[1.99036785],0.005,0.1,0.3566373037699355,0.05260605440297605,0
7.941373586654663,1.848081062895427,[1.98668292],0.005,0.1,0.3295270490219725,0.057625160529004175,0
7.949433326721191,1.8478856641786905,[1.98304885],0.005,0.1,0.30415991135412707,0.06122897725184916,0
7.956913471221924,1.8478856641786905,[1.97946304],0.005,0.1,0.2805238946067211,0.04553848722602404,0
7.9661078453063965,1.8478856641786905,[1.97592844],0.005,0.1,0.2585698552424228,0.05148584753408852,0
7.975373029708862,1.8476902654619538,[1.97244057],0.005,0.1,-0.03781251786688786,0.05569095999820513,0
7.985864639282227,1.8476902654619538,[1.96898871],0.005,0.1,-0.08975605365824058,0.05836054004031267,0
7.995911598205566,1.8474948667452171,[1.96556291],0.005,0.1,-0.052043939388954186,0.06010410478069704,0
8.003923177719116,1.8474948667452171,[1.96215397],0.005,0.1,0.007996519761360815,0.06094954980595002,0
8.01290249824524,1.8474948667452171,[1.95875972],0.005,0.1,-0.21231529919100983,0.04426414931720506,0
8.022909879684448,1.8472994680284807,[1.95538406],0.005,0.1,-0.2024551628225221,0.04892504777413613,0
8.031918287277222,1.8471040693117438,[1.95202325],0.005,0.1,-0.3939619804755413,0.05226753986442208,0
8.042887687683105,1.8469086705950069,[1.94866711],0.005,0.1,-0.3331567585250248,0.05434347779681323,0
8.051876306533813,1.8469086705950069,[1.94530642],0.005,0.1,-0.19866217089046737,0.055383230028758584,0
8.061486005783081,1.8467132718782704,[1.94193295],0.005,0.1,-0.06360963310552943,0.055904228055571686,0
8.070165634155273,1.8465178731615337,[1.93853929],0.005,0.1,-0.2293124616327214,0.05587322357789652,0
8.078938961029053,1.8463224744447972,[1.93511869],0.005,0.1,-0.18158487147397875,0.056033014298555735,0
8.087621212005615,1.8463224744447972,[1.9316721],0.005,0.1,-0.0720219101708395,0.0394284897584506,0
8.096064567565918,1.8459316770113239,[1.92820749],0.005,0.1,-0.2385390187634313,0.04291897667451541,0
8.104138851165771,1.8457362782945872,[1.92472456],0.005,0.1,-0.1834148313260145,0.04508403295140223,0
8.112888097763062,1.8455408795778505,[1.92122274],0.005,0.1,-0.34123312388281135,0.03281117837509489,0
8.122918128967285,1.8453454808611136,[1.91770835],0.005,0.1,-0.25750026224668066,0.03667976760164797,0
8.13188624382019,1.8451500821443771,[1.91417952],0.005,0.1,-0.38484552920301157,0.0389784571613089,0
8.141900539398193,1.8447592847109036,[1.9106275],0.005,0.1,-0.275305846815296,0.04008556278570425,0
8.152085304260254,1.8443684872774304,[1.90704479],0.005,0.1,-0.38303643990936065,0.040235026320760564,0
8.159868955612183,1.8443684872774304,[1.90342504],0.005,0.1,-0.25962445206309237,0.039344278619309614,0
8.168941736221313,1.8439776898439573,[1.89977036],0.005,0.1,-0.08211733742007407,0.027645167491529267,0
8.177908658981323,1.8435868924104835,[1.89608996],0.005,0.1,-0.19597089536030998,0.029330551706576505,0
8.187095165252686,1.8431960949770103,[1.89237724],0.005,0.1,-0.10362040344070853,0.03985086155204978,0
8.197886943817139,1.8428052975435372,[1.88861221],0.005,0.1,0.038824643910325654,0.03593796894958923,0
8.206912517547607,1.8426098988268003,[1.88479315],0.005,0.1,0.1698696833866611,0.023909697267064354,0
8.21666145324707,1.8422191013933271,[1.88093379],0.005,0.1,0.27030692662620065,0.02346673717894694,0
8.22573971748352,1.8418283039598535,[1.87703885],0.005,0.1,0.06252334046378358,0.022246955132024446,0
8.235855340957642,1.8414375065263802,[1.87310539],0.005,0.1,0.07025960819791226,0.020442901219984287,0
8.244916439056396,1.8412421078096437,[1.8691388],0.005,0.1,0.1450802627188631,0.013311897032846827,0
8.256033420562744,1.841046709092907,[1.86514412],0.005,0.1,0.2255452022735705,0.016590341333130407,0
8.265933513641357,1.8406559116594339,[1.86111145],0.005,0.1,0.28983272066646626,0.01333133412811337,0
8.27404522895813,1.8402651142259603,[1.85704046],0.005,0.1,0.3332184883026143,0.0077810642944992564,0
8.28522253036499,1.839874316792487,[1.85293902],0.005,0.1,0.35763197448458894,0.0074059595177139665,0
8.293590307235718,1.8396789180757502,[1.84880009],0.005,0.1,0.36700623996992654,0.0038681754766063175,0
8.301600456237793,1.8394835193590138,[1.84462579],0.005,0.1,0.36535269106909873,0.000792723302532524,0
8.310877323150635,1.8392881206422769,[1.84043315],0.005,0.1,0.35607812793425353,-0.0018066719475874975,0
8.321495532989502,1.8388973232088037,[1.83623026],0.005,0.1,0.34183882767646023,-0.004461989663372435,0
8.328890085220337,1.8385065257753306,[1.8320245],0.005,0.1,0.3246042831819425,-0.00483175029551172,0
8.33904242515564,1.838311127058594,[1.82782957],0.005,0.1,0.3057845820989763,-0.007682402419267419,0
8.350023746490479,1.8381157283418568,[1.82365073],0.005,0.1,0.5623991484937885,-0.010615638366395373,0
8.360985517501831,1.83792032962512,[1.81947967],0.005,0.1,0.5761596319408198,-0.01830815002262184,0
8.37196159362793,1.8377249309083836,[1.81530386],0.005,0.1,0.5021926932404397,-0.01987332511772463,0
8.379895210266113,1.837529532191647,[1.81112667],0.005,0.1,0.4080049306427843,-0.015562226723109945,0
8.389226198196411,1.8373341334749105,[1.80695852],0.005,0.1,0.5963440381547236,-0.02464779629951794,0
8.39785122871399,1.8371387347581736,[1.80280262],0.005,0.1,0.5566778792781475,-0.01875473244799921,0
8.409868240356445,1.8367479373247004,[1.79866257],0.005,0.1,0.4444504602596828,-0.0282973020810072,0
8.417922019958496,1.8363571398912268,[1.7945364],0.005,0.1,0.32484811956591897,-0.028342685930950396,0
8.426867961883545,1.8359663424577535,[1.7904289],0.005,0.1,0.22169732138973364,-0.02106167060615716,0
8.436424493789673,1.8355755450242803,[1.78635631],0.005,0.1,-0.13525615597766696,-0.023239342983811334,0
8.444867134094238,1.8349893488740703,[1.78232696],0.005,0.1,-0.5044898614731085,-0.02495965138132359,0
8.456867456436157,1.834012355290387,[1.7783425],0.005,0.1,-1.3535462374013272,-0.026088144390157962,0
8.465885877609253,1.833426159140177,[1.77440454],0.005,0.1,-1.9035038872550418,-0.027090943313948797,0
8.475797653198242,1.8324491655564934,[1.77051462],0.005,0.1,-2.505856106872183,-0.02768209538253481,0
8.4868905544281,1.8312767732560733,[1.7666741],0.005,0.1,-2.980562182943423,-0.028039996173768473,0
8.495892524719238,1.83029977967239,[1.76288409],0.005,0.1,-3.0121669404653417,-0.028392145350367635,0
8.507412195205688,1.8289319886552335,[1.75914047],0.005,0.1,-3.4110188855569965,-0.03759549333001172,0
8.516321420669556,1.8279549950715501,[1.7554396],0.005,0.1,-3.5353719691733287,-0.02632650551836695,0
8.524864196777344,1.82678260277113,[1.75178817],0.005,0.1,-3.2292465101987435,-0.02715066656042232,0
8.533872127532959,1.8252194130372366,[1.74819635],0.005,0.1,-3.3559965589500234,-0.019901068105706504,0
8.541989803314209,1.8240470207368165,[1.74467214],0.005,0.1,-3.005701333861529,-0.02255611530063966,0
8.549954891204834,1.8226792297196601,[1.74121664],0.005,0.1,-2.5322852073571,-0.02472552948724381,0
8.561091899871826,1.8205298438355566,[1.73782509],0.005,0.1,-2.6308625115016584,-0.02614351484484443,0
8.569087028503418,1.8191620528184,[1.73449752],0.005,0.1,-2.311244943032359,-0.019455738631647568,0
8.576871633529663,1.8177942618012435,[1.73124289],0.005,0.1,-2.1659993839528493,-0.015303680766341466,0
8.588387727737427,1.81564487591714,[1.72806288],0.005,0.1,-1.8024679158358232,-0.027515438244358405,0
8.596193075180054,1.8140816861832465,[1.72494323],0.005,0.1,-1.6921281086396305,-0.028958256207755537,0
8.604191064834595,1.8125184964493533,[1.72187092],0.005,0.1,-1.1118983229661796,-0.030104440991472473,0
8.614396095275879,1.8105645092819864,[1.71883905],0.005,0.1,-1.0293415629827654,-0.030999576818985373,0
8.624364614486694,1.8084151233978831,[1.71584109],0.005,0.1,-0.8343308432339293,-0.031700029645017135,0
8.632911682128906,1.8064611362305163,[1.71287589],0.005,0.1,-0.6301500150740724,-0.02298769829599119,0
8.644887447357178,1.8037255541962032,[1.7099419],0.005,0.1,-0.4542489691753865,-0.035804209138747156,0
8.652857542037964,1.801966965745573,[1.70703235],0.005,0.1,-0.3154242242554342,-0.025560583331842357,0
8.661391258239746,1.8000129785782062,[1.70414615],0.005,0.1,0.06490870058434836,-0.028046244672479816,0
8.671876192092896,1.7974727952606295,[1.70128207],0.005,0.1,-0.10211162012564175,-0.02979432176114976,0
8.681568145751953,1.7949326119430529,[1.69843379],0.005,0.1,-0.1363821258475548,-0.030931739563184204,0
8.691907167434692,1.7925878273422127,[1.69559597],0.005,0.1,-0.11975920954601026,-0.03171435944363725,0
8.70284390449524,1.7896568465911629,[1.69276413],0.005,0.1,-0.08846985493561299,-0.031911496469269766,0
8.717138528823853,1.7857488722564294,[1.68992989],0.005,0.1,-0.0573412463065302,-0.04218617235690399,0
8.726127862930298,1.7834040876555892,[1.68708179],0.005,0.1,-0.031490738567263504,-0.03864041669899452,0
8.73389744758606,1.781254701771486,[1.6842204],0.005,0.1,0.2641648727564672,-0.02640519170320522,0
8.742208242416382,1.7791053158873826,[1.6813564],0.005,0.1,0.31131482313117576,-0.027289136438827032,0
8.750184535980225,1.7769559300032791,[1.6784945],0.005,0.1,0.5417900419101757,-0.02783160782662344,0
8.758976221084595,1.7744157466857025,[1.67563898],0.005,0.1,0.5049658653657654,-0.019786996821296067,0
8.770655393600464,1.771093968501179,[1.67279383],0.005,0.1,0.6590466463649753,-0.030058557784575057,0
8.780826568603516,1.768162987750129,[1.66995368],0.005,0.1,0.5613765558682985,-0.028869883844555834,0
8.789911985397339,1.7656228044325524,[1.66711873],0.005,0.1,0.6705018429525174,-0.020037284694664807,0
8.79930329322815,1.7626918236815023,[1.66429404],0.005,0.1,0.8174354149564398,-0.02937659702513935,0
8.808113098144531,1.7601516403639255,[1.66147536],0.005,0.1,0.9388166510442574,-0.027897974260644356,0
8.816298961639404,1.7578068557630855,[1.65866364],0.005,0.1,1.0176418002978316,-0.019241656189562525,0
8.827125549316406,1.7542896788618254,[1.65586443],0.005,0.1,0.7795370499503856,-0.027632284970864587,0
8.835799932479858,1.7517494955442485,[1.65307828],0.005,0.1,0.7513046895766682,-0.018904958314211146,0
8.844565153121948,1.7488185147931987,[1.65031409],0.005,0.1,0.7869997309706044,-0.013617637308178788,0
8.852807760238647,1.7464737301923585,[1.64758771],0.005,0.1,1.1030917007759038,-0.010512611902145941,0
8.861835956573486,1.7437381481580454,[1.64490807],0.005,0.1,1.1601385471787182,-0.013222297418307816,0
8.871483564376831,1.7408071674069951,[1.64227423],0.005,0.1,1.1090123004631414,-0.015155505231863067,0
8.880866050720215,1.7378761866559451,[1.63968112],0.005,0.1,1.019460157033933,-0.016362278865666997,0
8.889845132827759,1.7347498071881584,[1.63712444],0.005,0.1,0.9223162602300758,-0.016962023216384965,0
8.898561954498291,1.7318188264371084,[1.6346006],0.005,0.1,0.8301173641095498,-0.017164203982003624,0
8.909710884094238,1.7281062508191116,[1.63210298],0.005,0.1,1.0231054997812707,-0.02284488229598537,0
8.91881537437439,1.7251752700680614,[1.62962621],0.005,0.1,0.9829404882364124,-0.015112183472076908,0
8.928887367248535,1.722048890600275,[1.62716982],0.005,0.1,1.139574589301235,-0.020415759966233606,0
8.937220335006714,1.7193133085659613,[1.62473366],0.005,0.1,1.0401042706737393,-0.013555352705460792,0
8.945302963256836,1.7165777265316482,[1.62232128],0.005,0.1,1.1406247978751436,-0.013663472308298504,0
8.953924417495728,1.7136467457805982,[1.61993925],0.005,0.1,0.9967176200120186,-0.009534434465572159,0
8.96287727355957,1.710715765029548,[1.61758951],0.005,0.1,1.0655248331506117,-0.014755851725392429,0
8.970916748046875,1.7081755817119713,[1.61527008],0.005,0.1,1.1769664116975767,-0.010135080688965044,0
8.978817224502563,1.7056353983943944,[1.61298586],0.005,0.1,0.9908003993631491,-0.00737117345246496,0
8.987910270690918,1.7027044176433446,[1.61074404],0.005,0.1,1.0083250399947583,-0.008738491139056668,0
8.995814085006714,1.699968835609031,[1.60854338],0.005,0.1,0.7999701290028107,-0.00979671958909697,0
9.005133390426636,1.696842456141244,[1.60637881],0.005,0.1,0.824908153607183,-0.010563121355265891,0
9.012935638427734,1.6943022728236676,[1.60424888],0.005,0.1,0.9103293809554358,-0.007629288068860577,0
9.023021221160889,1.691175893355881,[1.60215512],0.005,0.1,0.9880722138195924,-0.009000732176652261,0
9.031840085983276,1.6882449126048311,[1.60009453],0.005,0.1,1.036714598849866,-0.010168873857684436,0
9.041138410568237,1.6847277357035708,[1.59806026],0.005,0.1,1.0543040113356645,-0.01108230001970707,0
9.051896572113037,1.681601356235784,[1.59604558],0.005,0.1,1.045900730153789,-0.011916832398190734,0
9.061819553375244,1.6782795780512607,[1.59404385],0.005,0.1,1.0181736162736614,-0.012660899937996893,0
9.073834419250488,1.6741762049997908,[1.59204851],0.005,0.1,0.9772742965066646,-0.013292549414223245,0
9.08193039894104,1.6714406229654772,[1.59005297],0.005,0.1,0.9281771056417043,-0.014187683287521725,0
9.089829444885254,1.668509642214427,[1.58805485],0.005,0.1,0.8746305412798561,-0.010159348888003444,0
9.100993156433105,1.6646016678796938,[1.58605548],0.005,0.1,0.8193295593853694,-0.012015385594033805,0
9.109931707382202,1.6618660858453804,[1.58404636],0.005,0.1,0.764138886892743,-0.020056262835555037,0
9.118980646133423,1.6587397063775937,[1.58201042],0.005,0.1,0.7103002951583788,-0.020290834014159098,0
9.1289381980896,1.6558087256265437,[1.57994139],0.005,0.1,0.658602802315825,-0.014285535410303425,0
9.137921333312988,1.6528777448754937,[1.57784745],0.005,0.1,0.6095140333286996,-0.010766974121762371,0
9.14985203742981,1.6487743718240233,[1.57572996],0.005,0.1,0.28723961145199495,-0.020499705063516317,0
9.160012483596802,1.6452571949227635,[1.57357455],0.005,0.1,0.2108230338426519,-0.021766565025931103,0
9.169853210449219,1.64193541673824,[1.57136829],0.005,0.1,0.22556195542705365,-0.023063625357966463,0
9.179960012435913,1.6386136385537167,[1.56910452],0.005,0.1,0.2641458091857013,-0.024383003609534055,0
9.190820217132568,1.6350964616524568,[1.56677711],0.005,0.1,0.29990704918008626,-0.02566018870515479,0
9.202860116958618,1.6309930886009865,[1.56437442],0.005,0.1,0.04832752767453988,-0.037240027770568264,0
9.212838172912598,1.627671310416463,[1.56187405],0.005,0.1,0.027482819398702715,-0.04839375016131691,0
9.223085403442383,1.6239587347984663,[1.55925637],0.005,0.1,-0.1914729379562211,-0.04382888727218031,0
9.230849742889404,1.6212231527641532,[1.55652335],0.005,0.1,-0.15428282428301995,-0.029797767945136604,0
9.239334106445312,1.618292172013103,[1.55368963],0.005,0.1,-0.03982846784527387,-0.032026777284956884,0
9.247798442840576,1.615165792545316,[1.55076825],0.005,0.1,-0.1978017710250344,-0.02315863644285852,0
9.257789611816406,1.6114532169273195,[1.54777078],0.005,0.1,-0.4111082317452074,-0.027396605475026772,0
9.269602060317993,1.6071544451591129,[1.54469355],0.005,0.1,-0.3207320831969129,-0.0437223916784168,0
9.28013801574707,1.6036372682578528,[1.54151984],0.005,0.1,-0.421931177368706,-0.043468499039794065,0
9.289513349533081,1.600510888790066,[1.53824253],0.005,0.1,-0.28448813799657596,-0.04386584516666125,0
9.296796083450317,1.597970705472489,[1.53487019],0.005,0.1,-0.368941011126795,-0.03128265093108297,0
9.305799007415771,1.5948443260047027,[1.5314252],0.005,0.1,-0.22833267037569055,-0.02360995852820479,0
9.315654754638672,1.5913271491034424,[1.52792697],0.005,0.1,-0.31526857113178836,-0.029808484962311286,0
9.324642181396484,1.588200769635656,[1.52437763],0.005,0.1,-0.1791343139773382,-0.03528877338297421,0
9.33382797241211,1.5848789914511323,[1.52077925],0.005,0.1,-0.2709257227458389,-0.026468528751124536,0
9.343141317367554,1.5813618145498722,[1.51713355],0.005,0.1,-0.13937935992402506,-0.047888521241716914,0
9.35181188583374,1.5782354350820853,[1.51343467],0.005,0.1,-0.2352778509457902,-0.0344715155294371,0
9.361919641494751,1.5745228594640888,[1.50968551],0.005,0.1,-0.383369537399735,-0.03965873464583463,0
9.370805740356445,1.571396479996302,[1.50588865],0.005,0.1,-0.23949121822909963,-0.04430223648565764,0
9.380347728729248,1.567879303095042,[1.5020389],0.005,0.1,-0.02606154327102045,-0.04786061105715094,0
9.389811277389526,1.564362126193782,[1.49813217],0.005,0.1,-0.10651359115082099,-0.05070036137390865,0
9.398528337478638,1.5608449492925216,[1.49416545],0.005,0.1,-0.26503150159346633,-0.052968950215282834,0
9.410566806793213,1.556546177524315,[1.49012892],0.005,0.1,-0.13934947909946016,-0.07428887007830215,0
9.420356273651123,1.5522474057561084,[1.48600718],0.005,0.1,-0.22040082840323344,-0.06915153156454225,0
9.428794384002686,1.5497072224385315,[1.48180395],0.005,0.1,-0.07393739743856301,-0.048055134803328875,0
9.439463138580322,1.5457992481037983,[1.4775314],0.005,0.1,-0.15719337002024425,-0.07074690142811976,0
9.446925640106201,1.5428682673527483,[1.47319301],0.005,0.1,-0.020675675634377833,-0.049065426329294955,0
9.456096887588501,1.539546489168225,[1.46880056],0.005,0.1,-0.11511947398928826,-0.05249522087425274,0
9.463874578475952,1.5364201097004382,[1.46437267],0.005,0.1,0.011431242047176424,-0.03822459618736305,0
9.473028659820557,1.5329029327991783,[1.45992568],0.005,0.1,-0.09107797891252009,-0.044651320185245445,0
9.482299566268921,1.5291903571811813,[1.45546616],0.005,0.1,0.029263547823084782,-0.04926490497463921,0
9.491883993148804,1.5254777815631846,[1.45099255],0.005,0.1,-0.0778913970158048,-0.05273771501147961,0
9.501684665679932,1.5213744085117145,[1.44650405],0.005,0.1,-0.23700606941808267,-0.054912250848657106,0
9.510811567306519,1.5182480290439277,[1.44200041],0.005,0.1,-0.10373755382766503,-0.057119285143289567,0
9.518834352493286,1.515121649576141,[1.43748943],0.005,0.1,0.0996021809801893,-0.04101311711210479,0
9.528137445449829,1.5114090739581443,[1.432978],0.005,0.1,0.285675072590777,-0.06579620167938291,0
9.536804437637329,1.5076964983401473,[1.42846457],0.005,0.1,0.15136773073605658,-0.046057875123436766,0
9.545816659927368,1.5041793214388874,[1.42395541],0.005,0.1,0.21363829556772276,-0.05078312712904505,0
9.553828477859497,1.5010529419711007,[1.41946332],0.005,0.1,0.04877351980890847,-0.03743117867828687,0
9.562774658203125,1.4977311637865773,[1.41500641],0.005,0.1,0.117548549215121,-0.029193358250155673,0
9.572879314422607,1.4940185881685808,[1.41059951],0.005,0.1,0.24707775770674,-0.03827204941190936,0
9.583112478256226,1.4901106138338471,[1.40623197],0.005,0.1,0.3685943291579348,-0.06517501174152726,0
9.593775749206543,1.4860072407823772,[1.40187913],0.005,0.1,0.46001955095648045,-0.06568373670661017,0
9.604297399520874,1.4819038677309073,[1.39751968],0.005,0.1,0.5188643314137055,-0.0896484670284608,0
9.611833333969116,1.4791682856965935,[1.3931506],0.005,0.1,0.5498113294951839,-0.09154124016460315,0
9.621882438659668,1.4752603113618603,[1.38879209],0.005,0.1,0.5592975760622328,-0.08468499876293167,0
9.630804300308228,1.4713523370271269,[1.3844533],0.005,0.1,0.27732114320257595,-0.08025931797641171,0
9.642067432403564,1.4668581665421834,[1.38011879],0.005,0.1,0.22777975577102716,-0.10271019619110926,0
9.650819063186646,1.4631455909241868,[1.37577536],0.005,0.1,0.25976195951007386,-0.06843528137449924,0
9.659765005111694,1.45943301530619,[1.37142714],0.005,0.1,0.032762637702713454,-0.06924963954044075,0
9.668710231781006,1.4557204396881933,[1.36707756],0.005,0.1,0.041146343839155566,-0.07027734192189054,0
9.677790403366089,1.4520078640701966,[1.36272949],0.005,0.1,-0.1528016349971686,-0.049780388867293385,0
9.6867835521698,1.4484906871689365,[1.35839298],0.005,0.1,-0.3732166807958259,-0.056272528305672226,0
9.695773839950562,1.44477811155094,[1.35406867],0.005,0.1,-0.2797583036063961,-0.06139647968671445,0
9.706026315689087,1.4404793397827331,[1.34974152],0.005,0.1,-0.0996326762374973,-0.08957368424073019,0
9.716177463531494,1.4365713654479997,[1.34539104],0.005,0.1,-0.20066683107485683,-0.0852800598749238,0
9.725184440612793,1.432858789830003,[1.34100781],0.005,0.1,-0.09459158471180545,-0.08257574278387735,0
9.73289704322815,1.4299278090789527,[1.33659956],0.005,0.1,0.05915369104521723,-0.0579515191465562,0
9.74280858039856,1.4258244360274828,[1.33218076],0.005,0.1,0.19832726958077512,-0.06339774147178981,0
9.753010272979736,1.421525664259276,[1.32774797],0.005,0.1,0.30398585445433535,-0.09388180793924457,0
9.760820627212524,1.418008487358016,[1.3232904],0.005,0.1,0.09909129031060479,-0.06494561003165171,0
9.771156549453735,1.4139051143065458,[1.31881451],0.005,0.1,0.1079778435655475,-0.06976868712731635,0
9.779850959777832,1.4103879374052857,[1.31432547],0.005,0.1,0.18271773738158464,-0.07474961150843276,0
9.789231061935425,1.4066753617872891,[1.3098193],0.005,0.1,0.2622692141847506,-0.07876679088980197,0
9.796810150146484,1.4033535836027657,[1.30530048],0.005,0.1,0.3251080095469304,-0.05723172617337533,0
9.805763244628906,1.3998364067015054,[1.30078047],0.005,0.1,0.36672465425177597,-0.06732275397061244,0
9.815397500991821,1.3959284323667722,[1.29626005],0.005,0.1,0.3891999081000006,-0.07589228243936533,0
9.822773933410645,1.392997451615722,[1.29173933],0.005,0.1,0.39657093696395773,-0.056930881135594476,0
9.832205533981323,1.3890894772809885,[1.2872261],0.005,0.1,0.3929190586553144,-0.06946755962627102,0
9.841117143630981,1.3855723003797287,[1.28271753],0.005,0.1,0.38169663241192875,-0.08071309077083406,0
9.849226951599121,1.381859724761732,[1.27820173],0.005,0.1,0.36558839113075636,-0.0902725574923081,0
9.859294891357422,1.377756351710262,[1.27366766],0.005,0.1,0.34658042255735044,-0.09823723401744763,0
9.869920015335083,1.373457579942055,[1.26910517],0.005,0.1,0.3260912907540539,-0.10501056637229955,0
9.87918472290039,1.3697450043240584,[1.26451428],0.005,0.1,0.3051050639443438,-0.0767766777581498,0
9.890791893005371,1.3648600364056418,[1.25989446],0.005,0.1,0.28428489486901143,-0.12803150387600729,0
9.90056324005127,1.3607566633541714,[1.25522627],0.005,0.1,0.2640626097701236,-0.13005213093165166,0
9.912779092788696,1.3552854992855448,[1.25049317],0.005,0.1,0.24470632616314153,-0.1305054945774768,0
9.921083450317383,1.351572923667548,[1.24569063],0.005,0.1,0.2263701130079087,-0.13319426816650468,0
9.929900884628296,1.3482511454830246,[1.24081521],0.005,0.1,0.209129801681595,-0.1367440145613437,0
9.938804388046265,1.3445385698650278,[1.2358742],0.005,0.1,0.1930084722759403,-0.09797352768599736,0
9.949365139007568,1.3406305955302946,[1.23087436],0.005,0.1,0.17799440596861765,-0.15578620133792834,0
9.957794427871704,1.3371134186290345,[1.22581247],0.005,0.1,0.1640536181056393,-0.11034739033692727,0
9.96839189529419,1.3324238494273544,[1.22068661],0.005,0.1,0.15113853217842452,-0.16711968627381651,0
9.976856708526611,1.3289066725260943,[1.21549609],0.005,0.1,-0.13684443346405117,-0.11717670094387315,0
9.987773418426514,1.3246079007578877,[1.21025094],0.005,0.1,0.09503635965607798,-0.12626937038825714,0
9.99793791770935,1.3205045277064174,[1.20496068],0.005,0.1,0.1730771364104351,-0.13340087402792022,0
10.006165266036987,1.3169873508051573,[1.19962475],0.005,0.1,0.18467675467475053,-0.13900883729949004,0
10.014776706695557,1.3134701739038972,[1.19425318],0.005,0.1,0.1704622713789524,-0.10046465697988456,0
10.023937940597534,1.3095621995691638,[1.1888648],0.005,0.1,0.1485908519504151,-0.11403778347610566,0
10.032188653945923,1.306045022667904,[1.18346693],0.005,0.1,0.12662637855521625,-0.12453921021364844,0
10.040712594985962,1.3023324470499071,[1.17805723],0.005,0.1,0.10728567518520095,-0.13166880966567737,0
10.050787925720215,1.2978382765649636,[1.17263468],0.005,0.1,0.09117713130129526,-0.13546237075796883,0
10.060553312301636,1.2943210996637038,[1.16719944],0.005,0.1,0.07807584053430336,-0.13851541037173096,0
10.069825172424316,1.2904131253289703,[1.1617614],0.005,0.1,0.06749522043018791,-0.09895354093761712,0
10.080548763275146,1.2861143535607635,[1.15633852],0.005,0.1,0.05892663145420833,-0.11008367891803039,0
10.089383125305176,1.2824017779427668,[1.15093777],0.005,0.1,0.05192682882953072,-0.11841018759545399,0
10.097607374191284,1.2790799997582434,[1.1455568],0.005,0.1,0.04613901596256349,-0.12418252355097087,0
10.108814477920532,1.2741950318398267,[1.14018605],0.005,0.1,0.041287480050881925,-0.17012207230073706,0
10.11676573753357,1.2708732536553033,[1.13481831],0.005,0.1,0.03716376738135464,-0.11632491224957174,0
10.12566876411438,1.267356076754043,[1.12946502],0.005,0.1,0.033611953994404996,-0.11955136547974131,0
10.136058807373047,1.262666507552363,[1.12413668],0.005,0.1,0.030515793272046232,-0.12042902887438077,0
10.14637303352356,1.2583677357841563,[1.11883463],0.005,0.1,0.02778843372569933,-0.12022553301166469,0
10.155848026275635,1.2546551601661597,[1.11356071],0.005,0.1,0.025364565267162388,-0.11950911678352047,0
10.165882587432861,1.2505517871146896,[1.10831719],0.005,0.1,0.023194581162746385,-0.11777712190324986,0
10.176126480102539,1.2464484140632193,[1.10310661],0.005,0.1,0.02124030982623341,-0.11557207832349686,0
10.184801578521729,1.2423450410117491,[1.09793173],0.005,0.1,0.019471925837087824,-0.11309486481445101,0
10.193730592727661,1.2388278641104893,[1.09280255],0.005,0.1,0.01786572742163052,-0.07963951801123528,0
10.20520806312561,1.2345290923422825,[1.08772785],0.005,0.1,0.29244090140952456,-0.11847136828399411,0
10.213774919509888,1.230816516724286,[1.08270771],0.005,0.1,0.3242295437579205,-0.08241560822921472,0
10.22476077079773,1.2263223462393424,[1.07774214],0.005,0.1,-0.008128033331578605,-0.11894232292481079,0
10.23550033569336,1.2218281757543992,[1.07282407],0.005,0.1,-0.11845685735437311,-0.11262996788462465,0
10.245741844177246,1.2175294039861924,[1.06795414],0.005,0.1,-0.13490846403709533,-0.07795010144954001,0
10.257580995559692,1.2126444360677755,[1.06314642],0.005,0.1,-0.11638689989816518,-0.08290957509435379,0
10.266786575317383,1.2087364617330423,[1.05840517],0.005,0.1,-0.08872642914235834,-0.08736302033598545,0
10.27743148803711,1.2044376899648352,[1.05371915],0.005,0.1,-0.06231400274972228,-0.12339572440866563,0
10.287395715713501,1.2003343169133653,[1.04907098],0.005,0.1,-0.040574039623654704,-0.1168267914390697,0
10.296756744384766,1.196426342578632,[1.04445201],0.005,0.1,-0.023982314187874502,-0.11287006944653465,0
10.305734157562256,1.1925183682438982,[1.03985375],0.005,0.1,-0.011912961350943895,-0.14888466344644144,0
10.315511703491211,1.1884149951924285,[1.03526812],0.005,0.1,-0.0034500339935883946,-0.10090551349529758,0
10.324549674987793,1.1848978182911682,[1.0307018],0.005,0.1,0.002285068569322793,-0.10468153985904977,0
10.334536790847778,1.1807944452396981,[1.02615936],0.005,0.1,0.006024721238631278,-0.10879401570251883,0
10.34485936164856,1.1763002747547546,[1.02163611],0.005,0.1,-0.26769935129845895,-0.11272511188280884,0
10.354262351989746,1.172587699136758,[1.01712678],0.005,0.1,-0.29950841767574443,-0.11758453314803541,0
10.36176586151123,1.169656718385708,[1.01263356],0.005,0.1,-0.24378302844572636,-0.08604174209265478,0
10.36981987953186,1.1665303389179214,[1.00817296],0.005,0.1,-0.1675339721225913,-0.06701411796572747,0
10.379837274551392,1.1622315671497148,[1.00375786],0.005,0.1,-0.09715320803135703,-0.08608580531128826,0
10.390772581100464,1.1571512005145612,[0.99938179],0.005,0.1,-0.3169069003984994,-0.1022490480294441,0
10.400546789169312,1.1532432261798278,[0.99502109],0.005,0.1,-0.3084894437119471,-0.1640009304652629,0
10.410523176193237,1.1491398531283576,[0.99064556],0.005,0.1,-0.22449832047601648,-0.1647099826642448,0
10.41895580291748,1.1456226762270976,[0.98624556],0.005,0.1,-0.12943681018034076,-0.11803529207180438,0
10.428919076919556,1.1417147018923641,[0.98182035],0.005,0.1,-0.047319080485401385,-0.18755106917301112,0
10.438990831375122,1.1374159301241575,[0.97735071],0.005,0.1,0.01559621217990046,-0.18761615046074834,0
10.45077133178711,1.132530962205741,[0.97281974],0.005,0.1,0.060187259969079546,-0.188426862077113,0
10.459309339523315,1.128818386587744,[0.96822168],0.005,0.1,0.08968335470852754,-0.1921634368423489,0
10.469751834869385,1.1243242161028004,[0.96355141],0.005,0.1,0.1076384163090412,-0.19604168202956437,0
10.47875165939331,1.1210024379182773,[0.95881417],0.005,0.1,0.11717414253897201,-0.1420014391886136,0
10.491766214370728,1.1159220712831237,[0.95401429],0.005,0.1,0.12078096508544056,-0.2260485925579386,0
10.501163244247437,1.1120140969483903,[0.94913604],0.005,0.1,0.12034401278098669,-0.22672612651167717,0
10.510839700698853,1.1077153251801837,[0.94416631],0.005,0.1,0.1172438577589436,-0.22802154109301165,0
10.520325183868408,1.1036119521287135,[0.93910412],0.005,0.1,0.11246825462299087,-0.23081605052721785,0
10.52780294418335,1.1006809713776635,[0.93395928],0.005,0.1,0.10671090273466433,-0.16700048284541086,0
10.535912990570068,1.0973591931931401,[0.9287507],0.005,0.1,0.10045079377404958,-0.18982998710561172,0
10.543749570846558,1.0942328137253534,[0.92349486],0.005,0.1,0.09401280821343616,-0.14373137519099133,0
10.55279541015625,1.09032483939062,[0.91820604],0.005,0.1,0.08761260994546852,-0.1741673505075242,0
10.561673402786255,1.08680766248936,[0.91288613],0.005,0.1,0.0813892655374044,-0.20010225016750693,0
10.571598768234253,1.0828996881546264,[0.90752649],0.005,0.1,0.07542863232329917,-0.22058961084812875,0
10.580795526504517,1.07918711253663,[0.90211987],0.005,0.1,0.06977996883638252,-0.2373475524678974,0
10.589761972427368,1.075474536918633,[0.89666032],0.005,0.1,0.06446764603817474,-0.2512119444096366,0
10.598328590393066,1.0709803664336897,[0.89114307],0.005,0.1,0.059499354520939296,-0.26178025199047383,0
10.608023643493652,1.0676585882491663,[0.88557499],0.005,0.1,0.054871824210107126,-0.19177035490758312,0
10.61677360534668,1.0641414113479062,[0.87998334],0.005,0.1,0.05057478787633026,-0.14911005887986614,0
10.628387212753296,1.0592564434294893,[0.87438053],0.005,0.1,0.3226320697307932,-0.27001672697714413,0
10.636101722717285,1.0563254626784393,[0.86875565],0.005,0.1,0.35207461397399226,-0.2002469562751691,0
10.647125244140625,1.0514404947600227,[0.86309911],0.005,0.1,0.01753787425379877,-0.3242518643327304,0
10.655218839645386,1.048314115292236,[0.8574025],0.005,0.1,-0.09481030916806954,-0.23493764763815136,0
10.662712335586548,1.045187735824449,[0.8516805],0.005,0.1,-0.11312989890174528,-0.18023800064318474,0
10.670761823654175,1.0416705589231892,[0.84595622],0.005,0.1,0.1797043590470528,-0.22441999570557097,0
10.681931257247925,1.036980989721509,[0.84022668],0.005,0.1,0.2388968349521113,-0.26082014317447383,0
10.69081425666809,1.033463812820249,[0.83447761],0.005,0.1,0.20874332459771594,-0.2926167200621017,0
10.69880199432373,1.0301420346357255,[0.82869622],0.005,0.1,0.15304465373993897,-0.3198992661033553,0
10.7084219455719,1.0264294590177288,[0.82285955],0.005,0.1,0.09786665281814814,-0.46808396621947007,0
10.715930461883545,1.0234984782666787,[0.81694796],0.005,0.1,0.05216572795712389,-0.33125609271354217,0
10.72369909286499,1.0201767000821553,[0.81097985],0.005,0.1,0.017573608575649116,-0.24858752504387643,0
10.731772661209106,1.016854921897632,[0.80499434],0.005,0.1,-0.007079856061755031,-0.19899582641650543,0
10.741732120513916,1.0127515488461618,[0.79901258],0.005,0.1,-0.023763957317677345,-0.2608779312679067,0
10.750786066055298,1.0092343719449017,[0.79302818],0.005,0.1,-0.03442677683836842,-0.315022741441816,0
10.759736776351929,1.005521796326905,[0.78702313],0.005,0.1,-0.04071168660937993,-0.3597970572279096,0
10.768612623214722,1.001418423275435,[0.78099378],0.005,0.1,-0.043904236345106644,-0.2733142269698324,0
10.778125047683716,0.9977058476574382,[0.77494887],0.005,0.1,-0.04496761086357222,-0.3321707883536964,0
10.788702487945557,0.9936024746059682,[0.76888317],0.005,0.1,0.23143462120539474,-0.3813824127291775,0
10.801290273666382,0.9881313105373414,[0.76276713],0.005,0.1,0.26584877936938667,-0.5755347214730864,0
10.810168504714966,0.9846141336360814,[0.75656317],0.005,0.1,0.2126139023322723,-0.5665331402134575,0
10.8200204372406,0.9805107605846113,[0.75025248],0.005,0.1,-0.13731906390908374,-0.5605582600447824,0
10.829712629318237,0.976602786249878,[0.74383259],0.005,0.1,0.03742299683584076,-0.5598882875833813,0
10.837731838226318,0.9734764067820911,[0.73730254],0.005,0.1,0.07142198908810203,-0.56404442179487,0
10.846709251403809,0.9697638311640945,[0.73066281],0.005,0.1,0.05278484088877874,-0.5679208991834913,0
10.858801126480103,0.9648788632456776,[0.72390261],0.005,0.1,0.020106495531221468,-0.7596378741921637,0
10.86778450012207,0.961166287627681,[0.71701446],0.005,0.1,-0.011125507639779411,-0.5257084128268403,0
10.876756429672241,0.9576491107264208,[0.710019],0.005,0.1,-0.03582420193242819,-0.5446881464715783,0
10.886812686920166,0.9533503389582141,[0.70293522],0.005,0.1,-0.05329652842751849,-0.560577347600269,0
10.898723602294922,0.9482699723230607,[0.6957552],0.005,0.1,-0.06448266411660433,-0.7652593847729187,0
10.90774416923523,0.9449481941385374,[0.68847358],0.005,0.1,-0.07074548861583443,-0.5346335514807016,0
10.916765451431274,0.9412356185205405,[0.6811123],0.005,0.1,-0.07338412439367387,-0.5594976306641517,0
10.925836086273193,0.9373276441858072,[0.67369083],0.005,0.1,-0.07347382111270542,-0.5824261187530115,0
10.935075759887695,0.9334196698510738,[0.6662263],0.005,0.1,-0.07184403122481224,-0.4292240397823858,0
10.943663358688354,0.929707094233077,[0.65874617],0.005,0.1,-0.06910809835351468,-0.49159225886306335,0
10.95309829711914,0.9257991198983436,[0.65126091],0.005,0.1,-0.06570651750679862,-0.5437951706376128,0
10.960742712020874,0.9228681391472936,[0.64377917],0.005,0.1,-0.061948420162928834,-0.4131899886756817,0
10.969801425933838,0.919155563529297,[0.63632058],0.005,0.1,-0.05804618196026906,-0.4914707234512398,0
10.977811336517334,0.9158337853447734,[0.62890106],0.005,0.1,-0.054142401476064334,-0.38488156439814314,0
10.98731541633606,0.91192581101004,[0.62152012],0.005,0.1,-0.05033013385144835,-0.6742466816784503,0
10.994717597961426,0.9087994315422533,[0.61416327],0.005,0.1,-0.046667702610142844,-0.5035102013869377,0
11.005845546722412,0.9041098623405732,[0.60681708],0.005,0.1,-0.04318936818883291,-0.8013869220637144,0
11.016715049743652,0.8998110905723665,[0.59945576],0.005,0.1,-0.03991292406523127,-0.8097636066781465,0
11.02689814567566,0.8955123188041597,[0.5920567],0.005,0.1,-0.03684505791229313,-0.8210055888083566,0
11.03523302078247,0.8921905406196363,[0.58461343],0.005,0.1,-0.03398510773999604,-0.8388435245249924,0
11.045188665390015,0.8880871675681662,[0.5771201],0.005,0.1,-0.03132767575326857,-0.8579506884392292,0
11.052738428115845,0.8849607881003796,[0.56958537],0.005,0.1,-0.028864434590723534,-0.6318302613821779,0
11.063725709915161,0.8804666176154361,[0.56201613],0.005,0.1,-0.026585365479446725,-0.9866942013828198,0
11.071730136871338,0.8771448394309127,[0.55440404],0.005,0.1,-0.02447959851401087,-0.7182023817400187,0
11.083002805709839,0.8720644727957593,[0.54674177],0.005,0.1,-0.022535975380837146,-1.083308327109135,0
11.090727806091309,0.8689380933279726,[0.53902312],0.005,0.1,0.25529494042633155,-0.7823832909677991,0
11.099960803985596,0.8648347202765025,[0.53125744],0.005,0.1,0.2900717915073556,-0.8526602699138964,0
11.110708951950073,0.8607313472250324,[0.52345314],0.005,0.1,0.23649677054307158,-0.9096862696614781,0
11.120571613311768,0.8566279741735624,[0.51560376],0.005,0.1,0.1618137395169354,-0.9521038188443729,0
11.128946304321289,0.8535015947057756,[0.50770492],0.005,0.1,0.0925819402716554,-0.9843250996249332,0
11.137815475463867,0.8497890190877789,[0.49976825],0.005,0.1,0.03714849623303794,-0.725001047075383,0
11.146318435668945,0.8462718421865187,[0.49181896],0.005,0.1,-0.003755305016406703,-0.8119144453577445,0
11.155680656433105,0.8423638678517854,[0.4838658],0.005,0.1,-0.03216377539009979,-0.8726296416684396,0
11.16645097732544,0.8378696973668419,[0.47590403],0.005,0.1,-0.05076517454619119,-0.9070881360010771,0
11.173715114593506,0.8351341153325286,[0.46794479],0.005,0.1,-0.06206524883602654,-0.672838758202371,0
