t_s,q_rad,q_des_rad,K,B,Kff,jerk,tau_Nm,reward
0.00568389892578125,-0.013677910171566917,[0.00024194],9.825212432529046,0.9781515540661307,1.9737818648793566,0.0,9.9,1.4619888492575392
0.0635218620300293,-0.013677910171566917,[0.00117939],9.650424865058092,0.9563031081322615,1.9475637297587132,0.0,9.999,1.4568124549692265
0.12738490104675293,-0.013873308888303588,[0.00296503],9.475637297587138,0.9344546621983922,1.92134559463807,0.0,9.99999,1.4448718775995333
0.19161510467529297,-0.013873308888303588,[0.00548422],9.300849730116184,0.9126062162645229,1.8951274595174268,0.0,9.9999999,1.4277965897325782
0.2550833225250244,-0.014068707605040257,[0.00862926],9.12606216264523,0.8907577703306536,1.8689093243967834,0.0,9.999999999,1.4020912850940948
0.32082271575927734,-0.014264106321776927,[0.01230658],8.951274595174274,0.8689093243967844,1.84269118927614,0.0,9.99999999999,1.3683154232397818
0.38348913192749023,-0.014264106321776927,[0.01645882],8.77648702770332,0.847060878462915,1.8164730541554968,0.0,-9.8000000000001,1.327968894108165
0.4469153881072998,-0.014264106321776927,[0.02107974],8.601699460232366,0.8252124325290457,1.7902549190348536,0.0,-9.998000000000001,1.2789273312026892
0.5109424591064453,-0.0144595050385136,[0.02615803],8.426911892761412,0.8033639865951765,1.7640367839142101,0.0,-9.99998,1.2189548130143069
0.5751638412475586,-0.0144595050385136,[0.03162324],8.252124325290458,0.7815155406613071,1.7378186487935667,0.0,-9.999999800000001,1.1539503800472555
0.6391968727111816,-0.0144595050385136,[0.03738654],8.077336757819502,0.7596670947274378,1.7116005136729235,0.0,-5.0499999980000005,1.084147121090011
0.7028656005859375,-0.0144595050385136,[0.04337168],7.902549190348549,0.7378186487935685,1.6853823785522803,0.0,-5.000499999980001,1.012277283781122
0.766798734664917,-0.014654903755250269,[0.04950761],7.727761622877595,0.7159702028596993,1.659164243431637,0.0,-5.0000049999998,0.9389518498006928
0.8315355777740479,-0.014850302471986938,[0.05574379],7.55297405540664,0.6941217569258299,1.6329461083109935,0.0,-5.000000049999998,0.8690935106401454
0.8948290348052979,-0.014850302471986938,[0.06207132],7.378186487935686,0.6722733109919605,1.6067279731903503,0.0,-5.0000000005,0.8062396786259763
0.9589002132415771,-0.014850302471986938,[0.0685049],7.203398920464732,0.6504248650580913,1.5805098380697071,0.0,-5.0000000000050004,0.7491704990446069
1.0228242874145508,-0.014850302471986938,[0.0750622],7.028611352993777,0.6285764191242219,1.5542917029490637,0.0,4.899999999999951,0.6985227230150115
1.0873713493347168,-0.011137726853990204,[0.08177958],6.853823785522822,0.6067279731903527,1.5280735678284203,5.0,4.999,0.6595979757705788
1.1521072387695312,0.013873308888303588,[0.08868465],6.679036218051868,0.5848795272564833,1.501855432707777,5.0,4.99999,0.8082248235736825
1.2148001194000244,0.038493547197124035,[0.09575996],6.504248650580913,0.563031081322614,1.475637297587134,5.0,4.999999900000001,1.0007128232183535
1.278766393661499,0.06350458293941783,[0.10299399],6.329461083109958,0.5411826353887447,1.4494191624664907,5.0,4.999999999,1.213799503277885
1.343339204788208,0.08910181483192163,[0.11046657],6.154673515639004,0.5193341894548753,1.4232010273458477,5.0,4.99999999999,1.3944845194664484
1.4076364040374756,0.11411285057421541,[0.11844082],5.97988594816805,0.5,1.3969828922252046,4.554938004698781,4.9999999999999005,1.4810524152274678
1.4708738327026367,0.1393192850332459,[0.12737946],5.805098380697095,0.5,1.3707647571045614,1.4336005431092858,4.999999999999999,1.470363172930746
1.5348238945007324,0.16433032077553966,[0.1377751],5.63031081322614,0.5,1.3445466219839184,-1.6976083477616677,5.0,1.3663174463824475
1.5992813110351562,0.18953675523457011,[0.14992975],5.455523245755186,0.5,1.3183284868632752,-4.216694849422663,5.0,1.2176446350296313
1.6636428833007812,0.2147431896936006,[0.16384032],5.280735678284231,0.5,1.292110351742632,-5.0,5.0,1.0773114990332482
1.7272286415100098,0.24014502286936773,[0.17923996],5.105948110813277,0.5,1.2658922166219888,-5.0,5.0,0.95794734162532
1.7907378673553467,0.26476526117818816,[0.19578782],5.0,0.5,1.2396740815013456,-5.0,5.0,0.8678635215858919
1.855571985244751,0.2907532905041653,[0.21328383],5.0,0.5,1.2134559463807026,-5.0,-4.9,0.7828349126170142
1.9200758934020996,0.3100977634610957,[0.23184755],5.0,0.5,1.1872378112600595,-5.0,-4.9990000000000006,0.775601635366377
1.983095407485962,0.2852821264355385,[0.25197108],5.0,0.5,1.1610196761394163,-5.0,4.90001,1.282707411248557
2.046689510345459,0.26417906502797817,[0.27424048],5.0,0.5,1.1348015410187733,-5.0,4.9990001,1.4616892409133326
2.1108908653259277,0.28938549948700865,[0.29891911],5.0,0.5,1.10858340589813,5.0,4.9999900010000005,1.4637183421915405
2.1748621463775635,0.3143965352293024,[0.32581756],5.0,0.5,1.082365270777487,5.0,4.999999900010001,1.455981436365454
2.2387759685516357,0.33960296968833287,[0.35451175],5.0,0.5,1.0561471356568437,5.0,4.9999999990001,1.4382513463386108
2.303091526031494,0.36500480286410003,[0.3846392],5.0,0.5,1.0299290005362005,5.0,-4.9000000000099995,1.407527564211502
2.3667235374450684,0.3849354719712404,[0.4160484],5.0,0.5,1.0037108654155575,-0.9448213548040174,-4.9990000000001,1.3233209851204444
2.4320602416992188,0.3593382400787366,[0.44885826],5.0,0.5,0.9774927302949143,-5.0,-4.999990000000001,0.6830707533957164
2.494739532470703,0.33393640690296944,[0.48342812],5.0,0.5,0.9512745951742712,-5.0,4.9000001,0.49318448071852933
2.5588972568511963,0.31244254806193567,[0.52012663],5.0,0.5,0.9250564600536281,-5.0,4.999000001,0.4819113467728563
2.624511241912842,0.33706278637075615,[0.55910266],5.0,0.5,0.898838324932985,5.0,4.99999000001,0.48178426664944624
2.6870954036712646,0.36187842339631326,[0.60029267],5.0,0.5,0.8726201898123418,5.0,4.9999999000001,0.4817436185316079
2.7513234615325928,0.3876710540055538,[0.64350107],5.0,0.5,0.8464020546916986,5.0,4.999999999000001,0.4817341283238109
2.814697265625,0.41248669103111085,[0.68838835],5.0,0.5,0.8201839195710555,5.0,4.99999999999,0.4817323065519727
2.878650188446045,0.43769312549014133,[0.73447418],5.0,0.5,0.7939657844504124,5.0,-4.9000000000001,0.4817320844882457
2.9427075386047363,0.45801459203075506,[0.78125068],5.0,0.5,0.7677476493297692,-2.119317159851854,-4.999000000000001,0.4966676759340095
3.006920337677002,0.4331989550051979,[0.82831252],5.0,0.5,0.741529514209126,-5.0,-4.99999,0.481732062123963
3.070708990097046,0.4076017231126941,[0.87540818],5.0,0.5,0.715311379088483,-5.0,-4.999999900000001,0.4817320621239355
3.134697198867798,0.3814182950699803,[0.92239999],5.0,0.5,0.6890932439678399,-5.0,-4.999999999,0.4817320621239355
3.1986992359161377,0.35562566446073984,[0.96918907],5.0,0.5,0.6628751088471967,-5.0,-4.99999999999,0.4817320621239355
3.263134717941284,0.32944223641802606,[1.01567553],5.0,0.5,0.6366569737265535,-5.0,-4.9999999999999005,0.4817320621239355
3.3266441822052,0.3042358019589956,[1.06173147],5.0,0.5,0.6104388386059104,-4.217234323801509,-4.999999999999999,0.4869345277890588
3.392035961151123,0.2776615764828084,[1.10718947],5.0,0.5,0.5842207034852673,-0.11346282161680987,-5.0,0.4999904168194079
3.4549002647399902,0.25265054074051463,[1.15186416],5.0,0.5,0.5580025683646241,4.005279165301104,-5.0,0.48819961183399896
3.5186820030212402,0.2264671126978008,[1.19556961],5.0,0.5,0.531784433243981,5.0,-5.0,0.4817320621239355
3.5826847553253174,0.20086988080529702,[1.2381272],5.0,0.5,0.5055662981233379,5.0,-5.0,0.4817320621239355
3.646713972091675,0.17468645276258318,[1.27937553],5.0,0.5,0.4793481630026947,5.0,-5.0,0.4817320621239355
3.7107794284820557,0.14928461958681605,[1.31917383],5.0,0.5,0.4531300278820516,5.0,-5.0,0.4817320621239355
3.7764525413513184,0.12290579282736558,[1.35740142],5.0,0.5,0.42691189276140845,5.0,-5.0,0.4817320621239355
3.8389201164245605,0.09750395965159846,[1.39395871],5.0,0.5,0.4006937576407653,5.0,-5.0,0.4817320621239355
3.902639627456665,0.07171132904235797,[1.4287683],5.0,0.5,0.3744756225201221,5.0,-5.0,0.4817320621239355
3.9666571617126465,0.04572329971638084,[1.46177292],5.0,0.5,0.3482574873994789,5.0,-5.0,0.4817320621239355
4.03065299987793,0.020321466540613703,[1.49293394],5.0,0.5,0.3220393522788358,5.0,-5.0,0.4817320621239355
4.095581769943237,-0.005080366635153426,[1.52223098],5.0,0.5,0.2958212171581926,5.0,-5.0,0.4817320621239355
4.1587629318237305,-0.02188465627450707,[1.54966003],5.0,0.5,0.2696030820375494,5.0,-5.169338839858531,0.4817320621239355
4.222854375839233,-0.030482199810920558,[1.57523139],5.0,0.5,0.24338494691690624,5.0,-1.8747415504474836,0.4817320621239355
4.287380218505859,-0.03341318056197061,[1.598968],5.0,0.5,0.21716681179626307,5.0,0.8109470273090059,0.4817320621239355
4.3513243198394775,-0.0328269844117606,[1.62090429],5.0,0.5,0.19094867667561988,5.0,2.9207025922862218,0.4817320621239355
4.4147162437438965,-0.01563189733893362,[1.64108471],5.0,0.5,0.16473054155497668,5.0,4.469043420745047,0.4817320621239355
4.479431390762329,0.010160733270306851,[1.65956222],5.0,0.5,0.13851240643433352,5.0,5.601874299972905,0.4817320621239355
4.542568683624268,0.03536716772933732,[1.67639692],5.0,0.5,0.11229427131369034,5.0,6.447060243215065,0.4817320621239355
4.606787919998169,0.061355197055314455,[1.69165482],5.0,0.5,0.08607613619304716,5.0,7.049453123322207,0.4817320621239355
4.671367645263672,0.08734322638129159,[1.70540656],5.0,0.5,0.05985800107240398,5.0,7.460884590995669,0.4817320621239355
4.734656810760498,0.11294045827379541,[1.71772634],5.0,0.5,0.0336398659517608,1.7219247615412803,7.725731988602103,0.49779769831788967
4.799206972122192,0.1393192850332459,[1.72869081],5.0,0.5,0.0074217308311176206,-2.9862740296453816,7.8732769083078695,0.49340543516512453
4.8625571727752686,0.164134922058803,[1.73837823],5.0,0.5,0.0,-5.0,7.844898480765605,0.4817320621239355
4.926616668701172,0.19012295138478016,[1.74686764],5.0,0.5,0.0,-5.0,7.755674512533553,0.4817320621239355
4.990563631057739,0.21572018327728396,[1.75423812],5.0,0.5,0.0,-5.0,7.6626969510606555,0.4817320621239355
5.054606914520264,0.24170821260326106,[1.76056814],5.0,0.5,0.0,-5.0,7.563079870682775,0.4817320621239355
5.118521213531494,0.26691464706229157,[1.765935],5.0,0.5,0.0,-5.0,7.46254007356441,0.4817320621239355
5.182959079742432,0.2934888725384787,[1.77041434],5.0,0.5,0.0,-5.0,7.351389242709607,0.4817320621239355
5.2486512660980225,0.31967230058119256,[1.77407972],5.0,0.5,0.0,-5.0,5.023513892427096,0.4817320621239355
5.311254024505615,0.34526953247369635,[1.77700227],5.0,0.5,0.0,-5.0,5.000235138924271,0.4817320621239355
5.375454902648926,0.3706713656494634,[1.7792504],5.0,0.5,0.0,-5.0,5.000002351389243,0.4817320621239355
5.43915319442749,0.39665939497544056,[1.78088961],5.0,0.5,0.0,-5.0,6.865596902248992,0.4817320621239355
5.503813982009888,0.42186582943447104,[1.78198226],5.0,0.5,0.0,-5.0,6.764555828834228,0.4817320621239355
5.566658973693848,0.44746306132697483,[1.78258749],5.0,0.5,0.0,-5.0,6.6396275324141625,0.4817320621239355
5.630557537078857,0.4730602932194786,[1.7827611],5.0,0.5,0.0,-5.0,6.512397420771106,0.4817320621239355
5.694547176361084,0.4988529238287191,[1.78255552],5.0,0.5,0.0,-5.0,6.38241213505731,0.4817320621239355
5.76040506362915,0.5248409531546963,[1.78201979],5.0,0.5,0.0,-5.0,6.2497991152284555,0.4817320621239355
5.822583913803101,0.5502427863304634,[1.78119957],5.0,0.5,0.0,-5.0,6.118763730296377,0.4817320621239355
5.886559724807739,0.5752538220727572,[1.7801372],5.0,0.5,0.0,-5.0,5.988602649874364,0.4817320621239355
5.950538396835327,0.601437250115471,[1.77887174],5.0,0.5,0.0,-5.0,5.8513860030851,0.4817320621239355
6.016533136367798,0.6276206781581847,[1.77743907],5.0,0.5,0.0,-5.0,5.713239934965458,0.4817320621239355
6.079023361206055,0.6528271126172153,[1.77587199],5.0,0.5,0.0,-4.85703672309136,5.579273247356892,0.4827438017235177
6.143104314804077,0.6782289457929824,[1.7742003],5.0,0.5,0.0,-4.583947164223517,5.443878051903145,0.484600363954452
6.206460237503052,0.7034353802520129,[1.77245097],5.0,0.5,0.0,-3.989798233100336,5.308993118179437,0.48828958104177866
6.2705981731414795,0.7290326121445166,[1.77064826],5.0,0.5,0.0,-3.9093556215844547,5.172044884810231,0.48875173460510485
6.334485769271851,0.7538482491700736,[1.76881382],5.0,0.5,0.0,-3.6866599140324947,5.038800129751569,0.4899841856112494
6.398555755615234,0.779836278496051,[1.76696689],5.0,0.5,0.0,-3.4162309750233946,4.899650747624625,0.49138741338584047
6.4626688957214355,0.8048473142383447,[1.76512438],5.0,0.5,0.0,-3.1408186621965237,4.765342406482283,0.4927103422089465
6.5265913009643555,0.8306399448475852,[1.76330108],5.0,0.5,0.0,-2.6024018588124047,4.627193981541054,0.4949838817914432
6.592480897903442,0.8568233728902991,[1.76150977],5.0,0.5,0.0,-2.326406339484766,4.487255183284969,0.49598736828525725
6.6547205448150635,0.8818344086325928,[1.75976137],5.0,0.5,0.0,-2.4354711059004446,4.353502122744526,0.4956040124446766
6.720291376113892,0.9072362418083599,[1.75806507],5.0,0.5,0.0,-2.3425389657570617,4.218081141336502,0.4959317513830024
6.7828991413116455,0.9322472775506537,[1.75642848],5.0,0.5,0.0,-2.1741104607397403,4.084861216226001,0.4964937516496822
6.847195625305176,0.9578445094431576,[1.75485779],5.0,0.5,0.0,-2.539360936014722,3.949340888965664,0.4952228098328461
6.910457134246826,0.9826601464687146,[1.75335783],5.0,0.5,0.0,-2.42450940205212,3.817869049744471,0.4956433222868118
6.975780248641968,1.0088435745114284,[1.75193227],5.0,0.5,0.0,-2.4238310594220205,3.6801042389612135,0.49564574917190424
7.039689779281616,1.0342454076871956,[1.75058369],5.0,0.5,0.0,-1.8788826774301848,3.5462763957111596,0.49737901083857666
7.103091239929199,1.0590610447127526,[1.7493137],5.0,0.5,0.0,-1.5157113028919336,3.4157960976234985,0.49829274989748695
7.1663734912872314,1.084267479171783,[1.74812306],5.0,0.5,0.0,-1.2618861502812382,3.283816473673917,0.49881605280419933
7.230444431304932,1.1096693123475503,[1.74701179],5.0,0.5,0.0,-1.0763546263238692,3.15125196444747,0.49913832607749437
7.2947070598602295,1.1348757468065809,[1.74597922],5.0,0.5,0.0,-0.9351483848289147,3.020040725281245,0.4993494434630405
7.358737945556641,1.1600821812656115,[1.74502413],5.0,0.5,0.0,-0.5477839298743025,2.889085389755001,0.49977667967805856
7.423563003540039,1.1856794131581152,[1.7441448],5.0,0.5,0.0,-0.7002590888257454,2.756787288083142,0.49963510688851176
7.486485242843628,1.2101042527501988,[1.74333909],5.0,0.5,0.0,-0.43711249483107795,2.630465946817787,0.49985778960302857
7.550748348236084,1.2353106872092292,[1.74260453],5.0,0.5,0.0,-0.36092655898743986,2.500741178988298,0.49990303784841356
7.614370822906494,1.2601263242347864,[1.74193834],5.0,0.5,0.0,-0.6311245238494825,2.373424407868814,0.4997035796457803
7.678750038146973,1.285332758693817,[1.74133754],5.0,0.5,0.0,-0.677908637450122,2.2444631768364753,0.4996580202047713
7.74282693862915,1.3099529970026373,[1.74079897],5.0,0.5,0.0,-0.6357296057110471,2.118666327979472,0.49969923943109884
7.806386470794678,1.3349640327449313,[1.74031935],5.0,0.5,0.0,-0.8413280616132354,1.991386354797263,0.499473366344556
7.870498180389404,1.3595842710537516,[1.73989531],5.0,0.5,0.0,-1.0775512251750756,1.86636507905772,0.499136410798738
7.935429096221924,1.384790705512782,[1.73952344],5.0,0.5,0.0,-0.9897841691458269,1.7386126310912597,0.4992712627053393
7.998611211776733,1.4096063425383392,[1.73920034],5.0,0.5,0.0,-0.802490593024025,1.6129535004794908,0.49952084274888275
8.062754392623901,1.4344219795638962,[1.73892259],5.0,0.5,0.0,-0.609105369779265,1.4875122663937592,0.49972390554086077
8.126355171203613,1.45943301530619,[1.73868687],5.0,0.5,0.0,-0.44319256414010566,1.361300166308163,0.4998539749495745
8.191734790802002,1.4846394497652204,[1.73848987],5.0,0.5,0.0,-0.31233099927164554,1.2342979686099287,0.49992991670353526
8.25446105003357,1.5088688906405676,[1.73832842],5.0,0.5,0.0,0.06216670041354497,1.1121541289833083,0.5000238368000252
8.318671226501465,1.5338799263828615,[1.73819941],5.0,0.5,0.0,0.16717631248588743,0.986420040482533,0.5002157603045815
8.382491827011108,1.557913968541472,[1.73809988],5.0,0.5,0.0,0.1634528183032971,0.865666780238113,0.5014935185141746
8.447734117507935,1.5835112004339755,[1.73802697],5.0,0.5,0.0,0.1234632939817177,0.7373746862254578,0.5084265299554497
8.511543035507202,1.6077406413093227,[1.73797797],5.0,0.5,0.0,-0.19812580163001978,0.6160471270166583,0.5336002596186659
8.574937582015991,1.6327516770516164,[1.7379503],5.0,0.5,0.0,0.0051661979460217305,0.49081675620930937,0.6093337467174368
8.638679027557373,1.656785719210227,[1.73794153],5.0,0.5,0.0,-0.21329428347974158,0.3706571198516203,0.7678362297798578
8.702481985092163,1.6814059575190474,[1.73794938],5.0,0.5,0.0,-0.7995304005940039,0.24796114019933757,1.0271165573968775
8.766416072845459,1.7017274240596612,[1.7379717],5.0,0.5,0.0,-5.0,0.14869921580097753,1.2506819171588242
8.830305337905884,1.7167731252483849,[1.73800651],5.0,0.5,0.0,-5.0,0.07918020401340255,1.3955066915148544
8.894343614578247,1.7226350867504847,[1.73805195],5.0,0.5,0.0,-5.0,0.058844640295532484,1.435308249302886
8.958875894546509,1.7218534918835382,[1.73810633],5.0,0.5,0.0,-5.0,0.07205199747566907,1.4302724179687507
9.022431135177612,1.720290302149645,[1.73816807],5.0,0.5,0.0,-5.0,0.08586012850267978,1.4198093744412374
9.08686375617981,1.7183363149822781,[1.73823574],5.0,0.5,0.0,-5.0,0.09896408020215197,1.405589572136872
9.150273323059082,1.7167731252483849,[1.73830804],5.0,0.5,0.0,-5.0,0.10852778991896973,1.393152920393929
9.214827299118042,1.7154053342312279,[1.73838379],5.0,0.5,0.0,-1.989458757894056,0.11629511459684834,1.3968451674020494
9.278433561325073,1.7134513470638615,[1.73846193],5.0,0.5,0.0,0.7228230541005698,0.12697954893637384,1.382014753002155
9.342344522476196,1.7113019611797582,[1.7385415],5.0,0.5,0.0,3.0910962683498946,0.1385359636744555,1.3550251827915554
9.406754970550537,1.709543372729128,[1.73862168],5.0,0.5,0.0,5.0,0.14781917527294625,1.3261484511214607
9.470290660858154,1.7081755817119713,[1.73870171],5.0,0.5,0.0,5.0,0.15482694516520665,1.3116994502523562
9.534407138824463,1.707784784278498,[1.73878095],5.0,0.5,0.0,5.0,0.15624381790818137,1.3069131563373464
9.59840726852417,1.707784784278498,[1.73885883],5.0,0.5,0.0,5.0,0.15601124829296556,1.3061156910574643
9.662291526794434,1.707784784278498,[1.73893235],5.0,0.5,0.0,5.0,0.1199273635601517,1.3053618359702228
9.726290702819824,1.707784784278498,[1.73896403],5.0,0.5,0.0,5.0,-0.11036597701287443,1.3050366728281686
9.790404558181763,1.707589385561761,[1.73885795],5.0,0.5,0.0,5.0,-0.0926806379969571,1.304118724597556
9.854353666305542,1.7019228227763976,[1.73851672],5.0,0.5,0.0,-1.1614475334093286,-0.05868605403926387,1.2640402685287127
9.919538736343384,1.6903942984889342,[1.73790539],5.0,0.5,0.0,-5.0,0.03853219006430125,1.1184295078082649
9.982662439346313,1.6761301921671574,[1.73703436],5.0,0.5,0.0,-5.0,0.06797914658249442,0.9579576519755986
10.046331405639648,1.6636246742960106,[1.73583769],5.0,0.5,0.0,-4.393480865571629,-0.11834150300812472,0.8382512086694498
10.112169981002808,1.6540501371759135,[1.73399548],5.0,0.5,0.0,2.32810495939827,-0.7492349476615149,0.7745053737721781
10.175808191299438,1.6411538218712933,[1.73101576],5.0,0.5,0.0,0.880476182747675,-0.8873898197809217,0.6983072021065092
10.238228797912598,1.6167289822792097,[1.72658627],5.0,0.5,0.0,-5.0,-0.576215058529083,0.5712134600770784
10.302294969558716,1.5907409529532324,[1.72069597],5.0,0.5,0.0,-5.0,-0.21361833713850537,0.5158592365892267
10.366283416748047,1.564166727477045,[1.71347269],5.0,0.5,0.0,-5.0,0.044938545214962024,0.49331231166687056
10.43029522895813,1.5381786981510683,[1.70508362],5.0,0.5,0.0,-2.7308701731722373,0.36954883314708253,0.4982841824547686
10.494476318359375,1.517466434176981,[1.69579174],5.0,0.5,0.0,5.0,0.7051518482436406,0.4834614579476333
10.55838131904602,1.508673491923831,[1.68601074],5.0,0.5,0.0,5.0,1.262830321636658,0.4835873783915792
10.62221622467041,1.5160986431598242,[1.67623287],5.0,0.5,0.0,5.0,1.4670556589144366,0.48765694703326506
10.686232805252075,1.5397418878849616,[1.66688838],5.0,0.5,0.0,5.0,1.3769689430305827,0.5211613693146979
10.75048279762268,1.5637759300435718,[1.65819987],5.0,0.5,0.0,5.0,0.8914903876842896,0.6498354488678624
10.814249277114868,1.588200769635656,[1.65003755],5.0,0.5,0.0,5.0,0.004834223173471625,0.9471788959127958
10.878609418869019,1.6116486156440561,[1.64190031],5.0,0.5,0.0,5.0,-0.9409669846131445,1.3144727585974771
10.942563772201538,1.6210277540474165,[1.63310983],5.0,0.5,0.0,-5.0,-1.5605251099347879,1.4529588352312859
11.006266117095947,1.6020740785239593,[1.62305958],5.0,0.5,0.0,-5.0,-1.7291312991207852,1.3974212726186168
11.070220232009888,1.5756952517645089,[1.61126018],5.0,0.5,0.0,-5.0,-1.9979473416208382,1.258221012807614
11.134482383728027,1.5493164250050584,[1.59721326],5.0,0.5,0.0,-5.0,-2.302326662180078,1.1137602010790426
11.200103282928467,1.5221560033786614,[1.58049806],5.0,0.5,0.0,-5.0,-2.0785351243615326,0.9879645836050835
11.262227535247803,1.4965587714861572,[1.56107046],5.0,0.5,0.0,-5.0,-1.3655647147053613,0.9167570882199916
11.327220439910889,1.4699845460099703,[1.53938291],5.0,0.5,0.0,-5.0,-0.39730403298084416,0.8633914790835722
11.39058232307434,1.4438011179672565,[1.51623424],5.0,0.5,0.0,-3.119844157500038,0.621361357071067,0.842985464146701
11.454291343688965,1.418008487358016,[1.49253725],5.0,0.5,0.0,1.3604228445498368,1.1149671993257544,0.8278842693804453
11.518244743347168,1.4088247476713924,[1.4691865],5.0,0.5,0.0,5.0,1.579767750762136,0.9642639666187242
11.582678079605103,1.425238239877273,[1.44702984],5.0,0.5,0.0,5.0,1.816336042511511,1.3911279611790794
11.64625883102417,1.4496630794693566,[1.42682459],5.0,0.5,0.0,5.0,1.8072121972922204,1.3826696616936212
11.710917949676514,1.474283317778177,[1.40907408],5.0,0.5,0.0,5.0,1.2468070817181944,0.9089552040692213
11.7742440700531,1.498121961220051,[1.39380705],5.0,0.5,0.0,5.0,0.20931558753622864,0.5951903163292347
11.8385910987854,1.5221560033786614,[1.38048244],5.0,0.5,0.0,5.0,-1.223374666058499,0.49978801750718066
11.902197360992432,1.5366155084171749,[1.36812038],5.0,0.5,0.0,-5.0,-2.4383082954739166,0.4851520377683627
11.968105554580688,1.5166848393100343,[1.35560609],5.0,0.5,0.0,-5.0,-3.1631468596598786,0.4873081226668396
12.030192375183105,1.4912830061342672,[1.3419314],5.0,0.5,0.0,-5.0,-3.5606008497535537,0.4932807815070203
12.094207286834717,1.4649041793748168,[1.32627033],5.0,0.5,0.0,-5.0,-3.7694190820984805,0.5031426738197582
12.159977197647095,1.437548359031683,[1.30801862],5.0,0.5,0.0,-5.0,-3.6602562036015476,0.5166208229527894
12.22224736213684,1.411951127139179,[1.28689285],5.0,0.5,0.0,-5.0,-3.1838280680607105,0.5255411328858174
12.286097288131714,1.385376901662992,[1.26299842],5.0,0.5,0.0,-5.0,-2.499234867784394,0.5317537523117339
12.35213589668274,1.3580210813198583,[1.23676214],5.0,0.5,0.0,-3.9956955564026098,-1.792289599776355,0.5410816413931702
12.414593696594238,1.3324238494273544,[1.20878863],5.0,0.5,0.0,-1.1001321448651225,-1.2103191982842607,0.5461221538555802
12.478193998336792,1.3066312188181142,[1.17972424],5.0,0.5,0.0,1.8674611918953732,-0.8433699257245462,0.5373227755911437
12.542537927627563,1.2802523920586635,[1.15018224],5.0,0.5,0.0,3.995957536611679,-0.41105399784749685,0.5221772705003305
12.606759309768677,1.2536781665824763,[1.12070465],5.0,0.5,0.0,5.0,-0.33756330849184135,0.5108502745242643
12.670058965682983,1.2278855359732357,[1.09172969],5.0,0.5,0.0,5.0,-0.26480449781815396,0.5062663657288498
12.735336303710938,1.2011159117803119,[1.06361674],5.0,0.5,0.0,5.0,-0.175731611930884,0.5045272797290389
12.798490762710571,1.1749324837375983,[1.03665766],5.0,0.5,0.0,5.0,-0.23120646564719627,0.5035726486973924
12.862785339355469,1.1485536569781476,[1.01102309],5.0,0.5,0.0,5.0,-0.38247638935898465,0.5044879504412283
12.927521228790283,1.1217840327852238,[0.9867218],5.0,0.5,0.0,5.0,-0.6989637912417765,0.5077658122506249
12.990291357040405,1.0963821996094567,[0.96361148],5.0,0.5,0.0,5.0,-0.9643036457125319,0.5111658311404988
13.054245233535767,1.0694171766997962,[0.94149134],5.0,0.5,0.0,5.0,-1.0789613646171963,0.5196244982714057
13.119550704956055,1.0430383499403457,[0.92023663],5.0,0.5,0.0,5.0,-0.9571761134202178,0.5307263140723533
13.182148694992065,1.0170503206143686,[0.89990236],5.0,0.5,0.0,5.0,-0.5570518056098029,0.5459977941520607
13.2465341091156,0.9904760951381815,[0.88077998],5.0,0.5,0.0,5.0,0.026985599422170495,0.5718489613835248
13.311665296554565,0.9642926670954678,[0.86335933],5.0,0.5,0.0,5.0,0.5967321594234161,0.6120852585979619
13.374117136001587,0.9453389915720106,[0.84817049],5.0,0.5,0.0,5.0,0.9075874138177816,0.6330542955323908
13.43820571899414,0.9424080108209606,[0.8356137],5.0,0.5,0.0,5.0,0.8959102499073381,0.5839135069772449
13.502703428268433,0.9601892940439976,[0.82582887],5.0,0.5,0.0,5.0,0.3770341475973238,0.508769175285118
13.566108703613281,0.984809532352818,[0.81861054],5.0,0.5,0.0,5.0,-0.391279444243214,0.4857202405677863
13.630132675170898,1.0076711822110085,[0.81344754],5.0,0.5,0.0,5.0,-1.2108100410806997,0.48226103955488164
13.694124937057495,1.0109929603955317,[0.80964261],5.0,0.5,0.0,-5.0,-1.878722208500769,0.4820330645144491
13.758023977279663,0.9873497156703948,[0.80642798],5.0,0.5,0.0,-5.0,-2.2767685681109,0.4831671422906861
13.822043180465698,0.9603846927607341,[0.80304243],5.0,0.5,0.0,-5.0,-2.5920578077400744,0.48880614364710867
13.888237714767456,0.933810467284547,[0.79875709],5.0,0.5,0.0,-5.0,-2.833740138371029,0.5077782685783624
13.95126986503601,0.9074316405250966,[0.79295484],5.0,0.5,0.0,-5.0,-2.742509368207924,0.5544630483019181
14.014886379241943,0.8818344086325928,[0.78530696],5.0,0.5,0.0,-5.0,-2.231903381855248,0.6368593106208433
14.0780930519104,0.8554555818731422,[0.77589081],5.0,0.5,0.0,-5.0,-1.4407961822543438,0.7636580552944741
14.142017841339111,0.8292721538304285,[0.76512074],5.0,0.5,0.0,-5.0,-0.6854436925318917,0.920808946584435
14.207945346832275,0.802307130920768,[0.75354113],5.0,0.5,0.0,-3.3176948949964236,-0.010477727619528547,1.113369822165101
14.270658016204834,0.7771006964617375,[0.74165615],5.0,0.5,0.0,-0.31886024166528526,0.19082424230605258,1.2777419995504962
14.334082126617432,0.7556068376207038,[0.72987379],5.0,0.5,0.0,5.0,0.3552778349915379,1.3576893207042346
14.39800500869751,0.7434921171830302,[0.71847387],5.0,0.5,0.0,5.0,0.2986659406292587,1.3640679067091637
14.463486671447754,0.7413427312989268,[0.70760939],5.0,0.5,0.0,5.0,0.19599767861111272,1.2781846098580614
14.526097297668457,0.7450553069169236,[0.69735044],5.0,0.5,0.0,5.0,-0.0020666231466497714,1.116084279479041
14.591220378875732,0.7493540786851303,[0.68767988],5.0,0.5,0.0,5.0,-0.2574010154975626,0.9490518870228044
14.654175996780396,0.7491586799683937,[0.67848054],5.0,0.5,0.0,5.0,-0.5623650740625818,0.8499501292493876
14.71897292137146,0.7411473325821902,[0.66954691],5.0,0.5,0.0,-5.0,-0.8743992040466604,0.8404122616569295
14.782499551773071,0.7188718788742098,[0.66058732],5.0,0.5,0.0,-5.0,-1.1200976322349017,0.9886440192746391
14.846059560775757,0.6928838495482326,[0.65124597],5.0,0.5,0.0,-5.0,-1.342160695971514,1.1887193940568992
14.911095380783081,0.6661142253553088,[0.64117383],5.0,0.5,0.0,-5.0,-1.377917303245185,1.3647544831460663
14.974100828170776,0.6403215947460684,[0.63012438],5.0,0.5,0.0,-5.0,-1.2656389308920484,1.4611501910541551
15.038106918334961,0.6145289641368279,[0.61800916],5.0,0.5,0.0,-5.0,-0.9974495581212046,1.479312642176697
15.101983308792114,0.5881501373773773,[0.60491091],5.0,0.5,0.0,-4.775123666126944,-0.6064065177696868,1.4286757303050706
15.166406154632568,0.5615759119011904,[0.59104371],5.0,0.5,0.0,-3.216497699766545,-0.2802186938480976,1.3329316187786058
15.230719804763794,0.5353924838584764,[0.57664662],5.0,0.5,0.0,-0.9338685935991875,-0.09342570939050628,1.2108506380300132
15.293933153152466,0.5097952519659726,[0.56190034],5.0,0.5,0.0,0.8833580568587396,-0.012109484262372273,1.0804290532348189
15.358009576797485,0.48576120980736226,[0.54691296],5.0,0.5,0.0,4.127120274059725,0.004396204121759047,0.9608360661536018
15.421952962875366,0.4642673509663285,[0.53174725],5.0,0.5,0.0,5.0,0.025496571296631677,0.8839716450750844
15.4861421585083,0.4494170484943415,[0.51645945],5.0,0.5,0.0,5.0,0.03986460179898413,0.8887342663927621
15.55039358139038,0.439647112657508,[0.5011098],5.0,0.5,0.0,5.0,0.0057835866606670006,0.9514924955962321
15.613919973373413,0.4345667460223547,[0.48575267],5.0,0.5,0.0,5.0,-0.03625211518102191,1.073879451831734
15.677893161773682,0.4322219614215146,[0.47044567],5.0,0.5,0.0,5.0,-0.06338219410843618,1.2283435269136054
15.741997003555298,0.4290955819537278,[0.45525928],5.0,0.5,0.0,5.0,-0.08589294665238391,1.3537826822896837
15.806291103363037,0.4226474243014178,[0.44026888],5.0,0.5,0.0,2.306923842870443,-0.09825319416124892,1.4358399739880734
15.870828866958618,0.41424527948174095,[0.42554781],5.0,0.5,0.0,-3.6330582100151005,-0.20475810660581348,1.4650446904606775
15.934516429901123,0.4033029513444874,[0.41116622],5.0,0.5,0.0,-5.0,-0.22807650866579487,1.4694420194561366
15.998077630996704,0.38825725015576373,[0.39719325],5.0,0.5,0.0,-5.0,-0.15730292062199752,1.4658884946264121
16.061983346939087,0.36793578361515006,[0.38369739],5.0,0.5,0.0,-5.0,-0.02980525365057797,1.4332605833274683
16.126879930496216,0.34605112734064297,[0.37073885],5.0,0.5,0.0,-5.0,0.06848004714161435,1.3669718240676625
16.191973209381104,0.32612045823350266,[0.35836268],5.0,0.5,0.0,-5.0,0.1318177618769262,1.294010453343212
16.253885507583618,0.3132241429288824,[0.34659973],5.0,0.5,0.0,2.9805333080554224,0.1458114900422024,1.2937167640306404
16.317909002304077,0.3071667827100456,[0.33547017],5.0,0.5,0.0,5.0,0.11957797349437675,1.3336914973132599
16.381913661956787,0.306385187843099,[0.32498578],5.0,0.5,0.0,5.0,0.06901726033054786,1.414875436108718
16.447288990020752,0.3065805865598356,[0.31515113],5.0,0.5,0.0,5.0,0.01323050871088775,1.4671485909786766
16.510629415512085,0.3065805865598356,[0.30596458],5.0,0.5,0.0,5.0,-0.030560520658266446,1.4816561733285907
16.575544118881226,0.306385187843099,[0.29741984],5.0,0.5,0.0,5.0,-0.0683758576861847,1.465785107612631
16.63784170150757,0.3042358019589956,[0.28950686],5.0,0.5,0.0,0.617344040971699,-0.0907680769754611,1.4572558354364964
16.701930046081543,0.29896003660710546,[0.28221204],5.0,0.5,0.0,-5.0,-0.0936908387803395,1.4271775508113427
16.76808500289917,0.2905578917874287,[0.27551864],5.0,0.5,0.0,-5.0,-0.07819954103104847,1.437504125028429
16.82993745803833,0.28020175980038514,[0.26940711],5.0,0.5,0.0,-5.0,-0.050501348758124634,1.458696631721345
16.89436650276184,0.2673054444957649,[0.2638556],5.0,0.5,0.0,-5.0,-0.008972720283846965,1.4793546119458911
16.959050178527832,0.255386122774828,[0.25884036],5.0,0.5,0.0,-5.0,0.02892859274872042,1.479348560496806
17.022017002105713,0.24385759848736446,[0.25433612],5.0,0.5,0.0,-5.0,0.06528019867103996,1.4600115241047424
17.08801293373108,0.2360416498178977,[0.25031657],5.0,0.5,0.0,0.8352566055160104,0.08269919110195373,1.4595455548494252
17.15178942680359,0.2325244729166376,[0.24675463],5.0,0.5,0.0,5.0,0.078970430569993,1.4420417364527112
17.213876724243164,0.23193827676642756,[0.24362278],5.0,0.5,0.0,5.0,0.06248760807154476,1.4547959478773156
17.27796506881714,0.23193827676642756,[0.24089338],5.0,0.5,0.0,5.0,0.046457957271773154,1.4658212250214255
17.341928005218506,0.23193827676642756,[0.23853887],5.0,0.5,0.0,5.0,0.03354925142473618,1.4730563371789038
17.40769100189209,0.23193827676642756,[0.23653205],5.0,0.5,0.0,4.0192924001584505,0.02302749308234432,1.4839062245326768
17.470128774642944,0.23193827676642756,[0.2348486],5.0,0.5,0.0,2.254903781724356,0.04845664614876259,1.4945367563830172
17.534287929534912,0.23193827676642756,[0.23350205],5.0,0.5,0.0,0.5463448674252671,0.256483455275184,1.499288890532381
17.597859144210815,0.23213367548316424,[0.23260861],5.0,0.5,0.0,-0.5501284671559563,0.4337699137857446,1.4997296520372567
17.661800384521484,0.23623704853463434,[0.2324482],5.0,0.5,0.0,3.7341117043245533,0.9062651055889384,1.4868604227993263
17.7265305519104,0.24893796512251787,[0.23339874],5.0,0.5,0.0,5.0,1.017276118090616,1.4345861451309492
17.789807081222534,0.273167405997865,[0.23573533],5.0,0.5,0.0,5.0,0.8780087903784553,1.2373404852443837
17.85597276687622,0.3001324289075255,[0.23957993],5.0,0.5,0.0,5.0,0.7490011851655978,0.9620433315621267
17.918212413787842,0.3245572684996093,[0.24502222],5.0,0.5,0.0,5.0,0.7529637258797636,0.7639248556859192
17.981831789016724,0.3497637029586398,[0.25224282],5.0,0.5,0.0,5.0,1.0030495862581565,0.630992194621385
18.045750617980957,0.37516553613440684,[0.26162487],5.0,0.5,0.0,2.1675108888302907,1.5440675225538099,0.572418127096699
18.109756469726562,0.40095816674364737,[0.27376017],5.0,0.5,0.0,-1.1960556449614257,2.059514412816028,0.538262353082335
18.17431616783142,0.4263599999194144,[0.28935997],5.0,0.5,0.0,-4.353237159356144,2.675957549540757,0.5095187633570437
18.23795223236084,0.4519572318119182,[0.30914952],5.0,0.5,0.0,-5.0,3.02261079940018,0.4986596813666629
18.30201554298401,0.47755446370442206,[0.3336772],5.0,0.5,0.0,-5.0,2.988686428935249,0.49765278564796656
18.365868091583252,0.5029562968801892,[0.36317313],5.0,0.5,0.0,-5.0,2.7588721509795056,0.5018153561718742
18.43031644821167,0.5283581300559563,[0.39764616],5.0,0.5,0.0,-5.0,2.7242498758728355,0.5145387175282361
18.49377202987671,0.5537599632317235,[0.43698207],5.0,0.5,0.0,-5.0,2.42599106205539,0.5471201293808106
18.5582435131073,0.5791617964074907,[0.48088284],5.0,0.5,0.0,-5.0,2.1111961128876233,0.6266263793644334
18.623661041259766,0.6061268193171511,[0.52888076],5.0,0.5,0.0,-5.0,1.8124084114106291,0.7849235063451693
18.68639373779297,0.6307470576259715,[0.58041771],5.0,0.5,0.0,-5.0,1.5531450506074151,1.0842676487322862
18.7508487701416,0.6569304856686854,[0.63488689],5.0,0.5,0.0,-5.0,1.3738558831421104,1.3891211073978533
18.81378436088562,0.6819415214109791,[0.69167446],5.0,0.5,0.0,-5.0,1.2556438432373296,1.4629643875224483
18.8777015209198,0.7075387533034829,[0.75018016],5.0,0.5,0.0,-5.0,1.1866035091092861,1.1768609912379313
18.9417827129364,0.7329405864792501,[0.80982696],5.0,0.5,0.0,-5.0,1.1641101574899466,0.7883039979342986
19.005833625793457,0.7579516222215439,[0.87007192],5.0,0.5,0.0,-5.0,1.181408349904107,0.562660328143866
19.06976342201233,0.7837442528307843,[0.93041114],5.0,0.5,0.0,-5.0,1.2167810296078543,0.49527032346398153
19.134318351745605,0.8093414847232882,[0.99038375],5.0,0.5,0.0,-4.925372899317557,1.2853884511298772,0.48368620123191336
19.19774317741394,0.8345479191823186,[1.0495779],5.0,0.5,0.0,-4.739209410544258,1.3733723874038224,0.4836534755285775
19.26220178604126,0.860340549791559,[1.10763316],5.0,0.5,0.0,-4.4956317547460785,1.4757054291776666,0.4851841132811507
19.325809955596924,0.8859377816840628,[1.16423784],5.0,0.5,0.0,-4.501937270389173,1.5777301439894862,0.48513844294668323
19.391812324523926,0.9117304122933033,[1.21912442],5.0,0.5,0.0,-4.257445512340974,1.7706566189271957,0.48668755086395515
19.455354928970337,0.9375230429025437,[1.27206723],5.0,0.5,0.0,-3.927561120045145,1.9263248790426628,0.48864792778906685
19.51780891418457,0.9623386799281008,[1.32288083],5.0,0.5,0.0,-4.137804319974634,2.030678469240267,0.487415871008381
19.58170771598816,0.9877405131038681,[1.37141725],5.0,0.5,0.0,-3.8802920254170528,2.1036357014415565,0.4889164997483425
19.64593815803528,1.0129469475628985,[1.41756365],5.0,0.5,0.0,-3.474526293295537,2.1693013784208794,0.49109362713276594
19.70974612236023,1.038739578172139,[1.46123995],5.0,0.5,0.0,-2.7803857681833293,2.222145474185895,0.494278367159397
19.77376079559326,1.0639460126311695,[1.50239536],5.0,0.5,0.0,-2.367948989959949,2.2704073784626293,0.4958433842292933
19.837677240371704,1.08973864324041,[1.54100527],5.0,0.5,0.0,-2.0961684182176246,2.3099243709466806,0.49673983718408093
19.901818990707397,1.1149450776994405,[1.57706859],5.0,0.5,0.0,-1.8961634325746486,2.3445417517049494,0.4973307062916741
19.966028928756714,1.140737708308681,[1.61060504],5.0,0.5,0.0,-1.734517171736889,2.3677310584816174,0.4977654420875427
20.031208515167236,1.1661395414844482,[1.64165244],5.0,0.5,0.0,-1.595121003784814,2.3837451306021475,0.4981095220244075
20.09375500679016,1.191150577226742,[1.6702642],5.0,0.5,0.0,-1.194194825928595,2.391789279264436,0.4989395356228686
20.158971548080444,1.2163570116857723,[1.69650707],5.0,0.5,0.0,-1.0469399804436086,2.389564408699996,0.49918474036217775
20.221770524978638,1.2413680474280662,[1.72045896],5.0,0.5,0.0,-0.9967824448589178,2.3785402568307523,0.4992609288251799
20.285747289657593,1.2665744818870965,[1.74220699],5.0,0.5,0.0,-0.9754587854848839,2.356717894901645,0.4992921895913236
20.34982967376709,1.2919763150628636,[1.7618456],5.0,0.5,0.0,-1.2318039837846968,2.32456179119472,0.49887176534203964
20.413890600204468,1.317182749521894,[1.77947492],5.0,0.5,0.0,-0.9619945994156508,2.284103164510101,0.49931158108414736
20.478556156158447,1.3429753801311346,[1.79519923],5.0,0.5,0.0,-1.390598366300475,2.232007227514194,0.49856257534282683
20.54165244102478,1.3674002197232182,[1.80912559],5.0,0.5,0.0,-1.393892552427921,2.1779775754839164,0.4985557669074382
20.606485605239868,1.392997451615722,[1.82136264],5.0,0.5,0.0,-1.5189228072368506,2.11022279167525,0.4982855199867125
20.67003297805786,1.4178130886412792,[1.83201943],5.0,0.5,0.0,-1.3651308943819997,2.0385584753285264,0.498614670987745
20.735368967056274,1.4432149218170465,[1.84120458],5.0,0.5,0.0,-1.1343971362492427,1.95686187191388,0.4990429801230786
20.79764986038208,1.467835160125867,[1.84902535],5.0,0.5,0.0,-0.6330763926685058,1.872211562833032,0.49970174388957733
20.861825227737427,1.4928461958681607,[1.85558698],5.0,0.5,0.0,-0.40831902402054115,1.7794985945358608,0.4998759056545849
20.925720930099487,1.5178572316104544,[1.86099201],5.0,0.5,0.0,-0.3104191338558222,1.6811116469845595,0.4999282747401904
20.989689111709595,1.5430636660694848,[1.86533983],5.0,0.5,0.0,-0.2682433012876819,1.5766247336786694,0.49994644087612106
21.05376148223877,1.567879303095042,[1.86872621],5.0,0.5,0.0,-0.24880510383820403,1.4692777971529547,0.4999539345242147
21.11777687072754,1.5930857375540726,[1.87124295],5.0,0.5,0.0,-0.23739602116623496,1.355743403622722,0.49995824004698036
21.1816246509552,1.617510577146156,[1.87297766],5.0,0.5,0.0,-0.5039296465850059,1.2422683576546032,0.49981314319585457
21.247340440750122,1.6429124103219235,[1.87401349],5.0,0.5,0.0,-0.25119556006299243,1.1203349674867127,0.4999759960721139
21.31104826927185,1.6673372499140071,[1.87442903],5.0,0.5,0.0,-0.4283391193719325,1.0002601076555855,0.5000517540283976
21.37368154525757,1.6919574882228277,[1.87429823],5.0,0.5,0.0,-0.7051059349372413,0.8767163363155546,0.5009245424524364
21.438430786132812,1.717163922681858,[1.87369035],5.0,0.5,0.0,-0.4008277534830522,0.7475948556827389,0.5073262202758693
21.501708984375,1.7419795597074152,[1.87267],5.0,0.5,0.0,-0.7905710834590803,0.6186885487392682,0.53237856044004
21.566517114639282,1.7665997980162358,[1.87129715],5.0,0.5,0.0,-0.7681745350614408,0.48881213196353535,0.6112197749335413
21.629878282546997,1.790829238891583,[1.8696272],5.0,0.5,0.0,-0.8841445552809479,0.35948594996619593,0.7882753647198503
21.694743156433105,1.8148632810501932,[1.86771113],5.0,0.5,0.0,-1.8401396511260981,0.23042851426244448,1.0695070243073714
21.75760579109192,1.835184747590807,[1.8655956],5.0,0.5,0.0,-5.0,0.12084202911428113,1.3128662408038179
21.821636199951172,1.8488626577623737,[1.86332312],5.0,0.5,0.0,-5.0,0.046839067627976495,1.4407734958088083
21.885645389556885,1.8539430243975272,[1.86093218],5.0,0.5,0.0,-5.0,0.018375569136329633,1.4720099669808586
21.95010232925415,1.8523798346636338,[1.85845746],5.0,0.5,0.0,-5.0,0.022637552137980486,1.4743717753088164
22.013639450073242,1.8500350500627938,[1.85593001],5.0,0.5,0.0,-5.0,0.027162104748132937,1.4748060548283837
22.0777645111084,1.8474948667452171,[1.85337744],5.0,0.5,0.0,-5.0,0.02997454256873673,1.4748350339926568
22.14172387123108,1.8451500821443771,[1.85082412],5.0,0.5,0.0,-4.819277703222533,0.030244637390647637,1.4765882047040337
22.205703258514404,1.8428052975435372,[1.84829141],5.0,0.5,0.0,-1.9075821525534375,0.02997171020266074,1.491297137227805
22.26960849761963,1.8406559116594339,[1.84579781],5.0,0.5,0.0,1.3531556170722692,0.02857813431707848,1.4933649612285937
22.333534240722656,1.8385065257753306,[1.8433592],5.0,0.5,0.0,4.366545297246934,0.02714553485055488,1.4813076664217562
22.39760684967041,1.8363571398912268,[1.840989],5.0,0.5,0.0,5.0,0.026186230586797744,1.4774504228043197
22.46162724494934,1.8342077540071235,[1.83869841],5.0,0.5,0.0,5.0,0.02555112692272555,1.4777069804406473
22.52554726600647,1.8318629694062836,[1.83649656],5.0,0.5,0.0,5.0,0.026288607055919226,1.477447238831933
22.589699029922485,1.829908982238917,[1.83439069],5.0,0.5,0.0,5.0,0.025419726280860873,1.4777229784763173
22.655148029327393,1.8273687989213399,[1.83238636],5.0,0.5,0.0,5.0,0.028143409991888094,1.476709539669731
22.719775438308716,1.8250240143205,[1.83048757],5.0,0.5,0.0,5.0,0.03041815069379457,1.475779762368282
22.781676292419434,1.8228746284363966,[1.82869696],5.0,0.5,0.0,5.0,0.03223664793758493,1.474975090971426
22.84575366973877,1.82033444511882,[1.82701593],5.0,0.5,0.0,5.0,0.036517476302025495,1.4728433649513701
22.909525871276855,1.8177942618012435,[1.82544479],5.0,0.5,0.0,5.0,0.041504277995029246,1.4700941940930898
22.975040912628174,1.815449477200403,[1.82398291],5.0,0.5,0.0,5.0,0.04602289906147012,1.467273691351654
23.037601232528687,1.813104692599563,[1.82262883],5.0,0.5,0.0,5.0,0.050994314607581054,1.4637537815061763
23.101548433303833,1.8109553067154598,[1.82138037],5.0,0.5,0.0,5.0,0.05551885904917795,1.4602302215532346
23.16551971435547,1.8086105221146198,[1.82023472],5.0,0.5,0.0,4.985519781856555,0.06150686701055993,1.4551732606162024
23.229491710662842,1.8062657375137796,[1.81918861],5.0,0.5,0.0,5.0,0.06785589091622171,1.4488835807894116
23.295589208602905,1.8037255541962032,[1.8182383],5.0,0.5,0.0,4.548127488753442,0.07586168387296188,1.4435873299051418
23.357492923736572,1.8013807695953632,[1.81737977],5.0,0.5,0.0,4.198089597396838,0.08333465252689216,1.4371460660805875
23.421488523483276,1.7990359849945228,[1.81660843],5.0,0.5,0.0,3.8969725778337856,0.0874628409225551,1.4289323016091493
23.486064434051514,1.7968865991104195,[1.8159184],5.0,0.5,0.0,3.898095001449914,0.08293749820505077,1.418935483731126
23.5506751537323,1.7947372132263162,[1.81529002],5.0,0.5,0.0,3.9495481252652755,-0.07881252318221596,1.4075086741045109
23.613754510879517,1.7925878273422127,[1.81465283],5.0,0.5,0.0,3.407960344159326,-0.1067235858002687,1.3986464056908239
23.679227113723755,1.785358074822956,[1.81388808],5.0,0.5,0.0,-2.783347647624688,-0.14014848285278758,1.3440339369873318
23.741527557373047,1.7730479556685457,[1.8129125],5.0,0.5,0.0,-5.0,-0.014143481364785715,1.2094539112924987
23.80664587020874,1.7552666724455086,[1.81173253],5.0,0.5,0.0,-5.0,0.024175278968741,1.0102500069739597
23.869892835617065,1.740220971256785,[1.81038626],5.0,0.5,0.0,-5.0,0.0836319663514421,0.8553081575951537
23.9339382648468,1.727910852102375,[1.80884676],5.0,0.5,0.0,0.25396400313234757,0.13569822306172677,0.7697385591216539
23.998090505599976,1.7193133085659613,[1.80701324],5.0,0.5,0.0,5.0,0.075762419632891,0.6964874734071488
24.062166213989258,1.7144283406475447,[1.80474994],5.0,0.5,0.0,5.0,-0.08048306375279443,0.6773487420858995
24.125426530838013,1.7109111637462844,[1.80190355],5.0,0.5,0.0,5.0,-0.15923904218809493,0.6726478293200825
24.189462900161743,1.7040722086605014,[1.7983859],5.0,0.5,0.0,4.741810653105638,0.004154058949112909,0.6523438312450711
24.253398656845093,1.6909804946391442,[1.79426382],5.0,0.5,0.0,-4.366230458972548,0.30374048169047546,0.6044316713961857
24.31900978088379,1.6784749767679974,[1.78964422],5.0,0.5,0.0,-5.0,0.2076936081682994,0.5661715334394213
24.381838083267212,1.6728084139826338,[1.78436397],5.0,0.5,0.0,5.0,-0.5251592494678551,0.5647309247508439
24.445875644683838,1.6714406229654772,[1.77789625],5.0,0.5,0.0,5.0,-1.15366957653344,0.5854002381684607
24.509555339813232,1.6569811179269638,[1.76969985],5.0,0.5,0.0,-5.0,-1.1298558212717476,0.5605115609070639
24.573388814926147,1.63079768988425,[1.75955724],5.0,0.5,0.0,-5.0,-0.7583060132500081,0.5180368901657271
24.63743495941162,1.6042234644080626,[1.74751886],5.0,0.5,0.0,-5.0,-0.5110106507001323,0.4981938403971233
24.70146870613098,1.5782354350820853,[1.73370195],5.0,0.5,0.0,-5.0,-0.30899814107451035,0.48968696029650166
24.765782833099365,1.5516612096058984,[1.71823776],5.0,0.5,0.0,-5.0,-0.10242567935000482,0.485621271493107
24.829430103302002,1.5256731802799213,[1.70125134],5.0,0.5,0.0,-3.2754408967014403,-0.09040108864226885,0.49417772064726545
24.89343285560608,1.4994897522372075,[1.68279471],5.0,0.5,0.0,0.2879667748204373,-0.15038974589320406,0.5011446421046026
24.95883846282959,1.4744787164949138,[1.6629842],5.0,0.5,0.0,4.039018986101906,0.3435726773980724,0.4888218411863268
25.021392345428467,1.4494676807526197,[1.64223591],5.0,0.5,0.0,5.0,1.076656608250931,0.48232411307276823
25.085493326187134,1.4338357834136866,[1.62118416],5.0,0.5,0.0,5.0,1.4026798253702106,0.4826259926672786
25.149542331695557,1.4443873141174666,[1.60039129],5.0,0.5,0.0,5.0,1.2825804098301345,0.4894250333739084
25.214442014694214,1.4693983498597603,[1.58016174],5.0,0.5,0.0,5.0,0.8158699035565949,0.5677064739771537
25.279139518737793,1.4942139868853175,[1.56054417],5.0,0.5,0.0,5.0,0.21064271230660622,0.8965404444872543
25.341552019119263,1.517661832893718,[1.54141509],5.0,0.5,0.0,5.0,-0.3003362008883849,1.3750225834925165
25.40730118751526,1.5344661225330716,[1.52256821],5.0,0.5,0.0,1.0612806536920516,-0.6709439916385896,1.47124725815373
25.470094919204712,1.5315351417820213,[1.50384674],5.0,0.5,0.0,-5.0,-0.7448098288674205,1.3395790417985214
25.533688068389893,1.5094550867907774,[1.48514989],5.0,0.5,0.0,-5.0,-0.9081825364470717,1.3702960966729805
25.599941730499268,1.4820992664476438,[1.4662206],5.0,0.5,0.0,-5.0,-1.475986894669358,1.4325559600068094
25.66233777999878,1.456697433271877,[1.44658495],5.0,0.5,0.0,-5.0,-1.8013073931614114,1.461487349375489
25.725709438323975,1.4299278090789527,[1.42587171],5.0,0.5,0.0,-5.0,-1.5316168711799427,1.4784470882354959
25.789440155029297,1.4039397797529758,[1.40414838],5.0,0.5,0.0,-5.0,-0.7483532343377486,1.4817233590992058
25.853645086288452,1.3767793581265784,[1.38191056],5.0,0.5,0.0,-5.0,-0.09515407815776428,1.4764800547384862
25.917786359786987,1.3507913288006015,[1.35974255],5.0,0.5,0.0,-3.534514651933327,0.33171083215499064,1.4748891435613158
25.98243546485901,1.3248032994746242,[1.33800612],5.0,0.5,0.0,0.7474203675646229,0.30650255093976414,1.4653221635093243
26.046711921691895,1.3095621995691638,[1.31680677],5.0,0.5,0.0,5.0,-0.19842063428358933,1.4712902002339767
26.109315633773804,1.304091035500537,[1.29604311],5.0,0.5,0.0,5.0,-0.6081455572099483,1.4688617936492594
26.173822164535522,1.2941257009469669,[1.275468],5.0,0.5,0.0,5.0,-0.9296438000457532,1.4144784353608255
26.23955988883972,1.2693100639214097,[1.25486142],5.0,0.5,0.0,-5.0,-0.8984502782059715,1.440839062751147
26.301724910736084,1.2439082307456428,[1.23420681],5.0,0.5,0.0,-5.0,-0.5319535623249252,1.463084605406436
26.365612983703613,1.2175294039861924,[1.21372919],5.0,0.5,0.0,-5.0,-0.23175530900023658,1.4788478985630482
26.429324865341187,1.192127570810425,[1.19375657],5.0,0.5,0.0,-5.0,0.3033208678551455,1.481201477792029
26.49491310119629,1.1651625479007646,[1.17451671],5.0,0.5,0.0,-2.843288122705554,0.15808749376332673,1.4766703004746422
26.55733823776245,1.1491398531283576,[1.15604064],5.0,0.5,0.0,5.0,-0.1603712243583025,1.47225309791656
26.62278914451599,1.1395653160082608,[1.13819077],5.0,0.5,0.0,5.0,-0.4906151852051115,1.481354257082808
26.686416149139404,1.1272551968538507,[1.12073085],5.0,0.5,0.0,5.0,-0.7756501192545749,1.4732547798026947
26.749372482299805,1.1047843444291336,[1.10339029],5.0,0.5,0.0,-5.0,-0.9509803900086176,1.481343461244595
26.81350874900818,1.0782101189529465,[1.08590028],5.0,0.5,0.0,-5.0,-1.0797520213878888,1.4699740330738549
26.877283573150635,1.0520266909102327,[1.06803906],5.0,0.5,0.0,-5.0,-1.0193718176799866,1.43174547277565
26.941563844680786,1.0254524654340456,[1.04969434],5.0,0.5,0.0,-5.0,-0.8753958633352313,1.3708425900396304
27.006484985351562,0.9986828412411217,[1.03088403],5.0,0.5,0.0,-3.9815690983946475,-0.600646896295348,1.3010453477073205
27.06931734085083,0.9724994131984078,[1.01172727],5.0,0.5,0.0,-2.2391300712569526,-0.38566373408899607,1.231369785265055
27.133968114852905,0.9463159851556939,[0.99234802],5.0,0.5,0.0,-0.5677542819988872,-0.34338997933251986,1.1543216731909638
27.19782543182373,0.9197417596795069,[0.97281784],5.0,0.5,0.0,0.7699907960868622,-0.24793546796239715,1.0688211162576569
27.261334896087646,0.8937537303535298,[0.9532412],5.0,0.5,0.0,1.4608569711070778,0.00716645887349303,0.9911645984131722
27.326057195663452,0.8671795048773426,[0.93383528],5.0,0.5,0.0,2.622748361469182,0.30141980514110545,0.9061372560256187
27.389315366744995,0.8478350319204122,[0.91485218],5.0,0.5,0.0,5.0,0.4460486369793578,0.889009953365762
27.453811645507812,0.8388466909505254,[0.89642126],5.0,0.5,0.0,5.0,0.0333343058986363,0.9970525754014934
27.517385482788086,0.840800678117892,[0.87847981],5.0,0.5,0.0,5.0,-0.25907178183452245,1.2345413525507798
27.581254482269287,0.8415822729848388,[0.86081438],5.0,0.5,0.0,5.0,-0.6543561779088812,1.4104272053088835
27.645346879959106,0.8337663243153719,[0.84315802],5.0,0.5,0.0,0.3011087541920565,-0.8894514773217979,1.4824463969368566
27.709237575531006,0.8105138770237083,[0.82527504],5.0,0.5,0.0,-5.0,-0.9659252510375336,1.4390895804054238
27.774285316467285,0.783939651547521,[0.80699338],5.0,0.5,0.0,-5.0,-0.9315605584289232,1.3808915680427365
27.83801507949829,0.7577562235048073,[0.78819774],5.0,0.5,0.0,-5.0,-0.915413876587929,1.3125561390595615
27.902950048446655,0.7315727954620934,[0.76880199],5.0,0.5,0.0,-5.0,-0.8838708029485439,1.23963298626106
27.966551542282104,0.7055847661361163,[0.74877246],5.0,0.5,0.0,-5.0,-0.7074855167370295,1.1703729163884495
28.029294729232788,0.6797921355268758,[0.72826542],5.0,0.5,0.0,-5.0,-0.11330752165603049,1.1067768906756075
28.093363285064697,0.6539995049176353,[0.70776237],5.0,0.5,0.0,-3.4337449740227264,0.6986955623477572,1.0522689060690678
28.15726089477539,0.6293792666088148,[0.6879567],5.0,0.5,0.0,1.324006745630672,1.2101069325211418,1.0021506086988317
28.221169233322144,0.623908102540188,[0.66940348],5.0,0.5,0.0,5.0,1.0336533790125706,1.142755575135339
28.28697967529297,0.6459881575314318,[0.65224968],5.0,0.5,0.0,5.0,0.30804078727515005,1.4739213839070104
28.349172592163086,0.6704129971235157,[0.63626422],5.0,0.5,0.0,5.0,-0.42552645725383403,1.2737052009771521
28.413223028182983,0.6934700456984426,[0.62104554],5.0,0.5,0.0,5.0,-1.0461081757969888,0.8319982432851196
28.477192401885986,0.6979642161833861,[0.60619977],5.0,0.5,0.0,-5.0,-1.3251490603588723,0.6673355309025996
28.54160237312317,0.6760795599088789,[0.59142617],5.0,0.5,0.0,-5.0,-1.383869199864552,0.7202670588388391
28.6055428981781,0.6497007331494286,[0.57652885],5.0,0.5,0.0,-5.0,-1.2717312350601238,0.8244577182516868
28.669170379638672,0.6237127038234513,[0.56141816],5.0,0.5,0.0,-5.0,-1.1001361954254956,0.9419192451773133
28.733856916427612,0.597333877064001,[0.54609237],5.0,0.5,0.0,-5.0,-0.9184272256940683,1.0732055695552432
28.797260522842407,0.5711504490212871,[0.53060071],5.0,0.5,0.0,-5.0,-0.73314020493854,1.201478518421228
28.861401796340942,0.5453578184120467,[0.51502708],5.0,0.5,0.0,-5.0,-0.5508783838761389,1.3136755795261355
28.925175189971924,0.5187835929358594,[0.4994748],5.0,0.5,0.0,-5.0,-0.3988172565633603,1.4098784011760155
28.990012645721436,0.49279556360988236,[0.48404643],5.0,0.5,0.0,-3.491366498955398,-0.2736322414320908,1.4758149976456796
29.05316710472107,0.4664167368504319,[0.46884335],5.0,0.5,0.0,-1.3236330312681581,-0.23483198322394777,1.4975205067609898
29.11726665496826,0.44042870752445473,[0.45396872],5.0,0.5,0.0,0.6603448631926904,-0.16735412559578317,1.46367319397331
29.181711196899414,0.41424527948174095,[0.43951001],5.0,0.5,0.0,2.200273524768778,-0.06461775458321886,1.3765605443519777
29.245344638824463,0.38903884502271047,[0.42553069],5.0,0.5,0.0,4.106343684395284,0.014871241677963868,1.2537896626615475
29.309226036071777,0.3657863977310467,[0.41207672],5.0,0.5,0.0,5.0,0.07875628089369528,1.1331793908328935
29.373153924942017,0.34937290552516637,[0.39918198],5.0,0.5,0.0,5.0,0.10238577938466352,1.0905786948266798
29.437421321868896,0.34018916583854286,[0.3868711],5.0,0.5,0.0,5.0,0.08665109614121387,1.1284528134057934
29.50219416618347,0.3362811915038095,[0.37516106],5.0,0.5,0.0,5.0,0.051459947648086174,1.2208270376404449
29.565215349197388,0.33589039407033616,[0.36406369],5.0,0.5,0.0,5.0,0.012275949787580513,1.334944318314336
29.629185914993286,0.33589039407033616,[0.3535872],5.0,0.5,0.0,5.0,-0.022736847226514017,1.4210179376369778
29.694213390350342,0.33589039407033616,[0.3437359],5.0,0.5,0.0,5.0,-0.05330272859917219,1.4694971413349405
29.757121086120605,0.33393640690296944,[0.33450983],5.0,0.5,0.0,2.6724621279821204,-0.07158373953315376,1.4946458573012158
29.82110333442688,0.3296376351347627,[0.32590517],5.0,0.5,0.0,-3.511403577919765,-0.07197864710019829,1.4881229212692433
29.88654613494873,0.3229940787657159,[0.31791454],5.0,0.5,0.0,-5.0,-0.06281371884608453,1.4765850030247858
29.949095726013184,0.3140057377958291,[0.31052683],5.0,0.5,0.0,-5.0,-0.04135742068546666,1.4793144358978536
