t_s,q_rad,q_des_rad,jerk
0.005196332931518555,-0.0498266727678509,0.0003745454740926921,0.0
0.01403188705444336,-0.05002207148458758,0.0018092562611798308,0.0
0.024624109268188477,-0.0498266727678509,0.004494081655103404,0.0
0.03197121620178223,-0.04963127405111425,0.008198598792500508,0.0
0.04068183898925781,-0.049045077900904226,0.012715249163227301,0.276038359678681
0.05403900146484375,-0.04826348303395755,0.01785745155072678,1.1372780418761654
0.06355094909667969,-0.0472864894502742,0.023458805848525267,1.7336313141259878
0.07098269462585449,-0.046309495866590854,0.029373410342526243,2.662657184233047
0.08095097541809082,-0.044746306132697485,0.03547481834182539,3.7663751889976793
0.09006190299987793,-0.0433785151155408,0.04165373029348423,4.671441137948799
0.10098123550415039,-0.04122912923143742,0.04781617853865477,5.0
0.11005353927612305,-0.039470540780807396,0.05388266175006487,5.0
0.12098860740661621,-0.03693035746323068,0.05978720928288878,5.0
0.12997913360595703,-0.03458557286239063,0.0654761181866229,5.0
0.1394484043121338,-0.03165459211134058,0.07090673464129564,5.0
0.14894962310791016,-0.028528212643553853,0.07604628826409554,5.0
0.16070103645324707,-0.024229440875347112,0.08087047416011993,5.0
0.17104458808898926,-0.020126067823877037,0.08536245457613735,5.0
0.17995262145996094,-0.01660889092261697,0.08951253220918787,5.0
0.1900331974029541,-0.012700916587883566,0.09331718418866615,5.0
0.19976258277893066,-0.00879294225315016,0.09677786322544757,5.0
0.20992231369018555,-0.004884967918416756,0.0999002210923845,4.854660138587028
0.2200484275817871,-0.0009769935836833512,0.102693402900392,3.6191811109020966
0.22812461853027344,0.0021493858841033727,0.10516940510038225,1.9479497539282598
0.23805618286132812,0.006448157652310118,0.10734281697520606,0.15452634802253895
0.245957612991333,0.009574537120096843,0.10923024011525993,-1.339346766693369
0.2567873001098633,0.013873308888303588,0.11084881503695262,-2.98893335400721
0.26552414894104004,0.017195087072826982,0.11221624116869786,-4.339371027659835
0.2749795913696289,0.021103061407560384,0.11335141614586974,-5.0
0.2859528064727783,0.0255972318925038,0.11427310563926944,-5.0
0.2951996326446533,0.02911440879376387,0.11499969869262087,-5.0
0.3035609722137451,0.03243618697828726,0.11554990978662873,-5.0
0.3109557628631592,0.035757965162810657,0.11594217868949636,-5.0
0.3199272155761719,0.03927514206407072,0.11619417798762649,-5.0
0.3309755325317383,0.04376931254901414,0.11632244360832773,-5.0
0.34098076820373535,0.04748188816701086,0.11634233472807864,-5.0
0.3490457534790039,0.050608267634797595,0.11626853003603356,-4.875187113155574
0.3570523262023926,0.05353924838584765,0.11611492833198406,-4.654448724096104
0.36495089530944824,0.05686102657037104,0.11589407243631306,-4.38890923255554
0.37488269805908203,0.060964399621841116,0.1156171867652251,-4.106729378618128
0.38541460037231445,0.06526317139004786,0.11529447710752266,-3.8235247476936536
0.39343881607055664,0.06858494957457126,0.11493513983965614,-3.5479167214826672
0.40198755264282227,0.07210212647583132,0.11454765468554262,-3.2845453263117124
0.41104865074157715,0.07542390466035472,0.11413978024926726,-3.0357401475023034
0.4229395389556885,0.08050427129550815,0.11371773020103354,-2.5264310328865314
0.43225550651550293,0.08421684691350488,0.11328630330843963,-2.2757295700021123
0.440929651260376,0.08792942253150161,0.11285017725161765,-2.128624294083149
0.45021533966064453,0.09144659943276168,0.11241388720297736,-2.0172835012627237
0.4599592685699463,0.09554997248423175,0.11198090205017938,-1.9144062206206822
0.4690520763397217,0.09906714938549181,0.11155375765369922,-1.8108279995746202
0.4780452251434326,0.1023889275700152,0.11113482368323198,-1.7049740017223725
0.48946571350097656,0.10649230062148528,0.11072600494086925,-1.8740781349884548
0.49693942070007324,0.10942328137253533,0.11032848496367358,-2.077100063534258
0.5069503784179688,0.11313585699053208,0.10994348408648268,-1.9515057952952488
0.5169665813446045,0.11645763517505547,0.10957195771367959,-2.2726186724708257
0.5260400772094727,0.11938861592610552,0.10921433672990766,-2.9253267394155893
0.5354506969451904,0.1221241979604189,0.10887093849696994,-3.525690003873505
0.5429394245147705,0.12427358384452228,0.108541997590321,-3.9528209416371634
0.5515737533569336,0.1266183684453623,0.10822789248675463,-4.747659060087849
0.5609798431396484,0.12896315304620237,0.10792909760177267,-5.0
0.5689623355865479,0.13052634278009573,0.10764573051432419,-5.0
0.5801255702972412,0.13287112738093576,0.10737762241362075,-5.0
0.5899646282196045,0.13443431711482912,0.10712457999180125,-5.0
0.600064754486084,0.1359975068487225,0.10688637696212334,-5.0
0.6083934307098389,0.13716989914914252,0.1066627452384488,-5.0
0.6169238090515137,0.1379514940160892,0.10645347751721537,-5.0
0.6250183582305908,0.13873308888303587,0.10625839657204492,-5.0
0.6343343257904053,0.13951468374998255,0.10607711472510374,-5.0
0.6419281959533691,0.1399054811834559,0.1059091569164687,-5.0
0.6509287357330322,0.14029627861692923,0.10575407445098715,-5.0
0.6619367599487305,0.14029627861692923,0.10561124166500889,-5.0
0.6708571910858154,0.1404916773336659,0.10547988415680533,-5.0
0.6840331554412842,0.14029627861692923,0.10535910547909823,-5.0
0.6949498653411865,0.1399054811834559,0.10524790825218973,-5.0
0.7059226036071777,0.1393192850332459,0.10514540356240777,-4.689426989011656
0.7146406173706055,0.13873308888303587,0.10505090215657215,-4.060810669533792
0.7239413261413574,0.1379514940160892,0.10496379383870824,-2.8484150580313194
0.7320106029510498,0.13716989914914252,0.10488344250380408,-1.6442166999860075
0.7435014247894287,0.13619290556545915,0.1048090617563204,-0.9277633048613654
0.7529973983764648,0.13502051326503914,0.10473960354284821,-0.4933567732125238
0.7617671489715576,0.13423891839809246,0.10467403379450729,-0.22638629133762495
0.7710268497467041,0.13306652609767244,0.10461145798952678,0.4907387458072603
0.7795307636260986,0.1318941337972524,0.10455101227070256,1.2106709277418461
0.7879440784454346,0.13052634278009573,0.10449205688216588,1.7801918445982414
0.795957088470459,0.12935395047967568,0.10443433455290217,2.171709057761588
0.8073692321777344,0.12759536202904564,0.10437747133994428,2.1294219394629073
0.81728196144104,0.12583677357841566,0.10432072095501484,2.2059696753153233
0.8274717330932617,0.12407818512778561,0.10426353756252582,2.279766528288652
0.8359129428863525,0.12271039411062891,0.10420584271808055,2.311298996570521
0.8449792861938477,0.12095180565999888,0.10414781100819893,2.5715339357280156
0.8550417423248291,0.11919321720936885,0.1040896356240619,2.8251080248388045
0.8649895191192627,0.11743462875873882,0.1040315683505141,2.9944569470054403
0.8745338916778564,0.1156760403081088,0.10397404981702084,3.344613946519014
0.8852314949035645,0.11391745185747876,0.10392081337725297,3.6463259496724847
0.8947877883911133,0.11215886340684872,0.10388068271405416,3.8313574720027854
0.9049508571624756,0.11040027495621868,0.10386695944147152,4.173723960279908
0.9148197174072266,0.10864168650558867,0.1039004652445465,4.4516179872959025
0.9239401817321777,0.1070784967716953,0.10400851029765179,4.602532600805217
0.9365193843841553,0.10531990832106528,0.10422708715236562,4.9046940350676405
0.9443202018737793,0.1043429147373819,0.10459856442047853,5.0
0.9520502090454102,0.1037567185871719,0.10514891368132548,5.0
0.9618916511535645,0.10277972500348855,0.10589622528489266,5.0
0.9718887805938721,0.10199813013654188,0.10686394233836609,5.0
0.9805452823638916,0.10121653526959519,0.10806349897309522,5.0
0.9889066219329834,0.10063033911938518,0.10950470634118474,5.0
0.9969775676727295,0.10023954168591184,0.11119419666957973,5.0
1.0067968368530273,0.09984874425243849,0.11312692695496333,5.0
1.0179243087768555,0.09945794681896515,0.11530601471396337,5.0
1.0269334316253662,0.0992625481022285,0.11774115846823843,5.0
1.0369439125061035,0.09906714938549181,0.1204377860699565,5.0
1.0457704067230225,0.09906714938549181,0.12339692544342229,5.0
1.0568854808807373,0.09906714938549181,0.12661509465562373,5.0
1.0658366680145264,0.09906714938549181,0.13008428692229154,4.664735497908057
1.0759704113006592,0.09945794681896515,0.13379214761636665,4.484317331625412
1.0844051837921143,0.0996533455357018,0.1377223957542547,3.782150609730185
1.0935251712799072,0.10004414296917516,0.14185546606706945,3.2760450824497305
1.10257887840271,0.10023954168591184,0.14616933112474848,2.6138804093504278
1.111893653869629,0.10082573783612185,0.15063326512804853,2.271947773952812
1.124267816543579,0.10199813013654188,0.1552170532247853,2.6229104014906093
1.1329374313354492,0.10297512372022523,0.15990585094079654,2.8227891199648587
1.1435050964355469,0.10414751602064523,0.1646838623891568,2.9021683937709684
1.1510112285614014,0.10512450960432859,0.16952139332753163,3.1688771233242
1.1629037857055664,0.1070784967716953,0.1743908170661588,3.683243113211671
1.1710002422332764,0.10864168650558867,0.17927334118959354,3.8593879258109394
1.1840460300445557,0.11118186982316537,0.18415162704914764,4.674960428855855
1.1959812641143799,0.11411285057421541,0.18901582166995373,4.9332936281421045
1.203972339630127,0.1162622364583188,0.1938575608168479,4.903912940215967
1.2119836807250977,0.1182162236256855,0.19865261429021494,4.728623756030812
1.2222435474395752,0.12153800181020889,0.20337600607637807,4.482913495973072
1.2309496402740479,0.12427358384452228,0.20802039916188864,4.759494356301008
1.2422161102294922,0.128572355612729,0.2125889012736932,4.818550301976532
1.2509410381317139,0.13169873508051574,0.21708785386674945,5.0
1.2588961124420166,0.13443431711482912,0.22151910040429654,4.597892853744843
1.2719151973724365,0.13971008246671923,0.22590526978222517,5.0
1.2833447456359863,0.144008854234926,0.23029396993796175,4.89724064179716
1.2911200523376465,0.1471352337027127,0.23469537552691164,3.9608137037172853
1.2999355792999268,0.1510432080374461,0.23908603786193697,2.8863371587075215
1.310941219329834,0.15534197980565284,0.24346556230528518,1.660884778235029
1.3226737976074219,0.16003154900733293,0.24786300693600702,0.32368515401582976
1.3349790573120117,0.16511191564248637,0.25232351261838054,-1.0753517356150653
1.3442068099975586,0.16862909254374644,0.256884843966139,-2.491617354529932
1.352569580078125,0.17214626944500647,0.2615482624395811,-3.6144407484260466
1.361572027206421,0.17585884506300323,0.26629309463068473,-4.66210437172345
1.3732481002807617,0.18093921169815663,0.271116409666048,-5.0
1.3822033405303955,0.1844563885994167,0.27602126708818375,-5.0
1.3903625011444092,0.1873873693504668,0.2809893940275904,-5.0
1.4009747505187988,0.1916861411186735,0.28600155703914226,-5.0
1.410625696182251,0.19539871673667025,0.2910467046265439,-5.0
1.4182524681091309,0.198525096204457,0.29611320278948894,-5.0
1.4264910221099854,0.2016514756722437,0.30118282997662127,-5.0
1.4338791370391846,0.20458245642329373,0.30623286850077996,-4.995646438159394
1.4428985118865967,0.20829503204129046,0.3112446766267399,-4.792682241932443
1.4538891315460205,0.21278920252623387,0.3162113005153736,-4.506816431813107
1.462876558303833,0.21650177814423063,0.3211359541306427,-4.194489008761211
1.4749863147735596,0.22138674606264738,0.3260232433472739,-3.882649288619911
1.483328104019165,0.22451312553043412,0.33087887203649086,-3.5836243641790917
1.4918866157531738,0.22822570114843083,0.3356928973258117,-3.302537047227487
1.502018928527832,0.2323290741999009,0.3404504523766093,-3.041001785541549
1.511885643005371,0.236432447251371,0.3451570810644111,-2.798961963944869
1.5208959579467773,0.24014502286936773,0.34982786827443785,-2.575599696592998
1.5298802852630615,0.24385759848736446,0.3544778359922783,-2.6458215958244256
1.5393993854522705,0.2475701741053612,0.3591217608247515,-2.4894472170131197
1.5496089458465576,0.25186894587356795,0.3637738342700954,-2.259946602042045
1.5608916282653809,0.255972318925038,0.36844716690325113,-1.7473467369687352
1.5691988468170166,0.2592940971095614,0.37315318533004244,-1.7720914462403008
1.5801119804382324,0.2637882675945048,0.3779010573660221,-1.6678561566556962
1.5888307094573975,0.2671100457790282,0.38269731010074487,-1.5218797385806455
1.5988738536834717,0.27121341883049827,0.3875457389862255,-1.371935639702979
1.6098880767822266,0.2757075893154417,0.3924475748233363,-1.2327400987171488
1.62319016456604,0.2807879559505952,0.3974104627489436,-1.108659864975184
1.6309621334075928,0.2843051328518552,0.4024389624526392,-0.9997180861970122
1.63987398147583,0.28782230975311524,0.40751819451456056,-0.9043532108507533
1.6490812301635742,0.29153488537111205,0.41264380164900555,-0.8206271861950604
1.6588153839111328,0.29563825842258207,0.4178302369322959,-0.7467092899120207
1.6676383018493652,0.29915543532384214,0.42308278240463054,-0.6810334997797987
1.6768860816955566,0.3028680109418389,0.42838939569317325,-0.622317665955885
1.6868867874145508,0.3069713839933089,0.4337318104422694,-0.569531134498276
1.6958541870117188,0.3102931621778323,0.43910588133936235,-0.5218489057656865
1.7040927410125732,0.31361494036235577,0.4445188957578502,-0.4786076991004341
1.7140963077545166,0.31752291469708915,0.44997686461072495,-0.43926903841816006
1.722057819366455,0.3208446928816125,0.45547354214927976,-0.40339011461101926
1.7339529991149902,0.325925059516766,0.46100113592777053,-0.3706015402256193
1.742940902709961,0.3296376351347627,0.466569402033491,-0.34059066900463497
1.753227949142456,0.3337410081862328,0.4721823626971853,-0.3130891957064641
1.7610535621643066,0.3368673876540195,0.4778209672376347,-0.28786395811756404
1.7747201919555664,0.34233855172264627,0.483464543533483,-0.26471009607163265
1.7848782539367676,0.3464419247741163,0.489107356591394,-0.24344592958629785
1.795637845993042,0.3509360952590598,0.4947475846413124,-0.22390908554872663
1.8038794994354248,0.3542578734435831,0.5003665520018628,0.07008482899883725
1.811948299407959,0.35757965162810657,0.5059209373810337,0.11971569885986288
1.8221080303192139,0.36129222724610327,0.5113792163726788,0.0797952146719331
1.8299822807312012,0.36441860671389,0.5167332703508696,0.01766654389986297
1.8399362564086914,0.3681311823318867,0.5219699637319384,-0.040020714032395294
1.85017728805542,0.3724299541000935,0.5270774381275434,-0.08483700945471295
1.858983039855957,0.3763379284348269,0.5320511143148668,-0.11597571470515287
1.8669085502624512,0.3794643079026136,0.5368870237721377,-0.13540217334610946
1.8770418167114258,0.3837630796708204,0.5415862676100522,-0.14574143535700057
1.8851749897003174,0.38708485785534374,0.5461498351731716,-0.14944126304661393
1.8946032524108887,0.3913836296235505,0.550569710493557,-0.1485069304671799
1.9058763980865479,0.3952916039582839,0.5548352128850008,-0.14447583830554903
1.9174578189849854,0.399981173159964,0.5589413736358759,-0.13847978700954744
1.925910472869873,0.4036937487779607,0.5628878534753502,-0.13132851117437416
1.9353082180023193,0.4074063243959575,0.5666709630538426,-0.12358805331223464
1.943305492401123,0.41053270386374413,0.5702868079518125,-0.11564550919149164
1.9509034156799316,0.4134636846147942,0.5737326712648054,-0.10775923056803838
1.9614055156707764,0.4175670576662643,0.5770061365973266,-0.10009635160636202
1.9718921184539795,0.4216704307177344,0.5801100482835796,-0.09276019811929329
1.9804162979125977,0.4251876076189945,0.5830478716875834,-0.08580999702007316
1.9892160892486572,0.4287047845202545,0.5858219004529293,-0.07927489083437789
2.001061201095581,0.4333943537219346,0.588436051081574,-0.07316381669611048
2.01098370552063,0.4374977267734046,0.5908958817554866,-0.06747241916307564
2.023110866546631,0.44277349212529477,0.5932102380206234,-0.06218785399816881
2.030925989151001,0.4457044728763448,0.595388599656572,-0.05729210198921671
2.0398333072662354,0.44922164977760487,0.5974368795781658,-0.05276423547427242
2.048933982849121,0.45273882667886495,0.5993615438577923,-0.04858195190058668
2.056892156600952,0.45586520614665166,0.6011695321474265,-0.04472259649014289
2.070065498352051,0.4613363702152784,0.6028680776932285,0.23487452936023762
2.0795090198516846,0.4652443445500118,0.6044682193931601,0.27127890934975274
2.087080478668213,0.46837072401779856,0.6059786858712142,0.21920304606185434
2.0959370136260986,0.47169250220232195,0.6074025174614385,0.14590052191061714
2.1038689613342285,0.4748188816701087,0.6087429944156444,0.07793968628721598
2.1145477294921875,0.4795084508717888,0.6100076196210154,0.023676156902744126
2.121866226196289,0.4822440329061022,0.6112037198951518,-0.01615088317257227
2.1298530101776123,0.48576120980736226,0.6123330917723492,-0.04356842547795972
2.142690420150757,0.491232373875989,0.613395422973598,-0.06125795535763422
2.15875244140625,0.4974851328115624,0.6143904716252477,-0.07171895909488268
2.1688950061798096,0.5015885058630325,0.6153153189619807,-0.07700415919501419
2.1811928749084473,0.5062780750647126,0.6161644273074404,-0.07869451259460881
2.188852071762085,0.5092090558157627,0.6169330181515015,-0.07796182405959567
2.198802947998047,0.513117030150496,0.6176204289716792,-0.07565258495455282
2.208889961242676,0.5170250044852295,0.6182288294005861,0.20367173870222577
2.2220802307128906,0.5224961685538563,0.6187602688912809,-0.03539748213191085
2.229931592941284,0.5256225480216429,0.6192166355159371,-0.11950314286944014
2.2389633655548096,0.5293351236396396,0.6196009980151326,-0.13629642400123143
2.246894121170044,0.532656901824163,0.6199175150668501,0.14944952128175656
2.255439043045044,0.5359786800086865,0.6201702310106848,0.20048961393248482
2.263514280319214,0.5393004581932099,0.6203630208357219,0.16385092906471063
2.2708446979522705,0.54223143894426,0.6205002525574013,0.10397481681217924
2.27966046333313,0.5459440145622566,0.6205867423628415,0.04674501646794075
2.289503812789917,0.5500473876137267,0.6206271138144023,0.0006800504259828234
2.3008148670196533,0.5545415580986702,0.6206260929518763,-0.03304565602784075
2.30985164642334,0.5582541337166669,0.6205892292612553,-0.05599368879563117
2.320812463760376,0.5625529054848736,0.620523156492824,-0.07043926014513445
2.3288519382476807,0.5656792849526604,0.6204352804878005,-0.07855710923981196
2.338533639907837,0.5695872592873937,0.62033582644294,-0.08215235512959582
2.3491737842559814,0.5738860310556004,0.6202449853622546,-0.08262239780672653
2.3579235076904297,0.5774032079568606,0.6201878482551626,-0.08100534816711394
2.3659212589263916,0.5809203848581206,0.6201838951570676,-0.0780514300550044
2.374173879623413,0.584242163042644,0.6202484914158748,-0.07429166757532506
2.3836984634399414,0.5879547386606407,0.6203957594885939,-0.07009527806964326
2.3918323516845703,0.5910811181284275,0.6206383814839818,-0.34175282500944226
2.400830030441284,0.5947936937464242,0.6209872060731936,-0.370481011987378
2.411904811859131,0.5992878642313676,0.6214564511895734,-0.31108181738788065
2.4231483936309814,0.6037820347163111,0.6220682003580899,-0.2308584710857065
2.4309260845184326,0.6069084141840977,0.6228403407697798,-0.15640188207968506
2.4398744106292725,0.6102301923686212,0.6237757150736408,-0.3721104779277658
2.4498395919799805,0.6143335654200912,0.6248747412991716,-0.3597639446740589
2.459290027618408,0.6178507423213512,0.6261408546709396,-0.2720123338316156
2.4675376415252686,0.620977121789138,0.6275744117077587,-0.1733889460597971
2.4757912158966064,0.6241035012569247,0.6291678830268491,-0.3639609821192643
2.4866526126861572,0.6278160768749216,0.6309123628918549,-0.6070777260156791
2.4950544834136963,0.6309424563427082,0.6328032068614667,-1.0896751114617835
2.504870653152466,0.6338734370937583,0.6348291693374603,-1.820654018593233
2.51491117477417,0.6368044178448083,0.6369788276148309,-2.746916294807922
2.5251574516296387,0.639930797312595,0.6392517104263554,-3.803145347527633
2.5331742763519287,0.6420801831966985,0.64164669971442,-4.378864078416217
2.543804407119751,0.6446203665142752,0.6441520265964116,-5.0
2.553622245788574,0.6467697523983785,0.6467584399476702,-5.0
2.564018726348877,0.6485283408490086,0.6494720711882861,-5.0
2.571835994720459,0.6500915305829019,0.652300627285036,-5.0
2.5835373401641846,0.6520455177502685,0.6552487825950708,-5.0
2.594390392303467,0.6534133087674253,0.6583346137794895,-5.0
2.60581374168396,0.6549764985013187,0.6615790479284273,-5.0
2.6145575046539307,0.6559534920850019,0.6649979053112889,-5.0
2.6249139308929443,0.6571258843854221,0.668610568769039,-4.634810259099212
2.632911205291748,0.6577120805356321,0.6724395963972968,-4.136237590840637
2.6428780555725098,0.6586890741193153,0.6765101799200164,-3.6398095758519413
2.6508305072784424,0.6594706689862622,0.6808333495236357,-2.6426390277964247
2.661785840988159,0.660643061286682,0.6854236230316585,-1.91801847956904
2.670835018157959,0.6616200548703655,0.6903118854319303,-0.8437439943373486
2.6804542541503906,0.662987845887522,0.6955091218823742,0.14913183434780686
2.688075304031372,0.6639648394712055,0.7010275740465863,1.4774380255199573
2.6968419551849365,0.6651372317716254,0.7068768577117165,2.6436453607839563
2.7097675800323486,0.6670912189389921,0.7130658604048945,4.056430445773326
2.720770835876465,0.6686544086728856,0.7196406848609342,5.0
2.731804609298706,0.6706083958402522,0.7266377041242444,5.0
2.741055727005005,0.6721715855741456,0.7340836878074624,5.0
2.7498083114624023,0.6739301740247756,0.7419950590169735,5.0
2.7592833042144775,0.6758841611921423,0.7503379527723787,5.0
2.7688417434692383,0.6782289457929824,0.7590760174098706,5.0
2.7791543006896973,0.6807691291105592,0.768190951249701,5.0
2.7869060039520264,0.683309312428136,0.7776408765925997,5.0
2.7978384494781494,0.6870218880461326,0.7873831822433862,5.0
2.8061296939849854,0.6899528687971827,0.797412383627289,5.0
2.813816547393799,0.6928838495482326,0.8076816522246184,5.0
2.8258163928985596,0.6973780200331761,0.8180917526772202,5.0
2.834432601928711,0.7008951969344361,0.8285898886511632,5.0
2.845175266265869,0.7053893674193795,0.8391780872825265,5.0
2.856070041656494,0.7096881391875862,0.8498680033766899,5.0
2.86543345451355,0.7132053160888464,0.8606467484978892,5.0
2.8735649585723877,0.7165270942733698,0.8714817454532756,5.0
2.881826162338257,0.7198488724578932,0.8823270296885537,4.281156901129072
2.890831708908081,0.72356144807589,0.8931267770903373,2.983297805750697
2.902517795562744,0.7280556185608333,0.9038606253300046,1.7097892139498148
2.909830093383789,0.7309865993118833,0.9145112046103675,0.1134939268182732
2.919800281524658,0.7350899723633534,0.925036143005506,-1.008766139097873
2.9288055896759033,0.7388025479813501,0.9354144127258153,-2.0290906172680705
2.9383437633514404,0.742515123599347,0.94563003211669,-2.7983810979245574
2.9488232135772705,0.7466184966508169,0.9556715845241526,-3.03105450720311
2.958773612976074,0.7509172684190237,0.9655455701719484,-3.2863949773272827
2.9694738388061523,0.7554114389039671,0.975273659870055,-3.4610828119922243
2.976787567138672,0.7585378183717539,0.9848761485800431,-3.5350768157090107
2.985755205154419,0.762054995273014,0.9943440324464631,-3.5201676233658503
2.9937679767608643,0.764985976024064,1.003657245279234,-3.437222336956217
3.0063769817352295,0.7700663426592175,1.0128001539646423,-3.306882364631515
3.0176784992218018,0.7747559118608975,1.0217872268806345,-3.1463633098082484
3.027968645095825,0.7786638861956309,1.0306705058057344,-2.968868851119139
3.035763740539551,0.7819856643801543,1.0394803631051366,-2.784005833322764
3.0454773902893066,0.785698239998151,1.048203109387887,-2.598486042875252
3.052774667739868,0.788629220749201,1.0568268053608485,-2.4168216993046796
3.0627145767211914,0.7925371950839345,1.0653417652320925,-2.2419131745151892
3.0730676651000977,0.7966405681354046,1.0737276067290775,-2.0755096849890435
3.0823888778686523,0.8003531437534013,1.0819793192052771,-1.9185553636077377
3.0907559394836426,0.8038703206546614,1.0900931416970456,-1.7714423310682665
3.099769353866577,0.807582896272658,1.0980542957209887,-1.6341923617456113
3.1107842922210693,0.8118816680408648,1.1058619643974232,-1.5065854846090558
3.1222712993621826,0.8165712372425449,1.113537859547346,-1.3882499639970476
3.1307873725891113,0.8198930154270683,1.121100488606125,-1.2787245695343001
3.1410510540008545,0.8241917871952751,1.1285549372943013,-1.1775011658050702
3.1488096714019775,0.8271227679463251,1.1359061572179443,-1.0840534358109577
3.15889835357666,0.8312261409977952,1.143148901554309,-0.997855900228763
3.168800115585327,0.8351341153325286,1.1502801598227037,-0.9183961882049947
3.1784274578094482,0.839042089667262,1.1573097987496477,-0.845182646393172
3.1888084411621094,0.8433408614354688,1.1642482155160583,-0.7777487525770141
3.1997878551483154,0.8476396332036755,1.1711063636427286,-0.4396170005310503
3.208813428878784,0.8509614113881988,1.1778956989524938,-0.3493285266960686
3.218876361846924,0.8548693857229324,1.1846280528545703,-0.3518084561533469
3.2288079261779785,0.8589727587744024,1.1913269109744204,-0.37946692340000654
3.2397656440734863,0.8634669292593458,1.1980252281826107,-0.4054241679571383
3.24838924407959,0.8671795048773426,1.2047402692202875,-0.4210366523269219
3.2587838172912598,0.8714782766455493,1.2114752961154491,-0.42529931205813015
3.269373655319214,0.8755816496970192,1.218232703084685,-0.4199938311621768
3.278775930404663,0.8794896240317529,1.2250137577192368,-0.4075755243805693
3.2877986431121826,0.8830068009330129,1.231807165510563,-0.39033545965968297
3.2977912425994873,0.8871101739844829,1.2385910354994634,-0.37013437566339413
3.3077807426452637,0.891213547035953,1.2453573004870593,-0.34837643691179354
3.315805673599243,0.8947307239372131,1.2521094063338163,-0.32607068204878487
3.323791742324829,0.8976617046882631,1.2588490323987382,-0.30391377563735594
3.3334548473358154,0.9011788815895231,1.2655659169785776,-0.28236764533785874
3.3409600257873535,0.9043052610573099,1.2722400978586812,-0.26172353795919046
3.3501226902008057,0.9076270392418332,1.278865002924068,-0.2421515799075058
3.361947536468506,0.9127074058769867,1.28545598506025,-0.2237377070100599
3.37282395362854,0.9170061776451935,1.2920365950143153,-0.2065105208986094
3.3818306922912598,0.9207187532631901,1.2986063815673994,-0.1904604870427417
3.3897786140441895,0.9238451327309769,1.3051450129732838,-0.17555347680118716
3.3984618186950684,0.9275577083489737,1.3116473795857981,-0.16174021038776912
3.4057552814483643,0.9304886891000236,1.3181106417521598,-0.14896276758081733
3.4151203632354736,0.9342012647180205,1.324535025784455,-0.13715902089758528
3.4228577613830566,0.9371322454690706,1.330922493792155,-0.1262656079852707
3.434551954269409,0.941626415954014,1.3372653666107908,-0.11621988370464476
3.4467456340789795,0.9469021813059041,1.3435830319889361,0.16907719550641742
3.4578027725219727,0.9513963517908475,1.349917341797334,0.2107314799302113
3.465801954269409,0.9545227312586343,1.3562804932878236,0.16348969263280144
3.4748306274414062,0.9582353068766308,1.3626461173643647,0.09463743351606507
3.4868814945220947,0.9631202747950476,1.3690151334712735,0.030772882503532578
3.496910333633423,0.9670282491297811,1.3754226247391996,-0.01972063639713753
3.50652813911438,0.9707408247477777,1.381883398776341,-0.056078266729891656
3.5155789852142334,0.9746487990825112,1.3883946660243316,-0.0803032519797981
3.5286459922790527,0.9803153618678746,1.3949605819708253,-0.09505513929181433
3.5377461910247803,0.9842233362026079,1.401590588153306,-0.10281316880700192
3.5467708110809326,0.9875451143871313,1.4082685290641594,-0.3816497521567873
3.556107997894287,0.9910622912883915,1.4149576614278923,-0.4141765223002295
3.564700126647949,0.9945794681896515,1.4216339988291222,-0.3562413279964224
3.5743870735168457,0.9982920438076482,1.4282845112883502,-0.2759101721223273
3.582157850265503,1.0012230245586982,1.434887850930535,-0.20031951417320965
3.590366840362549,1.0045448027432218,1.4414163892376588,-0.414252047074845
3.6027719974517822,1.009625169378375,1.447862432887525,-0.3997544819355342
3.6113293170928955,1.0133377449963719,1.4542272886228655,-0.30965990882029465
3.619826078414917,1.016854921897632,1.4604958037128686,-0.20862514912289798
3.6294984817504883,1.0205674975156287,1.4666550881310565,-0.1207607518990108
3.6382908821105957,1.0240846744168886,1.4727024660323589,-0.05238231784139069
3.6467411518096924,1.0276018513181489,1.4786363872729327,-0.002641678580133089
3.655949354171753,1.0311190282194087,1.4844492344935822,0.031678569439948526
3.6645984649658203,1.0348316038374055,1.490128673334897,0.05413246152330987
3.673727512359619,1.038739578172139,1.4956735967123964,0.06784955796096889
3.6844239234924316,1.0430383499403457,1.5010927710143913,0.07533296318200496
3.6919331550598145,1.0461647294081324,1.5063884050373033,0.07848327728110746
3.7044146060943604,1.0510496973265493,1.511565253807021,0.07869797703273132
3.7117607593536377,1.0537852793608626,1.5166378035399153,0.07698224028726573
3.7207722663879395,1.0573024562621227,1.5216129626362789,0.07404710608795528
3.7297849655151367,1.0608196331633828,1.526499734648816,-0.20564992354537281
3.7417290210723877,1.0660953985152728,1.531316973775197,0.0332226705617818
3.752545118331909,1.070198771566743,1.5360931640206532,0.11725185890755795
3.76173996925354,1.0739113471847397,1.5408553502046654,0.13404890250566537
3.771749973297119,1.077819321519473,1.545610248614423,-0.1516411892974746
3.7797813415527344,1.0811410997039963,1.5503557805630759,-0.20259296730692025
3.7877800464630127,1.08446287788852,1.5550914133338212,-0.1658470548453253
3.798173666000366,1.0887616496567265,1.5598281786502197,-0.1058540447615311
3.8067314624786377,1.0924742252747233,1.564586609617439,-0.04850389262231771
3.8147659301757812,1.09560060474251,1.569374312400462,-0.002319222936158997
3.8227479457855225,1.098726984210297,1.5741874221295202,0.03152290483497327
3.8318960666656494,1.1024395598282934,1.5790330038843805,0.0545824549749956
3.839742660522461,1.1055659392960802,1.5839165972768943,0.06913371113135966
3.8488545417785645,1.1090831161973405,1.5888317678197077,0.07735095342177697
3.859325647354126,1.1131864892488104,1.5937827979858725,0.081039155771152
3.868041753768921,1.1165082674333338,1.5987827721300425,0.08159577894380644
3.879148006439209,1.1210024379182773,1.603841355356906,0.08005912587151012
3.88742733001709,1.124519614819537,1.6089649281587766,0.07717969242153785
3.89577054977417,1.1280367917207974,1.6141470060996475,0.07348881973639697
3.9048187732696533,1.1319447660555308,1.6193702389267184,0.06935606359097163
3.914463758468628,1.135852740390264,1.6246275906126921,0.06503397187579725
3.9231019020080566,1.1391745185747875,1.629920255873618,0.060691703870530626
3.9317476749420166,1.1428870941927842,1.635237676799109,0.3324780292531016
3.940730571746826,1.1464042710940443,1.6405598210840897,0.36151026385414087
3.9497427940368652,1.1497260492785677,1.6458765887262734,0.30252143348310306
3.960787534713745,1.1546110171969846,1.6511943898660617,0.2227674407596898
3.971754312515259,1.158909788965191,1.6565249294183901,0.1488071150871872
3.979750156402588,1.1618407697162412,1.6618608766006497,0.08897912670183038
3.98773455619812,1.1651625479007646,1.6671795726124958,0.044001319195686985
3.9976465702056885,1.1686797248020246,1.6724698836700012,0.011823037528555989
4.009828805923462,1.1741508888706513,1.677738810853887,-0.010261799752084131
4.01806640625,1.1778634644886483,1.6830010953724994,-0.024777287259910873
4.02573561668396,1.1809898439564348,1.6882539632348845,-0.033800174067302347
4.034735202789307,1.1843116221409582,1.6934715352459793,-0.03893449286690501
4.043779373168945,1.1882195964756916,1.6986413775540807,-0.04137395828173895
4.05374813079834,1.192127570810425,1.7037794135254891,-0.041985694978411384
4.062809705734253,1.1958401464284218,1.7088919772643496,-0.041388844715757114
4.072034120559692,1.1995527220464186,1.71396879032818,-0.04001956486549159
4.082816123962402,1.2040468925313619,1.7190113583333626,-0.03818149108118974
4.090736627578735,1.2073686707158855,1.7240221795305648,-0.03608352177615794
4.099742650985718,1.2108858476171456,1.7289957621998118,-0.03386747802011993
4.108726263046265,1.214207625801669,1.7339380929703059,-0.03162805286820041
4.118780612945557,1.2185063975698756,1.7388649863582486,-0.02942705305134658
4.128723859786987,1.2222189731878725,1.7437912574247951,-0.027303491520946674
4.138066530227661,1.2257361500891324,1.7487304632933027,-0.025280699911256272
4.146650314331055,1.2292533269903925,1.753694651443269,-0.02337131822299703
4.156506299972534,1.233161301325126,1.7586941579192243,-0.02158078123147198
4.166780948638916,1.2376554718100692,1.7637374349212027,-0.019909744885930735
4.175809144973755,1.2415634461448029,1.7688309162850735,0.2576825919631352
4.185999870300293,1.245666819196273,1.7739885330144103,0.2922484927908995
4.193859338760376,1.2485977999473228,1.7792109805193028,0.2384853781490685
4.203750371932983,1.2525057742820562,1.7844685513188991,0.16363348777015038
4.213443994522095,1.256218349900053,1.7897444349407832,0.09424926892264615
4.222092390060425,1.2597355268013128,1.7950422713062835,0.03867765066215458
4.230822324752808,1.2634481024193098,1.8003546923269347,-0.002351834547701402
4.240736722946167,1.267356076754043,1.8056652770961206,-0.03087492871077776
4.248741865158081,1.2706778549385667,1.8109683343389869,-0.04958107792136375
4.260972499847412,1.2755628228569833,1.8162757355571,-0.060977029572163464
4.271728038787842,1.27986159462519,1.8216046981505827,-0.06712214244012417
4.280720233917236,1.2835741702431867,1.8269593979722822,-0.06960344806591004
4.2897257804870605,1.2872867458611836,1.8323330707149483,-0.06959831831394536
4.297720432281494,1.290608524045707,1.8377105723137184,-0.06795835120348753
4.3077802658081055,1.2951026945306503,1.8430779324567077,-0.06528806000018678
4.315711975097656,1.2978382765649636,1.8484306433418882,-0.06200990304754221
4.324735641479492,1.3015508521829606,1.8537564212267241,-0.058414744308110826
4.334225416183472,1.3052634278009572,1.8590441613783846,-0.054699614222025475
4.343690633773804,1.3089760034189541,1.8642916734919637,-0.0509953327081127
4.351684331893921,1.3121023828867409,1.8694891518222951,-0.04738641392956222
4.360779523849487,1.3158149585047374,1.8746204691960653,-0.04392525955253165
4.369321823120117,1.3189413379725243,1.8796787003645972,-0.04064220152978592
4.378998756408691,1.3228493123072576,1.8846644797975043,-0.03755256513908082
4.386846303939819,1.3263664892085176,1.8895774012743096,-0.0346616106464878
4.395991086959839,1.3300790648265144,1.894410069568611,-0.031967973750938336
4.406514406204224,1.334377836594721,1.8991495252082116,0.24657231123190967
4.417640447616577,1.3384812096461913,1.9037907355407881,0.2820153353387141
4.4267473220825195,1.3423891839809245,1.9083352591811997,0.22906268283899178
4.436576843261719,1.3464925570323945,1.9127839285901869,0.15495887425289379
4.449377059936523,1.3517683223842847,1.9171420498350367,0.08626461054732998
4.4567320346832275,1.354699303135335,1.9214185286677563,0.031328955070770714
4.467522859573364,1.3589980749035415,1.925614986008464,-0.009114601476405363
4.4756834506988525,1.362319853088065,1.9297226146085893,-0.03709805120660642
4.483687162399292,1.3654462325558518,1.9337293348043527,-0.055307314478464084
4.493081092834473,1.3691588081738484,1.9376296191335762,-0.06624584191546387
4.501518487930298,1.3726759850751085,1.9414193814624952,-0.07196992209749073
4.511109828948975,1.3763885606931052,1.9450913826787437,-0.07406373596378782
4.522243499755859,1.3812735286115219,1.948647958112293,-0.07370201461013143
4.532536506652832,1.385376901662992,1.952099380475772,-0.07173391379762976
4.541679382324219,1.388894078564252,1.955447200446671,-0.06876169098815044
4.5506813526153564,1.392411255465512,1.9586859307535076,-0.34124408261622724
4.560334920883179,1.396514628516982,1.961815520125987,-0.3705179170138314
4.56771183013916,1.3994456092680323,1.9648371274966627,-0.31147035244349597
4.577712059020996,1.4033535836027657,1.9677494799046646,-0.2314646904445224
4.587756395339966,1.4074569566542359,1.9705564977946095,-0.15713402056800807
4.595690965652466,1.4103879374052857,1.9732629652581581,-0.09686791718463728
4.607238054275513,1.4150775066069659,1.9758744969010713,-0.05141874884869345
4.616194486618042,1.4187900822249626,1.97840457884381,-0.018758950595696152
4.62677001953125,1.4228934552764325,1.9808659409450726,0.0038024162296646756
4.636752367019653,1.4268014296111662,1.983263128484752,0.01877979944385852
4.64573073387146,1.4303186065124263,1.9855972538341544,0.028244079531100245
4.654679536819458,1.4342265808471597,1.9878739167813377,0.03379599824064086
4.6659862995147705,1.4391115487655763,1.9901062653038666,0.03662772005274137
4.675699472427368,1.4430195231003098,1.99230619661379,0.037605978679004115
4.687689304351807,1.4477090923019897,1.9944806967611084,-0.23868807840230735
4.6956627368927,1.4510308704865131,1.9966362693019803,-0.2728653336766476
4.7047131061553955,1.4543526486710365,1.99877504164541,-0.2193129162627655
4.713125705718994,1.45767442685556,2.000899391824568,-0.14505474855692005
4.722839117050171,1.4617777999070298,2.003015793770234,-0.07649772413834346
4.730682373046875,1.4649041793748168,2.005126178266139,-0.021884329808256914
4.739707946777344,1.4686167549928135,2.0072285783066306,0.01812528266843179
4.748701572418213,1.4721339318940736,2.0093259200864564,0.0456131476256046
4.7577104568481445,1.4756511087953337,2.011425270729335,0.06329895776819969
4.766815423965454,1.478972886979857,2.013533039917478,0.0737086148401926
4.777169227600098,1.483662456181537,2.015659418082948,0.07891301240172399
4.787641763687134,1.4879612279497438,2.017817729541316,0.08050552471527521
4.796674966812134,1.491478404851004,2.0200104906632466,0.07966636634288868
4.806246519088745,1.4953863791857371,2.022235523188778,0.07724765370424572
4.8157031536102295,1.4996851509539442,2.024500080597938,-0.2021854515299304
4.823901176452637,1.5028115304217309,2.0268055155634146,-0.2392603160883092
4.833500623703003,1.5067195047564643,2.0291435836267775,0.08765788058882025
4.844295024871826,1.5110182765246711,2.031511844997939,-0.0834612283094
4.85371470451355,1.5147308521426677,2.033908030657443,-0.10539582449383837
4.861661195755005,1.517661832893718,2.0363253654329982,-0.07386068441545968
4.870723247528076,1.5213744085117145,2.038762857936374,-0.030213637662296892
4.88087010383606,1.5254777815631846,2.041224425285565,0.009403067808969465
4.888862133026123,1.5286041610309713,2.043713356879538,0.04008199253421038
4.89933443069458,1.5329029327991783,2.0462323972466057,0.06157297225101497
4.907897233963013,1.5364201097004382,2.048778818133058,0.07528327186186448
4.9189770221710205,1.5409142801853815,2.051350332966657,0.35901819596896245
4.9296464920043945,1.5452130519535883,2.0539550467426673,0.39544483555310317
4.938389539718628,1.548925627571585,2.0565997199948898,0.34057180797329106
4.945681810379028,1.5516612096058984,2.0592797157581804,0.2626393011111842
4.954801082611084,1.5555691839406316,2.0619857745067716,0.18893714661061128
4.964189767837524,1.5594771582753653,2.06471515109404,0.4043716888448303
4.973773717880249,1.563189733893362,2.067465417382662,0.3910848644584262
4.983164548873901,1.5670977082280952,2.0702292057783658,0.025942878601467323
4.991997957229614,1.5704194864126186,2.073005532725245,-0.10739244680082247
5.000689744949341,1.5739366633138787,2.0757935963178213,0.13657475333000924
5.008686780929565,1.577258441498402,2.078587477193325,0.1780023419390216
5.018068313598633,1.580971017116399,2.081387577296916,0.14420490569907396
5.026947259902954,1.584488194017659,2.0841995988004776,-0.18516229420366392
5.034684181213379,1.5876145734854459,2.0870228421196697,-0.26886288281530635
5.043660879135132,1.590936351669969,2.0898510656755693,-0.25432935616110036
5.0537848472595215,1.5952351234381759,2.092683939541141,0.06816449749684947
5.063035488128662,1.598752300339436,2.095531122179202,-0.12434694907213424
5.072014808654785,1.6024648759574327,2.0984050858738423,-0.16858240439858818
5.081796884536743,1.606372850292166,2.101305056355412,-0.15464526518022484
5.089674234390259,1.6094992297599529,2.1042142748060226,-0.12276886378769339
5.098736524581909,1.6132118053779496,2.1071178471346195,-0.08969930987420847
5.107706069946289,1.6167289822792097,2.110012212853802,-0.06145238437403151
5.117746353149414,1.6208323553306796,2.1128982699971672,-0.03938783245550494
5.125763416290283,1.624154133515203,2.1157714219323207,-0.02303361570539374
5.136889219284058,1.6286483040001465,2.11862263328581,-0.011349024673485407
5.1466758251190186,1.6323608796181432,2.1214479581178147,-0.0032519371228391623
5.1556737422943115,1.63607345523614,2.124247696589939,0.002190550917708652
5.16471004486084,1.6397860308541365,2.127021396228573,0.005717898577218224
5.173057794570923,1.6436940051888702,2.129768078198402,0.2839281198745298
5.183387517929077,1.64721118209013,2.1324864748475507,0.31828078731957027
5.190681457519531,1.65014216284118,2.135171654673575,0.2637649461617036
5.199707269668579,1.6536593397424404,2.1378158393709796,0.18782627569982843
5.21068811416626,1.657958111510647,2.14041633264694,0.117163886281474
5.221004009246826,1.6624522819955905,2.142978358094119,0.060220346713126385
5.23067307472229,1.666164857613587,2.1455066305905417,0.29382926483267263
5.240002632141113,1.6702682306650571,2.148001750077,0.021007709349671777
5.248388051986694,1.6737854075663172,2.150464377713286,-0.08726209592520177
5.259010553359985,1.6778887806177873,2.1528951468266775,-0.12092782947963346
5.269197225570679,1.6817967549525208,2.1552979298009114,0.15331493106764793
5.27817177772522,1.6855093305705175,2.1576759237219885,-0.0793183963184938
5.289766550064087,1.6901988997721975,2.160028291831977,-0.1539753113812259
5.298645257949829,1.6939114753901945,2.1623510464131446,-0.16173130407740297
5.310065031051636,1.6984056458751378,2.164640673066672,-0.14453078551036674
5.320628881454468,1.702313620209871,2.1669032638838925,-0.12082799941815839
5.33267879486084,1.7070031894115512,2.169143735562902,-0.09808507654733961
5.341391563415527,1.7105203663128112,2.171356908438326,-0.07879536406074242
5.351882696151733,1.714819138081018,2.1735380934910906,-0.06333708632155914
5.364285469055176,1.7198995047161716,2.1756885750157497,-0.05128955830559263
5.372084140777588,1.723025884183958,2.1778116297319317,-0.0420138473239184
5.381530046463013,1.7269338585186915,2.179904490113994,-0.03488888034584741
5.389747858047485,1.730255636703215,2.1819571203138026,-0.02939153009866662
5.400097370147705,1.7343590097546853,2.1839634835334496,-0.025110070624616156
5.408661127090454,1.7376807879392087,2.1859234846239315,-0.021732284432107847
5.417308568954468,1.7413933635572052,2.187834867863184,-0.01902647299965072
5.425898790359497,1.7445197430249917,2.1896957478491967,-0.016822823936071138
5.43464469909668,1.748232318642989,2.1915048802158403,0.261040669088629
5.446748495101929,1.7531172865614053,2.193261431326779,0.2957017204862903
5.456755638122559,1.7572206596128757,2.1949691593361664,0.24191756526863734
5.465376138687134,1.7605424377973988,2.1966316400528023,0.16697003222904694
5.473012447357178,1.7638642159819222,2.1982503099126913,0.09744428242145625
5.480670690536499,1.7665997980162358,2.1998249304771424,0.04170490788907086
5.492220640182495,1.771289367217916,2.201355892364115,0.0004947684617692925
5.499664783477783,1.7744157466857025,2.202846130699587,-0.3042513276707821
5.5106611251831055,1.7791053158873826,2.204294672395892,-0.35626486798649026
5.520888805389404,1.7834040876555892,2.2056992626682397,-0.31274077425340563
5.529675006866455,1.7869212645568493,2.207062660350893,-0.24297025087479837
5.539747714996338,1.7906338401748463,2.208389847736546,-0.175089133581704
5.548678398132324,1.7941510170761064,2.2096855928690315,-0.11861274773093887
5.557645797729492,1.7980589914108396,2.2109544185300023,-0.0751158457434612
5.566744089126587,1.8013807695953632,2.212200604670596,-0.04316135878862132
5.578795671463013,1.806070338797043,2.21342818280349,-0.020476945690346887
5.589378595352173,1.81036911056525,2.2146430702261712,-0.2808801711928144
5.596669435501099,1.8136908887497734,2.21585057348839,-0.3035520817463516
5.60466742515564,1.8170126669342965,2.217051130844059,0.034314138778504644
5.613150119781494,1.82033444511882,2.2182431474363304,0.1476289262668158
5.62267804145813,1.8240470207368165,2.2194254099309187,0.16533679557941522
5.631110429763794,1.8275641976380768,2.220601270826684,0.14691070052310853
5.640671253204346,1.8314721719728102,2.2217756826743753,0.11858749859442508
5.648670196533203,1.8347939501573334,2.2229463122971636,0.09103578663613306
5.659519672393799,1.8392881206422769,2.2241107507454925,0.067874890280709
5.667686700820923,1.8426098988268003,2.225270744302488,-0.22632445150498598
5.677309513092041,1.8465178731615337,2.2264256305389027,-0.2731460446832766
5.687860488891602,1.8506212462130038,2.227574693831779,-0.2281381475699017
5.6975672245025635,1.8543338218310006,2.2287190352164057,-0.15937499726333976
5.70772123336792,1.858241796165734,2.2298592678256037,-0.3701535136984043
5.717175722122192,1.8621497705004673,2.2309956545219345,-0.3504163268584702
5.728620290756226,1.8668393397021477,2.232128213380435,-0.25599815314125873
5.737193584442139,1.8703565166034077,2.2332567977063977,-0.15240017681811582
5.747635841369629,1.8744598896548776,2.2343811890008243,-0.06370111743548604
5.757045269012451,1.8781724652728744,2.2355011656964194,0.004112082818801502
5.764673471450806,1.8811034460239244,2.236616516539324,0.052266183391659005
5.773067951202393,1.8848160216419212,2.2377253638673644,0.08431358055756327
5.781720399856567,1.8881377998264446,2.2388244914803765,0.10407385079815609
5.7896409034729,1.8916549767277049,2.2399113209694246,0.11487432861356134
5.801666736602783,1.8965399446461213,2.2409856125633527,0.11935917053977
5.809647798538208,1.899666324113908,2.242049128103291,0.11952594769716367
5.818745851516724,1.903183501015168,2.2431018995158922,0.11683630896678483
5.829448223114014,1.907482272783375,2.2441461121372437,0.1123358999716704
5.8376123905181885,1.910804050967898,2.2451856706609568,0.10675946986077622
5.8470778465271,1.9143212278691581,2.246222382268616,0.10061496903323154
5.855084419250488,1.9176430060536815,2.2472580004780323,0.09424762496390668
5.863697528839111,1.9211601829549418,2.2482922587334877,0.08788734924423024
5.874716758728027,1.9256543534398853,2.2493250310879023,0.0816831537289949
5.882635116577148,1.9289761316244087,2.250356255764389,0.07572781534266984
5.891408681869507,1.9324933085256688,2.2513840312129254,0.07007538946116024
5.9017112255096436,1.9367920802938754,2.2524086395006493,0.06475355765021742
5.910177230834961,1.9403092571951355,2.2534340301801823,0.33581064216093337
5.918645858764648,1.9436310353796589,2.254461619667122,0.3642928042855331
5.928669452667236,1.9475390097143923,2.255486975365935,0.02884435726804005
5.938522815704346,1.9518377814825991,2.2565081421563997,-0.0843623135684033
5.950690507888794,1.956527350684279,2.257527092125734,-0.10348551725280689
5.960632562637329,1.960239926302276,2.258545375743068,0.18859975007150315
5.969644546508789,1.9637571032035361,2.259564156042712,-0.028941972089230883
5.978653430938721,1.9674696788215327,2.26058424100579,-0.09286499430983908
5.9876627922058105,1.9707914570060558,2.2616060831131195,-0.09406304099609315
5.997210264205933,1.9750902287742627,2.2626297936102584,0.20233109948067607
6.006276369094849,1.9788028043922596,2.263655186016181,0.2597687046609579
6.014669895172119,1.9823199812935197,2.2646802277029985,0.2262319360356325
6.024204730987549,1.9864233543449896,2.2657029356258724,0.16705862185120582
6.033413410186768,1.989745132529513,2.2667230266688843,0.10886856622962181
6.04496431350708,1.9946301004479299,2.267739986459326,0.060744807638581935
6.053713321685791,1.9979518786324533,2.2687531518780704,0.024276973132018605
6.063748836517334,2.0022506504006596,2.26976182059601,-0.0018000889406638888
6.071905136108398,2.0059632260186566,2.2707652924774098,-0.01955507942855235
6.082062005996704,2.009675801636653,2.271761529377571,-0.031022253720272466
6.089646577835083,2.01280218110444,2.2727474112378827,-0.03791372103680956
6.099642038345337,2.0165147567224366,2.273720473117761,-0.0415674672647506
6.108652114868164,2.020031933623697,2.274680340140374,-0.042985645911621316
6.119612455368042,2.024721502825377,2.275628463788046,-0.042898690103562426
6.130617618560791,2.0288248758768472,2.2765664560436387,-0.04182881832329804
6.139613628387451,2.032342052778107,2.2774961116828516,-0.04014377741841736
6.151934862136841,2.037617818129997,2.278421059384122,-0.03809908449826996
6.161207437515259,2.041330393747994,2.279346495737821,-0.035869886270048806
6.17214560508728,2.046019962949674,2.2802773362601987,-0.03357438636071601
6.180648326873779,2.049146342417461,2.2812163435022144,-0.03129078965657651
6.188611030578613,2.0522727218852475,2.2821606717400775,-0.029069419682353555
6.197938442230225,2.0557898987865078,2.2831062086272156,-0.026941313974114492
6.207648992538452,2.0598932718379777,2.2840530838136677,-0.024924283676368307
6.21558690071106,2.0630196513057646,2.2850014050433796,0.25301119566527036
6.2246928215026855,2.066732226923761,2.2859511991404604,0.2879101804976445
6.2338950634002686,2.0702494038250214,2.2869041900428253,0.2344656848138395
6.243621826171875,2.0743527768764913,2.2878599178707417,-0.11612290531264821
6.253625869750977,2.0784561499279612,2.2888177907187637,0.05769013249541108
6.262585639953613,2.0819733268292215,2.2897788616059285,0.09060537604626503
6.275629043579102,2.0874444908978482,2.2907454165421757,0.07081036905907487
6.28499698638916,2.090961667799108,2.2917206920530777,-0.2390843713811049
6.292616128921509,2.094674243417105,2.292705337752425,-0.028565493495676816
6.303283929824829,2.098777616468575,2.293697838114252,0.033832408935647276
6.310983896255493,2.101708597219625,2.294695028454818,0.03627376690154056
6.321604251861572,2.105811970271095,2.2956924190535473,0.018509974333303505
6.330708265304565,2.1093291471723554,2.2966860523152697,-0.002606875810998081
6.340932607650757,2.1134325202238253,2.297673901911156,-0.020759926457669796
6.349961042404175,2.116754298408349,2.2986570178110117,-0.03426043492575834
6.359149932861328,2.1204668740263455,2.29963616855779,-0.04328660298424063
6.368627309799194,2.1243748483610787,2.3006090734166977,-0.048637622263927066
6.377542018890381,2.1280874239790757,2.301572423712234,-0.05120489850650713
6.386548042297363,2.1317999995970722,2.3025248934133,-0.05177356822297059
6.3962438106536865,2.135707973931806,2.3034668510530514,-0.050969356573277474
6.405624151229858,2.1392251508330657,2.3043987259259686,-0.04926424505817433
6.413851737976074,2.1425469290175894,2.305319638809183,-0.04700184403367058
6.42357325553894,2.1466503020690593,2.3062276037457883,-0.04442582985330157
6.433274030685425,2.150753675120529,2.3071224641641708,-0.04170516497279442
6.4419825077056885,2.154075453305053,2.308005614076591,-0.0389543869145189
6.451988220214844,2.157983427639786,2.3088783739879513,-0.036249107601086766
6.461582183837891,2.1620868006912564,2.309741978958491,-0.03363749266178334
6.47057032585144,2.1654085788757795,2.310597573476657,-0.031148594577495588
6.480585098266602,2.169316553210513,2.311446229916678,-0.028798318821657544
6.488595008850098,2.1726383313950364,2.312288958904178,-0.026593652023259702
6.497891664505005,2.176350907013033,2.3131267057553004,-0.024535634176627387
6.5056047439575195,2.179868083914293,2.3139589839350325,-0.022621433073157525
6.513901948928833,2.18299446338208,2.3147841324863285,-0.020845781973744072
6.521572589874268,2.1863162415666033,2.315600880112155,-0.019201968300867032
6.529682874679565,2.189247222317653,2.3164082829671546,-0.0176825072576176
6.53955864906311,2.193155196652387,2.317207093185281,-0.2923179549508407
6.547602653503418,2.19647697483691,2.31799952518918,-0.3241483730574457
6.555584907531738,2.1997987530214336,2.318786205363306,-0.2678580117201921
6.564613342285156,2.20351132863943,2.3195663905290154,0.08536472776312803
6.573610067367554,2.2070285055406904,2.320339602763968,0.19002463609584672
6.583571434020996,2.210741081158687,2.321105600054801,0.19248163458176495
6.59364914894104,2.215039852926894,2.3218657961915583,0.15925268676969118
6.602415323257446,2.218361631111417,2.322622962935608,0.11893533209270503
6.612924575805664,2.222660402879624,2.323379478053255,0.08256858380878196
6.622321128845215,2.226177579780884,2.3241372812024075,0.05339278995164522
6.630573749542236,2.229694756682144,2.3248964478137215,0.031435170773289986
6.641251087188721,2.2339935284503505,2.325656802406932,0.015596529436207006
6.64859676361084,2.237119907918138,2.326419371842687,0.004550382464755028
6.6569390296936035,2.240441686102661,2.327183398997527,-0.0029084179858783737
6.665915489196777,2.2443496604373943,2.327947900429562,-0.28379837943401043
6.673884153366089,2.247476039905181,2.3287118321895295,-0.3199201418164439
6.682474374771118,2.250993216806441,2.3294727382697857,-0.26652436754517284
6.691074848175049,2.2541195962742275,2.3302292975031977,-0.1912508511724516
6.701110363006592,2.258027570608961,2.3309811454345417,-0.1209396597397811
6.7105677127838135,2.2615447475102215,2.331726770898144,-0.34017254707188327
6.723590612411499,2.267015911578848,2.3324647364556204,-0.33086394892949744
6.732924699783325,2.2709238859135814,2.3331955387798216,-0.2457632587242622
6.741549015045166,2.2740502653813683,2.333919241288156,-0.1494774869091297
6.752608776092529,2.2785444358663116,2.334634536410261,-0.06609068561755937
6.761626482009888,2.282061612767572,2.3353400219429403,-0.0019077568525536076
6.769615173339844,2.2853833909520955,2.3360335581968608,0.04391966157574473
6.778002977371216,2.2887051691366187,2.336712521510038,0.07460236023536737
6.786841869354248,2.292613143471352,2.3373754803892846,0.09368351806132391
6.795591592788696,2.295934921655875,2.3380213420583287,0.10427935753518561
6.804927349090576,2.300038294707345,2.338649339812297,0.10887836270917353
6.813175678253174,2.3031646741751324,2.3392597778886253,0.10936603590311421
6.821926593780518,2.306681851076392,2.339852509426653,0.10712480986175696
6.830599546432495,2.310199027977652,2.340427045062033,0.10314521349606726
6.839550971984863,2.3135208061621757,2.340983362656056,0.0981242426335707
6.851905107498169,2.318601172797329,2.34152355193767,0.09254444273531393
6.859581708908081,2.321727552265116,2.3420516012136976,0.0867343285554639
6.869223117828369,2.3256355265998496,2.342570654372691,0.0809131629284035
6.876558542251587,2.3283711086341623,2.3430820272189257,0.07522350224929546
6.886141777038574,2.3322790829688964,2.3435872979458994,0.06975453966557024
6.897591590881348,2.336577854737103,2.344090261483728,0.06455869028340928
6.905557155609131,2.3397042342048895,2.3445933337816456,-0.2163750692273481
6.914602279663086,2.342830613672676,2.345096654679207,-0.2540841609830083
6.922840356826782,2.3457615944237262,2.345600487462066,-0.755337891713502
6.932307481765747,2.349278771324986,2.3461051755489346,-1.301550732654556
6.942741870880127,2.3527959482262464,2.3466123155460865,-1.7428413585127287
6.952036380767822,2.3561177264107696,2.3471245045218847,-2.045587715899145
6.960206031799316,2.3586579097283464,2.347643958204491,-2.497692318021967
6.9686360359191895,2.3611980930459233,2.348171297989975,-2.8820180927304517
6.976963520050049,2.3633474789300264,2.3487057565549514,-3.136912970704005
6.986382722854614,2.36549686481413,2.349247838262815,-3.8161348368228967
6.994572401046753,2.3674508519814963,2.349797887860002,-4.181105860841521
7.0029215812683105,2.369209440432127,2.3503548690418508,-4.325370348810073
7.011435508728027,2.3709680288827566,2.350919032564682,-4.595290994949604
7.0209269523620605,2.3727266173333863,2.351491711245074,-5.0
7.030561208724976,2.3742898070672798,2.3520739110544415,-5.0
7.040584325790405,2.375657598084437,2.352666340043743,-5.0
7.048583269119263,2.3764391929513833,2.353269425080774,-5.0
7.057733774185181,2.3774161865350667,2.353883348950113,-5.0
7.0673744678497314,2.378197781402014,2.3545068926998516,-5.0
7.078223705291748,2.3787839775522235,2.3551376616196977,-5.0
7.086888313293457,2.379174774985697,2.35577469679467,-5.0
7.094556093215942,2.379174774985697,2.3564170891599354,-5.0
7.106539011001587,2.3793701737024335,2.35706395269689,-5.0
7.115184783935547,2.3793701737024335,2.3577167835288093,-4.784134110469727
7.123654365539551,2.379174774985697,2.3583755518733853,-4.045742306852422
7.13314962387085,2.37897937626896,2.359037740365431,-3.2308426939041257
7.142090320587158,2.378588578835487,2.359702215977082,-2.5073683804846434
7.150876522064209,2.378197781402014,2.3603689792831273,-1.6446663528185583
7.160429239273071,2.3776115852518034,2.3610378019210434,-1.1573487498665327
7.170585870742798,2.3770253891015938,2.361709272533286,-0.5935687315562406
7.179528713226318,2.3764391929513833,2.3623836291339892,0.1708751654778281
7.187567710876465,2.3758529968011737,2.363057793384458,0.8526379890387645
7.196680307388306,2.3750714019342265,2.363727996341259,1.64404927427494
7.20575213432312,2.3742898070672798,2.3643919908673086,2.024632269005739
7.214550733566284,2.3735082122003335,2.3650469054493475,2.1763221979668597
7.224750995635986,2.3723358198999134,2.3656911977128057,2.475409966550622
7.236609935760498,2.3713588263162304,2.366326294589498,2.4593898841846644
7.246566295623779,2.37077263016602,2.366953361272853,2.867512930209573
7.258010387420654,2.3697956365823365,2.3675732562590377,3.300256529669106
7.2655487060546875,2.369404839148863,2.368186650185062,4.171180304438602
7.274922132492065,2.368818642998653,2.3687932122236774,4.691630055119754
7.28355860710144,2.3686232442819164,2.3693926445596736,5.0
7.292135715484619,2.3682324468484435,2.369983903604451,5.0
7.299559116363525,2.368037048131707,2.3705653263122004,5.0
7.308546543121338,2.36784164941497,2.3711355434190513,5.0
7.317059516906738,2.36784164941497,2.3716941706995165,5.0
7.325838327407837,2.3676462506982334,2.372241612481576,5.0
7.334542989730835,2.3674508519814963,2.3727774583548107,5.0
7.344989061355591,2.3674508519814963,2.373301308402083,5.0
7.354791879653931,2.3672554532647596,2.3738135110684264,5.0
7.3634889125823975,2.3672554532647596,2.3743137366682543,4.825897853661262
7.373935699462891,2.3670600545480234,2.374802315580284,4.341830609645385
7.382535696029663,2.3670600545480234,2.375280189222303,3.7978254132247415
7.3910510540008545,2.3670600545480234,2.375746992091767,3.0162689188123064
7.400766849517822,2.3668646558312867,2.376202513734138,2.54655977303781
7.410522699356079,2.3668646558312867,2.3766467200046906,1.9599131342667522
7.419520378112793,2.3668646558312867,2.3770791541387286,1.699594886184781
7.428534030914307,2.36666925711455,2.3775002255713624,1.2973813487273713
7.438428640365601,2.36666925711455,2.377911111855188,0.9103295240232504
7.448536396026611,2.36666925711455,2.378313048052603,0.5907756632311915
7.457303524017334,2.36666925711455,2.3787072887329757,0.34658207241053446
7.4685187339782715,2.36666925711455,2.3790951203673067,0.44493064558634743
7.4816038608551025,2.36666925711455,2.379478563236484,0.353514039239903
7.491015434265137,2.36666925711455,2.379860211917108,0.4901583915009177
7.500063896179199,2.36666925711455,2.38024170695292,0.39235568512725005
7.508528232574463,2.36666925711455,2.3806231188325495,0.23293527186268326
7.5185182094573975,2.36666925711455,2.3810038449708815,0.08116861223716366
7.529546499252319,2.36666925711455,2.3813841344286892,-0.04027189673457985
7.540124177932739,2.36666925711455,2.3817656790450723,-0.12839042573036086
7.548577785491943,2.36666925711455,2.382149893256185,-0.18749607155592027
7.560514450073242,2.36666925711455,2.3825371208911497,-0.22377954343514123
7.569164752960205,2.36666925711455,2.382928161119675,-0.24313506112536692
7.578693389892578,2.36666925711455,2.383323424938208,-0.25044460847208927
7.588507652282715,2.36666925711455,2.3837222153027224,-0.24948120407066082
7.597045660018921,2.36666925711455,2.384123563511085,-0.2430431815937511
7.604650020599365,2.36666925711455,2.3845257609429558,-0.23314903818802493
7.615564584732056,2.36666925711455,2.384926950968017,-0.22122412263205132
7.624532461166382,2.36666925711455,2.3853257433685617,-0.208256342927748
7.632595777511597,2.36666925711455,2.3857198924973972,-0.1949175629963672
7.645283222198486,2.36666925711455,2.386107109324787,-0.18165467842287378
7.65556526184082,2.36666925711455,2.386486409658536,-0.1687563240825093
7.664567232131958,2.36666925711455,2.3868566120709196,-0.15640095991289116
7.674132347106934,2.3668646558312867,2.387215661693985,-0.14469114625152635
7.685119867324829,2.36666925711455,2.3875615699786774,-0.13367777069446005
7.692843437194824,2.36666925711455,2.387892615532985,-0.12337705631448703
7.700834035873413,2.36666925711455,2.3882071815660626,-0.11378242988995911
7.7085394859313965,2.36666925711455,2.3885039197485676,-0.1048727536490653
7.718503713607788,2.36666925711455,2.38878175712692,-0.09661799680928246
7.727533340454102,2.36666925711455,2.389039782581555,-0.08898311185450489
7.737169027328491,2.36666925711455,2.3892771896379728,-0.0819306564458527
7.745814800262451,2.36666925711455,2.3894931117002565,-0.07542254200134656
7.755814552307129,2.36666925711455,2.3896779443676937,-0.06942117658773533
7.764540195465088,2.36666925711455,2.389794833199895,-0.06389018967160578
7.774643898010254,2.36666925711455,2.389790075030692,-0.058794869869670585
7.783516883850098,2.36666925711455,2.3896121166365782,-0.05410240720243753
7.792006492614746,2.36666925711455,2.3892004792249706,-0.0497820035529237
7.802541017532349,2.36666925711455,2.3884890731850787,-0.04580489555788794
7.811089277267456,2.36666925711455,2.3874182616048625,-0.04214432053595634
7.818525791168213,2.36666925711455,2.3859504866053967,-0.03877544653909973
7.8295674324035645,2.36666925711455,2.384067879115445,-0.035675280973250866
7.838523864746094,2.36666925711455,2.381735979675056,-0.032822567608018785
7.84751558303833,2.36666925711455,2.3789047558276857,-0.030197678579483148
7.856507301330566,2.36666925711455,2.375527192627834,-0.027782505759831724
7.865065813064575,2.36666925711455,2.3715600227537874,-0.025560354326056807
7.872506618499756,2.36666925711455,2.3669647223708834,-0.0235158402990387
7.881503582000732,2.36666925711455,2.3617333826128037,-0.021634793098541254
7.890505075454712,2.3664738583978133,2.355886321829421,-0.01990416366709548
7.899526119232178,2.3664738583978133,2.3494195871105243,-0.018311938385253898
7.90852427482605,2.3664738583978133,2.342334620204555,-0.016847058782511713
7.921510934829712,2.3660830609643404,2.334635096671974,-0.29153770658625144
7.932208776473999,2.36549686481413,2.3262738524786206,-0.5994607586531329
7.941136360168457,2.3649106686639203,2.317214702780555,-1.4044624552535623
7.951344013214111,2.3639336750802364,2.3074583344193935,-2.199719603576671
7.960505247116089,2.3633474789300264,2.297010724253784,-3.090381873608851
7.970493316650391,2.361784289196133,2.2858830598051423,-3.805454179041933
7.980494022369385,2.36022109946224,2.274062290246292,-4.834534047050679
7.989934206008911,2.358267112294873,2.261515740189424,-5.0
7.9975340366363525,2.356508523844243,2.2483126528783153,-5.0
8.006505250930786,2.3539683405266665,2.234608224074403,-5.0
8.015174627304077,2.3510373597756162,2.2204822797729147,-5.0
8.025169134140015,2.3471293854408826,2.205950424766349,-5.0
8.036489248275757,2.342830613672676,2.191032884032589,-5.0
8.04721975326538,2.3385318419044694,2.175726229245862,-5.0
8.056828022003174,2.334623867569736,2.160008164064042,-5.0
8.064558982849121,2.3314974881019492,2.1439243364358096,-5.0
8.072508573532104,2.3281757099174256,2.127603285594402,-5.0
8.082967281341553,2.323876938149219,2.1111327838811715,-5.0
8.091543436050415,2.320555159964696,2.0945378483521377,-4.273413948998803
8.10011887550354,2.316842584346699,2.0778702659787975,-2.577232844119891
8.107553958892822,2.3137162048789124,2.0612034536792083,-0.8601897476898817
8.116544246673584,2.310199027977652,2.0446014817615232,1.0997317180274777
8.126526355743408,2.306095654926182,2.028095407748197,2.752278159552775
8.13551139831543,2.302383079308185,2.011712341636868,4.234877041162436
8.147486209869385,2.2973027126730323,1.9954769189917445,5.0
8.156505346298218,2.2935901370550353,1.9793627395904934,5.0
8.16549015045166,2.289486764003565,1.9633474777240503,5.0
8.175652265548706,2.2851879922353584,1.9474354299666083,5.0
8.185035943984985,2.2810846191838885,1.9316285158130568,5.0
8.193371772766113,2.277762840999365,1.9159261714971865,5.0
8.20181941986084,2.2742456640981046,1.9003257838376655,5.0
8.211057186126709,2.2709238859135814,1.8848472127460425,5.0
8.219210624694824,2.2674067090123216,1.8695295731986186,5.0
8.227474451065063,2.2638895321110617,1.8544041921610495,4.849843473592628
8.239926099777222,2.2586137667591712,1.8394719417752012,4.606581089352472
8.248537540435791,2.2550965898579114,1.8246843414815763,4.324279498823474
8.257457733154297,2.251774811673388,1.8100222758087212,4.0311532320840975
8.266485691070557,2.2478668373386546,1.7955152072194627,3.7418615715004915
8.27523398399353,2.244545059154131,1.7811626652170929,3.4638677307519368
8.284138441085815,2.2406370848193973,1.7669388437743325,2.924725845284818
8.292471170425415,2.237119907918138,1.7528437559010523,2.920911256870972
8.302490711212158,2.232625737433194,1.7388992122845304,2.77910753514573
8.311114311218262,2.2291085605319343,1.7250983471821129,2.586464729200366
8.321102380752563,2.225005187480464,1.7114105116650078,2.106977934836607
8.329392194747925,2.221488010579204,1.6978094480016204,1.8769844915918612
8.337526082992554,2.218361631111417,1.6842963398315411,2.024541207403483
8.347480058670044,2.2144536567766835,1.6708957333188126,1.9653004442596533
8.357091665267944,2.210350283725214,1.6575842235156226,1.5511046728796658
8.365582466125488,2.2070285055406904,1.6443206434479758,1.3587356890139233
8.374481439590454,2.2033159299226934,1.6311164425232696,1.258040209394072
8.38254976272583,2.1999941517381703,1.6180046499976397,1.1908992567564745
8.391539335250854,2.1962815761201737,1.605014035182901,1.133028851727141
8.400723457336426,2.19237360178544,1.5921493814439636,0.7995042340839112
8.410980224609375,2.18827022873397,1.5793959021913966,0.7070329462008458
8.419538974761963,2.18475305183271,1.5667631153476675,0.7012659798440289
8.428043365478516,2.18123587493145,1.5542626749261297,0.7160983368682774
8.435547351837158,2.17771869803019,1.5418880953036234,0.7261523481441857
8.445392608642578,2.17361532497872,1.5296550146110193,0.7240436417689625
8.453573226928711,2.17009814807746,1.517581221331064,0.7097306708201601
8.461935997009277,2.1667763698929363,1.5056834357709272,0.6856906231090618
8.470494031906128,2.163454591708413,1.4939947245965093,0.6548577782683342
8.479212522506714,2.159937414807153,1.482530291835746,0.6198375999324008
8.486983299255371,2.1566156366226297,1.4713038786024124,0.5826848828956366
8.495506048202515,2.153293858438106,1.4603427761830092,0.5449122860394129
8.506517887115479,2.148604289236426,1.4496578077405886,0.5075779338515991
8.515692472457886,2.1446963149016924,1.4392458091819624,0.4713872881564185
8.525063514709473,2.140397543133486,1.4291048366627717,0.43678449117607987
8.53513789176941,2.1368803662322255,1.4192330282013799,0.40402609901415165
8.542468309402466,2.133753986764439,1.4096495386918375,0.37323738652629845
8.55324101448059,2.129064417562759,1.400379367893211,0.3444539176278537
8.563493013381958,2.1247656457945525,1.3914080558419286,0.31765154924435873
8.574809074401855,2.1198806778761354,1.3826989589780798,0.29276772662864603
8.585957527160645,2.1155819061079284,1.3742184350297422,0.26971638932751413
8.596357822418213,2.1112831343397223,1.3659451963301066,0.24839826971304554
8.607458114624023,2.1069843625715152,1.3578677906324286,0.22870790968389831
8.616511583328247,2.1034671856702554,1.3499718731031158,0.21053836173047918
8.624918222427368,2.099950008768995,1.3422402128127653,0.19378426903587162
8.63347315788269,2.096628230584472,1.3346653157509434,0.1783438193181564
8.642474889755249,2.0929156549664754,1.32724826103544,0.16411992225351846
8.652620077133179,2.0886168831982683,1.31997307317431,0.15102085651844055
8.662109375,2.0843181114300617,1.3128092584099074,0.13896055868285775
8.671096086502075,2.0806055358120648,1.3057266085219275,0.12785867399554215
8.681466102600098,2.0763067640438577,1.2986959592491123,0.3936788120233417
8.691274642944336,2.0723987897091245,1.2916899794990833,0.41739950971706674
8.69947624206543,2.0688816128078646,1.2846838412452661,0.35364846094487706
8.710007429122925,2.064582841039658,1.2776556937553492,0.2696004275459638
8.719321727752686,2.060870265421661,1.2705870052034658,0.19175068631258407
8.728877067565918,2.056571493653454,1.2634627344327873,0.12838723775504401
8.737507581710815,2.053249715468931,1.2562712800322884,0.08018678381197641
8.746714353561401,2.0495371398509343,1.249018150755854,0.04506465897826137
8.755810022354126,2.046019962949674,1.241723231121291,0.020286183928327976
8.763455390930176,2.0426981847651504,1.2343905714110266,0.0033028401612262715
8.774247884750366,2.038204014280207,1.2270111757851796,-0.007983270099048971
8.782451391220093,2.0344914386622106,1.2195927717867823,-0.015194710979428597
8.792537450790405,2.0303880656107403,1.2121573219410573,-0.019541598020489877
8.800458192825317,2.027066287426217,1.204712269847481,-0.021905691011259783
8.812467575073242,2.022376718224537,1.1972414825659858,-0.02291927835750107
8.821456909179688,2.0184687438898035,1.189735081364623,-0.023030389950011738
8.831201553344727,2.014756168271807,1.182212929144441,-0.02255342846795387
8.841455459594727,2.0106527952203366,1.1746960856910085,-0.021707088995780544
8.851454019546509,2.00635402345213,1.1671946714515755,-0.020642129242606923
8.860440969467163,2.0026414478341334,1.1597217348556037,-0.019461410561132885
8.869454622268677,1.9987334734993998,1.1522929208862134,-0.018234217127442658
8.879031419754028,1.9950208978814032,1.14492607957197,-0.017006414970427278
8.888920545578003,1.9909175248299331,1.1376407746943336,0.2602307374438775
8.897533416748047,1.9874003479286733,1.1304576789587726,0.2945067131543786
8.90746259689331,1.9831015761604662,1.1234041778148485,-0.035535685655192745
8.916454792022705,1.9791936018257328,1.1165120871121867,-0.14371575737987674
8.926716566085815,1.9750902287742627,1.109803106363342,0.11786100261159468
8.936135292053223,1.9705960582893192,1.103290371322757,0.17134718630725965
8.943779945373535,1.9674696788215327,1.0969861268088659,0.14560966329788474
8.952455282211304,1.9641479006370093,1.0909013121929676,0.09750492014173358
8.961840629577637,1.9606307237357492,1.0850451567439414,0.05016777425624504
8.970920324325562,1.9569181481177527,1.0794287102633036,0.011469839119034507
8.979106903076172,1.9535963699332293,1.0740637857768556,-0.0172313005505123
8.988815307617188,1.9492975981650225,1.0689543561167902,-0.03705347993567134
8.999370336532593,1.9449988263968156,1.0640975547225522,-0.04980577826690248
9.009960174560547,1.9408954533453457,1.0594885620050176,-0.05726096887658551
9.01824688911438,1.9373782764440857,1.0551208036156678,-0.06090687295756793
9.029375553131104,1.9326887072424053,1.0509862300263815,-0.061902582525484626
9.037859916687012,1.9291715303411452,1.047075580558455,-0.06111291365195079
9.04547119140625,1.9256543534398853,1.0433818016456176,-0.05916503504239126
9.055455446243286,1.9213555816716783,1.0398995299833889,-0.056504329413159075
9.065471172332764,1.9172522086202084,1.0366180433208092,-0.05344157560015186
9.074097394943237,1.9137350317189483,1.0335219122766166,-0.05018998658928858
9.08148193359375,1.910804050967898,1.0305985440494048,-0.04689311471767156
9.089743614196777,1.9076776715001116,1.027837883388326,-0.04364535004396031
9.097491025924683,1.9045512920323246,1.0252287915766627,-0.040506728975405706
9.106454849243164,1.9006433176975914,1.0227593174277245,-0.03751350940303868
9.11475682258606,1.897321539513068,1.0204129839908387,-0.03468565871831741
9.122945308685303,1.8938043626118082,1.0181695793464443,-0.032032120540945216
9.131413698196411,1.8904825844272846,1.016013895515119,-0.029554497798125502
9.14046335220337,1.8865746100925513,1.0139352492186755,0.24878874550594973
9.14945101737976,1.882471237041081,1.0119185232691656,0.2840516777781739
9.157540321350098,1.8791494588565578,1.009949478897546,-0.04510418704569169
9.167443990707397,1.8750460858050875,1.0080189992867619,-0.1524836802946524
9.18043828010559,1.8697703204531975,1.0061083436156322,-0.1662192740156287
9.189188241958618,1.8664485422686738,1.0041905398480975,0.13084122168524215
9.198824167251587,1.8621497705004673,1.0022461391273099,-0.08211025002086014
9.208529949188232,1.8580463974489976,1.0002622949047697,-0.1418011129288949
9.21977949142456,1.8539430243975272,0.9982268565880404,-0.13909918249620865
9.228438377380371,1.8502304487795302,0.9961342623257107,0.160887410478587
9.23777437210083,1.8465178731615337,0.9939783335210146,-0.05440515615641181
9.246936559677124,1.8428052975435372,0.9917401266688713,-0.1180208029725513
9.255452156066895,1.8390927219255402,0.9894092051802107,-0.11929325907626101
9.26492714881897,1.8349893488740703,0.986988615479199,-0.09881792200193501
9.274094820022583,1.8310813745393368,0.9844725132588925,-0.07404429450444353
9.283393144607544,1.8273687989213399,0.9818468967045373,-0.05170507518110619
9.291436910629272,1.8240470207368165,0.9791063022544985,-0.03377372605914061
9.30119800567627,1.8199436476853468,0.9762530589658226,-0.020263382762453867
9.310525894165039,1.8160356733506133,0.9732886047235213,-0.010500407974751259
9.318418979644775,1.8129092938828264,0.970223327221209,-0.003673046160841407
9.32744550704956,1.8088059208313563,0.9670657893784229,0.0009559260847677559
9.33948564529419,1.8039209529129396,0.9637946554745284,0.003986041049604553
9.349186182022095,1.8002083772949429,0.9603727868616094,0.005877769634258281
9.357722043991089,1.7966912003936828,0.9567794950709648,0.0069729761377311465
9.365440607070923,1.7933694222091594,0.9530187627301129,-0.26851842209689863
9.376407384872437,1.7890706504409528,0.9491059755055276,-0.3014667606488085
9.38546109199524,1.7851626761062194,0.9450463961923259,-0.24643844853025737
9.394423484802246,1.7818408979216962,0.9408367988072642,-0.17057977281592274
9.40419602394104,1.7771513287200158,0.9364767851652068,-0.37641827081445156
9.412880897521973,1.7734387531020193,0.9319684023918346,-0.3532985652002185
9.424150705337524,1.7685537851836022,0.9273157561396063,-0.25660747930707795
9.432405233383179,1.7656228044325524,0.9225341860470258,-0.15151842553212092
9.443961381912231,1.7605424377973988,0.9176390599555263,-0.06187392521003205
9.453949213027954,1.756829862179402,0.9126268323043601,0.006507460941520205
9.461423397064209,1.7537034827116156,0.9075061573213127,0.05497157143004642
9.4712553024292,1.749209312226672,0.9023053394430528,0.08715447930516101
9.47993516921997,1.7458875340421487,0.8970412441181902,0.10693423369072674
9.487414121627808,1.742565755857625,0.8917296476074982,0.11767880851524476
9.496412515640259,1.739048578956365,0.8863942778516782,0.1220604406021608
9.505419492721558,1.7353360033383685,0.8810478551492585,0.12209596974386903
9.515490531921387,1.7312326302868983,0.8756937876374388,0.11926015156333603
9.524427890777588,1.7277154533856383,0.8703363374108735,0.1146074431806525
9.533609867095947,1.7236120803341684,0.8649804155441946,0.10887842142730539
9.541704177856445,1.720290302149645,0.8596314179128458,0.10258479984473937
9.549461603164673,1.7169685239651216,0.8543026999675051,0.09607414761961892
9.560056447982788,1.7126697521969145,0.8490066299379905,0.08957774567893349
9.568423509597778,1.708957176578918,0.8437466609295853,0.08324531575049568
9.57839298248291,1.7050492022441845,0.8385335368409766,0.07716990270739893
9.586421012878418,1.7019228227763976,0.8333766470952444,0.07140553874700831
9.595497131347656,1.698210247158401,0.8282764304810736,0.06597969527881578
9.604440689086914,1.6950838676906144,0.8232328501216077,0.06090200932468849
9.61239242553711,1.6915666907893543,0.818252294660736,0.33220872598820794
9.621402263641357,1.6874633177378842,0.8133463127811268,0.08489972005920957
9.630953550338745,1.6837507421198874,0.8085161382886586,-0.007395274380013951
9.639421939849854,1.6802335652186273,0.8037540471820975,0.24388739479515248
9.648045063018799,1.6765209896006308,0.7990517987501615,0.2790933560946658
9.655900955200195,1.6735900088495805,0.7944083695853125,0.23468436453813207
9.664347887039185,1.6700728319483205,0.7898289134307434,-0.10577750549545145
9.673858404159546,1.6657740601801139,0.7853084061874404,-0.19957295734756228
9.684191465377808,1.661475288411907,0.7808331181076146,0.08231254847343937
9.692409753799438,1.657958111510647,0.7763979261203245,0.15458296629892182
9.70048713684082,1.6548317320428605,0.7720051503591158,0.14377095080730176
9.711034059524536,1.6505329602746535,0.7676469776009398,-0.16950293635731162
9.720414638519287,1.6468203846566567,0.7633069578985859,0.03346324695424506
9.729382276535034,1.6433032077553966,0.758969779910745,0.08765523948790857
9.738868236541748,1.6391998347039267,0.7546215002435981,0.08259360113570963
9.747631549835205,1.63548725908593,0.7502497237252806,0.05842288171159553
9.756429195404053,1.63197008218467,0.7458526997976827,0.031990400292384
9.766404390335083,1.6280621078499362,0.7414379702756543,0.009467918176912556
9.778022527694702,1.6227863424980462,0.7369943976101873,-0.007629887578981184
9.788469791412354,1.6184875707298394,0.7325042064101557,-0.019640805802456716
9.799135446548462,1.6143841976783697,0.7279710111897272,-0.027495982108480334
9.80876874923706,1.6104762233436363,0.7233989850554121,-0.03219057423365489
9.817538261413574,1.6067636477256393,0.7187925856508989,-0.034589198857922374
9.82856559753418,1.6020740785239593,0.7141653219384432,-0.035377712882031856
9.840593338012695,1.5971891106055427,0.7095210395485154,-0.03507342107378526
9.849867105484009,1.5932811362708093,0.704855515232683,-0.034054180178128175
9.858792543411255,1.5897639593695492,0.7001665444138232,-0.032589731284315554
9.868402242660522,1.5858559850348157,0.6954537757127124,-0.030869093929616058
9.878386497497559,1.5817526119833456,0.6907185877396494,-0.029022455860715217
9.888748407363892,1.5776492389318757,0.6859566717266822,-0.027137837324574123
9.898004293441772,1.573741264597142,0.6811593759980269,-0.025273412551950244
9.905408382415771,1.5708102838460922,0.6763363861743781,0.25257190975123583
9.917126893997192,1.5657299172109387,0.6715058400455031,0.011384887547399677
9.926431655883789,1.5622127403096786,0.6666779526005855,-0.0752032743409343
9.936399698257446,1.5581093672582085,0.6618695924812329,-0.09465641315673867
9.948408842086792,1.553029000623055,0.6570914826694347,0.18837825846826503
9.957519769668579,1.5493164250050584,0.6523428890256258,0.23673851866621926
9.965731143951416,1.5456038493870616,0.6476316268144482,-0.07853405295555219
9.976248502731323,1.5413050776188546,0.6429722906213313,0.10202452017757417
9.98863172531128,1.5362247109837017,0.6383747509129585,0.13067193910571628
9.99951958656311,1.5315351417820213,0.6338449014886075,0.10339289351429443
10.008363008499146,1.5280179648807612,0.6293937094355556,-0.21399052939092147
10.018353700637817,1.5239145918292911,0.6250356666593853,-0.2858784654078638
10.027360200881958,1.5203974149280313,0.6207867160937474,0.014410754460007807
10.037369012832642,1.5160986431598242,0.6166633905335743,0.10127477801569726
10.046034336090088,1.5125814662585644,0.6126749740026327,-0.17434193313147167
10.056378364562988,1.5082826944903576,0.6088241438285215,0.039858556819761665
10.064812898635864,1.5049609163058342,0.6051109993275008,0.09456543007347594
10.074798107147217,1.500857543254364,0.6015328104248404,0.08638626767152162
10.085352897644043,1.4963633727694208,0.5980838780205688,0.05847520743279176
10.094889402389526,1.4922599997179506,0.5947556775196668,0.02881187504681193
10.103580951690674,1.488547424099954,0.5915373496039197,0.003874601682095479
10.113001346588135,1.4846394497652204,0.5884162061090606,-0.014849293958613145
10.12036919593811,1.481317671580697,0.5853834235871475,-0.02783675027291673
10.128702402114868,1.4779958933961739,0.5824338670340717,-0.0361754154212018
10.13778018951416,1.474283317778177,0.5795553899702934,-0.04099871845078362
10.145395755767822,1.4715477357438635,0.5767357562441322,-0.04328166268109978
10.153398752212524,1.4682259575593402,0.5739682308978906,0.232244887656624
10.161455631256104,1.4649041793748168,0.5712456638409236,0.2660507523504865
10.170381546020508,1.4611916037568202,0.5685608617873311,-0.0636315267317338
10.182732582092285,1.45591583840493,0.5658946745299441,-0.1709154170847969
10.19039249420166,1.4531802563706164,0.563224368463558,-0.18415210209491195
10.20021390914917,1.4490768833191465,0.560542811048524,0.11365756807122282
10.208366632461548,1.4457551051346231,0.5578502764028218,0.1776380767769034
10.216368198394775,1.4426287256668366,0.5551473547365997,-0.12400071776182084
10.227577447891235,1.437548359031683,0.5524233398325806,-0.2085311886909842
10.235373258590698,1.4346173782806328,0.5496641537982186,0.07144874400173357
10.245457410812378,1.4301232077956894,0.546870817456935,0.13870909484222688
10.254777431488037,1.4262152334609561,0.5440456412113259,-0.1530085951500964
10.262365102767944,1.4230888539931694,0.5411862957159458,-0.2270163903716142
10.27267074584961,1.4189854809416993,0.5382923892490002,-0.2141359217003383
10.280399560928345,1.416054500190649,0.5353701380054536,-0.17315509004277108
10.291361808776855,1.4113649309889693,0.5324310266294819,-0.12883443843800596
10.301380395889282,1.4074569566542359,0.5294805361905426,-0.09031327535383579
10.31243085861206,1.4029627861692924,0.526519060182265,-0.05989480925517008
10.320410013198853,1.3996410079847688,0.5235478319165996,-0.037146182433431305
10.328404664993286,1.3963192298002454,0.520568765887278,-0.020743728765808874
10.338399648666382,1.3922158567487755,0.5175888883906046,-0.009252284305497092
10.347321033477783,1.3885032811307787,0.5146193736963194,-0.2774528915242958
10.355458974838257,1.385376901662992,0.5116655831763343,-0.3053884296353616
10.368221044540405,1.3799057375943653,0.5087237748746269,-0.2469862020969106
10.376434803009033,1.3763885606931052,0.5057914247008811,-0.1689158028265712
10.384817600250244,1.372871383791845,0.5028754700331828,-0.3733569981646424
10.39462399482727,1.3685726120236386,0.4999821442431651,-0.34940445619570315
10.402469635009766,1.3656416312725883,0.497116666124849,-0.25226726031372937
10.41247844696045,1.3617336569378549,0.49428342502474404,0.12904489371319722
10.421508312225342,1.3580210813198583,0.491481886877709,-0.024213183084331735
10.431376218795776,1.353917708268388,0.4887153931964483,-0.04415492174004651
10.441360712051392,1.3496189365001814,0.48598657199049833,0.2591883495701021
10.451629161834717,1.3453201647319744,0.48328955952042413,0.32984555266676646
10.461344003677368,1.3414121903972414,0.4806155031001158,0.30819482657829467
10.46969723701477,1.3380904122127177,0.4779647386791073,0.2572362473301058
10.47741961479187,1.3349640327449313,0.47534529212650445,0.2034358344536527
10.48643684387207,1.3312514571269343,0.47276377989484414,0.15650119958197412
10.497997522354126,1.3263664892085176,0.47022192105190813,0.11881691145854142
10.505896091461182,1.3228493123072576,0.46771730945559753,0.08984544679388039
10.515363216400146,1.3189413379725243,0.46525136037055853,-0.20793241547090696
10.525009393692017,1.3152287623545271,0.4628251098878574,-0.25715459526829476
10.534253597259521,1.3115161867365306,0.46043552141086574,0.062134583672246446
10.54535436630249,1.3070220162515873,0.45807962354418036,0.16263550144486796
10.554497718811035,1.3035048393503272,0.4557544057136077,-0.10439856095138368
10.562458515167236,1.3003784598825405,0.45346037665697214,-0.16175127269652825
10.574831008911133,1.295298093247387,0.4511973694217431,0.13728980065048924
10.58485221862793,1.2909993214791804,0.4489574714311863,0.21658603157488385
10.59335708618164,1.2872867458611836,0.44673719336634554,0.20745910698457037
10.60132622718811,1.2839649676766602,0.44454044872137877,0.169104532706829
10.610331296920776,1.2802523920586635,0.4423665014169635,0.12659676995012134
10.618829488754272,1.2767352151574034,0.4402106883858604,0.08930899418748958
10.626354455947876,1.2736088356896167,0.43807241733591695,0.05971502370165039
10.636014223098755,1.2695054626381466,0.43595457358768414,0.03750473262282138
10.64368987083435,1.26637908317036,0.433855571078117,0.021441884826486693
10.651492834091187,1.2634481024193098,0.4317737456280757,0.010153152230564233
10.663031339645386,1.2585631345008927,0.42970721183415445,0.002424706095656287
10.67115068435669,1.2550459575996329,0.4276501730792589,-0.0027180195064069237
10.683436870574951,1.2501609896812165,0.4255971728501916,-0.006018408998325331
10.693368434906006,1.2464484140632193,0.4235390798316172,-0.008026271351376001
10.705871343612671,1.2409772499945926,0.42146361677088906,0.266898228816198
10.713403463363647,1.237850870526806,0.4193680904033429,0.29951815625914324
10.725403547286987,1.2329659026083892,0.41725821156499,0.2443240071954588
10.734365463256836,1.2292533269903925,0.4151304540812989,0.16840872573245075
10.745598554611206,1.2249545552221854,0.4129736499574539,0.09822423840609255
10.75551438331604,1.2206557834539788,0.410782798188377,0.04204142852281054
10.765488624572754,1.2167478091192456,0.4085625272181006,0.0005373955117389771
10.775360345840454,1.2128398347845122,0.4063173889149814,-0.028360753820534712
10.785417795181274,1.2087364617330423,0.4040477934827107,-0.04736883118918719
10.79433560371399,1.2050238861150453,0.4017588164672187,-0.059012344711319345
10.802895784378052,1.2013113104970485,0.39945939985914175,-0.06536405296909764
10.810440301895142,1.1981849310292618,0.39715756495068655,-0.06802060672710034
10.820334434509277,1.194081557977792,0.3948567203162631,-0.06816632824149288
10.828526020050049,1.1907597797932685,0.3925527009650241,-0.06665787874684706
10.837584495544434,1.1870472041752715,0.3902461943314814,-0.06410349704623489
10.846421957015991,1.183334628557275,0.38794926773731886,-0.060928415733873004
10.858020782470703,1.1784496606388581,0.38566886135250106,-0.057425593607099965
10.869756698608398,1.1733692940037048,0.3833971301372405,0.22224469165986488
10.879650831222534,1.169070522235498,0.38112468821043655,0.25899824987857
10.88912034034729,1.1653579466175013,0.3788512617109585,-0.06859689275104774
10.898175954818726,1.1618407697162412,0.37658057513768,-0.17440771756245912
10.906355381011963,1.1587143902484545,0.3743193537211554,-0.18660704271149697
10.91567063331604,1.1548064159137212,0.3720767158904774,-0.16410630867839876
10.926329374313354,1.1503122454287777,0.36985736990900736,-0.13273801935076396
10.936651468276978,1.1460134736605712,0.3676591373178961,-0.10288149595840312
10.946303844451904,1.1421054993258377,0.3654800160034384,-0.07794992269023487
10.95796513557434,1.1374159301241575,0.3633208819928056,0.21763257646803388
10.965341091156006,1.1344849493731075,0.36118189306369947,0.26555404832650453
10.974899053573608,1.1305769750383738,0.35906561703029205,0.221436941161346
10.984818696975708,1.1260828045534306,0.3569732745097578,0.15340841861813273
10.994384288787842,1.1221748302186971,0.3549018174862457,0.08876493858288897
11.004341840744019,1.1178760584504905,0.35284783631893774,0.03642852417895297
11.01400899887085,1.113968084115757,0.35080769717932564,-0.002438238645141519
11.021336555480957,1.111037103364707,0.34878122230163433,-0.029553829860137475
11.030919551849365,1.1073245277467103,0.3467712709803246,-0.047378935527872736
11.03958773612976,1.1038073508454502,0.34477618755555256,-0.05825718754619587
11.0502769947052,1.0993131803605067,0.342790515228786,-0.06413259855537262
11.061325788497925,1.0946236111588266,0.3408092281110547,-0.06651117548517609
11.072353601455688,1.0901294406738833,0.33882778705259486,-0.06651370811894665
11.084658861160278,1.0852444727554664,0.3368384544774907,-0.06495250879153086
11.093423843383789,1.0811410997039963,0.3348309388864652,-0.06240498553934373
11.102417945861816,1.0776239228027364,0.3328041864073724,-0.059275035574823595
11.110427618026733,1.074302144618213,0.3307650541887994,-0.0558409342753165
11.118548154830933,1.0711757651504263,0.3287158652983986,-0.052291284281569456
11.12637448310852,1.067853986965903,0.32665879471226955,-0.04875136569562037
11.135348320007324,1.0641414113479062,0.3245996144890833,-0.045302148766001686
11.14393663406372,1.0602334370131727,0.3225397254208294,-0.04199386320114365
11.15333604812622,1.056520861395176,0.32047685250810376,-0.03885560543472773
11.163440465927124,1.0528082857771792,0.31840935494523614,-0.03590209832972259
11.173306703567505,1.048704912725709,0.31633618037096656,-0.03313842210772262
11.181333780288696,1.045773931974659,0.3142602988953394,-0.030563308846950982
11.192129611968994,1.041084362772979,0.3121845672599929,-0.02817142467306475
11.202013969421387,1.036980989721509,0.31010813498374834,-0.025954941162057252
11.210673570632935,1.0330730153867755,0.30803389157110417,-0.023904609237706743
11.218902111053467,1.0297512372022521,0.3059644482871748,-0.022010485878997253
11.228271007537842,1.0258432628675187,0.3038985631835689,-0.02026241928606431
11.23741865158081,1.0223260859662586,0.30183842750957596,-0.018650366592925925
11.247666597366333,1.0182227129147887,0.29978917283516193,-0.017164595988139218
11.258420944213867,1.0137285424298452,0.29775153723720144,-0.01579580947883022
11.271072387695312,1.0082573783612183,0.29571902276714973,-0.01453521157128114
11.280871629714966,1.004349404026485,0.29368257089520644,-0.0133745414570344
11.289323329925537,1.000832227125225,0.29164150607043643,-0.01230608091652342
11.30025339126587,0.9965334553570182,0.2895988861978923,-0.011322646390460826
11.312118291854858,0.9916484874386016,0.2875472610332524,-0.2864559307229668
11.320816040039062,0.9881313105373414,0.28548069762662065,-0.31874764365734704
11.328353881835938,0.9852003297862914,0.28340814098109984,-0.26288397342016034
11.3383047580719,0.9810969567348212,0.28134085651002,-0.18609375946574258
11.350431680679321,0.9760165900996679,0.2792788054892488,-0.11492221397215686
11.361646890640259,0.971131622181251,0.2772128349654669,-0.333741766477681
11.37075161933899,0.9672236478465177,0.2751390667612136,-0.32431947668655015
11.379281044006348,0.9639018696619943,0.27306720138162405,0.03673664466271015
11.394275426864624,0.9578445094431576,0.2710031733242287,0.16593899730275666
11.40340781211853,0.9541319338251608,0.2689407959340655,-0.08209363822941891
11.411331415176392,0.9508101556406374,0.2668811466212522,-0.12744625586464361
11.420298337936401,0.9469021813059041,0.2648342701558559,0.1786488043627345
11.429141998291016,0.9433850044046439,0.26280640625792817,0.26156981008764313
11.439553499221802,0.9392816313531739,0.2608005867227835,-0.022303418224677657
11.447864055633545,0.9357644544519137,0.25881984930163066,-0.09404247582023274
11.455390691757202,0.9328334737008638,0.25687170462105774,-0.08271539979205773
11.46535873413086,0.9287301006493937,0.2549671386486928,-0.045800588384903515
11.479629516601562,0.9228681391472936,0.2531064738503577,-0.007110733292428374
11.49144434928894,0.9179831712288767,0.25128125776919813,0.02488494219863904
11.501065969467163,0.9140751968941434,0.24948886054315655,0.04834729420838989
11.511409759521484,0.9097764251259366,0.24773133997910937,0.0640239016447568
11.51998782157898,0.9062592482246766,0.2460102490009699,0.07344665709595725
11.52759051322937,0.9031328687568898,0.24432663217463288,0.07818398878694127
11.535295248031616,0.9002018880058399,0.24268295170102464,0.07957431314043203
11.545865058898926,0.8960985149543697,0.2410827880562898,0.07866784774643149
11.557604312896729,0.891213547035953,0.23952486303190984,0.07625003030558833
11.566378831863403,0.8873055727012196,0.23800570379450228,0.07288994245581834
11.574306011199951,0.8841791932334329,0.23652574801047896,0.06899018091630374
11.5822594165802,0.8808574150489095,0.23508869133279253,0.06482971697026346
11.597540855407715,0.8748000548300726,0.2336953097460263,0.3366361980740562
11.607865810394287,0.8705012830618659,0.23233834277623147,0.36558281001857273
11.615945100784302,0.8673749035940792,0.23101136200142253,0.030403334425551543
11.623832702636719,0.8634669292593458,0.22971251287174388,-0.08266712132634958
11.632792711257935,0.8601451510748225,0.22844013224117546,0.17429527903800046
11.641308307647705,0.8564325754568256,0.22719446195763354,0.22345549997545444
11.650290727615356,0.8527199998388288,0.2259773445431187,0.19368151115960952
11.660912990570068,0.8488120255040955,0.22478702376202597,0.1418235865443142
11.669302463531494,0.8454902473195721,0.22362036134405466,0.09100575723998022
11.67816686630249,0.8419730704183122,0.22247944473281347,0.04908615710664621
11.689192056655884,0.837283501216632,0.22136615676823262,0.017407476906507797
11.699403285980225,0.8331801281651618,0.2202776616908385,-0.005163567559986763
11.709191083908081,0.8292721538304285,0.21921170095618628,-0.020451492060920826
11.72135305404663,0.8243871859120117,0.2181679976696536,-0.03024412837304924
11.730991125106812,0.8202838128605418,0.2171464247781828,-0.036043751448567904
11.739706993103027,0.8167666359592817,0.21614691872744396,-0.03902317086021684
11.747403383255005,0.8134448577747583,0.21516946295543118,-0.04006011695354046
11.756943702697754,0.8097322821567615,0.21421518607955967,0.23624451420158363
11.76633071899414,0.8058243078220281,0.21328599176133123,0.2704819594619823
11.775695085525513,0.8021117322040313,0.2123820095748994,0.21702287275133975
11.785298824310303,0.7978129604358245,0.21150188367156975,-0.1331599049307083
11.796878814697266,0.7933187899508811,0.21064418160436157,-0.2347167048080217
11.805153131484985,0.7901924104830944,0.20980737963396534,0.04193481228080842
11.814395666122437,0.7862844361483611,0.2089898312166805,0.11126404175979618
11.823771476745605,0.7825718605303643,0.20818975864483225,0.09932777252630624
11.833294868469238,0.7786638861956309,0.20740647914806853,0.062299970591475816
11.842644214630127,0.7749513105776341,0.20664023816644358,0.02348037784729047
11.851898193359375,0.7712387349596374,0.20588961134369307,-0.00882221345025937
11.86231517791748,0.766744564474694,0.20515173863784364,-0.03278297137404174
11.871268033981323,0.763227387573434,0.20442377236562534,-0.049111719289550354
11.88138484954834,0.7593194132387007,0.20370150543707613,-0.059291157246893704
11.892582893371582,0.7548252427537571,0.20297961039886747,-0.06484493029881648
11.90128207206726,0.7511126671357603,0.20225612768481707,-0.0670758832077894
11.909282207489014,0.7477908889512369,0.20153206641524093,-0.06700809637959748
11.92070746421814,0.7429059210328203,0.20080526469658871,-0.06540889769678976
11.929193496704102,0.7395841428482968,0.20007240340439875,-0.06283552537415772
11.938846826553345,0.7354807697968269,0.1993336420488517,-0.05968338357629917
11.946704864501953,0.7321589916123035,0.19858917988609717,-0.0562275843461085
11.955081701278687,0.7286418147110434,0.19783926394788487,-0.05265587826429985
11.965562343597412,0.7245384416595733,0.19708565644503753,-0.049093603792578946
11.975372552871704,0.7206304673248398,0.19632700971409753,-0.045622075203472265
11.98726224899292,0.7159408981231598,0.19555939690098315,-0.04229189231806598
11.996280670166016,0.7118375250716897,0.19478257850675018,-0.039132454789651605
12.008975505828857,0.7069525571532729,0.19399799937210083,-0.03615870093914156
12.016369819641113,0.7038261776854862,0.19320419215176385,-0.03337584605318394
12.02936840057373,0.6985504123335962,0.19239867921907247,-0.03078269290955924
12.041125059127808,0.6936654444151793,0.19157956436296142,-0.028373930509293085
12.050370693206787,0.6897574700804461,0.19074824727423728,-0.026141719618370723
12.060479164123535,0.6854586983122393,0.18990886757573763,-0.024076777747295216
12.069143772125244,0.6817461226942425,0.18906355678046086,0.25386924555551926
12.079349517822266,0.6776427496427724,0.18821268106769934,0.01271608234777978
12.08737063407898,0.674320971458249,0.18735796547283778,-0.07388215121635777
12.0973539352417,0.6706083958402522,0.1865007564540642,0.18266491243529656
12.110588312149048,0.6653326304883622,0.18563752828277855,0.22273048106858506
12.119234800338745,0.6614246561536288,0.18476516285808087,0.18280378449284518
12.127302169799805,0.6581028779691054,0.18388707792619055,-0.1535263542233685
12.137564659118652,0.654194903634372,0.1830060207127146,-0.24351499902342727
12.147073745727539,0.6504823280163752,0.1821210692181531,0.04187669939652125
12.158490657806396,0.6459881575314318,0.18123297710637173,0.1173755655621171
12.169530630111694,0.6412985883297517,0.180340614663328,-0.16650271129512353
12.180289506912231,0.6366090191280717,0.1794396783617938,-0.23412716338864387
12.193119049072266,0.6315286524929183,0.1785264982764492,0.059578647628965975
12.203359365463257,0.6270344820079748,0.17759801615422996,0.1370753958246766
12.21309494972229,0.6233219063899781,0.17665345408895822,-0.14745482079395864
12.221410751342773,0.6200001282054547,0.17569568547089714,-0.2166891613971485
12.232284784317017,0.6158967551539846,0.1747272635726206,0.07519492440682324
12.240358829498291,0.6121841795359879,0.1737487531652451,0.1509604684394681
12.252032279968262,0.6076900090510444,0.17276073377322074,0.14092886303436616
12.26127576828003,0.6041728321497843,0.1717638034021911,-0.17255292549795953
12.270446300506592,0.6004602565317877,0.17076031196901675,-0.24607513839130424
12.279781341552734,0.5965522821970541,0.16975238195061623,-0.22540824581855587
12.289390563964844,0.5924489091455841,0.16874023808017566,-0.175634271924745
12.301311016082764,0.5877593399439041,0.16772258109053928,-0.3998756213008956
12.312370777130127,0.5832651694589607,0.16669687737558153,-0.38890718125419804
12.321560621261597,0.5795525938409639,0.16566452752657088,-0.29961830644723547
12.33117389678955,0.5754492207894939,0.164630217762677,-0.19847971818335053
12.340922594070435,0.5709550503045504,0.1635964532115167,-0.11036009733834423
12.353256464004517,0.566460879819607,0.16256389469295132,-0.04185099079466143
12.363571405410767,0.5621621080514002,0.1615317781166652,0.007829011790184814
12.372281312942505,0.5588403298668769,0.16049966848371341,0.04191289426778599
12.383176326751709,0.5543461593819334,0.15946899867953312,0.06399593366876338
12.392927885055542,0.5504381850472001,0.1584397933680398,0.07725097290895366
12.402230978012085,0.5465302107124667,0.15741369186003681,0.08421792696678353
12.412232875823975,0.5424268376609965,0.15639512517539705,0.0868257812013675
12.422685861587524,0.5379326671760531,0.15538523640080346,0.08649260361381902
12.431792259216309,0.5344154902747932,0.15438244350950128,0.08423780627783231
12.441272258758545,0.5307029146567964,0.1533882114602676,0.08078180520131861
12.449272155761719,0.527381136472273,0.15240648375892799,0.07662627506247364
12.458255290985107,0.5234731621375396,0.15144056396015154,0.07211553199120893
12.470673561096191,0.5183927955023862,0.1504919858810648,0.06748206515536748
12.480268955230713,0.5146802198843894,0.14955962707096945,0.06287965518425112
12.488256692886353,0.5115538404166027,0.14864255243453303,0.058407147555890646
12.497564554214478,0.5076458660818692,0.1477411964676244,0.05412535916065867
12.505229711532593,0.5047148853308193,0.14685699961537532,0.05006901784359363
12.514241218566895,0.5011977084295592,0.14599219071312,0.046255147121854245
12.524556398391724,0.4970943353780891,0.14514741795848127,0.04268892560348791
12.532322645187378,0.4941633546270391,0.1443230262102936,0.039367762109815505
12.542293548583984,0.48966918414209565,0.14352016142543395,0.03628411521856784
12.554317474365234,0.4847842162236789,0.14273847469673215,0.033427432200058484
12.563332796096802,0.48068084317220877,0.14197633666410678,0.03078547213565365
12.572276830673218,0.47735906498768543,0.14123209040635004,0.028345199609112838
12.58568263053894,0.47169250220232195,0.14050294949331799,0.026093379854500963
12.594757318496704,0.46778452786758856,0.13978517232967794,0.024016967087572463
12.605470180511475,0.46368115481611855,0.1390764069328373,0.02210335019127027
12.61636471748352,0.4591869843311751,0.1383755055088897,0.2963788602521383
12.624285459518433,0.4560606048633884,0.13768127877144665,0.32788001627982144
12.633231401443481,0.4525434279621283,0.13699368817653468,0.27128805046826804
12.643351793289185,0.4484400549106582,0.13631368670361396,0.19382711632295654
12.65434718132019,0.4443366818591881,0.13564075107879772,0.12203802646601515
12.664845943450928,0.43984251137424474,0.1349719350896572,0.06425074122506907
12.672320127487183,0.43671613190645797,0.13430463190497044,0.02118061237162232
12.681895017623901,0.43261275885498784,0.1336389395955784,-0.0092214349913842
12.690621614456177,0.4289001832369912,0.13297488885839828,-0.029657313895561095
12.700699090957642,0.4251876076189945,0.1323112817016048,-0.04264538179755116
12.70962905883789,0.4214750320009977,0.13164709194308624,-0.05025577707380502
12.719300746917725,0.4175670576662643,0.13098146655860746,-0.054085517337178014
12.730003833770752,0.41307288718132085,0.13031371784659923,-0.05532120982843957
12.73827862739563,0.4101419064302709,0.1296444995139527,0.22121537683304937
12.749284982681274,0.4056477359453274,0.12897560124121432,0.2559597417152782
12.759345531463623,0.40154436289385737,0.12830621958050378,0.20317406495638496
12.769716501235962,0.397050192408914,0.12763340139276155,0.12979490459368034
12.7772958278656,0.3941192116578639,0.12695711069487212,0.06216914412445801
12.789320230484009,0.3892342437394471,0.12627977716036878,0.008498843180572445
12.797322750091553,0.3861078642716604,0.12560243965028553,-0.030582428735003223
12.805332660675049,0.38278608608713705,0.12492606846442887,-0.05717360249475715
12.81706428527832,0.37770571945198356,0.12425166498776508,-0.0740045584039427
12.8275306224823,0.3732115489670402,0.12357811504960334,-0.08360678784169934
12.836835145950317,0.36930357463230673,0.12290472409150976,-0.08805366230836842
12.845231533050537,0.3659817964477834,0.12223321121803074,-0.0889389623779898
12.856603384017944,0.36148762596283995,0.12156530961842081,-0.08744196092994115
12.867481708526611,0.3573842529113699,0.12090003512088034,-0.0844129851372327
12.875600576400757,0.3540624747268465,0.12023605389996095,-0.08045326318446164
12.883270502090454,0.35113149397579646,0.11957517132706603,-0.07598074898100668
12.894970178604126,0.34605112734064297,0.11892079271605578,-0.07128112438377249
12.905446767807007,0.3417523555724363,0.11827517973213228,-0.06654592542051406
12.914770603179932,0.3382351786711762,0.11763961221903739,-0.06190040820942869
12.92231822013855,0.3351087992033895,0.11701594062937778,-0.05742361189409281
12.931233406066895,0.33120082486865604,0.11640579019623054,-0.05316265166440296
12.940118789672852,0.32748824925065934,0.11580985384749,-0.049142821277886065
12.949302196502686,0.3239710723493993,0.11522928642763143,-0.04537468861903442
12.95918893814087,0.31967230058119256,0.11466500820426977,-0.04185905157029765
12.96928095817566,0.31556892752972243,0.11411707022721243,-0.03859038052837102
12.97955846786499,0.31146555447825236,0.1135853894548436,-0.035559195472242885
12.988259553909302,0.30814377629372897,0.11306974492614152,-0.03275369571859258
12.996673822402954,0.3048219981092056,0.11257034627232541,0.24587749244170928
13.0052330493927,0.30130482120794555,0.11208775080765807,0.28139573693062175
13.013797283172607,0.2977876443066855,0.11162165837579911,0.22850639826125285
13.02152132987976,0.2944658661221621,0.11117103938864702,0.15445671538296568
13.029211044311523,0.2913394866543753,0.11073538960394741,-0.1902289988469007
13.037364721298218,0.28821310718658855,0.11031521807401078,-0.0022097621248918647
13.047278881072998,0.2837189367016452,0.10991018251056793,0.04560497129324468
13.056413888931274,0.28000636108364846,0.10951809171798545,0.03864179564259277
13.066380500793457,0.276098386748915,0.10913748488171494,-0.26113892458086946
13.074188470840454,0.2727766085643917,0.10876867186361339,-0.3190765305407784
13.084048509597778,0.26886863422965823,0.10841175165998644,-0.008265230530341339
13.094303607940674,0.2645698624614515,0.10806550244002446,0.08628989328840486
13.102209091186523,0.26105268556019146,0.10772759579634915,0.09220957612831081
13.111574649810791,0.2575355086589314,0.10739538017447295,-0.2086809673587282
13.119510173797607,0.25440912919114467,0.10706713212293999,0.003385690505134903
13.127320051193237,0.2514781484400946,0.1067430718122228,0.06425291424514643
13.136312484741211,0.24796097153883453,0.10642448599084794,0.06409811271565052
13.144387245178223,0.24483459207104782,0.10611184505110703,0.043554453987423025
13.152213335037231,0.24151281388652443,0.1058049318474972,0.01982622495177463
13.163429975509644,0.237018643401581,0.10550244504963281,-0.0006569869055413156
13.173117637634277,0.23271987163337426,0.10520273391111803,-0.01619560913567112
13.185465097427368,0.22744410628148415,0.1049049998307404,-0.026995387972537505
13.193321943283081,0.22451312553043412,0.10460862566505502,-0.03389335660201141
13.202219486236572,0.22099594862917407,0.10431365473574634,-0.03781760802600066
13.210575819015503,0.217478771727914,0.10402068183177955,-0.03958490344285728
13.21890640258789,0.21435239226012726,0.10373022953452705,-0.03984685405488017
13.229183912277222,0.20985822177518385,0.10344180172377146,-0.03909615077493026
13.238986015319824,0.20575484872371377,0.10315405532927338,-0.3137312124341563
13.250232458114624,0.20145607695550702,0.10286638223288913,-0.3450566944607477
13.260215282440186,0.1975481026207736,0.10257877979086119,-0.28794396992711935
13.269276142120361,0.1938355270027769,0.10229172616266616,-0.20975023290324096
13.278290510177612,0.19031835010151682,0.10200608156416821,-0.13710821709728
13.289196968078613,0.18582417961657338,0.10172207307311416,-0.07841053992141371
13.299941778182983,0.18191620528184,0.10143888793256577,-0.03441457196883552
13.309551239013672,0.17742203479689655,0.10115528007151685,-0.27913717311223296
13.317276954650879,0.1741002566123732,0.10087109061977811,-0.29094185353117247
13.327818393707275,0.16980148484416643,0.10058708632602144,-0.2220127719549408
13.340138673782349,0.16491651692574968,0.10030279242373759,-0.1375197912522885
13.350218772888184,0.1608131438742796,0.10001665248358682,-0.062418663869358626
13.360731363296509,0.15670977082280954,0.0997277598214046,-0.003861903491670503
13.368204355239868,0.15377879007175946,0.09943578246511686,0.038288129080425726
13.37796139717102,0.14967541702028941,0.09914035822497559,0.06668723156142801
13.387283563613892,0.14596284140229268,0.09884171913394763,0.08446245830298384
13.396142721176147,0.14205486706755927,0.09854061899236538,0.09442595447594981
13.404226779937744,0.13892848759977253,0.09823767447898947,0.09884789767927157
13.415051937103271,0.13443431711482912,0.0979327477523273,0.09945911684549555
13.424858808517456,0.13091714021356907,0.09762441361458184,0.09753364182809879
13.433272361755371,0.12739996331230902,0.09731144253946,0.09398678783494777
13.441764116287231,0.12388278641104894,0.09699409090844555,0.08946391061623318
13.450691938400269,0.12017021079305219,0.09667325882256979,0.08441253366310802
13.458929538726807,0.1168484326085288,0.09634908007131512,0.07913779101260252
13.46615982055664,0.11391745185747876,0.09602169326728005,0.07384367221899543
13.474279165267944,0.11079107238969202,0.095691891646158,0.06866307281147363
13.482215642929077,0.10746929420516863,0.09536102658638855,0.06367938366002937
13.491685390472412,0.1037567185871719,0.0950302449752661,0.058941847945772924
13.5021812915802,0.09984874425243849,0.09469918395895496,0.05447640324874031
13.513429164886475,0.0959407699177051,0.0943668700671424,0.32633164919135815
13.522343397140503,0.09261899173318171,0.09403182643716033,0.6315936810004865
13.530217409133911,0.08988340969886832,0.0936928415800001,1.1580721473216773
13.539716720581055,0.08656163151434493,0.09334960571860398,1.641854531186836
13.54721736907959,0.08441224563024154,0.09300257235999883,2.27630622887121
13.557230472564697,0.0814812648791915,0.09265216913746668,3.3634886676561817
13.566142320632935,0.07913648027835145,0.09229813183558454,4.073485518015886
13.575746536254883,0.07659629696077475,0.09194094112034527,5.0
13.585224151611328,0.07464230979340802,0.09158102054782566,5.0
13.596812963485718,0.07190672775909465,0.09121739083817233,5.0
13.605160236358643,0.07034353802520128,0.09084925304829365,5.0
13.616050958633423,0.06838955085783459,0.09047732822353352,5.0
13.62619137763977,0.06663096240720455,0.09010225803946129,5.0
13.635287761688232,0.06526317139004786,0.08972461873003126,5.0
13.645384311676025,0.06389538037289116,0.08934561281329441,5.0
13.655291557312012,0.06291838678920783,0.08896561027473406,4.991783224636573
13.663231134414673,0.06213679192226114,0.08858428666069684,4.592762326716578
13.672491550445557,0.061355197055314455,0.08820078326113578,4.088603324017502
13.681084871292114,0.060964399621841116,0.08781447656493206,3.873355181882886
13.690080165863037,0.06037820347163111,0.08742627609197368,3.7455532216730143
13.70027494430542,0.06018280475489443,0.08703708913199948,3.34920630614402
13.71052098274231,0.059987406038157755,0.08664716973569604,3.1775417129576793
13.719260931015015,0.059987406038157755,0.08625688174471072,2.7966722400369695
13.727972269058228,0.059987406038157755,0.08586781210921818,2.3872439288162637
13.73857045173645,0.059987406038157755,0.08548198103084573,1.7417257639704369
13.74826431274414,0.06018280475489443,0.08509949037573537,1.3979727680890344
13.757127285003662,0.06037820347163111,0.08472048165457187,0.9238871929358878
13.769185543060303,0.060964399621841116,0.08434577194072974,0.48682414022115794
13.778720617294312,0.061355197055314455,0.0839751662990919,-0.41319428929262114
13.786205053329468,0.06174599448878779,0.08360905198134928,-1.0102841573779349
13.79925537109375,0.06252758935573448,0.0832483534459201,-1.1082221841798172
13.80977749824524,0.06311378550594449,0.08289304388868479,-1.2895647864646078
13.819265127182007,0.06369998165615451,0.08254315953840767,-1.723872149861907
13.828339338302612,0.06448157652310119,0.08219920976915579,-2.136429301493604
13.838273286819458,0.06526317139004786,0.08186201234076287,-2.4379598745088273
13.849251985549927,0.06643556369046788,0.08153224032578135,-2.3411552021638555
13.862093687057495,0.06741255727415124,0.08120930192805673,-2.3824239658111797
13.871381282806396,0.06838955085783459,0.08089228109751206,-2.7077605828439673
13.8822922706604,0.06936654444151794,0.0805810869621105,-2.7542216047578236
13.891086339950562,0.07014813930846461,0.08027593171877527,-2.945044791301355
13.899260520935059,0.0709297341754113,0.07997727265911016,-3.110755651916747
13.909160375595093,0.07190672775909465,0.07968576315374826,-3.199566212243357
13.91726803779602,0.07268832262604133,0.07940147242415936,-3.484384434546685
13.926609516143799,0.07346991749298801,0.079123972326689,-3.4603506888756357
13.934790134429932,0.07405611364319802,0.07885278219057547,-3.575947172606514
13.943182229995728,0.07444691107667137,0.07858776287794912,-3.6716298922246677
13.951590061187744,0.07503310722688138,0.07832906693081237,-3.974699464043062
13.964746475219727,0.07522850594361805,0.07807591325864835,-4.515306349734598
13.972703218460083,0.07542390466035472,0.0778267294716127,-4.975501266015081
13.981218576431274,0.07542390466035472,0.07758089125446715,-5.0
13.98991060256958,0.07561930337709137,0.0773385902675725,-5.0
13.99717378616333,0.07561930337709137,0.0770999126754685,-5.0
14.00619888305664,0.07561930337709137,0.07686485204625629,-5.0
14.01444411277771,0.07561930337709137,0.07663288131385874,-5.0
14.023247241973877,0.07561930337709137,0.07640348694233223,-5.0
14.035398006439209,0.07561930337709137,0.07617615766105347,-4.9299758124262265
14.044229745864868,0.07561930337709137,0.07594995971362749,-4.552677146784326
14.054465055465698,0.07561930337709137,0.07572406348153406,-3.8174523602363664
14.065633535385132,0.07561930337709137,0.07549729340288339,-3.060858643877922
14.07486605644226,0.07561930337709137,0.07526866077759002,-2.12836827482339
14.083229780197144,0.07561930337709137,0.07503825364906581,-1.2908719344232036
14.092178106307983,0.07561930337709137,0.07480663182727099,-0.6275975127126711
14.101861715316772,0.07561930337709137,0.07457386059038167,-0.13891351879265607
14.111232042312622,0.07561930337709137,0.07433959029853278,0.20236936075952114
14.119274139404297,0.07561930337709137,0.07410400800960468,0.4289169020412262
14.131126403808594,0.07561930337709137,0.07386732010378172,0.5703286287318218
14.14250135421753,0.07561930337709137,0.07362887644662774,0.6506144515080833
14.151718616485596,0.07561930337709137,0.07338817005123738,0.6881560534783429
14.161050796508789,0.07561930337709137,0.07314525317834907,0.6965432393329818
14.169845342636108,0.07561930337709137,0.07290021764733365,0.685590619014014
14.179145336151123,0.07561930337709137,0.07265360425653765,0.6622644915395779
14.190701961517334,0.07561930337709137,0.07240590988038331,0.6314388850827515
14.200195550918579,0.07561930337709137,0.0721571682976305,0.5964780449993985
14.20933485031128,0.07561930337709137,0.07190744987054878,0.5596704827641474
14.218135595321655,0.07561930337709137,0.07165685585524445,0.5225456670275143
14.230723857879639,0.07561930337709137,0.07140551613379803,0.48610186264906585
14.23913311958313,0.07561930337709137,0.07115358323381593,0.4509684444080688
14.248159885406494,0.07561930337709137,0.07090161625839528,0.41752069863622454
14.261021137237549,0.07561930337709137,0.07064971854723587,0.38596056271246226
14.271178722381592,0.07561930337709137,0.07039720198771081,0.3563731362327487
14.283231019973755,0.07561930337709137,0.07014351887781091,0.3287660555903709
14.294739246368408,0.07561930337709137,0.06988825415278752,0.3030967989625821
14.305193424224854,0.07561930337709137,0.06963187893301802,0.27929151883922065
14.314253091812134,0.07561930337709137,0.06937560449735926,0.25725794414765213
14.325165033340454,0.07561930337709137,0.06912047523133993,0.23689414246674745
14.335288047790527,0.07561930337709137,0.0688673869391387,0.21809440030504806
14.3480224609375,0.07561930337709137,0.06861637967009597,0.20075310351559422
14.361095428466797,0.07561930337709137,0.06836643068078892,0.18476723528381273
14.369702577590942,0.07561930337709137,0.0681167306351011,0.1700379231882348
14.378186225891113,0.07542390466035472,0.06786769135581712,0.1564713363884152
14.387229681015015,0.07561930337709137,0.06762037265891319,0.14397914258913438
14.396023750305176,0.07561930337709137,0.06737532350815433,0.13247867044682107
14.405121803283691,0.07561930337709137,0.06713299048265849,0.12189287833972898
14.415118217468262,0.07561930337709137,0.06689406613862912,0.11215019916424851
14.423445701599121,0.07561930337709137,0.0666584208386527,0.10318430900611746
14.432239055633545,0.07561930337709137,0.06642556591958794,0.09493385233354461
14.441664218902588,0.07561930337709137,0.06619572747820353,0.08734214578310764
14.45050597190857,0.07561930337709137,0.06596905753899655,0.08035687526718419
14.459451675415039,0.07542390466035472,0.06574531019376625,0.0739297960491932
14.47120213508606,0.07522850594361805,0.06552424749709908,-0.20802191775071632
14.481199979782104,0.07503310722688138,0.0653053211217141,-0.5226254752510123
14.491210699081421,0.07483770851014471,0.06508774344080415,-0.7816967447947643
14.499382972717285,0.07444691107667137,0.06487088435246241,-0.9642827154656591
14.508095979690552,0.0742515123599347,0.06465456893128589,-1.0759776928864362
14.518128395080566,0.07386071492646136,0.06443962017674855,-1.4067503521347704
14.527228593826294,0.07327451877625135,0.06422705507966439,-1.4522998557700981
14.536233901977539,0.07288372134277801,0.06401709768018897,-1.3799254993380834
14.546524047851562,0.07229752519256799,0.06380961429512827,-1.542810041373091
14.554775714874268,0.07190672775909465,0.06360447691017036,-1.4559478055526696
14.566200971603394,0.07132053160888463,0.06340155600049369,-1.5637379180807298
14.577236890792847,0.0709297341754113,0.06320071247636927,-1.1428843910223407
14.58690857887268,0.07073433545867464,0.06300179422925235,-0.8940935291446193
14.598180055618286,0.07053893674193797,0.06280463806076775,-0.18517126750474305
14.607951641082764,0.07034353802520128,0.06260906998571236,0.5394401303570292
14.620041847229004,0.07014813930846461,0.06241459754301251,1.400992342602907
14.628697633743286,0.07014813930846461,0.06222046866334016,2.126132668642521
14.63818359375,0.07014813930846461,0.062026659009691086,2.644058113352475
14.64949655532837,0.07014813930846461,0.061833466935615145,2.9651258344191618
14.660333156585693,0.07014813930846461,0.061640547958966785,3.126220991457017
14.669858455657959,0.07014813930846461,0.06144764395722699,2.891643891464227
14.679622888565063,0.07014813930846461,0.0612548884327876,2.5395302470086287
14.68912649154663,0.07014813930846461,0.06106272220768965,1.9099587050397873
14.70075798034668,0.07014813930846461,0.060871558879016525,1.5637831682639647
14.708112239837646,0.07014813930846461,0.06068148790842979,1.0798307394498525
14.717196941375732,0.06995274059172794,0.06049287852099206,0.630507144000693
14.726524591445923,0.06975734187499127,0.060306065808476854,0.27013943030238036
14.735092163085938,0.0695619431582546,0.060121072310263236,-0.27239465671178886
14.746334791183472,0.06917114572478127,0.05993792997945161,-0.7672361035204296
14.75964879989624,0.06878034829130793,0.05975643036149432,-1.4195321717256857
14.768171310424805,0.06858494957457126,0.05957616975936308,-1.7055196293222648
14.77766227722168,0.06819415214109792,0.0593970865409117,-2.0747902214863103
14.786510944366455,0.06760795599088791,0.059219636003236105,-2.099780728133399
14.79721188545227,0.06721715855741456,0.05904443740208873,-1.9839674822434783
14.808155536651611,0.06682636112394122,0.05887175726056985,-2.097050694647483
14.822491645812988,0.06643556369046788,0.05870107678376486,-1.9611497882509226
14.832102060317993,0.06624016497373121,0.05853167883580244,-1.4713250106782316
14.841683387756348,0.06604476625699454,0.058363625925980295,-0.6669091945188228
14.849925994873047,0.06604476625699454,0.05819714558549993,0.09396884132944866
14.860738039016724,0.06584936754025787,0.05803211072039482,0.6951332590104141
14.87053370475769,0.06584936754025787,0.05786832580500246,1.3983454128526767
14.879106760025024,0.06584936754025787,0.05770581635652405,1.7079881238759298
14.88810682296753,0.06584936754025787,0.05754480290666989,2.0876118614092176
14.899157762527466,0.06584936754025787,0.05738511328288387,2.392589637010502
14.911278009414673,0.06584936754025787,0.057225940313220515,2.3108362001826275
14.919214487075806,0.06584936754025787,0.05706654581304437,1.8163200718689891
14.928154468536377,0.06584936754025787,0.0569068916188691,1.2610565804140976
14.937196969985962,0.06584936754025787,0.05674694189694267,1.0526381821178645
14.948199272155762,0.06584936754025787,0.05658637550397409,0.7068333816309081
14.957219362258911,0.06545857010678453,0.0564249612128305,0.3740110711514905
14.966196298599243,0.06545857010678453,0.056262563960897495,-0.17192113108691146
14.975260019302368,0.0650677726733112,0.05609914128744058,-0.4046461867946851
14.985971212387085,0.06487237395657452,0.05593473427125106,-1.0395217458509443
14.996206521987915,0.06448157652310119,0.055769458543608,-1.118712430457152
15.005340576171875,0.0642861778063645,0.05560349856992427,-1.2665401659284614
15.015463590621948,0.06389538037289116,0.05543709461111322,-1.6692216397263238
15.02424430847168,0.06369998165615451,0.05527076068723965,-1.7813875178883465
15.032138347625732,0.06369998165615451,0.05510523071617564,-1.4812808475114985
15.042217254638672,0.06350458293941783,0.054940942560707376,-1.363705673385286
15.052133083343506,0.06350458293941783,0.05477808316918627,-0.7588037366977686
15.062275171279907,0.06330918422268116,0.05461686374109168,-0.3788466652744444
15.072136878967285,0.06330918422268116,0.054457506829356406,0.13707083562534775
