t_s,q_rad,q_des_rad,K,B,Kff,jerk,tau_Nm,reward
0.005179882049560547,-0.009183739686623501,[-9.21369153e-06],9.825212432529046,0.9790254919034855,1.9737818648793566,0.0,-9.998999999999999,1.4833065210205079
0.015241146087646484,-0.009183739686623501,[-4.45269243e-05],9.650424865058092,0.9580509838069711,1.9475637297587132,0.0,-10.098989999999999,1.4834337135175013
0.02428913116455078,-0.009183739686623501,[-0.00011067],9.475637297587138,0.9370764757104565,1.92134559463807,0.0,-9.639083298738257,1.4836706646508864
0.03464388847351074,-0.009183739686623501,[-0.00020202],9.300849730116184,0.9161019676139419,1.8951274595174268,0.0,-6.657628304936461,1.483995201624282
0.044770240783691406,-0.009183739686623501,[-0.00031351],9.12606216264523,0.8951274595174274,1.8689093243967834,0.0,-4.572545945099245,1.4843869697951202
0.0523676872253418,-0.009183739686623501,[-0.00044058],8.951274595174274,0.8741529514209129,1.84269118927614,0.0,-0.024527618302479404,1.4848277202622082
0.060219526290893555,-0.009183739686623501,[-0.00057919],8.77648702770332,0.8531784433243983,1.8164730541554968,0.0,2.1809962880039047,1.4853014399576552
0.07045507431030273,-0.009183739686623501,[-0.00072575],8.601699460232366,0.8322039352278838,1.7902549190348536,0.0,3.027138599363205,1.4857943622273257
0.07872724533081055,-0.00820674610294015,[-0.00087715],8.426911892761412,0.8112294271313693,1.7640367839142101,0.276038359678681,3.1352958970849274,1.4892561984815973
0.0882117748260498,-0.005471164068626767,[-0.00103067],8.252124325290458,0.7902549190348547,1.7378186487935667,1.413316401554846,2.86958454076039,1.494579457201525
0.09926080703735352,-0.0017585884506300322,[-0.00118399],8.077336757819502,0.7692804109383402,1.7116005136729235,4.8031778737529205,2.446953623374626,1.48305185217762
0.10855770111083984,0.0019539871673667024,[-0.00133517],7.902549190348549,0.7483059028418256,1.6853823785522803,5.0,1.9910283209952198,1.4795706959572303
0.1172034740447998,0.005275765351890096,[-0.00148256],7.727761622877595,0.727331394745311,1.659164243431637,5.0,1.5639435014472076,1.4726386545258041
0.12685585021972656,0.009183739686623501,[-0.00162486],7.55297405540664,0.7063568866487966,1.6329461083109935,5.0,1.1833645064480507,1.4586377442973841
0.13578081130981445,0.012700916587883566,[-0.001761],7.378186487935686,0.685382378552282,1.6067279731903503,5.0,0.8638432104773784,1.4407654399482916
0.14321184158325195,0.01563189733893362,[-0.00189017],7.203398920464732,0.6644078704557674,1.5805098380697071,5.0,0.6053469176587107,1.4221747818992494
0.15349197387695312,0.019735270390403698,[-0.00201176],7.028611352993777,0.643433362359253,1.5542917029490637,5.0,0.3897625080344122,1.3914809239790527
0.16196703910827637,0.02286164985819042,[-0.00212539],6.853823785522822,0.6224588542627384,1.5280735678284203,5.0,0.22437488897940677,1.364343356407335
0.17121410369873047,0.026378826759450486,[-0.00223079],6.679036218051868,0.6014843461662238,1.501855432707777,5.0,0.09275689877666457,1.330727007184716
0.18018841743469238,0.02989600366071055,[-0.00232788],6.504248650580913,0.6,1.475637297587134,4.2488573276754575,-0.01129459548614729,1.2992108969466263
0.18880844116210938,0.03341318056197061,[-0.00241669],6.329461083109958,0.6,1.4494191624664907,2.1157983314908138,-0.09279329894577616,1.2702357242554652
0.1982860565185547,0.03693035746323068,[-0.00249733],6.154673515639004,0.6,1.4232010273458477,-0.6344228110369337,-0.1563762687986082,1.2324813716004426
0.20927834510803223,0.040642933081227406,[-0.00257003],5.97988594816805,0.6,1.3969828922252046,-3.0532150738744575,-0.20734128472741403,1.1814487548074506
0.21778178215026855,0.04318311639880412,[-0.00263507],5.805098380697095,0.6,1.3707647571045614,-5.0,-0.24055509430450833,1.138870038590323
0.22749662399291992,0.04572329971638084,[-0.00269279],5.63031081322614,0.6,1.3445466219839184,-5.0,-0.26530270420266344,1.1074700298564364
0.23720097541809082,0.04787268560048421,[-0.00274357],5.455523245755186,0.6,1.3183284868632752,-5.0,-0.28143443766611353,1.0807875023830076
0.2481367588043213,0.05002207148458758,[-0.00278783],5.280735678284231,0.6,1.292110351742632,-5.0,-0.2922332701768502,1.054212258073582
0.2569139003753662,0.05138986250174427,[-0.002826],5.105948110813277,0.6,1.2658922166219888,-5.0,-0.2949714352147354,1.0372402944111276
0.2651956081390381,0.05217145736869095,[-0.00285852],5.0,0.6,1.2396740815013456,-5.0,-0.295739808451597,1.0274464245943014
0.2746741771697998,0.05314845095237431,[-0.00288584],5.0,0.6,1.2134559463807026,-5.0,-0.3015294090224532,1.0154069948738247
0.2832202911376953,0.05373464710258431,[-0.00290842],5.0,0.6,1.1872378112600595,-5.0,-0.30394809374499326,1.0081354992339229
0.29117727279663086,0.05412544453605766,[-0.00292669],5.0,0.6,1.1610196761394163,-5.0,-0.3047189269290413,1.003261695043144
0.3011162281036377,0.05393004581932099,[-0.00294108],5.0,0.6,1.1348015410187733,-5.0,-0.30155838163792315,1.005417019635967
0.30976295471191406,0.05373464710258431,[-0.00295201],5.0,0.6,1.10858340589813,-5.0,-0.2982360392308829,1.0076156964584166
0.3171684741973877,0.053343849669110974,[-0.00295986],5.0,0.6,1.082365270777487,-5.0,-0.2937908715159529,1.0121863512652227
0.32616329193115234,0.05275765351890097,[-0.00296501],5.0,0.6,1.0561471356568437,-5.0,-0.2878815972386659,1.0191371970680785
0.33420419692993164,0.05197605865195429,[-0.00296781],5.0,0.6,1.0299290005362005,-5.0,-0.2810407194128995,1.0284808972971504
0.344226598739624,0.05099906506827094,[-0.00296859],5.0,0.6,1.0037108654155575,-5.0,-0.2732133401106049,1.0402315866522187
0.35454583168029785,0.04963127405111425,[-0.00296764],5.0,0.6,0.9774927302949143,-5.0,-0.2635820852602654,1.056764267894612
0.36365771293640137,0.04826348303395755,[-0.00296526],5.0,0.6,0.9512745951742712,-5.0,-0.25364307364612043,1.073360345720211
0.3722872734069824,0.046700293300064186,[-0.00296168],5.0,0.6,0.9250564600536281,-5.0,-0.24325887752867792,1.092363148773591
0.38350486755371094,0.044746306132697485,[-0.00295713],5.0,0.6,0.898838324932985,-5.0,-0.2287212556989293,1.116101618484577
0.39184093475341797,0.04318311639880412,[-0.00295179],5.0,0.6,0.8726201898123418,-5.0,-0.2144860849037397,1.135053564709612
0.40128111839294434,0.04103373051470075,[-0.00294568],5.0,0.6,0.8464020546916986,-4.123776212495287,-0.17520493283467722,1.1667013202653913
0.41116976737976074,0.038884344630597374,[-0.00293821],5.0,0.6,0.8201839195710555,-3.517566054736808,-0.05612810678472255,1.1956849286988993
0.4214918613433838,0.036344161313020665,[-0.00292827],5.0,0.6,0.7939657844504124,-2.7952310633952084,0.04070743501689947,1.2287912991043342
0.4292125701904297,0.03458557286239063,[-0.002915],5.0,0.6,0.7677476493297692,-1.5871280318766274,0.11962701600705226,1.2529615040813222
0.4382014274597168,0.03263158569502393,[-0.00289691],5.0,0.6,0.741529514209126,-0.43310173102709104,0.34886576763390537,1.2767516639207053
0.44713640213012695,0.030872997244393897,[-0.00287214],5.0,0.6,0.715311379088483,0.7654824458366267,0.5336240261481944,1.2958898607006044
0.4577152729034424,0.02911440879376387,[-0.00283899],5.0,0.6,0.6890932439678399,2.2935741951801245,0.7751049881619866,1.311395517405837
0.4651675224304199,0.028137415210080514,[-0.00279423],5.0,0.6,0.6628751088471967,3.885945419823355,0.9800149648998957,1.314725278022871
0.4751923084259033,0.027355820343133833,[-0.00273399],5.0,0.6,0.6366569737265535,5.0,1.1653379024650297,1.3161012715526326
0.48338913917541504,0.027355820343133833,[-0.00265584],5.0,0.6,0.6104388386059104,5.0,1.0699796956084857,1.316885337153996
0.49123334884643555,0.027746617776607176,[-0.0025583],5.0,0.6,0.5842207034852673,5.0,1.0430386065839095,1.313936114418683
0.5004491806030273,0.02911440879376387,[-0.00243891],5.0,0.6,0.5580025683646241,5.0,0.9380899222235496,1.3011816461587788
0.5091733932495117,0.030872997244393897,[-0.00229563],5.0,0.6,0.531784433243981,5.0,0.7096335018768118,1.2842255282750266
0.5174689292907715,0.03321778184523394,[-0.00212783],5.0,0.6,0.5055662981233379,5.0,0.5730228221332136,1.2606399860077657
0.5256667137145996,0.035757965162810657,[-0.00193374],5.0,0.6,0.4793481630026947,5.0,0.5971880486252358,1.2343986458516891
0.5341532230377197,0.038884344630597374,[-0.00171033],5.0,0.6,0.4531300278820516,5.0,0.5841229325846184,1.200953824115357
0.544022798538208,0.04259692024859412,[-0.00145488],5.0,0.6,0.42691189276140845,5.0,0.532705043198828,1.1600683229338156
0.553818941116333,0.046504894583327516,[-0.00116658],5.0,0.6,0.4006937576407653,5.0,0.43452076651484056,1.1164884786496763
0.563931941986084,0.050412868918060925,[-0.0008462],5.0,0.6,0.3744756225201221,5.0,0.3700190993569698,1.0729926205200726
0.573134183883667,0.05412544453605766,[-0.00049141],5.0,0.6,0.3482574873994789,5.0,0.4400658536047729,1.0324127855366196
0.5826127529144287,0.05803341887079106,[-9.87236565e-05],5.0,0.6,0.3220393522788358,5.0,0.2829252840622763,0.9904461167788344
0.5915694236755371,0.06174599448878779,[0.00033181],5.0,0.6,0.2958212171581926,5.0,0.1973971583642687,0.952052797721449
0.5992145538330078,0.06467697523983784,[0.00080021],5.0,0.6,0.2696030820375494,5.0,0.2197397420703131,0.9239076238299111
0.6094112396240234,0.06878034829130793,[0.00130803],5.0,0.6,0.24338494691690624,3.9424020391663572,0.19236870707826037,0.8908849103115366
0.6177186965942383,0.07210212647583132,[0.00185479],5.0,0.6,0.21716681179626307,1.4590606807854722,-0.03744273721821214,0.8711341525815601
0.6272051334381104,0.07581470209382805,[0.00244013],5.0,0.6,0.19094867667561988,-1.0290439216826601,0.028872376270039107,0.8399080209079988
0.6363828182220459,0.07952727771182479,[0.00306546],5.0,0.6,0.16473054155497668,-3.3096322468964434,-0.08172770169959465,0.8025021409401829
0.6462252140045166,0.08284905589634818,[0.00372995],5.0,0.6,0.13851240643433352,-5.0,-0.1379629281934062,0.7676739377641278
0.6541600227355957,0.08538923921392488,[0.00443279],5.0,0.6,0.11229427131369034,-5.0,-0.17864233542987779,0.7513392491478046
0.6653766632080078,0.08910181483192163,[0.00517523],5.0,0.6,0.08607613619304716,-5.0,-0.1854988055576107,0.7261845410943736
0.6731891632080078,0.09125120071602501,[0.00595611],5.0,0.6,0.05985800107240398,-5.0,-0.29420814072630147,0.7151206652317278
0.6821804046630859,0.09379138403360171,[0.0067745],5.0,0.6,0.0336398659517608,-5.0,-0.2717313528265829,0.7016749258598469
0.6913044452667236,0.09613616863444177,[0.00763149],5.0,0.6,0.0074217308311176206,-5.0,-0.34169587870041435,0.6904825227134261
0.699171781539917,0.09750395965159846,[0.00852315],5.0,0.6,0.0,-5.0,-0.3653812901769679,0.6869840595971588
0.7101969718933105,0.0996533455357018,[0.00944651],5.0,0.6,0.0,-5.0,-0.32969923414603075,0.6781609924611307
0.7197585105895996,0.10082573783612185,[0.01040606],5.0,0.6,0.0,-5.0,-0.3238653001142594,0.6766564673842542
0.7280306816101074,0.10160733270306853,[0.01140293],5.0,0.6,0.0,-5.0,-0.3404716219151117,0.6781782526953201
0.7381625175476074,0.1023889275700152,[0.0124332],5.0,0.6,0.0,-5.0,-0.32477671134619357,0.6799463137652568
0.7475035190582275,0.10277972500348855,[0.01349869],5.0,0.6,0.0,-5.0,-0.2831516373108047,0.6847987712466505
0.7564408779144287,0.10297512372022523,[0.01460349],5.0,0.6,0.0,-5.0,-0.3004700068402597,0.691467320109237
0.7651617527008057,0.10277972500348855,[0.0157458],5.0,0.6,0.0,-5.0,-0.281829763789646,0.7015444326207034
0.7751824855804443,0.10258432628675188,[0.01692415],5.0,0.6,0.0,-5.0,-0.263789292027225,0.7122254435063998
0.7841658592224121,0.10199813013654188,[0.01813717],5.0,0.6,0.0,-5.0,-0.2727353081068148,0.7267235070487195
0.7921431064605713,0.10121653526959519,[0.01938086],5.0,0.6,0.0,-5.0,-0.24608676409202157,0.7437308233161076
0.8017113208770752,0.10043494040264851,[0.02065772],5.0,0.6,0.0,-5.0,-0.19459202330016978,0.7617557397849528
0.8096225261688232,0.0996533455357018,[0.02196972],5.0,0.6,0.0,-5.0,-0.1811123399099196,0.7808404551610328
0.8214743137359619,0.09789475708507178,[0.02331253],5.0,0.6,0.0,-5.0,-0.13620197213431953,0.8104675549170176
0.8311877250671387,0.09672236478465177,[0.02468857],5.0,0.6,0.0,-5.0,-0.12681349172004494,0.8359746182856037
0.8402199745178223,0.09554997248423175,[0.02610287],5.0,0.6,0.0,-4.711624181631821,-0.11572463745913542,0.8648881215924609
0.8482389450073242,0.09418218146707506,[0.02755315],5.0,0.6,0.0,-3.7740765651505623,-0.1305908490593702,0.9010336772627097
0.8571767807006836,0.09261899173318171,[0.0290374],5.0,0.6,0.0,-2.484302398347859,-0.07735750751469675,0.9409420386858034
0.8680477142333984,0.09105580199928834,[0.03056038],5.0,0.6,0.0,-1.572395104932672,-0.06260743872937344,0.9791382564336284
0.8766975402832031,0.08968801098213164,[0.03212253],5.0,0.6,0.0,-0.6605162295592686,-0.07627089248574141,1.0151037196126733
0.8871805667877197,0.08792942253150161,[0.03371728],5.0,0.6,0.0,0.6380994229957874,-0.05093130886786848,1.0552499645258882
0.8972015380859375,0.08656163151434493,[0.03534537],5.0,0.6,0.0,1.5308117910632641,-0.0015919103674790422,1.0900381775856207
0.909034252166748,0.08460764434697822,[0.03701374],5.0,0.6,0.0,2.3808765697788425,0.013574957848197062,1.1314933176253963
0.9178290367126465,0.08363065076329486,[0.03872117],5.0,0.6,0.0,3.57920271728716,-0.003552969691759594,1.158617358251489
0.9251646995544434,0.0826536571796115,[0.04045952],5.0,0.6,0.0,4.342998265234035,0.01684219375962696,1.1865790030070187
0.9339606761932373,0.08167666359592816,[0.04222496],5.0,0.6,0.0,5.0,0.035694138708796994,1.214235405413842
0.9421350955963135,0.08089506872898149,[0.04401396],5.0,0.6,0.0,5.0,0.022488092959205917,1.2435534017341323
0.9521400928497314,0.07991807514529814,[0.0458235],5.0,0.6,0.0,5.0,0.0775688990970095,1.2742913201837025
0.9604594707489014,0.0793318789950881,[0.04765439],5.0,0.6,0.0,5.0,0.060626196077338795,1.2998959538787227
0.9687411785125732,0.07874568284487811,[0.04950039],5.0,0.6,0.0,5.0,0.050336038887171496,1.3245052469423446
0.9781579971313477,0.0781594866946681,[0.05135663],5.0,0.6,0.0,5.0,0.11133976494887897,1.347898083021577
0.9894294738769531,0.07776868926119475,[0.05323023],5.0,0.6,0.0,5.0,0.1272123382327232,1.3682736728648672
0.9992434978485107,0.07737789182772142,[0.05512794],5.0,0.6,0.0,5.0,0.14293571850520354,1.3874637974724076
1.0073657035827637,0.07718249311098475,[0.05704852],5.0,0.6,0.0,5.0,0.12545859626967976,1.403856273237829
1.01735520362854,0.07718249311098475,[0.05898741],5.0,0.6,0.0,5.0,0.14846927614308467,1.4176643132074087
1.0252041816711426,0.07718249311098475,[0.06094102],5.0,0.6,0.0,5.0,0.13518547415739382,1.4303424705150218
1.0331499576568604,0.07718249311098475,[0.06291133],5.0,0.6,0.0,5.0,0.19921756523167003,1.4418172905213575
1.041144609451294,0.07757329054445808,[0.06490497],5.0,0.6,0.0,5.0,0.17872714602167505,1.450144465552897
1.0492527484893799,0.07776868926119475,[0.06691894],5.0,0.6,0.0,5.0,0.16534121599994447,1.4584636527217532
1.0579748153686523,0.0781594866946681,[0.06895131],5.0,0.6,0.0,5.0,0.23059062082461643,1.4649169536265965
1.0667338371276855,0.07855028412814144,[0.07100983],5.0,0.6,0.0,5.0,0.2108483444823126,1.4704247969124786
1.0751619338989258,0.07913648027835145,[0.07309669],5.0,0.6,0.0,4.704195264991824,0.23355016852209054,1.47652596860245
1.0838067531585693,0.07972267642856146,[0.0752044],5.0,0.6,0.0,4.573459050665111,0.2402261815967076,1.4805950146452465
1.0941658020019531,0.0806996700122448,[0.07732685],5.0,0.6,0.0,4.741871631790611,0.28622924857087373,1.4812663603475609
1.104123830795288,0.08187206231266483,[0.0794741],5.0,0.6,0.0,4.641670915377713,0.2908818727462487,1.4830669214522754
1.1136400699615479,0.08323985332982153,[0.08166018],5.0,0.6,0.0,4.418314802291366,0.29557584865231507,1.4851783726664156
1.1222925186157227,0.08421684691350488,[0.08389268],5.0,0.6,0.0,4.144720535335077,0.3034150289604456,1.487353287036644
1.1301186084747314,0.08558463793066157,[0.0861787],5.0,0.6,0.0,4.133234206809021,0.31027046276043063,1.4873727217021098
1.1411044597625732,0.08753862509802827,[0.08852499],5.0,0.6,0.0,4.434768586074427,0.3147432765928776,1.4853774439157899
1.1510870456695557,0.08949261226539497,[0.09093795],5.0,0.6,0.0,4.726586878155361,0.3195594876678693,1.4832254446089166
1.1618356704711914,0.09183739686623502,[0.0934237],5.0,0.6,0.0,5.0,0.32261190421799923,1.4812289184312806
1.171177864074707,0.0945729789005484,[0.09598795],5.0,0.6,0.0,4.893685144050211,0.3236686278990924,1.4820866944614521
1.1811389923095703,0.0971131622181251,[0.09863596],5.0,0.6,0.0,4.7872389617465885,0.32603917891255546,1.4827641650531247
1.1912035942077637,0.10004414296917516,[0.10137273],5.0,0.6,0.0,4.919566759132433,0.32613656737984026,1.481951663253017
1.1991400718688965,0.10258432628675188,[0.10419592],5.0,0.6,0.0,4.4925259760080385,0.30811351783464486,1.4846800883858764
1.2076208591461182,0.10531990832106528,[0.10708969],5.0,0.6,0.0,3.912595947040873,0.28747829697957156,1.4881070603693596
1.2185657024383545,0.10883708522232532,[0.11004767],5.0,0.6,0.0,3.6227094947303016,0.3241009025592699,1.4900322326088513
1.2271451950073242,0.11176806597337538,[0.11308568],5.0,0.6,0.0,3.4378229861053926,0.3248081779527172,1.4909319945477553
1.2360641956329346,0.11489444544116212,[0.11620982],5.0,0.6,0.0,3.2806210201527266,0.3114528439737384,1.4917062693947907
1.2481098175048828,0.11938861592610552,[0.11942599],5.0,0.6,0.0,3.122834398229694,0.28326565587422997,1.4927927019157798
1.2567994594573975,0.12290579282736558,[0.12274631],5.0,0.6,0.0,2.6813266027921685,0.2811395576061294,1.49467157679478
1.264589786529541,0.1260321722951523,[0.12615755],5.0,0.6,0.0,2.200171151382558,0.2913270932634404,1.4964063508715981
1.2751431465148926,0.1301355453466224,[0.12965635],5.0,0.6,0.0,1.7712666367011858,0.23806258047581752,1.4976240497891795
1.2850761413574219,0.13404351968135578,[0.13326315],5.0,0.6,0.0,1.4194235817953706,0.25813875304778133,1.4983806681904976
1.2941150665283203,0.13756069658261585,[0.13697884],5.0,0.6,0.0,0.3140963353518351,0.30377895101918495,1.499858855232657
1.3041484355926514,0.14146867091734927,[0.14079588],5.0,0.6,0.0,-0.27553308060948434,0.258895820834304,1.4998529638129305
1.315162181854248,0.14596284140229268,[0.1447241],5.0,0.6,0.0,-1.1358485285129192,0.26300979998296053,1.4987336814622423
1.3272831439971924,0.15084780932070943,[0.14877138],5.0,0.6,0.0,-1.9062347612579087,0.26197166587771215,1.4964404141032661
1.3356904983520508,0.15456038493870616,[0.15293571],5.0,0.6,0.0,-2.7544539450439505,0.26426611040875575,1.493856225234035
1.3441219329833984,0.15768676440649287,[0.15721507],5.0,0.6,0.0,-3.4335202468052803,0.2678629774875198,1.4912562850320659
1.3536436557769775,0.16179013745796297,[0.1616076],5.0,0.6,0.0,-4.163932839937036,0.26566144777764117,1.4872518267221657
1.3631081581115723,0.1655027130759597,[0.16610227],5.0,0.6,0.0,-4.722133352115777,0.3063360257768718,1.4836015652147512
1.3721232414245605,0.16901988997721973,[0.17068034],5.0,0.6,0.0,-5.0,0.3021556383648762,1.4811807951235947
1.3811016082763672,0.1725370668784798,[0.17533515],5.0,0.6,0.0,-5.0,0.29511170857211155,1.480167438829932
1.3914849758148193,0.1766404399299499,[0.18007051],5.0,0.6,0.0,-5.0,0.2846401160872184,1.4793817551357136
1.4001257419586182,0.18015761683120995,[0.18488993],5.0,0.6,0.0,-4.980566248925103,0.2769422781810354,1.4774022555204276
1.4096484184265137,0.18406559116594334,[0.18978656],5.0,0.6,0.0,-4.837744316769184,0.3269154918323071,1.4763537361585506
1.4176039695739746,0.1873873693504668,[0.19474468],5.0,0.6,0.0,-4.624274625613509,0.317494314521942,1.4735649044951489
1.425107479095459,0.19031835010151682,[0.19976113],5.0,0.6,0.0,-4.373124301872171,0.30659784875481066,1.46828955008949
1.433650016784668,0.19364012828604024,[0.20484344],5.0,0.6,0.0,-4.105081884326625,0.29400430191812993,1.4628212672633507
1.44169020652771,0.19676650775382695,[0.20998773],5.0,0.6,0.0,-3.833267289297871,0.35822395028163134,1.4548245195595946
1.4501996040344238,0.20008828593835032,[0.21518026],5.0,0.6,0.0,-3.5658836187033334,0.3433996367945211,1.446092018358487
1.459181308746338,0.20380086155634705,[0.22040931],5.0,0.6,0.0,-3.307938999765221,0.3835312588128359,1.4382464348045083
1.4684572219848633,0.20770883589108044,[0.22566491],5.0,0.6,0.0,-3.062347965061469,0.3669840835987181,1.4306185190460134
1.4781124591827393,0.21181220894255054,[0.23096018],5.0,0.6,0.0,-2.8306489054942796,0.32438374149266946,1.4233659606046725
1.489530324935913,0.2166971768609673,[0.23632762],5.0,0.6,0.0,-2.613478096372778,0.3257086538922622,1.4207655338553922
1.5004103183746338,0.22080054991243736,[0.24178354],5.0,0.6,0.0,-2.410886100471401,0.3321878599781944,1.411400442757334
1.5092477798461914,0.22431772681369744,[0.24731926],5.0,0.6,0.0,-2.222550328442561,0.36497310813940687,1.3959282284536978
1.5184051990509033,0.22763950499822086,[0.25292643],5.0,0.6,0.0,-2.0479182532448936,0.3641801971084068,1.3768416877341825
1.5279285907745361,0.2317428780496909,[0.25860777],5.0,0.6,0.0,-1.886303843675351,0.36566185140402785,1.3629477974160806
1.537065029144287,0.23526005495095098,[0.26435363],5.0,0.6,0.0,-1.7369522141322502,0.3520562174272249,1.3420255625631925
1.5471231937408447,0.23936342800242105,[0.27015462],5.0,0.6,0.0,-1.5990825828012891,0.36524161885184175,1.325374035266587
1.5571842193603516,0.24327140233715447,[0.27601248],5.0,0.6,0.0,-1.4719163938538877,0.3783570649155916,1.3054189075831506
1.566176414489746,0.2473747753886245,[0.28192747],5.0,0.6,0.0,-1.354695292527732,0.38915509546270244,1.2862256053852994
1.5741229057312012,0.2505011548564112,[0.28789853],5.0,0.6,0.0,-1.2466921751572069,0.40421126143146574,1.254845291438293
1.5845916271209717,0.25460452790788135,[0.29392349],5.0,0.6,0.0,-1.1472175348189988,0.4141224801277859,1.233058023925952
1.5925617218017578,0.25792630609240474,[0.29998907],5.0,0.6,0.0,-1.0556226353315585,0.47840434370836765,1.2011477496273308
1.6011180877685547,0.26124808427692814,[0.30607277],5.0,0.6,0.0,-0.9713005716767135,0.4698582668754331,1.1683789218344358
1.6097002029418945,0.26476526117818816,[0.31215513],5.0,0.6,0.0,-0.8936859463943343,0.5317406820840527,1.1375698037039186
1.6177442073822021,0.26808703936271155,[0.31821955],5.0,0.6,0.0,-0.8222536637146953,0.5241288139228805,1.104420153725452
1.6271369457244873,0.271995013697445,[0.32427277],5.0,0.6,0.0,-1.0325555447764003,0.4872665879446557,1.078125973969827
1.6376123428344727,0.2764891841823884,[0.33034131],5.0,0.6,0.0,-1.005189442945141,0.49200957024639597,1.0591410493397
1.645542860031128,0.27961556365017515,[0.33641653],5.0,0.6,0.0,-0.8944315366549718,0.5066665793976013,1.0239257582883001
1.656125783920288,0.2837189367016452,[0.34247066],5.0,0.6,0.0,-0.7671322930842225,0.5495038173048512,1.0009611492422308
1.6660964488983154,0.2874315123196419,[0.34852269],5.0,0.6,0.0,-0.6494880076706147,0.5857855901606431,0.9737437419644563
1.6777822971343994,0.2923164802380587,[0.35461037],5.0,0.6,0.0,-0.8255495365988778,0.5751956888675576,0.9596875444111366
1.6864361763000488,0.29544285970584544,[0.36073439],5.0,0.6,0.0,-0.7767876931309236,0.5431557585428946,0.9258574587621029
1.6951069831848145,0.29915543532384214,[0.36687435],5.0,0.6,0.0,-0.6555760216927142,0.5582094986212986,0.8993285373746835
1.7064557075500488,0.3038450045255222,[0.37303539],5.0,0.6,0.0,-0.5261988109610234,0.6053694304396267,0.8836599070098199
1.7145798206329346,0.3069713839933089,[0.3792333],5.0,0.6,0.0,-0.41245958088430373,0.5766247745310994,0.8517914572827501
1.7230679988861084,0.3102931621778323,[0.3854486],5.0,0.6,0.0,-0.32041671932250326,0.6425715500821887,0.8230641451297778
1.7321248054504395,0.3140057377958291,[0.39165426],5.0,0.6,0.0,-0.24900323148737546,0.615219961364657,0.7993886489519781
1.741419792175293,0.31791371213056246,[0.3978508],5.0,0.6,0.0,0.08122543377561106,0.612284207632328,0.7785925032794374
1.7517433166503906,0.3224078826155059,[0.40405112],5.0,0.6,0.0,0.15503607488643345,0.630206852345993,0.7636345049590743
1.761096715927124,0.3263158569502393,[0.41027922],5.0,0.6,0.0,0.13039565751062557,0.6889538213924534,0.7441381465165406
1.7725000381469727,0.33081002743518273,[0.41656832],5.0,0.6,0.0,0.07717093071334215,0.6936515599648996,0.7297149110060398
1.7812902927398682,0.3343272043364428,[0.42292321],5.0,0.6,0.0,0.023928703205250583,0.6650539546997197,0.7080758671499979
1.7890942096710205,0.33764898252096615,[0.42932418],5.0,0.6,0.0,-0.019490280743623366,0.6909504186818138,0.6862119385727641
1.7997419834136963,0.3417523555724363,[0.43576702],5.0,0.6,0.0,-0.05126268994722649,0.7112851589930318,0.670714469606936
1.8070893287658691,0.3446833363234863,[0.44224826],5.0,0.6,0.0,-0.07263299205483101,0.6945392070404477,0.6489999795472204
1.8163092136383057,0.3480051145080097,[0.44875289],5.0,0.6,0.0,-0.08572186237238116,0.7278953007811247,0.631327067696026
1.8274600505828857,0.35269468370968976,[0.45529422],5.0,0.6,0.0,-0.0926285639447707,0.7932753995356225,0.6217987077492945
1.8362007141113281,0.3564072593276865,[0.46189667],5.0,0.6,0.0,-0.09512079111507735,0.763499759653,0.6079955151772951
1.8450868129730225,0.3601198349456833,[0.46855562],5.0,0.6,0.0,-0.09457658487220738,0.7899837093384932,0.5952039532084596
1.8550772666931152,0.36422320799715335,[0.47526769],5.0,0.6,0.0,-0.3680614869166531,0.8127240086693694,0.5848081462291195
1.8655400276184082,0.3685219797653601,[0.48204338],5.0,0.6,0.0,-0.39736653291950014,0.8327941859409597,0.5758520917541924
1.8734965324401855,0.3718437579498835,[0.48887835],5.0,0.6,0.0,-0.3377093081413376,0.8120023389955746,0.5645229597682124
1.8840909004211426,0.3759471310013535,[0.49576933],5.0,0.6,0.0,0.01934976649682174,0.8889750111827226,0.5566152552626444
1.89378023147583,0.37965970661935033,[0.50274103],5.0,0.6,0.0,-0.14797790394669832,0.9065280376427716,0.5483088950535902
1.9023661613464355,0.3829814848038737,[0.50980044],5.0,0.6,0.0,-0.1745517543962135,0.8804717931106075,0.5400680684665791
1.912154197692871,0.38747565528881706,[0.51692579],5.0,0.6,0.0,-0.14865922216943672,0.9083169867029007,0.5350164501299292
1.9228510856628418,0.3915790283402871,[0.52412662],5.0,0.6,0.0,0.16703017450068156,0.9820086256672584,0.5297635591592255
1.933192491531372,0.39548700267502057,[0.53142481],5.0,0.6,0.0,0.2380104543815853,0.947417960768263,0.5247849874706048
1.944509744644165,0.399981173159964,[0.53882453],5.0,0.6,0.0,0.21385202002641457,1.0198879485521133,0.5211290705645566
1.9541985988616943,0.4036937487779607,[0.54632887],5.0,0.6,0.0,0.16108279797429345,0.9860377545912542,0.5170759207805353
1.9652256965637207,0.40857871669637746,[0.55393983],5.0,0.6,0.0,0.10719406089805902,1.0580035406018178,0.5146025880554012
1.9743454456329346,0.41248669103111085,[0.56167316],5.0,0.6,0.0,0.061897371297737945,1.0716568533647106,0.5116603002533453
1.9822165966033936,0.4156130704988976,[0.56952656],5.0,0.6,0.0,0.027230923553202408,1.042880577750998,0.5087567083572923
1.9901690483093262,0.41893484868342096,[0.57746785],5.0,0.6,0.0,0.002247267674946608,1.0776383934868548,0.5065614533294917
1.999382495880127,0.4226474243014178,[0.58548383],5.0,0.6,0.0,-0.014898601817484695,1.108193607490444,0.5049757861690316
2.0080912113189697,0.42616460120267785,[0.59356259],5.0,0.6,0.0,-0.026084205668408633,1.0886335128314015,0.5036810585295048
2.0174856185913086,0.43007257553741124,[0.60167883],5.0,0.6,0.0,-0.03291232878301415,1.1288312041134263,0.5027668860044942
2.0253500938415527,0.43300355628846127,[0.60982583],5.0,0.6,0.0,-0.03664505176331061,1.168982584794808,0.5019232418761268
2.0341615676879883,0.43671613190645797,[0.61801265],5.0,0.6,0.0,-0.03823209791304005,1.2014974324150816,0.5013955528054487
2.0440685749053955,0.4408195049579281,[0.62624668],5.0,0.6,0.0,-0.03836791217987856,1.2294430073845113,0.5010305008284488
2.052750587463379,0.4443366818591881,[0.63451881],5.0,0.6,0.0,0.23848814955507147,1.2088561773035733,0.500679400727694
2.0610899925231934,0.44765846004371157,[0.64280602],5.0,0.6,0.0,0.27303272615961627,1.2518175478049134,0.5004367650488212
2.069369077682495,0.4507848395114983,[0.65110381],5.0,0.6,0.0,0.21971314228345154,1.2909409804893957,0.5002910702428554
2.0779261589050293,0.4541066176960216,[0.65940829],5.0,0.6,0.0,0.14559546196158835,1.27554625007078,0.5002024953871054
2.087069034576416,0.45801459203075506,[0.66770108],5.0,0.6,0.0,0.07711600830177515,1.318444275038349,0.5001472611662618
2.095867156982422,0.4611409714985418,[0.67598189],5.0,0.6,0.0,0.02253776772287871,1.3594077918501806,0.5000975453419153
2.106356382369995,0.46543974326674853,[0.68426572],5.0,0.6,0.0,-0.01746486974666683,1.3900865106748554,0.5000690801476444
2.1150834560394287,0.46915231888474523,[0.69256524],5.0,0.6,0.0,-0.3210024431373809,1.4205123614224646,0.4999694946678035
2.1260626316070557,0.4736464893696886,[0.70089097],5.0,0.6,0.0,-0.3718357379542405,1.4449973381438554,0.49992979248861275
2.1351654529571533,0.47755446370442206,[0.70923642],5.0,0.6,0.0,-0.3271779001996248,1.4210501886511895,0.49994208457370176
2.143904685974121,0.4808762418889455,[0.71758073],5.0,0.6,0.0,-0.2563307721280621,1.4631358863016122,0.499964686281701
2.154106855392456,0.4849796149404155,[0.7259364],5.0,0.6,0.0,-0.18743567764243935,1.5464516979290595,0.4999829047408626
2.1646666526794434,0.4890829879918856,[0.73434392],5.0,0.6,0.0,-0.13000997779202833,1.5621234175517593,0.49999337699511404
2.1759870052337646,0.49377255719356566,[0.74282171],5.0,0.6,0.0,0.19041017342636393,1.5763909401137437,0.4999771093724815
2.184087038040161,0.49689893666135243,[0.75135428],5.0,0.6,0.0,0.2563114274939987,1.5503781538776196,0.4999534759873436
2.1930689811706543,0.5006115122793491,[0.75992768],5.0,0.6,0.0,0.22466062127632774,1.6360092708084302,0.49996387246200064
2.2021546363830566,0.5041286891806092,[0.76854441],5.0,0.6,0.0,0.16491577737282648,1.6063815716365148,0.49998060046112996
2.2110860347747803,0.5078412647986059,[0.77719091],5.0,0.6,0.0,0.10549718434764593,1.6407061088213526,0.4999922145527635
2.2210569381713867,0.511944637850076,[0.78585511],5.0,0.6,0.0,0.05620721056789045,1.670627537494214,0.49999795251603646
2.2311031818389893,0.5160480109015461,[0.79454131],5.0,0.6,0.0,0.2949076203552638,1.6982858099559732,0.49993544668156165
2.2401249408721924,0.5197605865195428,[0.80325271],5.0,0.6,0.0,0.3014106046686822,1.726449873346533,0.4999324815657202
2.2480459213256836,0.5232777634208029,[0.81199149],5.0,0.6,0.0,0.2282935237039165,1.7546386359455737,0.4999612624086541
2.257673978805542,0.527381136472273,[0.82074415],5.0,0.6,0.0,0.14069150481838089,1.7303516654716442,0.4999852989570765
2.2674190998077393,0.5310937120902697,[0.82948417],5.0,0.6,0.0,0.06338142145283185,1.7705708703788372,0.49999702806500684
2.275089979171753,0.5342200915580564,[0.83820403],5.0,0.6,0.0,0.003313680106755555,1.8095527351317104,0.5000000012384374
2.284449577331543,0.5377372684593165,[0.84691247],5.0,0.6,0.0,-0.03982892041467044,1.8432836902450724,0.4999988241067694
2.2926788330078125,0.5412544453605765,[0.85560218],5.0,0.6,0.0,-0.06884658444638549,1.8256723696369586,0.49999647427660543
2.302107334136963,0.5447716222618366,[0.86426729],5.0,0.6,0.0,-0.08697650374913427,1.9183798888254837,0.4999943700674231
2.3126072883605957,0.5490703940300434,[0.87293286],5.0,0.6,0.0,-0.09711216653663757,1.9394055499992995,0.499992980552523
2.3205833435058594,0.5520013747810935,[0.88160542],5.0,0.6,0.0,-0.10158255679805654,1.9179853080991607,0.4999923189443386
2.3301093578338623,0.5559093491158269,[0.89026085],5.0,0.6,0.0,-0.10216036447494999,1.9554672728027807,0.4999922311404576
2.340303897857666,0.5600127221672969,[0.89889405],5.0,0.6,0.0,-0.10014905272723376,1.9884296500529814,0.49999253394883514
2.348116874694824,0.5633345003518203,[0.90750114],5.0,0.6,0.0,-0.09648440512419909,1.9728424809320426,0.4999930702959477
2.358067274093628,0.5674378734032904,[0.9160645],5.0,0.6,0.0,-0.09182585355878153,2.014957063190522,0.49999372329123865
2.3685083389282227,0.5715412464547605,[0.92460011],5.0,0.6,0.0,-0.08663047947226046,2.1015547000209946,0.4999944134392278
2.377211809158325,0.5750584233560204,[0.93313718],5.0,0.6,0.0,-0.08120980385667612,2.072920554208556,0.49999509068587916
2.3874199390411377,0.5791617964074907,[0.94167059],5.0,0.6,0.0,-0.0757719918694475,2.1066572336728404,0.49999572612480503
2.3960607051849365,0.5828743720254873,[0.95019644],5.0,0.6,0.0,-0.07045258234568627,2.1396266553155434,0.4999963051341171
2.404106378555298,0.5861961502100108,[0.95869653],5.0,0.6,0.0,-0.06533655523644127,2.1655889920398574,0.4999968222652688
2.4150843620300293,0.5906903206949541,[0.96715622],5.0,0.6,0.0,-0.0604740237527097,2.2930395505482615,0.49999727765509255
2.4250710010528564,0.5945982950296876,[0.97562509],5.0,0.6,0.0,-0.05589131055723327,2.2917831774376807,0.4999976746185374
2.4333364963531494,0.5977246744974742,[0.9841299],5.0,0.6,0.0,-0.05159871863098209,2.250299247334985,0.4999980180913889
2.441366672515869,0.6006556552485243,[0.99264727],5.0,0.6,0.0,-0.047595953595894025,2.2809179873905183,0.49999831365668146
2.450065851211548,0.6043682308665211,[1.00117301],5.0,0.6,0.0,-0.043875886733229806,2.307790717488985,0.49999856696149464
2.4599108695983887,0.6084716039179912,[1.00971922],5.0,0.6,0.0,-0.04042715074519354,2.332241988126635,0.4999987833871169
2.4680497646331787,0.6115979833857779,[1.01828068],5.0,0.6,0.0,-0.037235917327595375,2.3097628700833357,0.49999896787965215
2.4771125316619873,0.6157013564372479,[1.0268531],5.0,0.6,0.0,-0.03428710307907412,2.400113767662497,0.4999991248794537
2.4860477447509766,0.6194139320552446,[1.03544856],5.0,0.6,0.0,-0.03156517727329908,2.370199073863099,0.49999925830932623
2.4944705963134766,0.622735710239768,[1.04404592],5.0,0.6,0.0,-0.02905469332185271,2.3575692557469754,0.49999937159592356
2.5050675868988037,0.6268390832912382,[1.05262751],5.0,0.6,0.0,-0.026740629278459358,2.4563557825690507,0.49999946770830483
2.516094446182251,0.6313332537761815,[1.06122584],5.0,0.6,0.0,-0.02460859706232902,2.4798751298258477,0.4999995492038587
2.5240478515625,0.6344596332439683,[1.06985261],5.0,0.6,0.0,-0.02264496205094413,2.4569732751316993,0.4999996182757909
2.5333638191223145,0.6383676075787017,[1.07848615],5.0,0.6,0.0,-0.020836902047035755,2.4971071508461122,0.49999967679889623
2.5425727367401123,0.642275581913435,[1.08712397],5.0,0.6,0.0,-0.019172425771639696,2.5328878277794367,0.4999997263719052
2.55112886428833,0.6454019613812219,[1.09576401],5.0,0.6,0.0,-0.29367872451869315,2.5168839689584184,0.4999358016651753
2.562718152999878,0.6498961318661652,[1.10440459],5.0,0.6,0.0,-0.049354952009334804,2.611064948712384,0.4999981867096273
2.5710835456848145,0.6534133087674253,[1.11306019],5.0,0.6,0.0,0.04016448641317571,2.584757948243694,0.4999987991449472
2.581636667251587,0.6575166818188953,[1.12174292],5.0,0.6,0.0,-0.21369209755619367,2.6748588167826894,0.49996600861686463
2.589129686355591,0.6604476625699455,[1.13046274],5.0,0.6,0.0,-0.2512803449321708,2.6473252679873576,0.4999529994108805
2.6001501083374023,0.6651372317716254,[1.13921183],5.0,0.6,0.0,-0.20907305678446053,2.6796242483749735,0.49996746216279997
2.6100869178771973,0.6692406048230957,[1.14798332],5.0,0.6,0.0,-0.14668211426480773,2.711684713212083,0.49998398400066735
2.621877670288086,0.6739301740247756,[1.15680285],5.0,0.6,0.0,-0.08788612874489907,2.791039838772751,0.49999425030446504
2.632303237915039,0.6784243445097191,[1.16570741],5.0,0.6,0.0,-0.31640268276143174,2.802394883113603,0.4999254831264079
2.641202688217163,0.6817461226942425,[1.17469552],5.0,0.6,0.0,-0.3141805373737637,2.770203015842644,0.49992652606149607
2.6525919437408447,0.6864356918959225,[1.18373309],5.0,0.6,0.0,-0.23431257195306804,2.801540101193191,0.49995913230830696
2.661083221435547,0.6897574700804461,[1.19279063],5.0,0.6,0.0,-0.14180581504833603,2.7849426399474115,0.49998503115624837
2.6710803508758545,0.6934700456984426,[1.20184289],5.0,0.6,0.0,-0.061103981316960286,2.831784699194882,0.4999972206420362
2.6800787448883057,0.6973780200331761,[1.21088442],5.0,0.6,0.0,0.0011965665194136298,2.872086291646932,0.49999999893418856
2.692108392715454,0.7022629879515929,[1.21994236],5.0,0.6,0.0,0.04572043741038294,2.955276837326342,0.49999844393851667
2.70511531829834,0.7073433545867464,[1.22907085],5.0,0.6,0.0,0.07551203760679659,3.019290782722837,0.4999957553956904
2.71638560295105,0.7118375250716897,[1.23833016],5.0,0.6,0.0,0.09399329815091975,3.0731607170667625,0.499993423458015
2.7260966300964355,0.7157454994064231,[1.24775327],5.0,0.6,0.0,0.10419327024587427,3.0693889211592413,0.49999191867628034
2.7350900173187256,0.7194580750244197,[1.25733394],5.0,0.6,0.0,0.10853835351914809,3.075962514647759,0.4999912306112024
2.7464115619659424,0.7243430429428366,[1.26704869],5.0,0.6,0.0,0.10887013652768882,3.0838253417526404,0.49999117691671807
2.759162664413452,0.7296188082947267,[1.27689099],5.0,0.6,0.0,0.10654015644100723,3.146015630388858,0.4999915505261525
2.7671501636505127,0.7327451877625135,[1.28683777],5.0,0.6,0.0,0.10251730297691805,3.1803985350217294,0.49999217656241457
2.7770845890045166,0.7370439595307202,[1.29682143],5.0,0.6,0.0,0.09748347880766428,3.1848889116536907,0.49999292599045814
2.7850635051727295,0.7399749402817702,[1.30679939],5.0,0.6,0.0,0.09191074691792038,3.2026091601080258,0.49999371165247103
2.794713020324707,0.7438829146165036,[1.31676624],5.0,0.6,0.0,0.08612037683814497,3.220333778153876,0.49999447902067723
2.802372932434082,0.7468138953675537,[1.32671703],5.0,0.6,0.0,0.08032665305427895,3.2461314883179466,0.4999951968745173
2.8114805221557617,0.7507218697022872,[1.3366473],5.0,0.6,0.0,0.0746687370599424,3.2694115712208838,0.4999958496713873
2.820042371749878,0.7540436478868106,[1.34653793],5.0,0.6,0.0,0.06923353036814556,3.247076286799608,0.4999964318912595
2.829646587371826,0.7579516222215439,[1.35635774],5.0,0.6,0.0,0.06407192297874682,3.287389011312217,0.4999969440878488
2.839022636413574,0.7616641978395406,[1.36609604],5.0,0.6,0.0,0.059210256892957766,3.3248690888474886,0.4999973902468369
2.8480687141418457,0.7651813747408006,[1.3757595],5.0,0.6,0.0,0.05465836538045879,3.3605795357482493,0.499997776080881
2.858623504638672,0.7696755452257441,[1.38535429],5.0,0.6,0.0,0.050415180283428535,3.3892200753928097,0.49999810796788935
2.866039276123047,0.7724111272600575,[1.39487129],5.0,0.6,0.0,0.04647262165719043,3.3757797361459643,0.49999839231735654
2.8760921955108643,0.7765145003115275,[1.40428852],5.0,0.6,0.0,0.04281827943367303,3.417698715863435,0.4999986352141637
2.884495496749878,0.779836278496051,[1.41360321],5.0,0.6,0.0,0.03943724856110259,3.458486475386681,0.4999988422377419
2.893812417984009,0.783939651547521,[1.42282884],5.0,0.6,0.0,0.036313372826565604,3.491376292541132,0.4999990183889782
2.9023735523223877,0.7876522271655179,[1.4319776],5.0,0.6,0.0,0.03343007696206865,3.5234284120290744,0.49999916808095457
2.9099907875061035,0.7905832079165678,[1.4410458],5.0,0.6,0.0,0.030770913106544073,3.5087362170131287,0.4999992951655271
2.9202075004577637,0.794686580968038,[1.45001646],5.0,0.6,0.0,0.028319909933113164,3.549418762682646,0.49999940297825196
2.9300858974456787,0.7983991565860346,[1.45889108],5.0,0.6,0.0,0.02606178618309089,3.5869644372630396,0.4999994943909829
2.9383280277252197,0.8019163334872947,[1.46768674],5.0,0.6,0.0,0.023982071685670042,3.621432469540737,0.4999995718658377
2.9491682052612305,0.8064105039722381,[1.47641873],5.0,0.6,0.0,0.29810552554051856,3.648223241699931,0.4999338518050101
2.957552909851074,0.8095368834400247,[1.48510082],5.0,0.6,0.0,0.3294673173872572,3.6799743826709665,0.49991920280892005
2.9650444984436035,0.8126632629078115,[1.49374534],5.0,0.6,0.0,0.27274750580793705,3.7103752923407067,0.499944626216128
2.9740264415740967,0.8161804398090716,[1.50234862],5.0,0.6,0.0,0.19516921205571824,3.689586183941989,0.4999716458274101
2.9840288162231445,0.8202838128605418,[1.51089363],5.0,0.6,0.0,0.12327233231207238,3.727643400236723,0.49998868816690684
2.9930737018585205,0.8238009897618018,[1.51938161],5.0,0.6,0.0,0.06538600704277814,3.7640253770228798,0.4999968174522602
3.0030884742736816,0.8277089640965352,[1.52782915],5.0,0.6,0.0,0.02222485003085765,3.79508479749557,0.499999632307989
3.013066291809082,0.8318123371480053,[1.53625103],5.0,0.6,0.0,-0.008260881170320459,3.8227589138423093,0.499999949200504
3.022200345993042,0.8357203114827386,[1.54466039],5.0,0.6,0.0,-0.028773705758085313,3.849806654173378,0.49999938369171776
3.032637119293213,0.8400190832509454,[1.55306881],5.0,0.6,0.0,-0.041832533275681934,3.8738223873226656,0.4999986973299149
3.040001153945923,0.8427546652852588,[1.56147156],5.0,0.6,0.0,-0.04950800610897289,3.8555909170732736,0.49999817544586017
3.048259735107422,0.8460764434697822,[1.56985013],5.0,0.6,0.0,-0.05339760282222113,3.897343348880721,0.4999978774922976
3.0600109100341797,0.8507660126714622,[1.5782195],5.0,0.6,0.0,-0.05468835281550849,3.9778409958217242,0.49999777363998194
3.0680251121520996,0.853892392139249,[1.58660776],5.0,0.6,0.0,-0.054240771432411086,3.949031400475841,0.4999978099328076
3.0781755447387695,0.8581911639074556,[1.5950088],5.0,0.6,0.0,-0.052667598551754014,3.9801590335084307,0.4999979351295379
3.0860230922698975,0.8613175433752424,[1.60340258],5.0,0.6,0.0,-0.050398876873616466,3.9645786043323477,0.49999810919139104
3.100003242492676,0.8667887074438692,[1.61178781],5.0,0.6,0.0,-0.3237708187575862,4.050326074816372,0.4999219724100095
3.1088011264801025,0.8705012830618659,[1.62019441],5.0,0.6,0.0,-0.35403477584696924,4.074613852200393,0.49990670507883767
3.1193766593933105,0.8748000548300726,[1.62866326],5.0,0.6,0.0,-0.29601939267533234,4.146828770270365,0.49993477431132816
3.1288368701934814,0.8785126304480694,[1.63721335],5.0,0.6,0.0,0.05898960764849237,4.105969109656352,0.499997409661231
3.141045331954956,0.8832021996497494,[1.64584461],5.0,0.6,0.0,0.16543260766337986,4.181144053869478,0.49997962770020626
3.150339365005493,0.8867193765510096,[1.65455615],5.0,0.6,0.0,0.16962799428406697,4.14509235955365,0.49997858133358186
3.15999698638916,0.8904319521690063,[1.66333088],5.0,0.6,0.0,0.13806699000237563,4.177098404777407,0.49998581007086845
3.1700520515441895,0.8947307239372131,[1.67215366],5.0,0.6,0.0,0.09933221478366455,4.2050430956553955,0.4999926551365971
3.1787185668945312,0.8986386982719464,[1.68101112],5.0,0.6,0.0,0.06445510603735098,4.182339281709429,0.49999690742680936
3.189054489135742,0.9027420713234164,[1.68986056],5.0,0.6,0.0,0.036673355284537405,4.172464234402035,0.4999989988306807
3.1980085372924805,0.9062592482246766,[1.69866612],5.0,0.6,0.0,0.016014762185204288,4.22663877749248,0.4999998090816905
3.2070155143737793,0.9097764251259366,[1.70742916],5.0,0.6,0.0,0.0013827813930393524,4.272979114157912,0.49999999857664335
3.2163455486297607,0.9140751968941434,[1.71618264],5.0,0.6,0.0,0.2674932124162172,4.360828936038405,0.4999467390294514
3.2240376472473145,0.9168107789284567,[1.7249547],5.0,0.6,0.0,0.29419343992183067,4.334671688655038,0.4999355764483284
3.233738899230957,0.9209141519799268,[1.73373792],5.0,0.6,0.0,0.2352002173896865,4.369285879106938,0.49995882209673576
3.2425360679626465,0.9244313288811868,[1.74252596],5.0,0.6,0.0,0.15700001361779217,4.403718759941853,0.4999816516047538
3.2510271072387695,0.9279485057824469,[1.75132919],5.0,0.6,0.0,0.08558920043987805,4.436903293635622,0.4999945469152717
3.2619950771331787,0.9322472775506537,[1.76017236],5.0,0.6,0.0,0.02890555513185411,4.515788711328401,0.49999937803057776
3.2710862159729004,0.9357644544519137,[1.769076],5.0,0.6,0.0,-0.01261291617513293,4.479059605216227,0.4999998815765681
3.279989719390869,0.9390862326364372,[1.77802535],5.0,0.6,0.0,-0.3172466965901234,4.513674088761406,0.499925085073914
3.2900545597076416,0.9431896056879073,[1.78700762],5.0,0.6,0.0,-0.36887786822123486,4.543463094939299,0.4998987190224018
3.303065061569214,0.9484653710397973,[1.79604342],5.0,0.6,0.0,-0.32480574279537466,4.6186863517823795,0.4999214728261448
3.312392234802246,0.9521779466577941,[1.80516575],5.0,0.6,0.0,-0.25439319063450516,4.63371586555588,0.49995182777366004
3.3200466632843018,0.9553043261255808,[1.81437003],5.0,0.6,0.0,-0.18582468768792715,4.602885689888146,0.4999742959039681
3.328993558883667,0.9590169017435776,[1.82358798],5.0,0.6,0.0,-0.12864808789597235,4.62983058820765,0.49998768007692507
3.3385090827941895,0.9631202747950476,[1.8327619],5.0,0.6,0.0,-0.08445945782547934,4.718015290439165,0.4999946899214238
3.348975896835327,0.9672236478465177,[1.84189155],5.0,0.6,0.0,0.22420307945390822,4.6824659928655255,0.4999625826030343
3.361020803451538,0.9719132170481978,[1.85099343],5.0,0.6,0.0,0.2806515361392895,4.7665590221637615,0.4999413705177538
3.3707289695739746,0.9756257926661944,[1.86009806],5.0,0.6,0.0,0.24179403366951346,4.785719109080981,0.4999564809972067
3.3835294246673584,0.9809015580180845,[1.86924756],5.0,0.6,0.0,0.17672940941705675,4.852024084672896,0.4999767504671904
3.395193576812744,0.985981924653238,[1.87847715],5.0,0.6,0.0,0.11346761764551891,4.8532778164832875,0.49999041600924404
3.403897523880005,0.9893037028377615,[1.88779957],5.0,0.6,0.0,0.061444466957633004,4.869056073352019,0.49999718958136297
3.4150068759918213,0.9936024746059682,[1.89722432],5.0,0.6,0.0,0.022187223725946323,4.937349600718838,0.49999963355192767
3.424464225769043,0.9977058476574382,[1.90677366],5.0,0.6,0.0,-0.005766767775541699,4.941143831435565,0.4999999752445064
3.439300537109375,1.0033724104428017,[1.91646343],5.0,0.6,0.0,-0.02470065262139988,4.995025853512669,0.49999954582488576
3.4477548599243164,1.0070849860607984,[1.92630315],5.0,0.6,0.0,-0.036836217171922016,4.9952834167787685,0.49999898991880415
3.456306219100952,1.0107975616787952,[1.93628082],5.0,0.6,0.0,-0.044034930716670445,5.003262271691618,0.49999855655352854
3.464996099472046,1.0143147385800553,[1.9463517],5.0,0.6,0.0,-0.047747803495404154,4.968883311666259,0.4999983028792867
3.4746248722076416,1.0182227129147887,[1.95645981],5.0,0.6,0.0,-0.04905981607765346,4.9997105953286445,0.49999820833120945
3.4836270809173584,1.021544491099312,[1.96656992],5.0,0.6,0.0,-0.048760751493052285,5.031614709529891,0.4999982301083219
3.49357271194458,1.0254524654340456,[1.97666436],5.0,0.6,0.0,-0.32345297299257925,5.058712990936159,0.49992212552223375
3.500974655151367,1.028578844901832,[1.98671206],5.0,0.6,0.0,-0.3545810711717479,5.043919259396005,0.499906416965176
3.5100133419036865,1.0320960218030921,[1.99667127],5.0,0.6,0.0,-0.29711221013359157,5.083830323544149,0.49993429186556515
3.520758628845215,1.036394793571299,[2.00653131],5.0,0.6,0.0,-0.21846886530307658,5.156135496471727,0.4999644720334449
3.5309953689575195,1.040498166622769,[2.01630663],5.0,0.6,0.0,-0.14532794582560965,5.16935825540755,0.49998427835022874
3.5419373512268066,1.0447969383909759,[2.02599359],5.0,0.6,0.0,-0.08611164666260898,5.183784430772703,0.4999944801399573
3.5502099990844727,1.048314115292236,[2.03556291],5.0,0.6,0.0,-0.041596832321888544,5.164590928957195,0.49999871196805273
3.5615155696868896,1.053003684493916,[2.04498768],5.0,0.6,0.0,-0.009774548830889858,5.223940496450383,0.4999999288786346
3.5706679821014404,1.056520861395176,[2.0542553],5.0,0.6,0.0,0.01203180044925593,5.204984047521386,0.49999989223744756
3.5799779891967773,1.0604288357299092,[2.063344],5.0,0.6,0.0,0.026325430944821752,5.22939187531753,0.4999994841096196
3.5879769325256348,1.0637506139144328,[2.07222472],5.0,0.6,0.0,0.035168271026360665,5.316928004808431,0.49999907932084414
3.600029468536377,1.0686355818328495,[2.080883],5.0,0.6,0.0,0.04015379772665763,5.277770389451699,0.4999987997840113
3.6100013256073,1.0727389548843196,[2.08932562],5.0,0.6,0.0,0.04246817387249828,5.289788519780185,0.4999986574413538
3.620016574859619,1.0770377266525264,[2.09755796],5.0,0.6,0.0,-0.2330652696930787,5.333359592319707,0.49995956622983084
3.6297595500946045,1.0809457009872598,[2.10557468],5.0,0.6,0.0,-0.26687921401327264,5.37730110167545,0.4999469832441498
3.640021562576294,1.084853675321993,[2.11337071],5.0,0.6,0.0,-0.21323227958744703,5.416537014376149,0.4999661547383591
3.649380683898926,1.0883708522232534,[2.12094878],5.0,0.6,0.0,-0.13905707239128057,5.399586514355516,0.4999856058313238
3.657097578048706,1.09149723169104,[2.12831154],5.0,0.6,0.0,-0.07069636586164738,5.486224131616341,0.4999962795177356
3.665017604827881,1.0946236111588266,[2.13544671],5.0,0.6,0.0,-0.0163481063969284,5.5099882083348986,0.49999980105111935
3.6769869327545166,1.09970397779398,[2.1423439],5.0,0.6,0.0,0.023358153091414816,5.520581702943119,0.4999995938527659
3.685007333755493,1.1028303572617668,[2.148996],5.0,0.6,0.0,0.05052520144743605,5.525406580101093,0.49999809970092235
3.695005178451538,1.106933730313237,[2.15539204],5.0,0.6,0.0,0.06788658221385976,5.537481012714221,0.49999656937637293
3.7050106525421143,1.1108417046479702,[2.16153043],5.0,0.6,0.0,0.07797723668415292,5.54722835894106,0.49999547373068326
3.7150115966796875,1.1149450776994405,[2.16741729],5.0,0.6,0.0,0.08287376609760314,5.553184050442382,0.4999948874377904
3.7250072956085205,1.1190484507509104,[2.17305889],5.0,0.6,0.0,0.08417296146105975,5.556467859873163,0.4999947258849498
3.7360100746154785,1.1237380199525906,[2.1784616],5.0,0.6,0.0,0.08305689260371238,5.554361830380376,0.49999486481844296
3.745009660720825,1.1274505955705874,[2.18363189],5.0,0.6,0.0,0.08037847903899756,5.5548454149005355,0.4999951906746869
3.758197546005249,1.1327263609224774,[2.18858067],5.0,0.6,0.0,0.0767413473073449,5.5666394215104145,0.4999956160700033
3.76699161529541,1.1364389365404741,[2.19331821],5.0,0.6,0.0,0.07256566718729074,5.534247157238845,0.49999608016886427
3.7785682678222656,1.1409331070254176,[2.19784951],5.0,0.6,0.0,0.06813916570268419,5.551866379414892,0.49999654380054126
3.7879767417907715,1.1446456826434142,[2.20217988],5.0,0.6,0.0,0.06365526503233815,5.514590497358293,0.4999969837035236
3.797421932220459,1.1481628595446745,[2.20631118],5.0,0.6,0.0,-0.2167973999075448,5.510103764838876,0.49996501357083684
3.8079750537872314,1.152461631312881,[2.21024568],5.0,0.6,0.0,-0.2541860721260772,5.50025177150459,0.4999519061784189
3.8190152645111084,1.1571512005145612,[2.21399357],5.0,0.6,0.0,0.07288430157742581,5.5132806813977195,0.4999960456696237
3.827948570251465,1.160863776132558,[2.21756487],5.0,0.6,0.0,0.1782541457665763,5.47146535583752,0.49997634757458725
3.838958978652954,1.1653579466175013,[2.22096284],5.0,0.6,0.0,-0.08596126037178518,5.460302408878837,0.49999449940290003
3.848008394241333,1.169070522235498,[2.22419136],5.0,0.6,0.0,-0.14191229514611578,5.451303440396359,0.4999850086683348
3.8581011295318604,1.1731738952869681,[2.22726063],5.0,0.6,0.0,-0.11846855819240204,5.462376703185706,0.49998955259708666
3.8679873943328857,1.1770818696217016,[2.23018021],5.0,0.6,0.0,0.20354596761357482,5.419045997778331,0.4999691597217665
3.877385139465332,1.1809898439564348,[2.23295382],5.0,0.6,0.0,0.28203661623682214,5.407660838243881,0.4999407904240452
3.88858699798584,1.1854840144413783,[2.23558792],5.0,0.6,0.0,0.26381491377386174,5.414713812386218,0.4999481936659757
3.8969709873199463,1.1890011913426384,[2.23809161],5.0,0.6,0.0,0.21474817876389524,5.374888646051417,0.49996567182266066
3.904982328414917,1.192127570810425,[2.2404688],5.0,0.6,0.0,0.16249504478055296,5.3668542517135815,0.499980344758566
3.9155468940734863,1.1962309438618952,[2.24272584],5.0,0.6,0.0,0.11719404524716548,5.37374176795359,0.49998977617691587
3.923966646194458,1.199357323329682,[2.2448733],5.0,0.6,0.0,0.08133249437507438,5.357548682446515,0.4999950758335996
3.931936025619507,1.2024837027974689,[2.24691677],5.0,0.6,0.0,0.05434815070513046,5.32281527059514,0.49999780125298704
3.941347599029541,1.2065870758489385,[2.24885766],5.0,0.6,0.0,0.3107354749217888,5.310003264519829,0.49992812842963136
3.9519734382629395,1.211081246333882,[2.25070006],5.0,0.6,0.0,0.3298876992189968,5.29406978668295,0.4999189965087179
3.963979482650757,1.2161616129690356,[2.25245015],5.0,0.6,0.0,0.265052646335061,5.274277870191956,0.49994770643464403
3.9738590717315674,1.2202649860205057,[2.25411386],5.0,0.6,0.0,0.1823117184907072,5.258665040045392,0.4999752585527745
3.983546733856201,1.2241729603552391,[2.25569685],5.0,0.6,0.0,0.10733813457765085,5.243430608590429,0.4999914234813277
3.994933605194092,1.2286671308401824,[2.25720451],5.0,0.6,0.0,0.04782255873908129,5.2248287348870575,0.4999982975610202
4.004968166351318,1.2327705038916528,[2.25864192],5.0,0.6,0.0,-0.2720198094737209,5.207971318851983,0.49994492128264756
4.016735792160034,1.2374600730933325,[2.26001538],5.0,0.6,0.0,-0.33561475747826897,5.2035549533365595,0.4999161597895529
4.025339841842651,1.2411726487113293,[2.26133066],5.0,0.6,0.0,-0.3005876189652026,5.1678623298085204,0.49993274576421737
4.036837816238403,1.245666819196273,[2.26259004],5.0,0.6,0.0,0.03918608619531197,5.149431836588203,0.4999988569375512
4.0479607582092285,1.2499655909644793,[2.26379582],5.0,0.6,0.0,-0.14001577055583297,5.131737554984919,0.49998540667524877
4.055984258651733,1.253287369149003,[2.26495182],5.0,0.6,0.0,-0.1745608565345116,5.118604334673601,0.499977317519156
4.065981149673462,1.257390742200473,[2.26606158],5.0,0.6,0.0,-0.15386816571001968,5.101097124439302,0.49998237632098047
4.078567266464233,1.2622757101188897,[2.26712964],5.0,0.6,0.0,-0.11747410402314337,5.092718759630911,0.49998972725526447
4.0869386196136475,1.2655974883034131,[2.26816006],5.0,0.6,0.0,0.19450897628789177,5.061254036511724,0.4999718373355665
4.098726987838745,1.2702870575050933,[2.26915517],5.0,0.6,0.0,-0.01845589173589171,5.053990375590009,0.49999974644239964
4.109951496124268,1.2751720254235102,[2.27011824],5.0,0.6,0.0,-0.08373084381959398,5.028788567199815,0.4999947811436292
4.119994163513184,1.2792753984749798,[2.27105224],5.0,0.6,0.0,0.18799572772985823,5.008041952156332,0.49997369179548345
4.128360033035278,1.2825971766595035,[2.27195857],5.0,0.6,0.0,0.2383144328834054,4.9919108300956045,0.4999577244754719
4.1403937339782715,1.2872867458611836,[2.27283963],5.0,0.6,0.0,0.2049194778836431,4.9809109497885204,0.4999687421155647
4.149999618530273,1.2909993214791804,[2.27369754],5.0,0.6,0.0,0.14845473202987958,4.948940093790307,0.4999835945691252
4.158907651901245,1.2947118970971772,[2.27453208],5.0,0.6,0.0,0.09350835844902416,4.932812216340473,0.49999349114323466
4.166954517364502,1.2980336752817005,[2.27534215],5.0,0.6,0.0,0.048368611418949395,4.907833835863453,0.49999825846118473
4.175978660583496,1.3015508521829606,[2.27612707],5.0,0.6,0.0,0.014382726736989471,4.895904199258665,0.49999984601122405
4.1859824657440186,1.3056542252344305,[2.27688738],5.0,0.6,0.0,-0.009726888900202223,4.879703830314703,0.49999992957050804
4.199172258377075,1.3111253893030574,[2.27762554],5.0,0.6,0.0,0.2500795634116133,4.865591470945353,0.49995344751572784
4.207970857620239,1.3146425662043173,[2.27834454],5.0,0.6,0.0,0.2729044492241418,4.847257537714618,0.49994456247534924
4.217637777328491,1.3185505405390507,[2.27904509],5.0,0.6,0.0,0.21180968892877303,4.818287531011641,0.4999666048178661
4.2259840965271,1.3220677174403108,[2.27972523],5.0,0.6,0.0,0.1327590907756896,4.79530279958386,0.4999868801304709
4.23497748374939,1.325975691775044,[2.28038354],5.0,0.6,0.0,0.06135321739219611,4.781680288277223,0.4999971979224993
4.243954181671143,1.3296882673930412,[2.28102069],5.0,0.6,0.0,0.005239822718598096,4.767801271280857,0.4999999795619314
4.251945972442627,1.3328146468608277,[2.28163824],5.0,0.6,0.0,-0.03535072669493976,4.756010564164642,0.49999906974296476
4.2599546909332275,1.3361364250453511,[2.28223767],5.0,0.6,0.0,-0.06280650682591687,4.742903496472788,0.49999706360362656
4.2696850299835205,1.3396536019466112,[2.28282035],5.0,0.6,0.0,-0.08006261494105274,4.727928816521431,0.49999522839874405
4.278990030288696,1.3433661775646077,[2.28338751],5.0,0.6,0.0,-0.08979501674596924,4.711573045169613,0.49999399782656756
4.287929534912109,1.346883354465868,[2.2839395],5.0,0.6,0.0,-0.09417808857513264,4.687946137952456,0.4999933975738595
4.2969677448272705,1.350400531367128,[2.28447597],5.0,0.6,0.0,-0.09487575544158439,4.6748764301995,0.49999329939126413
4.304979085922241,1.3535269108349148,[2.28499752],5.0,0.6,0.0,-0.09311565614018133,4.662747467030454,0.49999354569791654
4.315173864364624,1.3576302838863845,[2.28550613],5.0,0.6,0.0,-0.3658195468049432,4.652787236875106,0.49990039131034675
4.323951959609985,1.3615382582211184,[2.28600353],5.0,0.6,0.0,-0.3946589087722397,4.625920245362261,0.49988406885006886
4.33362603187561,1.365250833839115,[2.28648981],5.0,0.6,0.0,-0.05872014714109941,4.6099900431078,0.49999743327210233
4.342956781387329,1.3691588081738484,[2.28696512],5.0,0.6,0.0,0.05551508766573769,4.592445585250565,0.49999770581868186
4.3536717891693115,1.3732621812253185,[2.28743025],5.0,0.6,0.0,0.07599091116989456,4.574057486212506,0.4999957013893297
4.36334228515625,1.3773655542767886,[2.28788593],5.0,0.6,0.0,0.06147390683474986,4.55494474569535,0.4999971868876145
4.371933221817017,1.3808827311780487,[2.28833214],5.0,0.6,0.0,0.037709755877027185,4.532391505182408,0.4999989414444404
4.382713556289673,1.385376901662992,[2.28876892],5.0,0.6,0.0,0.015030695318317355,4.5201157360823165,0.49999983182371865
4.391920328140259,1.3892848759977254,[2.289197],5.0,0.6,0.0,-0.0031703129696685206,4.494881646815514,0.4999999925181164
4.402015447616577,1.392997451615722,[2.28961636],5.0,0.6,0.0,-0.01643315309604799,4.478987519078376,0.49999979897577773
4.410961866378784,1.3967100272337187,[2.29002703],5.0,0.6,0.0,-0.025388765613285506,4.46297143689135,0.49999952016752297
4.418937683105469,1.4000318054182421,[2.29042963],5.0,0.6,0.0,-0.030951219274684763,4.4481258441485085,0.49999928688119377
4.427419662475586,1.4031581848860288,[2.29082473],5.0,0.6,0.0,-0.033992794957648634,4.434453880689356,0.49999913983839894
4.437392711639404,1.4074569566542359,[2.29121281],5.0,0.6,0.0,-0.03523683501221145,4.414379938225641,0.4999990757274398
4.446932315826416,1.4113649309889693,[2.29159378],5.0,0.6,0.0,-0.03524285896394899,4.390594157598161,0.49999907541139305
4.455956220626831,1.4152729053237025,[2.29196703],5.0,0.6,0.0,-0.03442618287216925,4.373969525495546,0.499999117765504
4.4659600257873535,1.4193762783751724,[2.2923326],5.0,0.6,0.0,-0.03308665162931913,4.355780945928345,0.4999991850856622
4.474825620651245,1.4226980565596958,[2.29269105],5.0,0.6,0.0,-0.03143623214444397,4.341419254671114,0.49999926435662145
4.484966278076172,1.4266060308944293,[2.29304291],5.0,0.6,0.0,-0.029622051562049716,4.323429194745216,0.49999934681431424
4.49493670463562,1.4307094039458996,[2.29338864],5.0,0.6,0.0,-0.027744369598088,4.304588710297281,0.4999994269979851
4.505998611450195,1.435203574430843,[2.29372861],5.0,0.6,0.0,-0.0258700673273305,4.283285430381863,0.49999950180246205
4.517264366149902,1.4396977449157864,[2.29406359],5.0,0.6,0.0,-0.024042529941230777,4.267232946003947,0.49999956970448484
4.526955842971802,1.4438011179672565,[2.29439425],5.0,0.6,0.0,-0.29832713227081475,4.241366921170352,0.4999337534280192
4.53699254989624,1.4477090923019897,[2.29472016],5.0,0.6,0.0,-0.3297874838802817,4.223098527153152,0.4999190457127482
4.546947717666626,1.4516170666367234,[2.29504095],5.0,0.6,0.0,0.002914849533274172,4.204929595382146,0.49999999367531417
4.555393695831299,1.4551342435379833,[2.29535679],5.0,0.6,0.0,0.11359078630252874,4.1883922970850955,0.4999903951913819
4.565414190292358,1.4590422178727167,[2.29566779],5.0,0.6,0.0,0.13038270593053958,4.169798053161263,0.4999873456116131
4.573937892913818,1.4623639960572403,[2.29597361],5.0,0.6,0.0,-0.16384944484020833,4.149732416067166,0.49998001574583134
4.583924293518066,1.4664673691087102,[2.29627357],5.0,0.6,0.0,-0.22432268461601557,4.131882573690977,0.49996254267191576
4.59494423866272,1.4711569383103904,[2.29656757],5.0,0.6,0.0,-0.19534376727875957,4.110457420164947,0.4999715950874238
4.604946851730347,1.475455710078597,[2.29685596],5.0,0.6,0.0,-0.14072312443770751,4.090461517785686,0.4999852588552267
4.615747690200806,1.4797544818468038,[2.29713938],5.0,0.6,0.0,-0.08653509063104387,4.074610873594599,0.4999944257202522
4.625971078872681,1.483857854898274,[2.2974184],5.0,0.6,0.0,-0.0417436622691402,4.0497765936268255,0.499998702858936
4.634981393814087,1.487375031799534,[2.29769275],5.0,0.6,0.0,-0.007987388302027863,4.033608819792915,0.49999995250846024
4.646245956420898,1.4918692022844773,[2.29796253],5.0,0.6,0.0,0.015897722555851354,4.016478437006214,0.49999981186204434
4.655297517776489,1.4953863791857371,[2.29822863],5.0,0.6,0.0,-0.24416298451970306,3.998827150098187,0.4999556241124635
4.664931535720825,1.4994897522372075,[2.29849134],5.0,0.6,0.0,-0.26727439513265466,3.978455529007242,0.4999468261272471
4.674346923828125,1.503202327855204,[2.29875057],5.0,0.6,0.0,-0.20648967152651232,3.960456371756665,0.4999682612690462
4.682961463928223,1.5065241060397276,[2.29900627],5.0,0.6,0.0,-0.12776161412873044,3.944225705946345,0.4999878492753789
4.692960023880005,1.5106274790911975,[2.29925835],5.0,0.6,0.0,-0.0566809947860247,3.9241371368037608,0.49999760844394703
4.70246696472168,1.5141446559924576,[2.29950671],5.0,0.6,0.0,-0.0008879962348116166,3.9071837781652143,0.49999999941301243
4.71004319190979,1.517466434176981,[2.29975096],5.0,0.6,0.0,0.0393923746517079,3.8877230341055484,0.4999988448709733
4.7178895473480225,1.5209836110782413,[2.29999051],5.0,0.6,0.0,0.06655170046590018,3.8720855242194063,0.4999967029650056
4.727967023849487,1.525086984129711,[2.3002252],5.0,0.6,0.0,0.08352715745648917,3.8530707648605493,0.499994806503732
4.73722243309021,1.5291903571811813,[2.30045525],5.0,0.6,0.0,0.09299574596820484,3.833775584509276,0.4999935623102287
4.745965957641602,1.5323167366489678,[2.30068054],5.0,0.6,0.0,0.09713214206091543,3.815944798132054,0.4999929768885879
4.754923105239868,1.5362247109837017,[2.30090072],5.0,0.6,0.0,0.09760007123225711,3.798449086132064,0.49999290905911126
4.762959003448486,1.5393510904514882,[2.30111583],5.0,0.6,0.0,0.0956266466576493,3.784459804212222,0.4999931929087518
4.77175498008728,1.5426728686360116,[2.30132594],5.0,0.6,0.0,0.09209453708613946,3.7658990062579214,0.49999368647838155
4.783493518829346,1.5475578365544282,[2.30153113],5.0,0.6,0.0,0.08762649731916364,3.746762796430516,0.4999942842253613
4.794974088668823,1.5520520070393715,[2.30173205],5.0,0.6,0.0,0.08265449761714996,3.7249533554675596,0.4999949144556296
4.804912328720093,1.5561553800908419,[2.30192932],5.0,0.6,0.0,0.07747304878808081,3.705296510606459,0.49999553207340813
4.815348148345947,1.5600633544255753,[2.30212345],5.0,0.6,0.0,0.07227895603206272,3.689432899002543,0.49999611108251196
4.826396465301514,1.5647529236272555,[2.30231519],5.0,0.6,0.0,0.06720032208287906,3.665850597723761,0.49999663838537445
4.834060430526733,1.5676839043783053,[2.30250461],5.0,0.6,0.0,0.062317402454909715,3.648137037504407,0.49999710915966944
4.843235015869141,1.5715918787130385,[2.30269123],5.0,0.6,0.0,0.05767744873816004,3.629806051072602,0.49999752361774336
4.853731632232666,1.5756952517645089,[2.30287492],5.0,0.6,0.0,0.05330519186610096,3.6102540678848416,0.49999788483243335
4.862900733947754,1.5794078273825054,[2.30305587],5.0,0.6,0.0,0.04921019988141684,3.592481531138537,0.499998197330335
4.871968030929565,1.5833158017172388,[2.3032342],5.0,0.6,0.0,0.04539201326894718,3.573732764651417,0.49999846621353833
4.88292121887207,1.5878099722021823,[2.30341006],5.0,0.6,0.0,0.04184370928348574,3.5519995298845592,0.49999869663377844
4.892265319824219,1.5919133452536525,[2.30358354],5.0,0.6,0.0,0.31459272042830666,3.5319969571842926,0.49992633316383395
4.903913974761963,1.596407515738596,[2.30375476],5.0,0.6,0.0,0.34467368260390296,3.510106311507875,0.4999115730760326
4.915842294692993,1.6007062875068025,[2.30392404],5.0,0.6,0.0,0.010725706328082368,3.491981037311092,0.4999999143635922
4.9249279499053955,1.6048096605582727,[2.30409166],5.0,0.6,0.0,0.17495853824470742,3.4685465336006214,0.49997721405406936
4.933255195617676,1.6079360400260594,[2.30425734],5.0,0.6,0.0,0.1902634901975182,3.4535299463295277,0.49997305328118063
4.9425694942474365,1.6116486156440561,[2.30442086],5.0,0.6,0.0,0.1524225620485766,3.4357849258123823,0.4999827059114156
4.955450534820557,1.6169243809959462,[2.30458253],5.0,0.6,0.0,0.10282936611064661,3.4127283628602423,0.4999921288611396
4.964912414550781,1.6208323553306796,[2.30474258],5.0,0.6,0.0,0.05764069477952466,3.3904654512500323,0.4999975267727937
4.974292516708374,1.6243495322319397,[2.30490076],5.0,0.6,0.0,0.02176443958734715,3.373655869688609,0.49999964738441766
4.985954999923706,1.6290391014336199,[2.30505685],5.0,0.6,0.0,-0.0045579023966846755,3.351041741965381,0.4999999845354705
4.994937419891357,1.6327516770516164,[2.3052109],5.0,0.6,0.0,-0.0227479445219307,3.333163503056264,0.49999961479596394
5.006235361099243,1.63724584753656,[2.30536317],5.0,0.6,0.0,-0.31062866243320764,3.3137972392672554,0.49992817782798593
5.016926288604736,1.6417400180215034,[2.30551408],5.0,0.6,0.0,-0.35088653791654556,3.2913450560019712,0.4999083567916564
5.026840925216675,1.6456479923562366,[2.30566378],5.0,0.6,0.0,-0.023511863662707883,3.2717807077965633,0.4999995884897984
5.035195350646973,1.6487743718240233,[2.30581196],5.0,0.6,0.0,-0.19175527349501265,3.254117056413769,0.4999726290783912
5.044905424118042,1.6526823461587568,[2.30595817],5.0,0.6,0.0,-0.20928203557437733,3.2356354382501284,0.4999673970860802
5.0539023876190186,1.6563949217767535,[2.30610221],5.0,0.6,0.0,-0.1724365678553469,3.217979755513333,0.49997786620909557
5.063440799713135,1.6604982948282236,[2.30624417],5.0,0.6,0.0,0.15302371748507834,3.198119428727902,0.49998256922882145
5.073938369750977,1.6646016678796938,[2.30638411],5.0,0.6,0.0,0.23170587559654104,3.178221458794603,0.49996003650959864
5.085512161254883,1.6690958383646373,[2.3065221],5.0,0.6,0.0,-0.06284296348682827,3.156462043854179,0.4999970601937263
5.093409299850464,1.6724176165491607,[2.3066582],5.0,0.6,0.0,-0.14481542900054162,3.140578505711793,0.49998438904162174
5.104556083679199,1.676911787034104,[2.30679248],5.0,0.6,0.0,0.13501261104943274,3.118505415271594,0.49998643094962086
5.111893892288208,1.6798427677851542,[2.30692501],5.0,0.6,0.0,0.20051457527019306,3.1043460197615618,0.4999700714572879
5.121676445007324,1.6837507421198874,[2.30705585],5.0,0.6,0.0,0.18215199496868645,3.085384449679451,0.49997530188473893
5.131025314331055,1.6872679190211477,[2.30718491],5.0,0.6,0.0,0.13808809764874846,3.066303156987143,0.4999858057318929
5.140873432159424,1.6909804946391442,[2.30731208],5.0,0.6,0.0,0.09246345956786553,3.050770384098162,0.4999936357945827
5.148967981338501,1.6946930702571408,[2.30743748],5.0,0.6,0.0,0.05389538268251166,3.030589594267878,0.4999978377353104
5.162030935287476,1.699968835609031,[2.30756121],5.0,0.6,0.0,0.30031906819678844,3.007064786469582,0.49993286587493
5.169918775558472,1.7030952150768177,[2.30768339],5.0,0.6,0.0,0.3120474124590523,2.9896068070392303,0.4999275203032994
5.18018102645874,1.7073939868450245,[2.30780413],5.0,0.6,0.0,0.2422309024787926,2.971000120231157,0.4999563236034213
5.189241647720337,1.7111065624630215,[2.30792372],5.0,0.6,0.0,0.15651531549891756,2.9526642076393337,0.4999817647199365
5.197669506072998,1.7144283406475447,[2.30804223],5.0,0.6,0.0,0.08008800346541228,2.9343836978570006,0.49999522537204943
5.206920862197876,1.7179455175488048,[2.3081594],5.0,0.6,0.0,0.020211649209399232,2.917785896148203,0.49999969590446225
5.217557907104492,1.7226350867504847,[2.30827515],5.0,0.6,0.0,-0.023201329124188465,2.8951521167350864,0.4999995992881082
5.226618766784668,1.7263476623684817,[2.30838964],5.0,0.6,0.0,-0.05278621857782319,2.8772961303489875,0.4999979258179189
5.234254360198975,1.7294740418362682,[2.30850282],5.0,0.6,0.0,-0.0716638997930153,2.8602879712569966,0.49999617698598003
5.2428929805755615,1.7326004213040551,[2.30861447],5.0,0.6,0.0,-0.0826471337269995,2.845947289659804,0.49999491536175167
5.253498315811157,1.7368991930722617,[2.30872465],5.0,0.6,0.0,-0.08800977558428047,2.8256055320816094,0.49999423411470467
5.260918855667114,1.7394393763898388,[2.30883358],5.0,0.6,0.0,-0.36552592721160465,2.8137427775882182,0.499900551129133
5.268921375274658,1.7429565532910987,[2.3089413],5.0,0.6,0.0,-0.3975227693705754,2.795198475105851,0.49988238042457217
5.27933406829834,1.7470599263425688,[2.30904784],5.0,0.6,0.0,-0.3396127206379618,2.7780736013856955,0.49991415059556876
5.286917209625244,1.7499909070936184,[2.30915347],5.0,0.6,0.0,-0.25968020964985894,2.7617834630317146,0.4999498047546773
5.294916868209839,1.753508083994879,[2.30925782],5.0,0.6,0.0,-0.18472748038741982,2.7447377636310546,0.4999745985413193
5.303888320922852,1.7572206596128757,[2.30936028],5.0,0.6,0.0,-0.12340252963590549,2.7272523844164125,0.4999886642599779
5.31727147102356,1.7632780198317124,[2.30946124],5.0,0.6,0.0,-0.07663663385194586,2.701927115425771,0.4999956280255209
5.327915191650391,1.7665997980162358,[2.30956177],5.0,0.6,0.0,-0.04252463436040106,2.6849942022668776,0.4999986538691822
5.340002536773682,1.7714847659346524,[2.30966247],5.0,0.6,0.0,-0.01845817376602594,2.660441196349965,0.4999997463796921
5.349883556365967,1.7751973415526492,[2.30976346],5.0,0.6,0.0,-0.001977506124281714,2.6420482315577227,0.49999999708899906
5.358998537063599,1.7791053158873826,[2.30986486],5.0,0.6,0.0,0.008952939408288651,2.6226795373767526,0.4999999403324865
5.367919921875,1.7826224927886425,[2.30996676],5.0,0.6,0.0,0.2919503531763236,2.6053230136418075,0.4999365550396923
5.377683401107788,1.7869212645568493,[2.31006925],5.0,0.6,0.0,0.32924205818346586,2.5840192766544288,0.49991931324549466
5.387441635131836,1.7906338401748463,[2.31017237],5.0,0.6,0.0,0.2763801963200087,2.565977671887919,0.4999431414444196
5.394880533218384,1.7937602196426328,[2.310276],5.0,0.6,0.0,0.20121607732242203,2.5487011986040886,0.49996986168674407
5.406480073928833,1.7986451875610496,[2.31038002],5.0,0.6,0.0,0.13073722120931475,2.527489937186327,0.4999872767034574
5.413901090621948,1.801185370878626,[2.31048452],5.0,0.6,0.0,0.07358915575197833,2.5130735962294395,0.4999959688165191
5.423328399658203,1.8048979464966233,[2.31058921],5.0,0.6,0.0,0.030708667453697065,2.4934661650714007,0.4999992980142223
5.433123826980591,1.8091967182648299,[2.31069366],5.0,0.6,0.0,0.00020112776782391616,2.473528887650426,0.49999999996988725
5.44266152381897,1.8133000913163,[2.31079788],5.0,0.6,0.0,-0.02052830345772506,2.454214452582699,0.49999968630134467
5.453347206115723,1.8177942618012435,[2.31090208],5.0,0.6,0.0,-0.033924252184656126,2.4328016066032996,0.4999991433037433
5.463930368423462,1.8217022361359765,[2.31100643],5.0,0.6,0.0,-0.042006498262792666,2.4141851306541118,0.49999868647281986
5.471893787384033,1.8250240143205,[2.31111091],5.0,0.6,0.0,-0.3223763870326343,2.3964329024750497,0.4999226430167479
5.480868577957153,1.8283457925050235,[2.31121532],5.0,0.6,0.0,-0.3572457415599371,2.3811455062222184,0.49990500526454823
5.489872694015503,1.832253766839757,[2.31131964],5.0,0.6,0.0,-0.30215179780214896,2.362914418028024,0.49993204404406416
5.498862981796265,1.8355755450242803,[2.31142412],5.0,0.6,0.0,-0.22493169973692217,2.3473228149383387,0.4999623390172096
5.507895231246948,1.8390927219255402,[2.31152894],5.0,0.6,0.0,-0.15255961822026348,2.33058190625213,0.49998267479678127
5.517351150512695,1.8430006962602736,[2.31163448],5.0,0.6,0.0,-0.09366857810177905,2.3141009225473788,0.4999934688193827
5.526198148727417,1.8467132718782704,[2.31174103],5.0,0.6,0.0,-0.04918370799880071,2.293376129432608,0.49999819927071215
5.53496527671814,1.8504258474962672,[2.31184824],5.0,0.6,0.0,-0.017199545464395616,2.27339070623937,0.4999997797882342
5.543653726577759,1.8539430243975272,[2.3119556],5.0,0.6,0.0,0.004888792896948012,2.257264584391617,0.49999998220860725
5.553355932235718,1.8578509987322607,[2.31206307],5.0,0.6,0.0,0.019535226071137182,2.238872295317016,0.49999971591818443
5.5618205070495605,1.861172776916784,[2.31217083],5.0,0.6,0.0,0.02876812075921293,2.223305018435237,0.49999938393094623
5.570919990539551,1.8648853525347808,[2.31227884],5.0,0.6,0.0,0.03415838861481532,2.2034296852712454,0.4999991314375529
5.583000421524048,1.870161117886671,[2.31238706],5.0,0.6,0.0,0.03687727907441903,2.180811147545567,0.499998987665645
5.59194540977478,1.8736782947879311,[2.31249587],5.0,0.6,0.0,0.03777686947638004,2.1636034209961115,0.49999893767318193
5.600963115692139,1.8773908704059277,[2.31260535],5.0,0.6,0.0,0.03746640064959102,2.143205601454337,0.4999989550628553
5.609424829483032,1.880908047307188,[2.31271513],5.0,0.6,0.0,-0.2396626746581472,2.1269883214886116,0.4999572448031918
5.617934226989746,1.8842298254917114,[2.31282514],5.0,0.6,0.0,-0.27435850516973653,2.1115250347505685,0.4999439701839447
5.626605987548828,1.887747002392971,[2.31293551],5.0,0.6,0.0,-0.2211063209977005,2.0950097393123115,0.49996360906725307
5.635167837142944,1.8910687805774946,[2.31304638],5.0,0.6,0.0,-0.1469995152383015,2.07901349656107,0.4999839146137222
5.643904209136963,1.894390558762018,[2.31315762],5.0,0.6,0.0,-0.07849382023918455,2.0610790998411486,0.4999954135610581
5.652176380157471,1.8979077356632779,[2.31326895],5.0,0.6,0.0,-0.02386583911185692,2.0447536380930673,0.49999957600580824
5.661336660385132,1.9016203112812748,[2.31338029],5.0,0.6,0.0,0.01620059180391106,2.027304759430459,0.4999998046252905
5.669911861419678,1.9049420894657982,[2.31349159],5.0,0.6,0.0,0.043771174575967436,2.0092689470219054,0.4999985737933515
5.677886724472046,1.908068468933585,[2.31360258],5.0,0.6,0.0,0.061554429424082936,1.9951052628829722,0.4999971795132126
5.687872409820557,1.9121718419850549,[2.31371325],5.0,0.6,0.0,0.07206869310642527,1.9758596092939695,0.4999961336756167
5.696868419647217,1.9158844176030516,[2.31382381],5.0,0.6,0.0,0.0773798072165498,1.958367039357301,0.49999554282152336
5.705933094024658,1.9195969932210482,[2.31393424],5.0,0.6,0.0,0.07907783779687791,1.938461641169561,0.4999953450585493
5.714842796325684,1.923504967555782,[2.31404431],5.0,0.6,0.0,0.07834089561672014,1.9201996655900688,0.4999954314145708
5.726569414138794,1.9283899354741985,[2.31415421],5.0,0.6,0.0,0.07601982047463178,1.8991243682952292,0.49999569811819
5.734938621520996,1.9315163149419852,[2.31426427],5.0,0.6,0.0,0.07271742095004638,1.8814726564596962,0.4999960637571932
5.743850469589233,1.9352288905599822,[2.31437441],5.0,0.6,0.0,0.06885388183252096,1.8640116840036653,0.4999964709162716
5.753509998321533,1.939332263611452,[2.31448453],5.0,0.6,0.0,0.06471748161642842,1.844385803017038,0.4999968821985388
5.762373208999634,1.9426540417959755,[2.31459479],5.0,0.6,0.0,0.06050252638828764,1.828632302567754,0.4999972750887757
5.7709410190582275,1.9459758199804988,[2.31470531],5.0,0.6,0.0,-0.2197012720557317,1.8129025840123147,0.49996407008457694
5.779835224151611,1.9492975981650225,[2.31481619],5.0,0.6,0.0,-0.25685998136760513,1.7970521674655622,0.49995088906332824
5.790268659591675,1.9535963699332293,[2.31492748],5.0,0.6,0.0,-0.20561569743317365,1.7761020517784507,0.499968529366972
5.798624038696289,1.9571135468344893,[2.31503922],5.0,0.6,0.0,-0.13317467525181587,1.7591526438577305,0.49998679787047423
5.809317111968994,1.961803116036169,[2.3151514],5.0,0.6,0.0,-0.06607400146639739,1.736258196481753,0.49999675014061207
5.816899061203003,1.9647340967872193,[2.31526386],5.0,0.6,0.0,-0.012649159866077439,1.7199959950044168,0.4999998809162613
5.825848579406738,1.9684466724052159,[2.31537622],5.0,0.6,0.0,0.026373133785002827,1.7025697271524645,0.49999948227342245
5.834937334060669,1.971963849306476,[2.31548838],5.0,0.6,0.0,0.3290654532759059,1.6858275224783703,0.4999193998320091
5.845954656600952,1.9764580197914197,[2.31560041],5.0,0.6,0.0,0.3791608352660496,1.6641182147248812,0.4998929943457248
5.856054782867432,1.9805613928428896,[2.31571239],5.0,0.6,0.0,0.33385195077955554,1.6442059140127743,0.49991703831533346
5.867934465408325,1.9854463607613064,[2.31582452],5.0,0.6,0.0,0.2624253571306867,1.622329820904243,0.49994873827646713
5.877707242965698,1.9895497338127766,[2.31593715],5.0,0.6,0.0,0.19301080963927003,1.6018370500654198,0.4999722700459568
5.888156175613403,1.9936531068642462,[2.31605019],5.0,0.6,0.0,0.1351167753182242,1.579434603747396,0.49998641094171303
5.896887302398682,1.9969748850487696,[2.31616304],5.0,0.6,0.0,0.09031081145527442,1.5615901809746175,0.4999939300892433
5.905949354171753,2.00049206195003,[2.31627513],5.0,0.6,0.0,0.057148609676232164,1.545246755181741,0.49999757100120634
5.91687798500061,2.004790833718237,[2.31638637],5.0,0.6,0.0,0.033350734310187966,1.524829920699697,0.4999991757125628
5.9273529052734375,2.0092850042031802,[2.31649702],5.0,0.6,0.0,0.2927279192355651,1.5050452010052786,0.49993622300236984
5.935837507247925,2.0129975798211768,[2.3166073],5.0,0.6,0.0,0.31445471372948164,1.4845015392044187,0.4999264076279939
5.945419549942017,2.0169055541559104,[2.3167172],5.0,0.6,0.0,0.25175653498589334,1.4674606254955773,0.4999528366911329
5.952937364578247,2.020031933623697,[2.31682667],5.0,0.6,0.0,0.17076509040125282,1.4501261034398942,0.49997831554661876
5.962945461273193,2.0239399079584306,[2.31693553],5.0,0.6,0.0,0.09722240760208684,1.431350590394799,0.49999299878147097
5.971739292144775,2.027652483576427,[2.31704362],5.0,0.6,0.0,0.03888466693845344,1.4134481832840313,0.49999892764204956
5.979896783828735,2.0309742617609507,[2.31715081],5.0,0.6,0.0,-0.0039395276346395405,1.3956018544729778,0.5000000654513608
5.992513179779053,2.0360546283961036,[2.31725697],5.0,0.6,0.0,-0.3096228487448416,1.3731455114738593,0.49992877757233395
6.000373125076294,2.0393764065806272,[2.31736229],5.0,0.6,0.0,-0.36211314372538644,1.3568888316960124,0.49990259335032733
6.009857177734375,2.043088982198624,[2.31746694],5.0,0.6,0.0,-0.3187567705212502,1.338730133501165,0.4999246593040852
6.019563436508179,2.047192355250094,[2.3175709],5.0,0.6,0.0,-0.24895039982412753,1.318545124067382,0.49995431384494854
6.028873443603516,2.0505141334346177,[2.31767416],5.0,0.6,0.0,-0.1809029355688104,1.3022543682371062,0.49997627110891246
6.038708448410034,2.054422107769351,[2.31777666],5.0,0.6,0.0,-0.12418002216947249,1.2831082069587898,0.4999894668758188
6.048522472381592,2.0587208795375576,[2.3178784],5.0,0.6,0.0,-0.08039080742553047,1.2621571345562004,0.4999966558574069
6.057723522186279,2.0622380564388174,[2.31797939],5.0,0.6,0.0,-0.048121504760968443,1.2449544092616067,0.5000003612425047
6.067585229873657,2.066146030773551,[2.31807964],5.0,0.6,0.0,0.2509230364436045,1.2256879378456826,0.4999562021274643
6.077261447906494,2.0700540051082847,[2.31817916],5.0,0.6,0.0,0.023962945834495902,1.2066503246641695,0.5000040645228977
6.084906339645386,2.0731803845760712,[2.3182778],5.0,0.6,0.0,-0.053497414674171684,1.1899296461380942,0.5000039250186797
6.094858407974243,2.077479156344278,[2.31837534],5.0,0.6,0.0,0.20857893506082947,1.1692460759154173,0.49997672526484827
6.106849670410156,2.082168725545958,[2.3184717],5.0,0.6,0.0,0.2516502921453619,1.146375496928682,0.4999669823261703
6.1158692836761475,2.085685902447218,[2.31856698],5.0,0.6,0.0,0.21299868024450466,1.129469775757566,0.49998569722986286
6.1245386600494385,2.089203079348478,[2.31866129],5.0,0.6,0.0,0.15282009442865407,1.1125394600099856,0.5000093324938185
6.13348388671875,2.0927202562497382,[2.31875475],5.0,0.6,0.0,0.09530991318409662,1.095502823278475,0.50002973354108
6.140909194946289,2.0958466357175247,[2.31884732],5.0,0.6,0.0,0.048442173689649155,1.0787487298431668,0.500046178764304
6.151422023773193,2.1001454074857318,[2.31893896],5.0,0.6,0.0,0.01332486485848286,1.059925922539281,0.5000693720292056
6.160151481628418,2.1034671856702554,[2.31902997],5.0,0.6,0.0,-0.01149641499956033,1.0438022074566373,0.5000919254594358
6.168847560882568,2.1069843625715152,[2.31912049],5.0,0.6,0.0,-0.028148373375194984,1.0249331247023454,0.5001227771574728
6.178898096084595,2.111087735622985,[2.31921031],5.0,0.6,0.0,-0.0386681576615412,1.0051945891950895,0.5001717517014352
6.1876373291015625,2.114800311240982,[2.3192994],5.0,0.6,0.0,-0.04475060498492893,0.9874021371716349,0.500231625024678
6.195863246917725,2.117926690708769,[2.31938775],5.0,0.6,0.0,-0.04771155755488788,0.9707665849819842,0.5002966350172342
6.206498384475708,2.1224208611937123,[2.31947537],5.0,0.6,0.0,-0.048532269135375145,0.9510342503327311,0.5004221114201961
6.214814901351929,2.125938038094972,[2.31956242],5.0,0.6,0.0,-0.04792550068723224,0.932198785001629,0.5005524372397354
6.225027322769165,2.130236809863179,[2.3196489],5.0,0.6,0.0,-0.04639926366681741,0.9115799942065492,0.5007635863345267
6.234821319580078,2.1339493854811757,[2.3197348],5.0,0.6,0.0,-0.04431015163600135,0.8938436557101139,0.5010030598042857
6.242939472198486,2.1370757649489627,[2.3198203],5.0,0.6,0.0,-0.04190500331808243,0.8786881201633274,0.5012555855751808
6.254826068878174,2.1417653341506426,[2.3199055],5.0,0.6,0.0,-0.03935220945633068,0.8558734419959408,0.501751221501004
6.265585899353027,2.1460641059188497,[2.31999065],5.0,0.6,0.0,-0.036764678049658314,0.8364171137487387,0.5023566468609056
6.274848937988281,2.1495812828201095,[2.32007597],5.0,0.6,0.0,-0.03421641598424999,0.8173647560335934,0.502985526058177
6.284855842590332,2.1534892571548427,[2.32016134],5.0,0.6,0.0,-0.03175437144728531,0.7982699738914024,0.5038637741837434
6.292825222015381,2.1566156366226297,[2.32024665],5.0,0.6,0.0,-0.029406824959201966,0.7831401411787918,0.5047237221102426
6.300812005996704,2.1601328135238895,[2.32033181],5.0,0.6,0.0,-0.027189298776017203,0.7644986953882513,0.5058997988762456
6.31209659576416,2.165017781442306,[2.32041673],5.0,0.6,0.0,-0.02510869752051935,0.742638855633584,0.5079879135719862
6.322286367416382,2.16892575577704,[2.32050166],5.0,0.6,0.0,0.25287216371867466,0.7233659950641866,0.510054107373137
6.331377744674683,2.1722475339615634,[2.3205868],5.0,0.6,0.0,0.011765359715051854,0.7070530869247841,0.512266100731709
6.341277837753296,2.17654630572977,[2.32067216],5.0,0.6,0.0,-0.07478020437381397,0.6860323718198366,0.5156902225322577
6.353885889053345,2.1814312736481867,[2.32075774],5.0,0.6,0.0,-0.0942160295808177,0.661996296137675,0.5205952748351789
6.364303112030029,2.1861208428498666,[2.32084369],5.0,0.6,0.0,0.18881923995509844,0.6403945907173649,0.5264883494017553
6.373424053192139,2.189638019751127,[2.32093011],5.0,0.6,0.0,-0.03886904945041998,0.6211405640148977,0.5318232552961647
6.380836248397827,2.1925690005021767,[2.32101667],5.0,0.6,0.0,-0.11124476157590041,0.6055046003620473,0.5368827769862886
6.392163038253784,2.19706317098712,[2.32110308],5.0,0.6,0.0,-0.11852350137448317,0.5856616727494409,0.5460785964235446
6.400133848190308,2.200189550454907,[2.32118953],5.0,0.6,0.0,0.1740025861731061,0.5702188642698748,0.5534707647128917
6.407916307449341,2.203120531205957,[2.32127604],5.0,0.6,0.0,0.22935948077940366,0.5543392681935746,0.5612504659200491
6.417042970657349,2.2070285055406904,[2.32136236],5.0,0.6,0.0,0.19507777151398945,0.5356413986563388,0.5731800183485342
6.427922964096069,2.2113272773088974,[2.32144839],5.0,0.6,0.0,-0.1399333363745317,0.5149682961090438,0.5884341657229646
6.4378790855407715,2.2156260490771036,[2.32153422],5.0,0.6,0.0,-0.23040964040570341,0.4942702079843846,0.6060673917412919
6.447849988937378,2.219729422128574,[2.3216199],5.0,0.6,0.0,-0.22219032414397094,0.47432943272392075,0.6253523128525782
6.4588634967803955,2.2236373964633076,[2.32170549],5.0,0.6,0.0,-0.18108640434793477,0.45532635532931726,0.6460746614932442
6.467542886734009,2.2271545733645675,[2.32179104],5.0,0.6,0.0,-0.13503035012292783,0.43812589840181076,0.6667443600318648
6.475824356079102,2.2306717502658273,[2.3218764],5.0,0.6,0.0,-0.09450999471311844,0.41940867383818226,0.6894381157096301
6.484824895858765,2.2343843258838243,[2.32196135],5.0,0.6,0.0,-0.06233688191304573,0.40180609026318004,0.7156797684852838
6.494831562042236,2.2382923002185575,[2.32204584],5.0,0.6,0.0,-0.0382164300823522,0.38306525169148414,0.7458741772420421
6.5045859813690186,2.242395673270028,[2.32212996],5.0,0.6,0.0,-0.020813223770668944,0.3631418013510293,0.7804072286830643
6.514899253845215,2.2463036476047615,[2.32221365],5.0,0.6,0.0,-0.008629821030092098,0.3425845759470985,0.8158569345707134
6.524127960205078,2.2502116219394943,[2.32229672],5.0,0.6,0.0,-0.00033848370774337486,0.32396833507666767,0.8537190805358892
6.534836053848267,2.2541195962742275,[2.322379],5.0,0.6,0.0,0.005128316263105952,0.3037312150431533,0.893816854229619
6.547704219818115,2.259395361626118,[2.32246051],5.0,0.6,0.0,0.008585383417280396,0.2799372859698444,0.9513813993394726
6.557809591293335,2.263303335960851,[2.32254151],5.0,0.6,0.0,0.010635449244068465,0.2607347184627417,0.9956761970841785
6.570139646530151,2.268774500029478,[2.32262235],5.0,0.6,0.0,0.011715322745496156,0.23508740675865536,1.0599440969248974
6.584473133087158,2.2744410628148417,[2.32270354],5.0,0.6,0.0,0.012137034479940589,0.2095985301638166,1.1275991638687226
6.5933754444122314,2.2781536384328382,[2.32278566],5.0,0.6,0.0,-0.2639173111965504,0.19024058244423336,1.1713392976194656
6.6008195877075195,2.2810846191838885,[2.32286862],5.0,0.6,0.0,-0.2973412542678076,0.1737789534323253,1.2051999983907058
6.612531423568726,2.2857741883855685,[2.3229521],5.0,0.6,0.0,-0.242719563465467,0.15198220049023978,1.258435738961139
6.620792627334595,2.288900567853355,[2.32303591],5.0,0.6,0.0,-0.16721266504668364,0.13463825254720915,1.2920976411028613
6.635168075561523,2.2945671306387183,[2.32312],5.0,0.6,0.0,-0.09732048849434763,0.10956559053136046,1.349538836883812
6.644923448562622,2.298670503690189,[2.32320445],5.0,0.6,0.0,-0.31738627974483247,0.08737914947475853,1.3865058998163353
6.653460741043091,2.3019922818747123,[2.32328905],5.0,0.6,0.0,-0.309159041254519,0.07090173303550576,1.4132109235201997
6.662363052368164,2.305509458775972,[2.3233735],5.0,0.6,0.0,-0.22527471400580057,0.05364177980099031,1.438131600156959
6.671322584152222,2.308635838243759,[2.32345764],5.0,0.6,0.0,-0.13026352978602274,0.03827807802345269,1.4570014621727925
6.679840803146362,2.3117622177115456,[2.32354126],5.0,0.6,0.0,-0.32419681994458904,0.0219888145067985,1.472554076207182
6.689561367034912,2.315083995896069,[2.32362394],5.0,0.6,0.0,-0.8464709035622024,0.0051843748429676526,1.4849866287939593
6.702556610107422,2.319968963814486,[2.32370546],5.0,0.6,0.0,-1.0890426362649397,-0.01654279275817566,1.496329520115525
6.71762752532959,2.3256355265998496,[2.32378621],5.0,0.6,0.0,-1.7344697904816333,-0.04100218167919262,1.4970818011376597
6.730484247207642,2.329934298368056,[2.32386689],5.0,0.6,0.0,-2.6422099533175656,-0.060525552081554086,1.4874944059879454
6.740842580795288,2.3330606778358427,[2.32394777],5.0,0.6,0.0,-3.154199394871579,-0.07704890731072983,1.4761767050374779
6.750169038772583,2.3356008611534196,[2.32402856],5.0,0.6,0.0,-3.679667077217837,-0.08846156425588045,1.463593623052273
6.760333776473999,2.338141044470996,[2.32410904],5.0,0.6,0.0,-4.341518248205378,-0.09934383352011993,1.4475498384511962
6.770408391952515,2.3404858290718358,[2.32418914],5.0,0.6,0.0,-4.593396601390726,-0.10952316634778358,1.4328074404373667
6.781850099563599,2.342830613672676,[2.32426895],5.0,0.6,0.0,-5.0,-0.11757802793754847,1.415145459594779
6.8118836879730225,2.347715581591093,[2.32434863],5.0,0.6,0.0,-5.0,-0.1375820187777303,1.3782805753730856
6.820003509521484,2.348887973891513,[2.32442813],5.0,0.6,0.0,-5.0,-0.14166318375872383,1.3689569205312004
6.8303515911102295,2.3498649674751966,[2.32450726],5.0,0.6,0.0,-5.0,-0.14200818688664732,1.3610553496718727
6.839637994766235,2.3508419610588795,[2.32458601],5.0,0.6,0.0,-5.0,-0.14543994740041968,1.352939629208632
6.848798513412476,2.3516235559258263,[2.32466423],5.0,0.6,0.0,-5.0,-0.1464287167255783,1.3464421246984255
6.857426166534424,2.3520143533592996,[2.32474184],5.0,0.6,0.0,-5.0,-0.14568935444072897,1.3435096626494314
6.8666698932647705,2.3522097520760363,[2.32481886],5.0,0.6,0.0,-4.601253780468937,-0.1441033786447423,1.3451487385084997
6.874819278717041,2.3526005495095093,[2.32489524],5.0,0.6,0.0,-4.175717500391939,-0.14492839642621835,1.3448735469427724
6.883836269378662,2.3526005495095093,[2.32497081],5.0,0.6,0.0,-3.49625974435046,-0.14229827345795987,1.3493867987375383
6.89284610748291,2.3526005495095093,[2.32504565],5.0,0.6,0.0,-3.098219489442755,-0.13832815800381,1.3520186240250809
6.903249025344849,2.352405150792773,[2.3251201],5.0,0.6,0.0,-2.8292446844592756,-0.13509132480942898,1.3557364771251759
6.911423683166504,2.3522097520760363,[2.32519433],5.0,0.6,0.0,-2.066906511727357,-0.13213816978982518,1.3610165242453982
6.922590494155884,2.351818954642563,[2.3252685],5.0,0.6,0.0,-2.0938617882948347,-0.12658918460369714,1.3652490153348027
6.9338297843933105,2.351232758492353,[2.32534284],5.0,0.6,0.0,-1.7926449921720031,-0.12178832149928165,1.3721532080075034
6.942739486694336,2.350646562342143,[2.32541744],5.0,0.6,0.0,-0.8693995206428017,-0.1173409413682941,1.379905643641313
6.95166540145874,2.35025576490867,[2.32549227],5.0,0.6,0.0,-0.1868830206542726,-0.1137743471895865,1.3845506091772517
6.964789867401123,2.34908337260825,[2.32556739],5.0,0.6,0.0,0.29068321174819334,-0.105052682587011,1.3952336732959347
6.972810506820679,2.34849717645804,[2.32564289],5.0,0.6,0.0,0.6080296752905137,-0.10197292096145257,1.4005323810832413
6.984827756881714,2.3475201828743564,[2.32571858],5.0,0.6,0.0,0.806193189083333,-0.09545131411508938,1.4088329730750384
6.995828628540039,2.3463477905739363,[2.32579428],5.0,0.6,0.0,1.194692766845843,-0.08802296649213368,1.4179201037851412
7.00493597984314,2.3455661957069895,[2.32586997],5.0,0.6,0.0,1.8323676839082608,-0.08263773871621384,1.422852223555741
7.014764070510864,2.3443938034065694,[2.32594565],5.0,0.6,0.0,2.4071304137765015,-0.07557329583623508,1.42990325566658
7.0236852169036865,2.3434168098228865,[2.3260213],5.0,0.6,0.0,2.5475065760492233,-0.06940168732326808,1.436466471639599
7.034795045852661,2.3422444175224664,[2.32609691],5.0,0.6,0.0,2.766807073490493,-0.06231321566501056,1.4435218133775396
7.04616641998291,2.3410720252220463,[2.32617261],5.0,0.6,0.0,3.2126907871389703,-0.05421095935297857,1.448948143800767
7.054819583892822,2.339899632921626,[2.32624847],5.0,0.6,0.0,3.608264101367291,-0.04916178203363324,1.4538167240651572
7.065786600112915,2.338727240621206,[2.32632448],5.0,0.6,0.0,3.5931410083838564,-0.04086241912241103,1.4601838087878227
7.078205347061157,2.3371640508873126,[2.32640083],5.0,0.6,0.0,3.681567727523159,-0.031226410732000054,1.4671085388830827
7.088857412338257,2.3357962598701563,[2.32647784],5.0,0.6,0.0,3.742357596799244,-0.024149211528236413,1.4724657690242466
7.097168445587158,2.3348192662864724,[2.3265555],5.0,0.6,0.0,3.737790034095325,-0.018869514552962905,1.4761422158816657
7.10606837272644,2.3336468739860523,[2.32663369],5.0,0.6,0.0,3.6681917347984383,-0.012588627278252365,1.480294566376212
7.116217613220215,2.332474481685633,[2.32671231],5.0,0.6,0.0,3.5468589143674545,-0.006241321589669808,1.4841039036776094
7.129016637802124,2.3311066906684763,[2.32679135],5.0,0.6,0.0,3.665396866719438,0.0023796481071487905,1.4863807252295094
7.1399126052856445,2.329738899651319,[2.32687095],5.0,0.6,0.0,3.794666234560034,0.009248022978995808,1.4877514169658865
7.148766994476318,2.328761906067636,[2.32695111],5.0,0.6,0.0,4.133332303162215,0.014102187818076194,1.486787134539867
7.157437324523926,2.327980311200689,[2.3270317],5.0,0.6,0.0,4.149439209058568,0.018037320118731492,1.48716594860815
7.166390657424927,2.3271987163337426,[2.32711257],5.0,0.6,0.0,4.28486684161332,0.022056859415051266,1.486516363046004
7.175858974456787,2.326417121466796,[2.32719351],5.0,0.6,0.0,4.6576044555460125,0.024445041291660728,1.483988951105365
7.1869049072265625,2.3256355265998496,[2.32727433],5.0,0.6,0.0,4.980044483368625,0.02980631336637212,1.481337929844234
7.195505380630493,2.325244729166376,[2.32735497],5.0,0.6,0.0,5.0,0.030054439913982496,1.4808418352726962
7.205795764923096,2.3246585330161658,[2.32743528],5.0,0.6,0.0,5.0,0.032838304301217654,1.4801911806191943
7.214297294616699,2.3242677355826924,[2.32751515],5.0,0.6,0.0,5.0,0.03461416944037983,1.4796251477377282
7.223168849945068,2.3240723368659557,[2.32759457],5.0,0.6,0.0,5.0,0.035326272896192897,1.47925391099175
7.233793497085571,2.3236815394324823,[2.32767357],5.0,0.6,0.0,5.0,0.03682306645215919,1.478549874554985
7.243185997009277,2.323486140715746,[2.32775217],5.0,0.6,0.0,5.0,0.03715251070461478,1.4780988718172192
7.253501653671265,2.323290741999009,[2.32783042],5.0,0.6,0.0,5.0,0.03768774095946671,1.4776188148788607
7.263946056365967,2.3230953432822723,[2.32790834],5.0,0.6,0.0,4.981559327039991,0.03788339736242207,1.4772418279222397
7.273855447769165,2.3230953432822723,[2.32798596],5.0,0.6,0.0,4.539516319021011,0.037625347138667095,1.4801207043205218
7.2833592891693115,2.3230953432822723,[2.32806332],5.0,0.6,0.0,3.9905873348083913,0.03708689746875456,1.4833609983737905
7.292867660522461,2.3230953432822723,[2.32814033],5.0,0.6,0.0,3.4636505252441223,0.03556997523446943,1.4860713513889177
7.303699016571045,2.3228999445655356,[2.3282168],5.0,0.6,0.0,2.7263110237522246,0.036713795825849764,1.488859707986367
7.314870119094849,2.3230953432822723,[2.32829269],5.0,0.6,0.0,2.028600628458046,0.035972909129162435,1.4915580820182788
7.325406312942505,2.3228999445655356,[2.32836808],5.0,0.6,0.0,1.4518725729239523,0.03699972760975604,1.4924710513487613
7.335832595825195,2.3230953432822723,[2.32844305],5.0,0.6,0.0,1.0062566904689907,0.036217096694385525,1.4935435551231233
7.347805500030518,2.3228999445655356,[2.32851778],5.0,0.6,0.0,0.39941250544764134,0.038730413593835486,1.4935891291222017
7.357718467712402,2.3228999445655356,[2.32859254],5.0,0.6,0.0,-0.14883974791140134,0.03860644660132974,1.493523346003972
7.367795944213867,2.3228999445655356,[2.32866742],5.0,0.6,0.0,-0.29623303448335003,0.03849394622630437,1.4933040024316433
7.377575635910034,2.3228999445655356,[2.32874237],5.0,0.6,0.0,-0.5590285725660584,0.03838289221514479,1.4929638712757276
7.390858888626099,2.3228999445655356,[2.32881743],5.0,0.6,0.0,-0.8023441405287253,0.03972092190908232,1.4925421546272168
7.400873899459839,2.3228999445655356,[2.32889272],5.0,0.6,0.0,-0.9835290705134925,0.03950402026486282,1.492123505120197
7.4126458168029785,2.3228999445655356,[2.32896833],5.0,0.6,0.0,-1.098480449526103,0.040657135257950665,1.4917645608648786
7.423077583312988,2.3228999445655356,[2.32904433],5.0,0.6,0.0,-1.1570820977189693,0.04028618963520289,1.4914821031165104
7.432356834411621,2.3228999445655356,[2.32912062],5.0,0.6,0.0,-1.172519834258606,0.04004542932403162,1.4912681574911506
7.442605972290039,2.3228999445655356,[2.32919698],5.0,0.6,0.0,-1.1570553832922685,0.03998291150776867,1.4911052317679754
7.4524993896484375,2.3228999445655356,[2.32927323],5.0,0.6,0.0,-1.1206940090331061,0.040036352796894166,1.4909751044705897
7.4607720375061035,2.3228999445655356,[2.32934916],5.0,0.6,0.0,-1.0710641584744973,0.039965718504647786,1.4908627920873792
7.46978497505188,2.3228999445655356,[2.32942451],5.0,0.6,0.0,-1.0137387602519077,0.03909059532734855,1.490757748855643
7.479752779006958,2.3228999445655356,[2.32949893],5.0,0.6,0.0,-0.952662356220787,0.03954561639988672,1.490653358281458
7.488985061645508,2.3228999445655356,[2.32957225],5.0,0.6,0.0,-0.8905506968105809,0.039937405081304056,1.4905455697591936
7.498766899108887,2.3228999445655356,[2.32964435],5.0,0.6,0.0,-0.8292202920945233,0.039712043362271854,1.490432256669776
7.506757020950317,2.3228999445655356,[2.32971501],5.0,0.6,0.0,-0.7698435847808964,0.0393008706904108,1.490313001370909
7.516232490539551,2.3228999445655356,[2.329784],5.0,0.6,0.0,-0.7131394194030714,0.03976986939998029,1.4901883037386503
7.526336908340454,2.3228999445655356,[2.32985124],5.0,0.6,0.0,-0.6595119309175234,0.04036098367178927,1.4900587675966919
7.53879976272583,2.3228999445655356,[2.32991677],5.0,0.6,0.0,-0.6091502120325336,0.04059688535260675,1.4899250132913249
7.551086664199829,2.3228999445655356,[2.32998066],5.0,0.6,0.0,-0.562098995002682,0.04158861724326106,1.4897876460541069
7.560656547546387,2.3228999445655356,[2.33004305],5.0,0.6,0.0,-0.5183083028658233,0.041596873408229554,1.4896471629050816
7.571414947509766,2.3228999445655356,[2.33010398],5.0,0.6,0.0,-0.477668031616121,0.04168972224894937,1.4895042392528373
7.583388805389404,2.3228999445655356,[2.33017133],5.0,0.6,0.0,-0.44003183105013455,0.12757585173484648,1.4893369916759385
7.592161178588867,2.3228999445655356,[2.33026165],5.0,0.6,0.0,-0.40523343737923934,0.1258453745257821,1.4890973717151297
7.6019814014434814,2.3228999445655356,[2.33037898],5.0,0.6,0.0,-0.37309771107748246,0.05975962990220047,1.4887715291113985
7.6110992431640625,2.3228999445655356,[2.3305143],5.0,0.6,0.0,-0.34344797913299335,0.07356658282567384,1.4883835036384871
7.620236396789551,2.3228999445655356,[2.33066389],5.0,0.6,0.0,-0.3161108106914007,0.07331556845085185,1.4879422261349275
7.630202293395996,2.3228999445655356,[2.33082752],5.0,0.6,0.0,-0.2909190199733469,0.06754163894707275,1.48744636113921
7.638801097869873,2.3228999445655356,[2.33100251],5.0,0.6,0.0,-0.2677134528790223,0.06090441360511184,1.4869021742124446
7.649242162704468,2.3228999445655356,[2.33118504],5.0,0.6,0.0,-0.24634394610491178,0.05283882916303199,1.486320076410035
7.65992546081543,2.3228999445655356,[2.33137058],5.0,0.6,0.0,-0.22666972968773302,0.044083850346621274,1.4857139060906592
7.6696882247924805,2.3228999445655356,[2.33155393],5.0,0.6,0.0,-0.20855946112849688,0.03414399160366606,1.4851009540190803
7.680822372436523,2.3228999445655356,[2.33172931],5.0,0.6,0.0,-0.19189102127223123,0.02324441342733481,1.4845019736609673
7.6897687911987305,2.3228999445655356,[2.33189132],5.0,0.6,0.0,-0.17655116157574569,0.02133266223644661,1.4839378432622032
7.701475143432617,2.3228999445655356,[2.33203402],5.0,0.6,0.0,-0.16243506409413283,-0.0037119889600044052,1.4834325398173385
7.710440397262573,2.3228999445655356,[2.33214922],5.0,0.6,0.0,-0.14944585579808567,-0.01625169661478096,1.4830190792190487
7.72510290145874,2.322704545848799,[2.33222705],5.0,0.6,0.0,-0.13749410512646273,-0.04606561490438943,1.4820137560736422
7.736704349517822,2.322704545848799,[2.33225491],5.0,0.6,0.0,-0.12649731917599524,-0.07843248356257432,1.4819115660516675
7.748782634735107,2.3225091471320622,[2.33221993],5.0,0.6,0.0,-0.39241781304489776,-0.086506442301113,1.4812022682381134
7.763977766036987,2.3219229509818526,[2.33211308],5.0,0.6,0.0,-0.6922717634240066,-0.09504088994884811,1.4790898010314553
7.777762413024902,2.321141356114906,[2.3319274],5.0,0.6,0.0,-1.4898494944236456,-0.10497003189787482,1.4753512949374712
7.78998064994812,2.319968963814486,[2.33165266],5.0,0.6,0.0,-2.5543146796387606,-0.14317908150077266,1.4682342358838536
7.799771785736084,2.319187368947539,[2.33127584],5.0,0.6,0.0,-2.9197407444073606,-0.14830222798841605,1.4648908924146635
7.810946702957153,2.318014976647119,[2.33078408],5.0,0.6,0.0,-3.507685090510622,-0.1841383086338899,1.4588403687345906
7.821059942245483,2.316451786913226,[2.33016488],5.0,0.6,0.0,-4.013478676357898,-0.18125248035312883,1.4512405156483847
7.830480575561523,2.315083995896069,[2.32941077],5.0,0.6,0.0,-4.6245955516541475,-0.18191690172134456,1.4441102915554134
7.839862823486328,2.3135208061621757,[2.32851894],5.0,0.6,0.0,-5.0,-0.1837547895861274,1.437740263419986
7.848820209503174,2.312153015145019,[2.3274871],5.0,0.6,0.0,-5.0,-0.18780063758701088,1.4357938376636177
7.857964754104614,2.3105898254111255,[2.32631359],5.0,0.6,0.0,-5.0,-0.1918167048810907,1.433487324980549
7.867197513580322,2.3088312369604957,[2.32499737],5.0,0.6,0.0,-4.74506036491921,-0.19539409204353608,1.4325909510055042
7.8797478675842285,2.306291053642919,[2.32353809],5.0,0.6,0.0,-5.0,-0.1947307866494058,1.4239751150979365
7.891388177871704,2.3033600728918686,[2.32193095],5.0,0.6,0.0,-5.0,-0.2163873023579549,1.4150816456476383
7.8997485637664795,2.301210687007765,[2.32017292],5.0,0.6,0.0,-5.0,-0.18441772019300925,1.4123436997449135
7.9107666015625,2.297888908823242,[2.31827298],5.0,0.6,0.0,-5.0,-0.18310527486287684,1.401989250667306
7.92187237739563,2.2945671306387183,[2.31623402],5.0,0.6,0.0,-4.773555383052522,-0.20370925938301152,1.393704156752222
7.933746576309204,2.291049953737459,[2.31404843],5.0,0.6,0.0,-4.923389813558983,-0.19403486730333197,1.381894808582576
7.945162296295166,2.2875327768361986,[2.31171043],5.0,0.6,0.0,-4.830798518107974,-0.19774592654446116,1.3725901575330526
7.95479679107666,2.2840155999349383,[2.3092219],5.0,0.6,0.0,-4.343730543138398,-0.1729357591875071,1.36682074957195
7.9649338722229,2.280693821750415,[2.30659168],5.0,0.6,0.0,-4.046097585769102,-0.1851418980196641,1.3624285757444496
7.97346568107605,2.2775674422826286,[2.30382872],5.0,0.6,0.0,-2.989344715901964,-0.16216285995781818,1.3645507976785403
7.982717752456665,2.2738548666646317,[2.30095366],5.0,0.6,0.0,-2.6811812219305224,-0.13087278028441013,1.358084430111302
7.992909908294678,2.2697514936131618,[2.29798463],5.0,0.6,0.0,-2.088363676831503,-0.1631320599268732,1.3494004761772151
8.002416372299194,2.2656481205616914,[2.29491965],5.0,0.6,0.0,-1.2154241370376058,-0.1578925681565836,1.3414159723919963
8.010817289352417,2.262326342377168,[2.29176409],5.0,0.6,0.0,-0.6795970975470098,-0.13254835165968126,1.3405279956210314
8.020689487457275,2.258418368042435,[2.28853557],5.0,0.6,0.0,-0.3459722554866911,-0.13775572433392969,1.3340048871556573
8.030731201171875,2.254314994990964,[2.28524332],5.0,0.6,0.0,-0.13669357392456138,-0.13916917739625134,1.3258607443589971
8.041794300079346,2.249820824506021,[2.28188284],5.0,0.6,0.0,0.5464997367047868,-0.148795355413114,1.3139407825596412
8.051524639129639,2.2459128501712877,[2.27844422],5.0,0.6,0.0,0.9698904723550674,-0.1453963193332174,1.3085416673045103
8.061773300170898,2.2418094771198174,[2.27492586],5.0,0.6,0.0,1.4935802130990024,-0.1414794797024379,1.3013916741009586
8.06975793838501,2.238487698935294,[2.27133989],5.0,0.6,0.0,2.2081805798631353,-0.12532390451585845,1.3022369416667008
8.079801559448242,2.2343843258838243,[2.26770355],5.0,0.6,0.0,2.8219819315623207,-0.12938551452218958,1.2949949296878285
8.088837385177612,2.2304763515490906,[2.26402488],5.0,0.6,0.0,3.252839960409003,-0.13247875033819784,1.2906210119900554
8.09781002998352,2.2269591746478308,[2.2603037],5.0,0.6,0.0,3.5038931342913244,-0.13639699007134282,1.2915617287574128
8.107408285140991,2.222660402879624,[2.2565397],5.0,0.6,0.0,3.883340683904723,-0.13502593127884907,1.283781507451399
8.116102457046509,2.219143225978364,[2.25273283],5.0,0.6,0.0,3.909397740191428,-0.1374794661818955,1.2867470190053425
8.123830080032349,2.2162122452273136,[2.24888999],5.0,0.6,0.0,4.045837803728877,-0.1267681054615077,1.295660379752504
8.136317729949951,2.2105456824419503,[2.24501658],5.0,0.6,0.0,4.143347529884165,-0.13347406533369519,1.2758623498747974
8.1455659866333,2.2064423093904804,[2.24110273],5.0,0.6,0.0,4.160074669074331,-0.13260739161577528,1.2736981494538908
8.154722213745117,2.202729733772484,[2.23714752],5.0,0.6,0.0,3.8216524031079553,-0.12660197837351,1.2783023353835112
8.16572904586792,2.198430962004277,[2.23316481],5.0,0.6,0.0,3.9393891497348648,-0.12986963824568057,1.2741955357383485
8.175730466842651,2.194327588952807,[2.22915172],5.0,0.6,0.0,3.8583280870822647,-0.12428367694699606,1.2736694257744376
8.185349941253662,2.190419614618073,[2.22509122],5.0,0.6,0.0,3.406317435021956,-0.12741955687855228,1.2777312454308025
8.193732023239136,2.18709783643355,[2.22098406],5.0,0.6,0.0,3.1559055895222183,-0.13403837536380034,1.287448291046227
8.202758550643921,2.183189862098817,[2.21684607],5.0,0.6,0.0,3.2561543029843545,-0.13744372358070547,1.2894504190294223
8.213513374328613,2.178695691613873,[2.21268353],5.0,0.6,0.0,3.1351562495599508,-0.13644865337833648,1.2864483393488657
8.221840143203735,2.1749831159958766,[2.20850199],5.0,0.6,0.0,2.9282844923539635,-0.12817004821311753,1.292410847304736
8.232310771942139,2.170879742944406,[2.20430635],5.0,0.6,0.0,2.6979276224912097,-0.13612050611486343,1.29435169887724
8.242936611175537,2.1665809711761996,[2.20008592],5.0,0.6,0.0,2.4714012201569857,-0.13598911405085057,1.2943764766632972
8.2526376247406,2.1626729968414664,[2.19583158],5.0,0.6,0.0,2.2594914301685978,-0.13753634996191366,1.2988144451785317
8.261714220046997,2.158569623789996,[2.19155099],5.0,0.6,0.0,2.0654371522912953,-0.13699129194563323,1.3013185283082656
8.27254343032837,2.153880054588316,[2.18725134],5.0,0.6,0.0,1.8892174162829365,-0.13198310619853998,1.2976822272448456
8.282336235046387,2.149972080253583,[2.18292372],5.0,0.6,0.0,1.7295515436026556,-0.13577379573775217,1.3025777136217354
8.293720722198486,2.145673308485376,[2.17856067],5.0,0.6,0.0,1.5847979121999463,-0.13718385202963318,1.3036148337407518
8.302349090576172,2.1419607328673793,[2.17416388],5.0,0.6,0.0,1.4533316375088567,-0.14118994052470885,1.311117759436481
8.313271760940552,2.137857359815909,[2.1697351],5.0,0.6,0.0,1.3336825042199658,-0.14321039695209486,1.3147616352957014
8.321780443191528,2.1341447841979124,[2.16527612],5.0,0.6,0.0,1.2245676357369133,-0.14708196566011106,1.3226812345323828
8.331029415130615,2.130627607296652,[2.16078872],5.0,0.6,0.0,1.1248818139043215,-0.1519854398669573,1.3327115573845079
8.338729858398438,2.1271104303953923,[2.15628223],5.0,0.6,0.0,1.0336738694744247,-0.1570665179369069,1.342702337539646
8.348715543746948,2.1230070573439224,[2.15177232],5.0,0.6,0.0,0.9501212245762267,-0.162025516225913,1.3468084676020673
8.35971450805664,2.118317488142242,[2.14726445],5.0,0.6,0.0,0.8735071339629814,-0.16169750968833801,1.3451367815489932
8.368084907531738,2.114800311240982,[2.14275541],5.0,0.6,0.0,0.8032018494384359,-0.16609416215101316,1.354824727767526
8.382295608520508,2.108938349738882,[2.13823449],5.0,0.6,0.0,0.7386475823408063,-0.1334822773443195,1.341865627455813
8.391861915588379,2.104639577970675,[2.13368484],5.0,0.6,0.0,0.679346682615201,-0.14226432803553177,1.3443973718810938
8.401679039001465,2.100731603635942,[2.12910004],5.0,0.6,0.0,0.6248523779397901,-0.1501875566214298,1.3510410142619969
8.409721851348877,2.097409825451418,[2.12449043],5.0,0.6,0.0,0.5747614862236857,-0.17055580972856,1.3633314686860105
8.4221351146698,2.092329458816265,[2.11986484],5.0,0.6,0.0,0.5287086250717634,-0.14914263049617063,1.3590899982850537
8.43151330947876,2.088226085764795,[2.11521495],5.0,0.6,0.0,0.48636154987953206,-0.15561029832622178,1.3642584476257062
8.442701816558838,2.083927313996588,[2.11053376],5.0,0.6,0.0,0.4474173434543237,-0.1598885751946487,1.3678362362796954
8.453770637512207,2.0796285422283813,[2.10582339],5.0,0.6,0.0,0.41159925187143814,-0.16330707088521837,1.3716401289404956
8.463752746582031,2.0751343717434376,[2.1010858],5.0,0.6,0.0,0.37865401564605117,-0.16524725030053786,1.3738754297347033
8.474732875823975,2.070444802541758,[2.09632279],5.0,0.6,0.0,0.3483495855408335,-0.16587898665316878,1.3745574580558608
8.486025094985962,2.065559834623341,[2.09152796],5.0,0.6,0.0,0.3204731416997948,-0.11951814520503565,1.3737541607380432
8.496592998504639,2.0612610628551344,[2.08668815],5.0,0.6,0.0,0.5708677157439412,-0.1393689281983564,1.3784612909681548
8.505223751068115,2.057939284670611,[2.08180869],5.0,0.6,0.0,0.5804018162111524,-0.18516963775995662,1.39205215929285
8.513371229171753,2.054422107769351,[2.07691051],5.0,0.6,0.0,0.5036025433032065,-0.19038679555986954,1.4036126479230746
8.522745132446289,2.0507095321513544,[2.0720034],5.0,0.6,0.0,0.40755255550139796,-0.19428490351488603,1.4131810211233524
8.530709743499756,2.047387753966831,[2.06709569],5.0,0.6,0.0,0.3186627045200525,-0.20637228881956118,1.4251843879357682
8.540096759796143,2.0434797796320976,[2.06219429],5.0,0.6,0.0,0.24514353682712775,-0.1946996962701263,1.43230563974046
8.55297064781189,2.0383994129969443,[2.05728056],5.0,0.6,0.0,0.187600648572848,-0.14089686107172847,1.4311567294404082
8.562296867370605,2.034296039945474,[2.05233879],5.0,0.6,0.0,0.143884063283171,-0.20829225662481957,1.4369507039281324
8.569687843322754,2.0311696604776874,[2.04738849],5.0,0.6,0.0,0.11119908999378991,-0.2243188452030423,1.448740661006189
8.581722497940063,2.0262846925592704,[2.04244618],5.0,0.6,0.0,0.08694205161350109,-0.2054038459979976,1.4490966399047016
8.59307599067688,2.0215951233575904,[2.03749293],5.0,0.6,0.0,0.06896434094689279,-0.15048940686843482,1.450704722177222
8.60138750076294,2.01807794645633,[2.03251268],5.0,0.6,0.0,0.055596766739395814,-0.22496641667241407,1.4591817402614904
8.610709428787231,2.014169972121597,[2.0275249],5.0,0.6,0.0,0.045586334370197774,-0.23899226490817482,1.4649563416693951
8.620750188827515,2.0098712003533903,[2.02254608],5.0,0.6,0.0,0.03801184781072717,-0.22058820343236515,1.468379131447079
8.632392883300781,2.0045954350015,[2.01756529],5.0,0.6,0.0,0.03220474607452282,-0.2209443381080519,1.4669154311707875
8.642766237258911,2.00049206195003,[2.01257327],5.0,0.6,0.0,0.02768363462842143,-0.22664993574388992,1.4712302751934812
8.652229070663452,1.9967794863320332,[2.00757047],5.0,0.6,0.0,0.02410341961484813,-0.2339653495842585,1.4769796067076595
8.66066598892212,1.993262309430773,[2.00255744],5.0,0.6,0.0,0.02121717306986623,-0.2421018341382081,1.4828682213447792
8.669965505599976,1.9895497338127766,[1.99754303],5.0,0.6,0.0,0.018848165138455587,-0.26644939356340247,1.4873024869628289
8.677745819091797,1.9864233543449896,[1.99254301],5.0,0.6,0.0,0.016869641565868163,-0.27458293254318683,1.492537741822745
8.687724351882935,1.9819291838600464,[1.98757055],5.0,0.6,0.0,0.015190337736879627,-0.2743086018174283,1.4936550463957492
8.699993133544922,1.9770442159416295,[1.98262821],5.0,0.6,0.0,0.013744166339981878,-0.2636587829929139,1.493783058273149
8.709122896194458,1.973331640323633,[1.97770135],5.0,0.6,0.0,0.012482906155538154,-0.2693233334364776,1.4961882883197029
8.716713190078735,1.970205260855846,[1.97277742],5.0,0.6,0.0,0.011371031942715793,-0.2781718690718339,1.4986775731612207
8.724717855453491,1.9668834826713226,[1.96787048],5.0,0.6,0.0,0.010382063729849181,-0.2861069351307616,1.4998051064068803
8.736069440841675,1.961803116036169,[1.9630086],5.0,0.6,0.0,0.00949599044466146,-0.2849546045925716,1.499709338407449
8.746699810028076,1.9575043442679625,[1.95819847],5.0,0.6,0.0,0.00869745136495946,-0.28731790584111927,1.4999035865150936
8.760936975479126,1.9512515853323888,[1.95341213],5.0,0.6,0.0,0.2840128109869408,-0.21368713898187322,1.4990068020600822
8.7697274684906,1.9477344084311288,[1.94861733],5.0,0.6,0.0,0.31648041425216794,-0.2685231085532186,1.4997695502506216
8.781139612197876,1.943044839229449,[1.94380321],5.0,0.6,0.0,0.26078443037907784,-0.20761287699073322,1.4998343591503507
8.78881311416626,1.9403092571951355,[1.93896894],5.0,0.6,0.0,0.1841525952188276,-0.2991378177899214,1.4996155298677547
8.800770998001099,1.9352288905599822,[1.93411385],5.0,0.6,0.0,0.11312963348185681,-0.24327695100883534,1.499741842640251
8.812064170837402,1.9303439226415653,[1.92922066],5.0,0.6,0.0,0.05604953611546086,-0.2225747567004636,1.4997453512917254
8.824832916259766,1.9250681572896753,[1.92426656],5.0,0.6,0.0,0.013631665142693043,-0.21776038257415214,1.499871357387133
8.835449934005737,1.9205739868047318,[1.91924938],5.0,0.6,0.0,-0.016169153428279633,-0.24612308290384527,1.499648947700825
8.845672607421875,1.9160798163197883,[1.91417615],5.0,0.6,0.0,-0.036051095756216775,-0.2641537228920106,1.4992745053396397
8.855693817138672,1.9119764432683182,[1.90905325],5.0,0.6,0.0,-0.04852897774256713,-0.2780120650463861,1.4982906949166588
8.865701675415039,1.907873070216848,[1.90387779],5.0,0.6,0.0,-0.05566960698856581,-0.23175514685082918,1.4968103302404163
8.878657341003418,1.9025973048649583,[1.89863903],5.0,0.6,0.0,-0.05906688601159868,-0.2407551545910497,1.4968687137259402
8.887178897857666,1.899080127963698,[1.8933456],5.0,0.6,0.0,-0.059904520616277934,-0.3223721519236542,1.4934419367649494
8.89797329902649,1.8941951600452813,[1.88801375],5.0,0.6,0.0,-0.05903994489605279,-0.2597613962359743,1.4923845688668662
8.908730030059814,1.8900917869938112,[1.88264004],5.0,0.6,0.0,-0.057083047499241965,-0.28048197086035853,1.4889533023382797
8.918673038482666,1.886183812659078,[1.87721297],5.0,0.6,0.0,-0.05446123645789045,-0.264373585460086,1.4840314228830196
8.92767333984375,1.882471237041081,[1.87174077],5.0,0.6,0.0,-0.0514699324834455,-0.27292261814852364,1.477232597133014
8.940552473068237,1.8771954716891908,[1.86624836],5.0,0.6,0.0,-0.04831036034993763,-0.2924460619911909,1.4763153671584712
8.950678586959839,1.8728966999209842,[1.86073917],5.0,0.6,0.0,-0.04511720025032878,-0.2824371301559557,1.4708700302633329
8.960689306259155,1.8685979281527776,[1.85519843],5.0,0.6,0.0,-0.041978518841477214,-0.3067028736240105,1.4647264435107263
8.971014976501465,1.864103757667834,[1.84961383],5.0,0.6,0.0,-0.038949986812740166,-0.2957637599311621,1.4588766830916917
8.979495763778687,1.860586580766574,[1.84399325],5.0,0.6,0.0,-0.0360649441280372,-0.35254005187551685,1.446420086373972
8.989694118499756,1.856483207715104,[1.83836159],5.0,0.6,0.0,-0.033341483792763596,-0.35919699152011647,1.4364309669418214
9.000678300857544,1.8519890372301604,[1.83273113],5.0,0.6,0.0,-0.030787412632138425,-0.3639494946201695,1.4285099439891147
9.010823488235474,1.8476902654619538,[1.82710338],5.0,0.6,0.0,-0.028403709354659856,-0.37018526950901404,1.4187284813371197
9.023450374603271,1.8422191013933271,[1.82147087],5.0,0.6,0.0,-0.026186923646026167,-0.3170725527367735,1.4175039946621086
9.033120393753052,1.838311127058594,[1.81582749],5.0,0.6,0.0,-0.3001691912741217,-0.3946873486870849,1.4037730290271389
9.042345523834229,1.8345985514405967,[1.81018608],5.0,0.6,0.0,-0.33139053325333007,-0.4014851695998989,1.387554073431196
9.051699161529541,1.8306905771058632,[1.80455783],5.0,0.6,0.0,-0.27453411579852716,-0.40768690340618147,1.3722768625306399
9.060654163360596,1.8269780014878667,[1.79894342],5.0,0.6,0.0,-0.19682496973278946,-0.4157690271877988,1.3545149242752352
9.06870174407959,1.82385162202008,[1.79334349],5.0,0.6,0.0,-0.40084244284878734,-0.42753516034598377,1.330030078545918
9.080054521560669,1.8189666541016634,[1.78775007],5.0,0.6,0.0,-0.3759640984562858,-0.3642726363561586,1.322815784884331
9.089138507843018,1.81564487591714,[1.78215667],5.0,0.6,0.0,-0.2775966170792273,-0.45558431626751966,1.299024380250361
9.101297616958618,1.8099783131317762,[1.77656684],5.0,0.6,0.0,-0.17092429564978523,-0.39101055017352815,1.2998808450316028
9.113943338394165,1.8045071490631495,[1.77097533],5.0,0.6,0.0,-0.07979446524736547,-0.41157016938346175,1.2986099975492218
9.123592376708984,1.8005991747284162,[1.76537798],5.0,0.6,0.0,-0.01002645114904506,-0.4333470767618936,1.2802767971823228
9.135693311691284,1.7957142068099994,[1.75977183],5.0,0.6,0.0,0.039727452834496246,-0.39173223730331536,1.2723075241604551
9.143685340881348,1.792392428625476,[1.75415469],5.0,0.6,0.0,0.07310684217012212,-0.47627710013949526,1.2464473032761456
9.15315580368042,1.7884844542907428,[1.74854199],5.0,0.6,0.0,0.09399427170932541,-0.4852782587223412,1.2268107841845284
9.163939714431763,1.7837948850890626,[1.74294697],5.0,0.6,0.0,0.10576274732113342,-0.48993024709457883,1.2162528212857997
9.172950744628906,1.7802777081878027,[1.73737237],5.0,0.6,0.0,0.11108975643417643,-0.5003427666339768,1.1919877954588678
9.182852029800415,1.7759789364195957,[1.73182044],5.0,0.6,0.0,0.11199740452595204,-0.5071989436513996,1.177051217784498
9.193144083023071,1.7718755633681256,[1.72629303],5.0,0.6,0.0,0.1099655963771875,-0.514749288060784,1.1599658648434803
9.202848434448242,1.768162987750129,[1.72079154],5.0,0.6,0.0,0.106053739710618,-0.5242741287778738,1.1383784817092375
9.212689638137817,1.7640596146986587,[1.71532526],5.0,0.6,0.0,0.1010071153114695,-0.5498461888795013,1.121872841062642
9.223836898803711,1.7591746467802423,[1.70990178],5.0,0.6,0.0,0.09534186895454777,-0.5226618059791639,1.1153438464025625
9.236247539520264,1.753312685278142,[1.70450244],5.0,0.6,0.0,0.08940972070758019,-0.4608447794432151,1.12095442037675
9.2457594871521,1.7499909070936184,[1.69911131],5.0,0.6,0.0,0.08344582157045413,-0.5482520797483525,1.0958565303143493
9.255727291107178,1.7460829327588854,[1.69373147],5.0,0.6,0.0,0.07760348962389557,-0.5064363645820783,1.0780222767263825
9.268242835998535,1.7406117686902585,[1.6883493],5.0,0.6,0.0,0.07197910350704245,-0.47382636535485295,1.079100223396754
9.278712034225464,1.7365083956387886,[1.68295349],5.0,0.6,0.0,0.06662978006748875,-0.5538689064716786,1.0634755074187594
9.288806200027466,1.7326004213040551,[1.67755925],5.0,0.6,0.0,0.061585840902737415,-0.5643008168983281,1.0455770243793467
9.298770666122437,1.7286924469693217,[1.67217963],5.0,0.6,0.0,0.05685955382497568,-0.5733256649640036,1.0279549367736798
9.310649871826172,1.7236120803341684,[1.6668095],5.0,0.6,0.0,0.05245123061801301,-0.5258538342366462,1.0244996260133652
9.318703651428223,1.7200949034329083,[1.66145261],5.0,0.6,0.0,0.04835345841948095,-0.534485674411723,1.0026872301715961
9.330102682113647,1.7154053342312279,[1.65612823],5.0,0.6,0.0,0.044554018862234285,-0.5082021614052354,0.9952176402310735
9.339845418930054,1.7114973598964947,[1.65083641],5.0,0.6,0.0,0.3170762473837713,-0.5361145808316922,0.9789751961179782
9.351228952407837,1.7068077906948147,[1.64556096],5.0,0.6,0.0,0.3469515549602663,-0.5196272494290244,0.9721660662022584
9.360332250595093,1.7030952150768177,[1.64028831],5.0,0.6,0.0,0.012816467214687433,-0.5449719073643045,0.9543253226904618
9.368650913238525,1.6993826394588212,[1.63502297],5.0,0.6,0.0,-0.09915973908081906,-0.6200458578637553,0.9367256173805714
9.37866997718811,1.695279266407351,[1.62978466],5.0,0.6,0.0,-0.11713538948429283,-0.6262538029414473,0.924037725110794
9.388204336166382,1.691175893355881,[1.62458195],5.0,0.6,0.0,-0.1000218626400639,-0.6318322189481457,0.9119024219418509
9.39649772644043,1.6878541151713575,[1.61942176],5.0,0.6,0.0,-0.07366092847071079,-0.6470331244734113,0.8919552197951162
9.409161806106567,1.682773748536204,[1.61430955],5.0,0.6,0.0,-0.04844697549328953,-0.6336730128360694,0.8916159333950908
9.4176926612854,1.6794519703516808,[1.60924158],5.0,0.6,0.0,0.24822672185923886,-0.6571690803241377,0.8730574683251828
9.42932391166687,1.6747624011500006,[1.60421425],5.0,0.6,0.0,0.296925374062614,-0.6401015409778888,0.869506882393319
9.440635442733765,1.669877433231584,[1.59920867],5.0,0.6,0.0,0.25296021332057916,-0.5974180874913487,0.8682680487576122
9.448737859725952,1.6663602563303237,[1.59420872],5.0,0.6,0.0,-0.09156319688748107,-0.6619554370351288,0.8530355919403281
9.463438987731934,1.6606936935449603,[1.58921645],5.0,0.6,0.0,0.08576856223596259,-0.6254643486907823,0.859941220140815
9.474655628204346,1.6558087256265437,[1.58422592],5.0,0.6,0.0,0.12037706922517827,-0.6394224939510168,0.8588503623284949
9.486614227294922,1.6509237577081268,[1.57922462],5.0,0.6,0.0,0.10100854786852265,-0.598084035601462,0.8576593004396887
9.496456146240234,1.6468203846566567,[1.57421008],5.0,0.6,0.0,0.06672733986785213,-0.663810170554043,0.8483801818516971
9.505695581436157,1.6431078090386602,[1.56919587],5.0,0.6,0.0,0.03335694820948877,-0.6714373001106818,0.8353442838713685
9.514049053192139,1.6393952334206634,[1.56419372],5.0,0.6,0.0,0.006219930449999991,-0.6783952288800879,0.8226930947288268
9.525123596191406,1.634705664218983,[1.55919851],5.0,0.6,0.0,-0.013828546705201556,-0.6503107571036771,0.8197338186120049
9.536165952682495,1.6300160950173033,[1.55419863],5.0,0.6,0.0,-0.027619360565918537,-0.6653340370589874,0.8167446487147073
9.545634746551514,1.6264989181160432,[1.54919963],5.0,0.6,0.0,-0.036443519885424325,-0.6928335268242278,0.8026920764057048
9.555568218231201,1.622395545064573,[1.54422144],5.0,0.6,0.0,-0.04155450393331557,-0.6974382433706583,0.7945688138362399
9.56768536567688,1.617510577146156,[1.53926614],5.0,0.6,0.0,-0.044000104527447806,-0.6801600254150565,0.7939212521416912
9.579206705093384,1.6128210079444762,[1.53431353],5.0,0.6,0.0,-0.04459478628230176,-0.6496646203551315,0.7915074187341276
9.589734077453613,1.6083268374595328,[1.52935428],5.0,0.6,0.0,-0.043945345202038286,-0.699204162004106,0.787268504429038
9.599665403366089,1.6042234644080626,[1.52439569],5.0,0.6,0.0,-0.0424913462317392,-0.6828664400523858,0.7795708471354138
9.60768461227417,1.6009016862235392,[1.51944433],5.0,0.6,0.0,-0.04054464327045796,-0.7136074224132333,0.7652546622055436
9.618642091751099,1.5966029144553326,[1.51451311],5.0,0.6,0.0,-0.038322627467421766,-0.7170741033526911,0.7598238050085788
9.62865161895752,1.5924995414038623,[1.50961308],5.0,0.6,0.0,-0.03597427240235491,-0.721053613060003,0.7530832018469852
