t_s,q_rad,q_des_rad,K,B,Kff,jerk,tau_Nm,reward
0.0060596466064453125,0.0,[6.55532421e-06],9.825212432529046,0.9790254919034855,1.9737818648793566,0.0,9.998999999999999,1.4999999914055449
0.018863439559936523,-0.00019539871673667023,[3.16798564e-05],9.650424865058092,0.9580509838069711,1.9475637297587132,0.0,10.017284115661518,1.4999896871175005
0.02928018569946289,0.0,[7.87372052e-05],9.475637297587138,0.9370764757104565,1.92134559463807,0.0,6.947685583998866,1.4999987600912736
0.03703784942626953,0.0,[0.00014373],9.300849730116184,0.9161019676139419,1.8951274595174268,0.0,5.38816766244407,1.4999958682114416
0.04620981216430664,0.0019539871673667024,[0.00022305],9.12606216264523,0.8951274595174274,1.8689093243967834,0.276038359678681,3.963155534138762,1.4993442359237168
0.05466771125793457,0.005080366635153426,[0.00031346],8.951274595174274,0.8741529514209129,1.84269118927614,2.24143148059089,0.7396566716712023,1.4917397129513827
0.06368803977966309,0.008597543536413491,[0.00041208],8.77648702770332,0.8531784433243983,1.8164730541554968,5.0,-0.8949286401628256,1.4684210852579325
0.07105851173400879,0.011137726853990204,[0.00051636],8.601699460232366,0.8322039352278838,1.7902549190348536,5.0,-1.6002554213327544,1.4594219966843922
0.08103370666503906,0.0144595050385136,[0.00062407],8.426911892761412,0.8112294271313693,1.7640367839142101,5.0,-2.269921732491542,1.4441717753304713
0.08901071548461914,0.01621809348914363,[0.00073329],8.252124325290458,0.7902549190348547,1.7378186487935667,5.0,-2.4320696483185813,1.4349079790238137
0.09846305847167969,0.01660889092261697,[0.00084238],8.077336757819502,0.7692804109383402,1.7116005136729235,5.0,-2.3283040398142663,1.4332311368717465
0.10892081260681152,0.015045701188723608,[0.00094994],7.902549190348549,0.7483059028418256,1.6853823785522803,5.0,-2.0956291199255497,1.4427731621438449
0.11728143692016602,0.012310119154410226,[0.00105481],7.727761622877595,0.727331394745311,1.659164243431637,1.9372511284944804,-1.8012961854956957,1.4721959734353902
0.12609100341796875,0.009183739686623501,[0.00115605],7.55297405540664,0.7063568866487966,1.6329461083109935,-5.0,-1.4795321014430214,1.468926007059426
0.13460087776184082,0.005471164068626767,[0.00125291],7.378186487935686,0.685382378552282,1.6067279731903503,-5.0,-1.170154048762429,1.4781796520532913
0.14303851127624512,0.002344784600840043,[0.00134481],7.203398920464732,0.6644078704557674,1.5805098380697071,-5.0,-0.8976795383071204,1.4815320915039871
0.1542210578918457,-0.0015631897338933619,[0.00143132],7.028611352993777,0.643433362359253,1.5542917029490637,-5.0,-0.6599057492827095,1.4799402491986609
0.16301584243774414,-0.0042987717682067455,[0.00151216],6.853823785522822,0.6224588542627384,1.5280735678284203,-5.0,-0.4706947395243604,1.4750014258192363
0.1716296672821045,-0.007034353802520129,[0.00158716],6.679036218051868,0.6014843461662238,1.501855432707777,-5.0,-0.3190475647941324,1.4669759331547114
0.18031072616577148,-0.008988340969886831,[0.00165623],6.504248650580913,0.6,1.475637297587134,-5.0,-0.20266120839166518,1.4593255077784741
0.18800735473632812,-0.010746929420516863,[0.00171942],6.329461083109958,0.6,1.4494191624664907,-5.0,-0.11330489242739857,1.4511281872025847
0.19701719284057617,-0.012505517871146895,[0.00177679],6.154673515639004,0.6,1.4232010273458477,-5.0,-0.044820786549423175,1.4417561739402087
0.2064192295074463,-0.014264106321776927,[0.00182852],5.97988594816805,0.6,1.3969828922252046,-2.204281204610745,0.00724956458894574,1.4459200854086676
0.21463441848754883,-0.015436498622196948,[0.00187479],5.805098380697095,0.6,1.3707647571045614,1.8909560124040503,0.04339241232928074,1.4391699734961474
0.22350597381591797,-0.01680428963935364,[0.00191586],5.63031081322614,0.6,1.3445466219839184,5.0,0.07098083197901851,1.414043105215078
0.23235106468200684,-0.018172080656510332,[0.00195199],5.455523245755186,0.6,1.3183284868632752,5.0,0.09119344154741289,1.4039297884751143
0.24157047271728516,-0.019344472956930356,[0.00198348],5.280735678284231,0.6,1.292110351742632,5.0,0.10504688340785788,1.394771435023432
0.24999380111694336,-0.020126067823877037,[0.00201063],5.105948110813277,0.6,1.2658922166219888,5.0,0.11257913368158243,1.388374918415043
0.2590062618255615,-0.021103061407560384,[0.00203377],5.0,0.6,1.2396740815013456,5.0,0.11987869976219766,1.3802015244656873
0.2679941654205322,-0.02188465627450707,[0.00205321],5.0,0.6,1.2134559463807026,5.0,0.12671592690250771,1.373451021053135
0.2773251533508301,-0.022275453707980408,[0.00206927],5.0,0.6,1.1872378112600595,5.0,0.130267651674618,1.3699544559859143
0.2852771282196045,-0.022666251141453746,[0.00208227],5.0,0.6,1.1610196761394163,5.0,0.13313665460444757,1.3664398600901224
0.2942326068878174,-0.02286164985819042,[0.00209251],5.0,0.6,1.1348015410187733,5.0,0.13413487310153455,1.364633229481642
0.30199527740478516,-0.02305704857492709,[0.00210028],5.0,0.6,1.10858340589813,5.0,0.1344997773420693,1.3628372539159888
0.3136782646179199,-0.023252447291663758,[0.00210587],5.0,0.6,1.082365270777487,5.0,0.13460195875363587,1.361049914664945
0.3229861259460449,-0.02305704857492709,[0.00210953],5.0,0.6,1.0561471356568437,5.0,0.13238171332329174,1.3627552118717
0.33200669288635254,-0.02286164985819042,[0.00211153],5.0,0.6,1.0299290005362005,5.0,0.13022501723790142,1.36446558175876
0.3411571979522705,-0.022666251141453746,[0.00211208],5.0,0.6,1.0037108654155575,5.0,0.12789686192858504,1.36617866146281
0.35048675537109375,-0.02247085242471708,[0.00211141],5.0,0.6,0.9774927302949143,5.0,0.12561965140200662,1.3678922813145553
0.36057066917419434,-0.022080054991243738,[0.00210971],5.0,0.6,0.9512745951742712,4.791308102580558,0.12254983898501015,1.372759248730798
0.3714640140533447,-0.021493858841033726,[0.00210716],5.0,0.6,0.9250564600536281,4.442114310485788,0.11840466305443742,1.3801042298498036
0.3809940814971924,-0.021103061407560384,[0.00210394],5.0,0.6,0.898838324932985,3.78468199739908,0.1153249017063177,1.3873355304872013
0.3913846015930176,-0.020516865257350376,[0.00210017],5.0,0.6,0.8726201898123418,3.1074928360706546,0.11133471058222212,1.395616309387751
0.3995671272277832,-0.019930669107140364,[0.002096],5.0,0.6,0.8464020546916986,2.2392796365492726,0.10752342415910424,1.4038055587021439
0.4072885513305664,-0.019539871673667025,[0.00209155],5.0,0.6,0.8201839195710555,1.447645849000228,0.10477109036178443,1.4091042297612195
0.4195125102996826,-0.018758276806720344,[0.00208691],5.0,0.6,0.7939657844504124,0.8137093015525811,0.10013711036643831,1.4162721519897254
0.42699432373046875,-0.018172080656510332,[0.00208217],5.0,0.6,0.7677476493297692,0.3412346978140258,0.09647083769124194,1.4211420629379885
0.43521595001220703,-0.01758588450630032,[0.00207741],5.0,0.6,0.741529514209126,-0.2696121613923485,0.09299358154382102,1.4255311561361057
0.4444315433502197,-0.016999688356090312,[0.00207269],5.0,0.6,0.715311379088483,-0.5296802779947468,0.08943648658418543,1.429623377546537
0.45517802238464355,-0.01621809348914363,[0.00206808],5.0,0.6,0.6890932439678399,-0.8970668936669581,0.08504107621180254,1.434711729032125
0.467562198638916,-0.015436498622196948,[0.0020636],5.0,0.6,0.6628751088471967,-1.218441806337919,0.0807021795946748,1.4394834644095305
0.47806477546691895,-0.014654903755250269,[0.00205931],5.0,0.6,0.6366569737265535,-1.4493184155589462,0.07639653619983608,1.4440980444224651
0.48755669593811035,-0.013873308888303588,[0.00205522],5.0,0.6,0.6104388386059104,-1.5897961943303915,0.07210794868829445,1.4486444242065195
0.49553489685058594,-0.013287112738093578,[0.00205136],5.0,0.6,0.5842207034852673,-1.93143557707721,0.0689663921992643,1.4512668453066455
0.5071544647216797,-0.012505517871146895,[0.00204775],5.0,0.6,0.5580025683646241,-2.2497602866572812,0.06495944185593279,1.4547715558686294
0.5149853229522705,-0.011919321720936885,[0.00204438],5.0,0.6,0.531784433243981,-2.1970604935388742,0.06178602311423458,1.4581731855628572
0.5240912437438965,-0.011333125570726873,[0.00204128],5.0,0.6,0.5055662981233379,-2.284577405000272,0.05872982091034515,1.4609872463904496
0.5362293720245361,-0.010551530703780192,[0.00203843],5.0,0.6,0.4793481630026947,-2.3732009532986935,0.05476261523171595,1.4646208222463177
0.5451467037200928,-0.009965334553570182,[0.00203583],5.0,0.6,0.4531300278820516,-2.416863953042356,0.051781648998161324,1.46727596974383
0.5562024116516113,-0.009183739686623501,[0.00203348],5.0,0.6,0.42691189276140845,-2.684789678442261,0.04802877064513963,1.4698117609611832
0.5654318332672119,-0.00840214481967682,[0.00203138],5.0,0.6,0.4006937576407653,-2.6657662778575055,0.04419066547059339,1.4732015550903856
0.5765295028686523,-0.00781594866946681,[0.0020295],5.0,0.6,0.3744756225201221,-2.525970509482508,0.04128071830353193,1.4760729447271113
0.5839972496032715,-0.0072297525192568,[0.00202785],5.0,0.6,0.3482574873994789,-2.343535588556511,0.03836145692180101,1.4789337314447168
0.5930564403533936,-0.006838955085783458,[0.0020264],5.0,0.6,0.3220393522788358,-2.429949428101022,0.03657130571883357,1.480027824882774
0.6019587516784668,-0.006448157652310118,[0.00202515],5.0,0.6,0.2958212171581926,-2.2813161861876985,0.03470308195656934,1.4818840348184963
0.6126415729522705,-0.005666562785363437,[0.00202407],5.0,0.6,0.2696030820375494,-2.057862305774236,0.03085535920352204,1.4850980434092786
0.6219751834869385,-0.005275765351890096,[0.00202317],5.0,0.6,0.24338494691690624,-2.1041164290516656,0.029071328340466735,1.486116830278855
0.6310629844665527,-0.004689569201680086,[0.00202241],5.0,0.6,0.21716681179626307,-2.2031788489462323,0.026415572709890405,1.4874300394164477
0.6409707069396973,-0.004103373051470075,[0.0020218],5.0,0.6,0.19094867667561988,-1.9979471747055177,0.023618040860549992,1.4895618633453487
0.6511495113372803,-0.0033217781845233945,[0.0020213],5.0,0.6,0.16473054155497668,-1.985789813841203,0.019956413358771054,1.4913797229963823
0.6625053882598877,-0.0027355820343133836,[0.00202093],5.0,0.6,0.13851240643433352,-1.7382444430035142,0.01713508829623466,1.493241198447619
0.6699891090393066,-0.002540183317576713,[0.00202065],5.0,0.6,0.11229427131369034,-1.717117179776202,0.0163684884323124,1.4936583591642982
0.6779568195343018,-0.0021493858841033727,[0.00202046],5.0,0.6,0.08607613619304716,-1.7523053210553112,0.014711338260038204,1.4942480028711036
0.6882903575897217,-0.0017585884506300322,[0.00202034],5.0,0.6,0.05985800107240398,-1.5018752522111116,0.012902709731373235,1.4954717357467575
0.6982316970825195,-0.0013677910171566918,[0.00202029],5.0,0.6,0.0336398659517608,-1.4650736894397536,0.01119221762400528,1.4961115465859347
0.7069902420043945,-0.0009769935836833512,[0.0020203],5.0,0.6,0.0074217308311176206,-1.4864719182771313,0.00953264933059067,1.4965627299946078
0.7207412719726562,-0.0005861961502100108,[0.00202036],5.0,0.6,0.0,-1.5047071535140955,0.007898658153643856,1.4969595014033565
0.729022741317749,-0.00019539871673667023,[0.00202046],5.0,0.6,0.0,-1.5004027242745344,0.0062775350939194095,1.4973454810301452
0.7375175952911377,0.00019539871673667023,[0.00202059],5.0,0.6,0.0,-1.1956151722590713,0.004492110050503401,1.4982709720668896
0.7459888458251953,0.00039079743347334047,[0.00202074],5.0,0.6,0.0,-1.1136726672042752,0.0037608961732478697,1.4985463921180464
0.7552714347839355,0.0005861961502100108,[0.00202092],5.0,0.6,0.0,-1.105691271224774,0.003084573726046184,1.498679156733849
0.763993501663208,0.0007815948669466809,[0.00202111],5.0,0.6,0.0,-1.1097735223489367,0.0024309973942718234,1.4987768061873532
0.7730128765106201,0.0009769935836833512,[0.00202131],5.0,0.6,0.0,-1.1036473578586885,0.001788759642960175,1.498876018700038
0.7820589542388916,0.0011723923004200215,[0.00202151],5.0,0.6,0.0,-0.806115926820761,0.0009813959825673844,1.4993723142448656
0.7910053730010986,0.0013677910171566918,[0.00202172],5.0,0.6,0.0,-0.7376479404085265,0.00026055667605071465,1.4995095961591445
0.8010709285736084,0.0013677910171566918,[0.00202193],5.0,0.6,0.0,-0.7470955252991849,0.0005518844179223017,1.499499108871097
0.8089778423309326,0.0013677910171566918,[0.00202213],5.0,0.6,0.0,-0.494833377037878,0.000704559427526495,1.4997321308924572
0.81797194480896,0.0013677910171566918,[0.00202233],5.0,0.6,0.0,-0.7523692217041962,0.0011230393133426432,1.499493122534286
0.8269658088684082,0.0013677910171566918,[0.00202252],5.0,0.6,0.0,-0.564023059588793,0.0013361533755756878,1.4996775160727065
0.8370275497436523,0.0013677910171566918,[0.0020227],5.0,0.6,0.0,-0.8131971047339001,0.001784774756945196,1.4994222006114781
0.8490695953369141,0.0013677910171566918,[0.00202287],5.0,0.6,0.0,-0.8701128631038358,0.0021837066527138523,1.4993509121446809
0.8580403327941895,0.0015631897338933619,[0.00202303],5.0,0.6,0.0,-0.8438661046846316,0.0015888682699754322,1.4994278955462792
0.8659787178039551,0.0015631897338933619,[0.00202318],5.0,0.6,0.0,-0.7857015067027557,0.001938262896266737,1.4994983546447505
0.8759739398956299,0.0013677910171566918,[0.00202332],5.0,0.6,0.0,-0.4428438602391441,0.0030869700756053103,1.4997680955363015
0.8876900672912598,0.0013677910171566918,[0.00202345],5.0,0.6,0.0,-0.06814387866962662,0.00318774203398774,1.499910568772114
0.8969714641571045,0.0013677910171566918,[0.00202357],5.0,0.6,0.0,0.24643406484981692,0.0032336548664468685,1.4998687894785876
0.905949592590332,0.0013677910171566918,[0.00202368],5.0,0.6,0.0,0.4789256940702474,0.003256802626747973,1.4997432529336765
0.9154295921325684,0.0013677910171566918,[0.00202377],5.0,0.6,0.0,0.635065012205668,0.0032685889485294215,1.4996138094400444
0.9269857406616211,0.0013677910171566918,[0.00202386],5.0,0.6,0.0,0.7293316355795177,0.0032746704307600864,1.4995181110353046
0.9356110095977783,0.0015631897338933619,[0.00202393],5.0,0.6,0.0,0.7770126131721551,0.002310652616470824,1.4995083152875193
0.9460175037384033,0.0015631897338933619,[0.002024],5.0,0.6,0.0,0.7913094757225776,0.0023027266032058435,1.499491627299349
0.955986738204956,0.0013677910171566918,[0.00202406],5.0,0.6,0.0,0.7826445356361538,0.00327084966700278,1.499458105137273
0.9641447067260742,0.0013677910171566918,[0.00202411],5.0,0.6,0.0,0.7588404992894537,0.003281123288927289,1.4994853826439132
0.9742550849914551,0.0013677910171566918,[0.00202415],5.0,0.6,0.0,0.7255783548613448,0.0032816082604373883,1.4995220961505793
0.9823813438415527,0.0015631897338933619,[0.00202418],5.0,0.6,0.0,0.6868835668140234,0.0023146511175354953,1.4996064061874035
0.991018533706665,0.0015631897338933619,[0.00202421],5.0,0.6,0.0,0.6455488744485403,0.0023051688882836556,1.499647372081736
1.0004277229309082,0.0013677910171566918,[0.00202424],5.0,0.6,0.0,0.6034711379486692,0.003272435308871869,1.4996427991901493
1.0101726055145264,0.0013677910171566918,[0.00202425],5.0,0.6,0.0,0.5619072575171165,0.0032822094783343087,1.4996788331463342
1.0194776058197021,0.0013677910171566918,[0.00202427],5.0,0.6,0.0,0.5216630889313519,0.0032823807717538467,1.499711276692152
1.026982069015503,0.0013677910171566918,[0.00202428],5.0,0.6,0.0,0.483230302524049,0.0032824333850998925,1.4997400127000056
1.036637544631958,0.0013677910171566918,[0.00202428],5.0,0.6,0.0,0.44688424696531037,0.0032824659674223254,1.4997651681579547
1.0490303039550781,0.0013677910171566918,[0.00202429],5.0,0.6,0.0,0.4127532583323865,0.0032824824837052687,1.4997870022375945
1.0585265159606934,0.0013677910171566918,[0.00202429],5.0,0.6,0.0,0.3808673699898409,0.0032824854553439326,1.4998058349620058
1.0660245418548584,0.0013677910171566918,[0.00202429],5.0,0.6,0.0,0.3511923142860036,0.00328247705834284,1.4998220034789718
1.075099229812622,0.0013677910171566918,[0.00202428],5.0,0.6,0.0,0.3236530995041269,0.0032824592181537908,1.4998358365467181
1.0844168663024902,0.0013677910171566918,[0.00202428],5.0,0.6,0.0,0.2981502391136288,0.0032824336544207875,1.4998476407218095
1.095043659210205,0.0013677910171566918,[0.00202427],5.0,0.6,0.0,0.2745708254419855,0.0032824019059390303,1.4998576938667454
1.1059465408325195,0.0013677910171566918,[0.00202426],5.0,0.6,0.0,0.25279600030612254,0.003282365346369489,1.499866243093241
1.1169462203979492,0.0013677910171566918,[0.00202426],5.0,0.6,0.0,0.23270591745092056,0.0032823251958001157,1.4998735052801724
1.125924825668335,0.0013677910171566918,[0.00202425],5.0,0.6,0.0,0.21418296634316913,0.003282282530578506,1.4998796689882932
1.1367683410644531,0.0013677910171566918,[0.00202424],5.0,0.6,0.0,0.19711379677245122,0.003282238292522171,1.4998848970422227
1.1459250450134277,0.0015631897338933619,[0.00202423],5.0,0.6,0.0,0.18139052151382534,0.0023149696501200334,1.4999329973000548
1.1562905311584473,0.0013677910171566918,[0.00202422],5.0,0.6,0.0,0.16691136026466588,0.003272476010321825,1.4998930856366024
1.1645362377166748,0.0013677910171566918,[0.00202421],5.0,0.6,0.0,0.15358090804071925,0.0032820070091287446,1.499896268159521
1.173478603363037,0.0013677910171566918,[0.0020242],5.0,0.6,0.0,0.14131015514895226,0.003282059278840122,1.4998989639946667
1.183349847793579,0.0015631897338933619,[0.00202419],5.0,0.6,0.0,0.13001634662979508,0.0023147945373842406,1.4999449124366708
1.1910252571105957,0.0015631897338933619,[0.00202419],5.0,0.6,0.0,0.11962274165770097,0.0023050820169665137,1.4999468453359972
1.2040388584136963,0.0013677910171566918,[0.00202418],5.0,0.6,0.0,0.11005831427256674,0.003272170657360704,1.4999048179938972
1.2129464149475098,0.0013677910171566918,[0.00202417],5.0,0.6,0.0,0.1012574235023379,0.003281805835735166,1.499906204276022
1.2219550609588623,0.0013677910171566918,[0.00202416],5.0,0.6,0.0,0.09315947168642422,0.0032818687806857308,1.4999073779995769
1.2305686473846436,0.0013677910171566918,[0.00202416],5.0,0.6,0.0,0.0857085633985865,0.003281838382064846,1.4999083717177515
1.2386260032653809,0.0015631897338933619,[0.00202415],5.0,0.6,0.0,0.0788531729406953,0.0023145858157023426,1.4999528749746092
1.245985746383667,0.0013677910171566918,[0.00202415],5.0,0.6,0.0,0.07254582533575794,0.0032721107350395513,1.499909925242193
1.2539451122283936,0.0013677910171566918,[0.00202414],5.0,0.6,0.0,0.0667427936703808,0.0032816621602593282,1.4999105281974963
1.2661824226379395,0.0013677910171566918,[0.00202414],5.0,0.6,0.0,0.061403814229919085,0.003281736170845755,1.4999110386328782
1.2745146751403809,0.0013677910171566918,[0.00202413],5.0,0.6,0.0,0.05649181992880872,0.003281717648010826,1.4999114707365702
1.2843952178955078,0.0013677910171566918,[0.00202413],5.0,0.6,0.0,0.05197269192063481,0.003281700344240515,1.499911836521917
1.2920913696289062,0.0015631897338933619,[0.00202413],5.0,0.6,0.0,0.04781502887729193,0.002314461439975974,1.499955806182145
1.3006908893585205,0.0013677910171566918,[0.00202413],5.0,0.6,0.0,0.04398993318433227,0.0032719995318209157,1.4999124082635538
1.3099300861358643,0.0013677910171566918,[0.00202412],5.0,0.6,0.0,0.040470813161646316,0.003281563536963574,1.4999126301225627
1.3193020820617676,0.0013677910171566918,[0.00202412],5.0,0.6,0.0,0.03723320035115914,0.0032816494633114736,1.4999128179102246
1.3273911476135254,0.0013677910171566918,[0.00202412],5.0,0.6,0.0,0.034254580892778566,0.0032816421402305095,1.4999129768527
1.336055040359497,0.0013677910171566918,[0.00202412],5.0,0.6,0.0,0.0315142400201553,0.0032816352856394827,1.4999131113746675
1.3469395637512207,0.0013677910171566918,[0.00202412],5.0,0.6,0.0,0.028993118737702387,0.0032816297083177633,1.4999132252222673
1.3556628227233887,0.0013677910171566918,[0.00202412],5.0,0.6,0.0,0.02667368178209807,0.0032816252912868465,1.4999133215671887
1.3650262355804443,0.0015631897338933619,[0.00202412],5.0,0.6,0.0,0.024539796019918562,0.002314398264903267,1.499957062131103
1.3744959831237793,0.0013677910171566918,[0.00202411],5.0,0.6,0.0,0.022576618484596946,0.003271947219699571,1.4999134720786929
1.3839528560638428,0.0013677910171566918,[0.00202411],5.0,0.6,0.0,0.020770493308219506,0.003281521088720693,1.4999135304439397
1.3931403160095215,0.0013677910171566918,[0.00202411],5.0,0.6,0.0,0.01910885685523519,0.0032816159063041345,1.4999135798204462
1.4013195037841797,0.0013677910171566918,[0.00202411],5.0,0.6,0.0,0.01758015041498765,0.0032816165367669744,1.4999136215882598
1.4093143939971924,0.0015631897338933619,[0.00202416],5.0,0.6,0.0,0.016173739857508505,0.00286988402115241,1.4999573065694578
1.416940689086914,0.0013677910171566918,[0.00202512],5.0,0.6,0.0,0.014879841701911742,0.012047729078108034,1.4999134227470505
1.4269404411315918,0.0013677910171566918,[0.00203187],5.0,0.6,0.0,0.013689455088861553,0.04759980192714611,1.49991166466462
1.4362132549285889,0.0013677910171566918,[0.00205656],5.0,0.6,0.0,0.012594299187924537,0.09367459055970188,1.499905006205664
1.445927619934082,0.0013677910171566918,[0.00211745],5.0,0.6,0.0,0.011586755607210942,0.1416811187980609,1.4998875095167925
1.4572792053222656,0.0015631897338933619,[0.00224044],5.0,0.6,0.0,0.010659815406658306,0.22615227151395528,1.4999081847581732
1.4669535160064697,0.0017585884506300322,[0.00245179],5.0,0.6,0.0,0.00980703034774261,0.21159819843549002,1.4999038264528257
1.479010820388794,0.0021493858841033727,[0.00277267],5.0,0.6,0.0,0.2850608277201362,0.2824092293475576,1.4998618206126113
1.4869415760040283,0.002540183317576713,[0.00322249],5.0,0.6,0.0,0.8695403528806955,0.25874007962944007,1.4993443709643373
1.4959392547607422,0.0033217781845233945,[0.00381207],5.0,0.6,0.0,1.1560666086952893,0.2785641882383237,1.498958028745857
1.5054066181182861,0.003907974334733405,[0.00454981],5.0,0.6,0.0,1.830415843228727,0.29267810041874315,1.4974297661249323
1.5139129161834717,0.004884967918416756,[0.00544112],5.0,0.6,0.0,2.479552732229534,0.26648501368618194,1.4953823141283895
1.5249316692352295,0.0062527589355734475,[0.00648919],5.0,0.6,0.0,3.243518963950609,0.31331433178780466,1.49221842920987
1.5347113609313965,0.007425151235993469,[0.00770722],5.0,0.6,0.0,3.8603844324331975,0.3182626531205512,1.4890127685696568
1.5429415702819824,0.008597543536413491,[0.00910042],5.0,0.6,0.0,4.542392762630785,0.29648145547310145,1.4848234775658444
1.5519177913665771,0.009965334553570182,[0.01067035],5.0,0.6,0.0,4.785248438732811,0.3346903161490788,1.4831421453671196
1.5600330829620361,0.011333125570726873,[0.01242753],5.0,0.6,0.0,4.783131400491884,0.3267313620547857,1.4830166079521865
1.5680043697357178,0.012700916587883566,[0.01436711],5.0,0.6,0.0,4.921176168371085,0.3173181020236221,1.4817381737665574
1.578958511352539,0.014850302471986938,[0.01649046],5.0,0.6,0.0,5.0,0.3182907232969172,1.481194183002844
1.5905697345733643,0.01739048578956365,[0.01883015],5.0,0.6,0.0,5.0,0.2845712443717378,1.4813176227156981
1.599952220916748,0.019344472956930356,[0.02141767],5.0,0.6,0.0,5.0,0.24000973993369612,1.4808727999928295
1.6092886924743652,0.021493858841033726,[0.02427254],5.0,0.6,0.0,4.983967636293077,0.23896846517229908,1.4803038589648525
1.6199469566345215,0.024034042158610443,[0.02741114],5.0,0.6,0.0,4.498748521125541,0.2526175996592574,1.4828806327247088
1.6289312839508057,0.026378826759450486,[0.03084495],5.0,0.6,0.0,3.9006579216160193,0.2648424967945534,1.4848198630406242
1.6369671821594238,0.028528212643553853,[0.03457903],5.0,0.6,0.0,3.0570136633171017,0.27503983963170175,1.4857957628492113
1.6469731330871582,0.03106839596113057,[0.03860013],5.0,0.6,0.0,2.5339477316836683,0.27207128353412424,1.4839617745318285
1.65789794921875,0.033999376712180625,[0.04288922],5.0,0.6,0.0,1.907044815787993,0.2922767003803869,1.4816184590582084
1.6674308776855469,0.036539560029757334,[0.04744385],5.0,0.6,0.0,1.3429334071906096,0.2912047197538925,1.4751591322786655
1.6759800910949707,0.03868894591386071,[0.05224455],5.0,0.6,0.0,0.8901068306904869,0.3310861261009545,1.4633267814593074
1.6869397163391113,0.04181532538164743,[0.05724748],5.0,0.6,0.0,0.27243137801371664,0.34304055854831145,1.4534309713926234
1.698108434677124,0.04513710356617083,[0.06242637],5.0,0.6,0.0,-0.00819789364079282,0.30124409173015504,1.4419681651291891
1.7069263458251953,0.04787268560048421,[0.06776169],5.0,0.6,0.0,-0.40291871834678944,0.399503504257723,1.4238132681951192
1.7158904075622559,0.050803666351534264,[0.07321443],5.0,0.6,0.0,-0.4785066821423988,0.4196479840429678,1.4042613151610785
1.7249205112457275,0.05353924838584765,[0.0787454],5.0,0.6,0.0,-0.7072684310966693,0.4393678164628125,1.3802997728507864
1.733253002166748,0.05627483042016103,[0.08432376],5.0,0.6,0.0,-0.9334001853975288,0.4561048470131807,1.3537581688507434
1.7444214820861816,0.06018280475489443,[0.08991821],5.0,0.6,0.0,-0.8284808861993966,0.46246730722938933,1.3374040830229341
1.7518985271453857,0.06311378550594449,[0.09549762],5.0,0.6,0.0,-0.626956043987812,0.46842229007852676,1.3105003952599565
1.7619574069976807,0.06721715855741456,[0.10102722],5.0,0.6,0.0,-0.149052104739621,0.44249185785275125,1.2956110501137368
1.770186424255371,0.07034353802520128,[0.10647027],5.0,0.6,0.0,0.05279442087542438,0.4434890655771328,1.2702571572967511
1.7809269428253174,0.07444691107667137,[0.11179806],5.0,0.6,0.0,0.6788428057406373,0.43488601001913973,1.2561805349755595
1.7899203300476074,0.07796408797793142,[0.11698872],5.0,0.6,0.0,0.7623121631337466,0.42500872207064083,1.236997437982979
1.7993083000183105,0.08167666359592816,[0.12202182],5.0,0.6,0.0,0.6460641498185191,0.41071584758166124,1.2218220757762084
1.8081607818603516,0.08499844178045156,[0.12687879],5.0,0.6,0.0,0.47984149586726355,0.3959354452430935,1.2039583160268705
1.8182628154754639,0.08929721354865831,[0.13154331],5.0,0.6,0.0,0.32335121393157856,0.3761060469951148,1.199732120593949
1.8259131908416748,0.09222819429970835,[0.13600002],5.0,0.6,0.0,-0.08019066489320328,0.3457192183893956,1.1816754950768587
1.834622859954834,0.09554997248423175,[0.14023551],5.0,0.6,0.0,-0.7616862726395194,0.3414902210464166,1.1703178906015377
1.841904640197754,0.09867635195201847,[0.14424085],5.0,0.6,0.0,-1.6700969400337398,0.31948100541911995,1.1581198858697404
1.8508713245391846,0.10219352885327855,[0.14801124],5.0,0.6,0.0,-2.182896706870647,0.3207449996636983,1.1536091606368335
1.8625071048736572,0.10688309805495863,[0.15154881],5.0,0.6,0.0,-2.4446830475466337,0.3303835961118918,1.1665580727555267
1.8714749813079834,0.11040027495621868,[0.15485957],5.0,0.6,0.0,-2.822605823378481,0.3028439297598073,1.1675649050260162
1.879343032836914,0.11372205314074207,[0.1579472],5.0,0.6,0.0,-3.132247934041912,0.2974896985258849,1.1690130940834242
1.888174057006836,0.11743462875873882,[0.16081667],5.0,0.6,0.0,-3.3234846942865612,0.2877895537195659,1.1781724423523836
1.8969924449920654,0.12114720437673555,[0.16347442],5.0,0.6,0.0,-3.400378130918414,0.26273135912373613,1.1903167785732796
1.9050962924957275,0.12407818512778561,[0.16592653],5.0,0.6,0.0,-3.1090003671372908,0.2579761094340522,1.1973634157998059
1.9157021045684814,0.1281815581792557,[0.16818126],5.0,0.6,0.0,-2.99313140721459,0.24463525943709286,1.2195277896695726
1.9254693984985352,0.13208953251398908,[0.17024856],5.0,0.6,0.0,-2.9198738076329676,0.2298674893913979,1.2410431384374851
1.9329121112823486,0.13502051326503914,[0.17213744],5.0,0.6,0.0,-2.8392175243101563,0.209046623445956,1.2532023397041288
1.9438986778259277,0.1391238863165092,[0.17385624],5.0,0.6,0.0,-2.7374329483622897,0.19476389510150058,1.2800844471686839
1.9529519081115723,0.14283646193450597,[0.17541314],5.0,0.6,0.0,-2.6153349362388667,0.1650071565600119,1.3036982732722562
1.960928201675415,0.14557204396881931,[0.17681402],5.0,0.6,0.0,-2.478510600735509,0.13641227361896757,1.3181080707752104
1.9688951969146729,0.14869842343660605,[0.17806304],5.0,0.6,0.0,-2.3331988856406483,0.1148163896378145,1.3375591493899988
1.9779038429260254,0.1524109990546028,[0.17916577],5.0,0.6,0.0,-2.4608034332363546,0.09607383405749641,1.3621247861595647
1.9859275817871094,0.1555373785223895,[0.18012933],5.0,0.6,0.0,-2.34647415249769,0.07863789169291785,1.3819939070723315
1.9952468872070312,0.15905455542364957,[0.18096115],5.0,0.6,0.0,-2.4238454122244555,0.05907618494443554,1.404128052012681
2.004495620727539,0.16218093489143628,[0.18166855],5.0,0.6,0.0,-2.7951959213649187,0.04117225728337854,1.4210769553439162
2.015456438064575,0.16589351050943302,[0.18225872],5.0,0.6,0.0,-3.1571088010235306,0.020467829908629845,1.4404803671124533
2.024876117706299,0.16901988997721973,[0.18273878],5.0,0.6,0.0,-3.4093340112415875,0.003074411988834797,1.4544799098046293
2.0334131717681885,0.17175547201153316,[0.18311637],5.0,0.6,0.0,-3.5374049938234484,-0.006588941279404551,1.4652876893616273
2.043915033340454,0.17468645276258318,[0.1833996],5.0,0.6,0.0,-4.3868310475261225,-0.02296680967120984,1.4708087172762616
2.0552358627319336,0.17839902838057992,[0.18359549],5.0,0.6,0.0,-4.702423791998401,-0.04793159607924999,1.4784211595307424
2.064880847930908,0.18054841426468332,[0.18371011],5.0,0.6,0.0,-5.0,-0.05732107292644876,1.4797348013838856
2.074842691421509,0.18289319886552335,[0.18375018],5.0,0.6,0.0,-5.0,-0.067173239454967,1.4815851896811134
2.085862398147583,0.1850425847496267,[0.18372294],5.0,0.6,0.0,-5.0,-0.07564656395807012,1.4813838306575942
2.094865560531616,0.18680117320025674,[0.18363551],5.0,0.6,0.0,-5.0,-0.08231668424071158,1.4797297857041771
2.1038718223571777,0.18816896421741344,[0.18349486],5.0,0.6,0.0,-5.0,-0.08707354395225529,1.4773721358064242
2.1119959354400635,0.1891459578010968,[0.18330812],5.0,0.6,0.0,-5.0,-0.08557415465111336,1.4749391618512615
2.1199026107788086,0.19031835010151682,[0.18308249],5.0,0.6,0.0,-5.0,-0.09074061041465994,1.471315153753027
2.1299068927764893,0.19129534368520015,[0.18282433],5.0,0.6,0.0,-5.0,-0.09425322432554623,1.467482943803894
2.1391851902008057,0.19207693855214686,[0.18253927],5.0,0.6,0.0,-5.0,-0.09630956882010613,1.463703142339149
2.1472041606903076,0.19285853341909354,[0.18223263],5.0,0.6,0.0,-5.0,-0.09843597872376647,1.4594031730957864
2.1548945903778076,0.1930539321358302,[0.18190967],5.0,0.6,0.0,-5.0,-0.09471460639220902,1.4571991117207197
2.1630287170410156,0.19344472956930353,[0.1815755],5.0,0.6,0.0,-4.895387263863352,-0.09572037417114672,1.4546925642029849
2.170931339263916,0.19364012828604024,[0.18123468],5.0,0.6,0.0,-4.1279053536262555,-0.09336817123249282,1.4571650741663629
2.1799027919769287,0.19403092571951355,[0.18089131],5.0,0.6,0.0,-4.0713813470664135,-0.09471465024117015,1.4538711668596562
2.1884613037109375,0.19403092571951355,[0.1805488],5.0,0.6,0.0,-3.377553691536149,-0.09400766338966476,1.4558790005431332
2.197265863418579,0.19403092571951355,[0.18021],5.0,0.6,0.0,-3.1218875906471037,-0.09279696688622502,1.4553142492056086
2.2055459022521973,0.19403092571951355,[0.17987756],5.0,0.6,0.0,-2.466346699076335,-0.09018744764969273,1.4562207389099069
2.212878465652466,0.19403092571951355,[0.17955395],5.0,0.6,0.0,-1.7770027339155876,-0.08968530940958976,1.4566046992822845
2.2250866889953613,0.1938355270027769,[0.17924103],5.0,0.6,0.0,-1.738502218989784,-0.08867235920667942,1.456049930145848
2.2335259914398193,0.19344472956930353,[0.17894022],5.0,0.6,0.0,-1.067911287211584,-0.08445432477612107,1.457948539124263
2.240877866744995,0.19324933085256688,[0.17865299],5.0,0.6,0.0,-0.308384582798253,-0.0819356582682372,1.4582136757851967
2.2501237392425537,0.1930539321358302,[0.17838059],5.0,0.6,0.0,0.6152083412373368,-0.08073677663069556,1.4575709379857156
2.263895273208618,0.19266313470235683,[0.17812376],5.0,0.6,0.0,0.8566887129723079,-0.07869408818973754,1.4580565502549188
2.2723522186279297,0.19207693855214686,[0.1778829],5.0,0.6,0.0,1.3744440270385234,-0.07499025754929087,1.4591025825205406
2.280911445617676,0.1916861411186735,[0.17765832],5.0,0.6,0.0,1.59025467485967,-0.07219185594317797,1.4595294550679019
2.2921571731567383,0.1909045462517268,[0.17745022],5.0,0.6,0.0,1.9247904206442845,-0.06763932146242607,1.461693457424422
2.300909996032715,0.1905137488182535,[0.17725862],5.0,0.6,0.0,2.210896371226301,-0.06498722771228413,1.4618450481379575
2.3100497722625732,0.1897321539513068,[0.17708338],5.0,0.6,0.0,2.4005170406877996,-0.060638571592585296,1.4642369896942249
2.318906784057617,0.1891459578010968,[0.17692424],5.0,0.6,0.0,2.7702736776212102,-0.05734072871328032,1.464887396564535
2.3281571865081787,0.18875516036762346,[0.176781],5.0,0.6,0.0,2.8184986912531103,-0.052522732737043984,1.4658525084745688
2.3361268043518066,0.18816896421741344,[0.1766538],5.0,0.6,0.0,2.9962441449755115,-0.04748946439394628,1.4671903806956548
2.3460891246795654,0.1873873693504668,[0.17654361],5.0,0.6,0.0,3.1459686144600703,-0.03333436587655877,1.4694435284730967
2.3556833267211914,0.18680117320025674,[0.17645199],5.0,0.6,0.0,3.2204710544444737,-0.030115224064943668,1.471145487111622
2.3662331104278564,0.18601957833331006,[0.17638054],5.0,0.6,0.0,3.217950884679449,-0.015480255718923752,1.4739400515850416
2.373908042907715,0.18543338218310007,[0.17633071],5.0,0.6,0.0,3.4285312158929964,-0.014737433531260736,1.4748906597154594
2.381880283355713,0.18484718603289005,[0.17630268],5.0,0.6,0.0,3.626577270900351,-0.013308829348579115,1.4758092003974759
2.3918826580047607,0.1844563885994167,[0.17629595],5.0,0.6,0.0,3.4634012515884307,-0.006449349605762693,1.4779198255987414
2.4001333713531494,0.18387019244920672,[0.17631092],5.0,0.6,0.0,3.4493927126745834,0.00018732528473389343,1.4798574140302307
2.4099905490875244,0.18328399629899667,[0.17634817],5.0,0.6,0.0,3.7207233719691377,0.005600140366259874,1.4802251491813991
2.420189380645752,0.18269780014878667,[0.1764079],5.0,0.6,0.0,3.7116933876785225,0.010254534448360327,1.4819677600832766
2.4298806190490723,0.1823070027153133,[0.17648993],5.0,0.6,0.0,3.8456010121952353,0.013154878332940337,1.4823668136907244
2.4378621578216553,0.18211160399857668,[0.17659321],5.0,0.6,0.0,3.953944885943393,0.009303212726390833,1.4824246562950738
2.4460151195526123,0.18191620528184,[0.176716],5.0,0.6,0.0,4.26206291697928,0.011699732752209974,1.481265213504174
2.4553914070129395,0.18172080656510334,[0.17685689],5.0,0.6,0.0,4.248782686082569,0.013376589660131895,1.4820205739314654
2.464010238647461,0.18152540784836665,[0.17701475],5.0,0.6,0.0,4.359588426159629,0.014268949710399508,1.481989271441079
2.4718894958496094,0.18152540784836665,[0.17718783],5.0,0.6,0.0,4.436981697161682,0.009566299629354857,1.481801966332059
2.4838762283325195,0.18152540784836665,[0.17737421],5.0,0.6,0.0,4.711706010943933,0.013710379250455816,1.48030373646293
2.492893695831299,0.18152540784836665,[0.17757229],5.0,0.6,0.0,4.941232828751454,0.008468386747105964,1.479030700893757
2.5043118000030518,0.18152540784836665,[0.17778035],5.0,0.6,0.0,4.777262803847989,0.011141759311887182,1.4804953259893943
2.511881113052368,0.18152540784836665,[0.17799653],5.0,0.6,0.0,4.184375586998382,0.006509514902975801,1.484647208399501
2.523869276046753,0.18152540784836665,[0.17821896],5.0,0.6,0.0,3.7918514581782454,0.008358653019021669,1.487226517118453
2.5338473320007324,0.18152540784836665,[0.17844572],5.0,0.6,0.0,3.216883251002604,0.004375231011417409,1.4904606322190026
2.5436577796936035,0.18152540784836665,[0.17867493],5.0,0.6,0.0,2.6538094109478303,0.005680637487296663,1.4931610764568841
2.554734945297241,0.18152540784836665,[0.17890492],5.0,0.6,0.0,1.8936655141063286,0.004329746086353984,1.4959652680217999
2.5638587474823,0.18152540784836665,[0.17913406],5.0,0.6,0.0,1.19176841321011,0.0032339828911285874,1.497800777572727
2.5718674659729004,0.18152540784836665,[0.17936049],5.0,0.6,0.0,0.6276860088200308,0.001150377638074889,1.498769864311352
2.5802814960479736,0.18152540784836665,[0.17958243],5.0,0.6,0.0,0.20762336143320773,0.0010036628199800207,1.4992131639769972
2.589143753051758,0.18152540784836665,[0.17979842],5.0,0.6,0.0,-0.08874450153227183,0.0008158165615150615,1.4993978167401145
2.600302219390869,0.18152540784836665,[0.18000734],5.0,0.6,0.0,-0.2879078159322501,0.0012552598136592384,1.499477500219076
2.6078884601593018,0.18152540784836665,[0.18020816],5.0,0.6,0.0,-0.41447534216695514,0.0022504775358151924,1.4995251670595906
2.6192970275878906,0.18152540784836665,[0.18039986],5.0,0.6,0.0,-0.4886454905218442,0.0021043836539390553,1.499568949325437
2.629863977432251,0.18152540784836665,[0.18058172],5.0,0.6,0.0,-0.5259876091257395,0.0014190729882441085,1.499615999452923
2.637997627258301,0.18152540784836665,[0.18075318],5.0,0.6,0.0,-0.538064248305568,0.0006987167413283048,1.499665271558932
2.645890712738037,0.18152540784836665,[0.18091377],5.0,0.6,0.0,-0.5332540706870119,0.0005007248951357882,1.49971355002598
2.6555445194244385,0.18172080656510334,[0.1810632],5.0,0.6,0.0,-0.5175212229586583,-0.0005929603285417103,1.4997141838916432
2.663292407989502,0.18152540784836665,[0.18120134],5.0,0.6,0.0,-0.49505026184783296,0.00029771390260979616,1.499796595199946
2.671884059906006,0.18152540784836665,[0.18132814],5.0,0.6,0.0,-0.46873850769673353,0.00025732031672424325,1.499828687114169
2.682748556137085,0.18152540784836665,[0.18144369],5.0,0.6,0.0,-0.4405643893830141,0.0003911605627332531,1.4998541995618722
2.6948840618133545,0.18152540784836665,[0.18154822],5.0,0.6,0.0,-0.41185689961594174,0.0006422403883902889,1.4998736420947651
2.702885389328003,0.18152540784836665,[0.18164205],5.0,0.6,0.0,-0.38348980450124254,0.0009255644702493872,1.4998878160364464
2.7108588218688965,0.18152540784836665,[0.18172561],5.0,0.6,0.0,-0.3560201868823858,0.00123684458186876,1.4998976395089447
2.7205049991607666,0.18152540784836665,[0.1817994],5.0,0.6,0.0,-0.32978654212218383,0.00150556909065028,1.4999040316202517
2.7297725677490234,0.18152540784836665,[0.18186397],5.0,0.6,0.0,-0.304977834621441,0.0017596837979845052,1.4999078428529398
2.7378780841827393,0.18152540784836665,[0.18191988],5.0,0.6,0.0,-0.2816818773279277,0.0020040401077965537,1.499909817720128
2.7462451457977295,0.18172080656510334,[0.18196775],5.0,0.6,0.0,-0.2599190749589753,0.0012374034079626992,1.4999375159329
2.7553961277008057,0.18152540784836665,[0.18200819],5.0,0.6,0.0,-0.23966585202632418,0.0023518932736908862,1.4999106291154467
2.765876531600952,0.18152540784836665,[0.1820418],5.0,0.6,0.0,-0.22087083580505046,0.0025115654855108653,1.499910355478496
2.7759931087493896,0.18152540784836665,[0.18206919],5.0,0.6,0.0,-0.2034659651972211,0.002628818433933382,1.4999100452675695
2.785555601119995,0.18152540784836665,[0.18209096],5.0,0.6,0.0,-0.18737405531004206,0.0027673300670433146,1.4999098978975776
2.7938385009765625,0.18152540784836665,[0.18210768],5.0,0.6,0.0,-0.17251389298975586,0.00282440041989961,1.4999100406568688
2.8018882274627686,0.18172080656510334,[0.18211991],5.0,0.6,0.0,-0.15880361751098632,0.0019386205120786942,1.4999493718475818
2.809875011444092,0.18172080656510334,[0.18212817],5.0,0.6,0.0,-0.14616291452601976,0.0019503820416512504,1.499950908796882
2.8198726177215576,0.18152540784836665,[0.18213296],5.0,0.6,0.0,-0.13451439247688896,0.0029229895001942957,1.4999127098128282
2.8304548263549805,0.18152540784836665,[0.18213474],5.0,0.6,0.0,-0.12378439916870965,0.002981726879903535,1.4999143395555534
2.839721918106079,0.18152540784836665,[0.18213395],5.0,0.6,0.0,-0.11390345805364609,0.0029874206744512793,1.4999162803178714
2.848864793777466,0.18152540784836665,[0.18213099],5.0,0.6,0.0,-0.10480644905998429,0.002959498195730544,1.4999184796181335
2.8585727214813232,0.18152540784836665,[0.18212623],5.0,0.6,0.0,-0.09643262052948942,0.002935343913859839,1.4999208827178454
2.8658878803253174,0.18152540784836665,[0.18212],5.0,0.6,0.0,-0.0887254920825748,0.0029146624832851907,1.4999234347503259
2.8761584758758545,0.18152540784836665,[0.1821126],5.0,0.6,0.0,-0.08163268956249581,0.002877145684124536,1.4999260830497185
2.8848586082458496,0.18152540784836665,[0.1821043],5.0,0.6,0.0,-0.07510574019492317,0.0028447847895820893,1.499928779351809
2.893947124481201,0.18152540784836665,[0.18209535],5.0,0.6,0.0,-0.06909984703995706,0.0028118220169655035,1.499931480577891
2.9018380641937256,0.18152540784836665,[0.18208596],5.0,0.6,0.0,-0.06357365552041434,0.0027614901201166338,1.4999341495599294
2.9121429920196533,0.18152540784836665,[0.18207631],5.0,0.6,0.0,-0.05848902044994618,0.0026974945121456596,1.49993675595169
2.921823263168335,0.18152540784836665,[0.18206657],5.0,0.6,0.0,-0.053810778974069454,0.0026885918506409233,1.4999392749808507
2.931838035583496,0.18152540784836665,[0.18205687],5.0,0.6,0.0,-0.04950653276837916,0.0026334242460694635,1.4999416863251356
2.9418458938598633,0.18152540784836665,[0.18204734],5.0,0.6,0.0,-0.045546441425549394,0.0025812537707229615,1.499943975222325
2.953190326690674,0.18152540784836665,[0.18203806],5.0,0.6,0.0,-0.04190302800659176,0.0025311803258114057,1.4999461320585836
2.962144613265991,0.18152540784836665,[0.18202912],5.0,0.6,0.0,-0.03855099709264383,0.0025098988115172635,1.4999481504841596
2.9709532260894775,0.18172080656510334,[0.18202057],5.0,0.6,0.0,-0.03546706525384734,0.001492186309208876,1.499981091672788
2.97963547706604,0.18152540784836665,[0.18201248],5.0,0.6,0.0,-0.03262980358357485,0.0024099434702704848,1.499951760861693
2.990098714828491,0.18172080656510334,[0.18200487],5.0,0.6,0.0,-0.030019491781915937,0.001420070351281456,1.4999831913093706
3.0008327960968018,0.18152540784836665,[0.18199776],5.0,0.6,0.0,-0.02761798317888278,0.002328251447073306,1.499954810291492
3.0111424922943115,0.18152540784836665,[0.18199117],5.0,0.6,0.0,-0.025408580042236825,0.00232361242437753,1.4999561342019363
3.0218939781188965,0.18152540784836665,[0.1819851],5.0,0.6,0.0,-0.02337591850122351,0.0022918895886183746,1.4999573312980103
3.030935049057007,0.18152540784836665,[0.18197955],5.0,0.6,0.0,-0.021505862424781655,0.002268277238931503,1.4999584076923362
3.0408427715301514,0.18172080656510334,[0.18197452],5.0,0.6,0.0,-0.019785405613358474,0.0012899691260070017,1.49998683505193
3.0488784313201904,0.18152540784836665,[0.18196999],5.0,0.6,0.0,-0.018202581692081353,0.002234833683662757,1.4999602243480243
3.056833028793335,0.18152540784836665,[0.18196594],5.0,0.6,0.0,-0.016746381126168934,0.0022157662789479304,1.499960977760645
3.067002058029175,0.18152540784836665,[0.18196237],5.0,0.6,0.0,-0.015406674814693315,0.0022067937771793104,1.4999616372340765
3.079406261444092,0.18152540784836665,[0.18195924],5.0,0.6,0.0,-0.014174143754550401,0.002218700874607852,1.4999622092341791
3.091898202896118,0.18152540784836665,[0.18195654],5.0,0.6,0.0,-0.013040214301709104,0.0022363817940421796,1.4999626991080584
3.1023712158203125,0.18152540784836665,[0.18195425],5.0,0.6,0.0,-0.01199699859083831,0.0022298898467021694,1.4999631118629435
3.1103010177612305,0.18152540784836665,[0.18195235],5.0,0.6,0.0,-0.011037239706857407,0.0021939385941293003,1.4999634533968564
3.1178812980651855,0.18152540784836665,[0.18195081],5.0,0.6,0.0,-0.010154261232609135,0.0021865207843578473,1.4999637303525506
3.1268467903137207,0.18152540784836665,[0.18194959],5.0,0.6,0.0,-0.009341920825610622,0.002170733873551617,1.499963949055723
3.1359429359436035,0.18152540784836665,[0.18194867],5.0,0.6,0.0,-0.008594567503688932,0.0021677281341995684,1.4999641153625118
3.143878221511841,0.18152540784836665,[0.18194802],5.0,0.6,0.0,-0.007907002344282836,0.0021661875970956845,1.499964234676471
3.151840925216675,0.18152540784836665,[0.1819476],5.0,0.6,0.0,-0.0072744423253625025,0.0021695821988865207,1.4999643118690489
3.1612703800201416,0.18152540784836665,[0.1819474],5.0,0.6,0.0,-0.006692487057369106,0.002179896798102332,1.4999643512744267
3.1697444915771484,0.18152540784836665,[0.1819474],5.0,0.6,0.0,-0.006157088175404511,0.0021565246830292303,1.4999643571699304
3.180002212524414,0.18172080656510334,[0.18194756],5.0,0.6,0.0,-0.005664521179209602,0.0012053241888673146,1.4999896925556293
3.189659833908081,0.18152540784836665,[0.18194787],5.0,0.6,0.0,-0.005211359525359055,0.002146167042623689,1.4999642854738062
3.1998140811920166,0.18152540784836665,[0.1819483],5.0,0.6,0.0,-0.00479445079167068,0.0021708603932741803,1.499964215516814
3.2088403701782227,0.18152540784836665,[0.18194884],5.0,0.6,0.0,-0.004410894748175272,0.0021574704417007895,1.4999641274360676
3.2188520431518555,0.18152540784836665,[0.18194946],5.0,0.6,0.0,-0.004058023182208016,0.0021516555526752616,1.4999640246657986
3.2278854846954346,0.18152540784836665,[0.18195014],5.0,0.6,0.0,-0.0037333813373521168,0.002156293636933804,1.4999639104898588
3.237874746322632,0.18152540784836665,[0.18195088],5.0,0.6,0.0,-0.0034347108371684675,0.002181073469632666,1.499963787248363
3.2468485832214355,0.18152540784836665,[0.18195165],5.0,0.6,0.0,-0.0031599339749581595,0.002153179655450839,1.4999636570189643
3.2550294399261475,0.18152540784836665,[0.18195244],5.0,0.6,0.0,-0.0029071392602957177,0.002155704445798012,1.4999635224566052
3.266824960708618,0.18152540784836665,[0.18195325],5.0,0.6,0.0,-0.002674568121806007,0.002188139874137904,1.49996338548127
3.277411460876465,0.18152540784836665,[0.18195406],5.0,0.6,0.0,-0.0024606026736952932,0.002168827330743311,1.4999632471899056
3.286323070526123,0.18152540784836665,[0.18195487],5.0,0.6,0.0,-0.0022637544609433033,0.0021730699017780374,1.4999631091663284
3.2948291301727295,0.18152540784836665,[0.18195566],5.0,0.6,0.0,-0.002082654104868387,0.002155041180130268,1.4999629732502107
3.3044443130493164,0.18172080656510334,[0.18195644],5.0,0.6,0.0,-0.0019160417770392956,0.001216950866407086,1.4999888930097
3.314803123474121,0.18152540784836665,[0.18195718],5.0,0.6,0.0,-0.0017627584352684187,0.002170313194173388,1.4999627122874015
3.3249733448028564,0.18152540784836665,[0.1819579],5.0,0.6,0.0,-0.001621737760721533,0.0021829932898801536,1.49996258831669
3.335090398788452,0.18152540784836665,[0.18195859],5.0,0.6,0.0,-0.0014919987400560221,0.002177204230566493,1.4999624696224492
3.3449208736419678,0.18152540784836665,[0.18195924],5.0,0.6,0.0,-0.0013726388409860883,0.0021796908531412766,1.4999623568949136
3.3552193641662598,0.18152540784836665,[0.18195985],5.0,0.6,0.0,-0.0012628277338013823,0.002164210491982385,1.4999622508869623
3.368069887161255,0.18172080656510334,[0.18196042],5.0,0.6,0.0,-0.0011618015151631982,0.0012052571376869646,1.499988515998055
3.3759472370147705,0.18152540784836665,[0.18196094],5.0,0.6,0.0,-0.0010688573939962936,0.0021741910213975055,1.4999620613962525
3.3861935138702393,0.18152540784836665,[0.18196143],5.0,0.6,0.0,-0.0009833488025088944,0.0021833268174162746,1.4999619777941133
3.3938043117523193,0.18152540784836665,[0.18196186],5.0,0.6,0.0,-0.0009046808983307964,0.002185588575884055,1.4999619013978607
3.40712833404541,0.18152540784836665,[0.18196226],5.0,0.6,0.0,-0.0008323064264801618,0.0021908382107072074,1.499961832043957
3.414971351623535,0.18152540784836665,[0.18196262],5.0,0.6,0.0,-0.0007657219123728308,0.0021736967317682395,1.4999617696879635
3.4258127212524414,0.18152540784836665,[0.18196294],5.0,0.6,0.0,-0.0007044641593907605,0.0021904977279690197,1.4999617143534225
3.433804750442505,0.18152540784836665,[0.18196321],5.0,0.6,0.0,-0.0006481070266449295,0.002179988471237411,1.4999616657578632
3.4429471492767334,0.18152540784836665,[0.18196345],5.0,0.6,0.0,-0.000596258464517136,0.002199197912517673,1.4999616234220008
3.452036142349243,0.18172080656510334,[0.18196366],5.0,0.6,0.0,-0.0005485577873584253,0.0012246429649367127,1.4999882038386958
3.460251569747925,0.18172080656510334,[0.18196384],5.0,0.6,0.0,-0.0005046731643716143,0.0012113868411883443,1.4999881864177662
3.4705045223236084,0.18152540784836665,[0.18196399],5.0,0.6,0.0,-0.00046429931122318855,0.00218039207235225,1.4999615288748265
3.479172706604004,0.18152540784836665,[0.18196412],5.0,0.6,0.0,-0.00042715536632624584,0.0021915124415919224,1.4999615072022112
3.4883487224578857,0.18152540784836665,[0.18196422],5.0,0.6,0.0,-0.0003929829370207844,0.0021926879559357243,1.4999614897943778
3.497244119644165,0.18152540784836665,[0.1819643],5.0,0.6,0.0,-0.00036154430205956887,0.002193483891159338,1.4999614762207403
3.5082523822784424,0.18152540784836665,[0.18196435],5.0,0.6,0.0,-0.0003326207578951163,0.0021951218313335133,1.4999614660499918
3.5171420574188232,0.18152540784836665,[0.18196439],5.0,0.6,0.0,-0.0003060110972637264,0.0021899060211258824,1.4999614589406367
3.527867317199707,0.18152540784836665,[0.18196442],5.0,0.6,0.0,-0.00028153020948278143,0.0021914823711728653,1.4999614546655635
3.5362329483032227,0.18152540784836665,[0.18196443],5.0,0.6,0.0,-0.00025900779272426645,0.0021904774913125047,1.49996145296182
3.545928478240967,0.18152540784836665,[0.18196443],5.0,0.6,0.0,-0.00023828716930640047,0.0022013916040993335,1.4999614533700985
3.5548362731933594,0.18152540784836665,[0.18196441],5.0,0.6,0.0,-0.000219224195761941,0.002191041228246056,1.4999614554235994
3.5651164054870605,0.18152540784836665,[0.18196439],5.0,0.6,0.0,-0.00020168626010102245,0.002192054145354714,1.4999614589603723
3.573831558227539,0.18152540784836665,[0.18196437],5.0,0.6,0.0,-0.00018555135929296625,0.0021927779867867937,1.4999614638410992
3.588301420211792,0.18152540784836665,[0.18196433],5.0,0.6,0.0,-0.00017070725054954696,0.00219321329965966,1.499961469794913
3.599320888519287,0.18152540784836665,[0.18196429],5.0,0.6,0.0,-0.00015705067050559592,0.002193443543120445,1.4999614765788292
3.608154535293579,0.18152540784836665,[0.18196425],5.0,0.6,0.0,-0.00014448661686515698,0.002193529270267812,1.4999614839766142
3.6173691749572754,0.18152540784836665,[0.18196421],5.0,0.6,0.0,-0.0001329276875159508,0.0021935140018517407,1.4999614917974722
3.626835346221924,0.18152540784836665,[0.18196416],5.0,0.6,0.0,-0.0001222934725146791,0.0021934291520396432,1.4999614998746
3.6353347301483154,0.18152540784836665,[0.18196411],5.0,0.6,0.0,-0.00011250999471350791,0.002193297499291098,1.4999615080636506
3.6448240280151367,0.18152540784836665,[0.18196407],5.0,0.6,0.0,-0.00010350919513642945,0.0021973861608216255,1.4999615161733986
3.6551671028137207,0.18172080656510334,[0.18196402],5.0,0.6,0.0,-9.522845952551632e-05,0.0012282264773207324,1.4999881691613486
3.6643943786621094,0.18152540784836665,[0.18196398],5.0,0.6,0.0,-8.761018276347601e-05,0.0021843197459938705,1.499961531397974
3.673048734664917,0.18152540784836665,[0.18196394],5.0,0.6,0.0,-8.060136814239875e-05,0.0022034482993628555,1.4999615382451958
3.682823896408081,0.18152540784836665,[0.18196391],5.0,0.6,0.0,-7.415325869100734e-05,0.0021858677978762566,1.4999615444398193
3.691277027130127,0.18152540784836665,[0.18196387],5.0,0.6,0.0,-6.822099799572718e-05,0.0021896731175976986,1.4999615502647765
3.7003118991851807,0.18152540784836665,[0.18196384],5.0,0.6,0.0,-6.276331815606933e-05,0.002190330733111277,1.499961555862485
3.7082674503326416,0.18152540784836665,[0.18196381],5.0,0.6,0.0,-5.7742252703584e-05,0.002190732021559619,1.4999615611616504
3.7158045768737793,0.18152540784836665,[0.18196378],5.0,0.6,0.0,-5.3122872487297325e-05,0.002190976514712649,1.4999615661397152
3.725778341293335,0.18152540784836665,[0.18196376],5.0,0.6,0.0,-4.887304268831358e-05,0.0021911146162698295,1.4999615707817686
3.7348082065582275,0.18152540784836665,[0.18196373],5.0,0.6,0.0,-4.496319927324859e-05,0.002191181354995626,1.499961575079558
3.743309259414673,0.18152540784836665,[0.18196371],5.0,0.6,0.0,-4.136614333138867e-05,0.0021912011569154245,1.499961579030567
3.7548460960388184,0.18152540784836665,[0.18196369],5.0,0.6,0.0,-3.8056851864877605e-05,0.0021911910031861886,1.49996158263716
3.7673046588897705,0.18152540784836665,[0.18196367],5.0,0.6,0.0,-3.501230371568748e-05,0.0021911626440727235,1.4999615859057984
3.7771410942077637,0.18152540784836665,[0.18196365],5.0,0.6,0.0,-3.2211319418432534e-05,0.0021889988884246847,1.4999615888801614
3.7871813774108887,0.18172080656510334,[0.18196364],5.0,0.6,0.0,-2.9634413864957897e-05,0.0012350960768793388,1.499988206552424
3.796076774597168,0.18152540784836665,[0.18196363],5.0,0.6,0.0,-2.7263660755761317e-05,0.002182467379382621,1.4999615933307373
3.804471731185913,0.18152540784836665,[0.18196362],5.0,0.6,0.0,-2.5082567895300428e-05,0.00220118918462566,1.4999615945177907
3.812824249267578,0.18152540784836665,[0.18196362],5.0,0.6,0.0,-2.307596246367636e-05,0.002194584332094299,1.4999615949521607
3.8211472034454346,0.18152540784836665,[0.18196362],5.0,0.6,0.0,-2.1229885466582255e-05,0.002182870460209218,1.4999615948797524
3.833813190460205,0.18152540784836665,[0.18196362],5.0,0.6,0.0,-1.9531494629255658e-05,0.002185222855346598,1.4999615947772886
3.8432157039642334,0.18152540784836665,[0.18196362],5.0,0.6,0.0,-1.7968975058915223e-05,0.0021869718239536412,1.4999615948199108
3.853466272354126,0.18152540784836665,[0.18196362],5.0,0.6,0.0,-1.6531457054202e-05,0.0021881933146380267,1.4999615949846727
3.8608078956604004,0.18152540784836665,[0.18196362],5.0,0.6,0.0,-1.520894048986584e-05,0.0021890440778391546,1.499961595250587
3.8702034950256348,0.18152540784836665,[0.18196362],5.0,0.6,0.0,-1.3992225250676588e-05,0.00218963499806308,1.4999615955985945
3.8778748512268066,0.18172080656510334,[0.18196361],5.0,0.6,0.0,-1.2872847230622465e-05,0.001222820166636673,1.4999882090903713
3.8878014087677,0.18152540784836665,[0.18196361],5.0,0.6,0.0,-1.1843019452172667e-05,0.002180652803658941,1.4999615964739796
3.8978235721588135,0.18152540784836665,[0.18196361],5.0,0.6,0.0,-1.0895577895998856e-05,0.002190420194088426,1.499961596972348
3.9084208011627197,0.18152540784836665,[0.18196361],5.0,0.6,0.0,-1.0023931664318947e-05,0.00219914637553253,1.499961597359287
3.915764331817627,0.18152540784836665,[0.18196361],5.0,0.6,0.0,-9.222017131173427e-06,0.0021989087881649503,1.499961597342481
3.9249844551086426,0.18152540784836665,[0.18196361],5.0,0.6,0.0,-8.484255760679564e-06,0.0021976328527303912,1.4999615967645468
3.932796001434326,0.18152540784836665,[0.18196362],5.0,0.6,0.0,-7.8055152998252e-06,0.0021972803930247965,1.4999615956265278
3.940984010696411,0.18152540784836665,[0.18196362],5.0,0.6,0.0,-7.1810740758391875e-06,0.002188563246944648,1.4999615940718898
3.9488322734832764,0.18172080656510334,[0.18196363],5.0,0.6,0.0,-6.6065881497720465e-06,0.001229512383753521,1.4999882070122839
3.9568216800689697,0.18152540784836665,[0.18196365],5.0,0.6,0.0,-6.078061097790279e-06,0.002177015724233801,1.499961590265832
3.966094493865967,0.18152540784836665,[0.18196366],5.0,0.6,0.0,-5.591816209967057e-06,0.002187913419647497,1.499961588292434
3.9769203662872314,0.18152540784836665,[0.18196367],5.0,0.6,0.0,-5.144470913169692e-06,0.0021890299084519134,1.499961586498514
3.9860754013061523,0.18152540784836665,[0.18196368],5.0,0.6,0.0,-4.732913240116123e-06,0.0021897565854947483,1.4999615848796137
3.9947688579559326,0.18152540784836665,[0.18196368],5.0,0.6,0.0,-4.354280180906827e-06,0.0021902736524763915,1.4999615834296942
4.005229711532593,0.18152540784836665,[0.18196369],5.0,0.6,0.0,-4.005937766434284e-06,0.0021906433995433836,1.4999615821414602
4.015780925750732,0.18152540784836665,[0.1819637],5.0,0.6,0.0,-3.6854627451195333e-06,0.0021909088804826756,1.4999615810066467
4.025294542312622,0.18172080656510334,[0.1819637],5.0,0.6,0.0,-3.3906257255099725e-06,0.0012238766697522593,1.4999882002265958
4.035781383514404,0.18152540784836665,[0.18196371],5.0,0.6,0.0,-3.11937566746918e-06,0.002181566720657201,1.4999615791608885
4.045105457305908,0.18152540784836665,[0.18196371],5.0,0.6,0.0,-2.8698256140716437e-06,0.0021912430383193475,1.4999615784307296
4.055008172988892,0.18152540784836665,[0.18196372],5.0,0.6,0.0,-2.64023956494591e-06,0.0021914123209536137,1.4999615778159314
4.065762996673584,0.18152540784836665,[0.18196372],5.0,0.6,0.0,-2.4290203997502378e-06,0.002191467005559318,1.4999615773066532
4.0757834911346436,0.18152540784836665,[0.18196372],5.0,0.6,0.0,-2.234698767770221e-06,0.002191506254592824,1.4999615768932069
4.085158348083496,0.18152540784836665,[0.18196372],5.0,0.6,0.0,-2.0559228663486013e-06,0.002191534801242584,1.499961576566157
4.092786073684692,0.18152540784836665,[0.18196373],5.0,0.6,0.0,-1.8914490370407147e-06,0.002191555382341273,1.4999615763164051
4.104056358337402,0.18152540784836665,[0.18196373],5.0,0.6,0.0,-1.740133114077458e-06,0.0021915699735981665,1.499961576135256
4.112887144088745,0.18152540784836665,[0.18196373],5.0,0.6,0.0,-1.6009224649512637e-06,0.002191580019461225,1.499961576014468
4.122043132781982,0.18172080656510334,[0.18196373],5.0,0.6,0.0,-1.4728486677551622e-06,0.0012243629397841998,1.499988197970961
4.129796266555786,0.18152540784836665,[0.18196373],5.0,0.6,0.0,-1.355020774334747e-06,0.0021819182407048147,1.4999615759234806
4.137762069702148,0.18172080656510334,[0.18196373],5.0,0.6,0.0,-1.2466191123879694e-06,0.0012242719241332004,1.4999881979671084
4.1494340896606445,0.18152540784836665,[0.18196373],5.0,0.6,0.0,-1.1468895833969306e-06,0.002181919301964346,1.499961575987683
4.157181978225708,0.18152540784836665,[0.18196373],5.0,0.6,0.0,-1.0551384167251749e-06,0.0021914947433891623,1.4999615760628786
4.167864561080933,0.18172080656510334,[0.18196373],5.0,0.6,0.0,-9.707273433871606e-07,0.0012243648768460835,1.499988198089297
4.178218841552734,0.18152540784836665,[0.18196373],5.0,0.6,0.0,-8.930691559161906e-07,0.002181914540477756,1.4999615762738514
4.186646461486816,0.18152540784836665,[0.18196372],5.0,0.6,0.0,-8.216236234428954e-07,0.0021914868241670604,1.4999615764008989
4.195096015930176,0.18152540784836665,[0.18196372],5.0,0.6,0.0,-7.55893733567463e-07,0.0021915789578857733,1.4999615765372942
4.20499587059021,0.18152540784836665,[0.18196372],5.0,0.6,0.0,-6.95422234882066e-07,0.0021915760382312474,1.4999615766798275
4.215765953063965,0.18152540784836665,[0.18196372],5.0,0.6,0.0,-6.397884560915012e-07,0.0021915720186222076,1.4999615768257049
4.224950551986694,0.18152540784836665,[0.18196372],5.0,0.6,0.0,-5.886053796041811e-07,0.0021915679230219776,1.4999615769725205
4.2345545291900635,0.18152540784836665,[0.18196372],5.0,0.6,0.0,-5.415169492358459e-07,0.002191563831007674,1.4999615771182273
4.242748737335205,0.18152540784836665,[0.18196372],5.0,0.6,0.0,-4.981955932969784e-07,0.0021915597999228108,1.4999615772611092
4.252090215682983,0.18172080656510334,[0.18196372],5.0,0.6,0.0,-4.5833994583322035e-07,0.0012243322281027947,1.4999881987764996
4.259764671325684,0.18152540784836665,[0.18196372],5.0,0.6,0.0,-4.2167275016656295e-07,0.0021818798592642564,1.4999615775330115
4.267768621444702,0.18152540784836665,[0.18196372],5.0,0.6,0.0,-3.8793893015323716e-07,0.0021914517653666196,1.4999615776599944
4.276811599731445,0.18152540784836665,[0.18196372],5.0,0.6,0.0,-3.569038157409782e-07,0.0021915441060066103,1.4999615777800241
4.285898447036743,0.18152540784836665,[0.18196372],5.0,0.6,0.0,-3.283515104816999e-07,0.0021915418577387433,1.4999615778926192
4.295459985733032,0.18172080656510334,[0.18196372],5.0,0.6,0.0,-3.020833896431642e-07,0.0012243152322145051,1.4999881991077628
4.3047590255737305,0.18152540784836665,[0.18196372],5.0,0.6,0.0,-2.779167184717109e-07,0.002181863880348742,1.4999615780944084
4.317791938781738,0.18152540784836665,[0.18196371],5.0,0.6,0.0,-2.5568338099397427e-07,0.0021914368565678867,1.4999615781834053
4.32678484916687,0.18152540784836665,[0.18196371],5.0,0.6,0.0,-2.352287105144562e-07,0.002191530297521981,1.4999615782645317
4.335422039031982,0.18152540784836665,[0.18196371],5.0,0.6,0.0,-2.1641041367330006e-07,0.0021915291601791345,1.4999615783379516
4.344079256057739,0.18152540784836665,[0.18196371],5.0,0.6,0.0,-1.9909758057943638e-07,0.0021915272875375883,1.4999615784039035
4.351786375045776,0.18152540784836665,[0.18196371],5.0,0.6,0.0,-1.8316977413308147e-07,0.0021915256097151483,1.4999615784626856
4.359786510467529,0.18152540784836665,[0.18196371],5.0,0.6,0.0,-1.6851619220243474e-07,0.0021915241263452774,1.4999615785146436
4.370785713195801,0.18152540784836665,[0.18196371],5.0,0.6,0.0,-1.5503489682623978e-07,0.0021915228267415524,1.499961578560157
4.37981915473938,0.18152540784836665,[0.18196371],5.0,0.6,0.0,-1.4263210508014077e-07,0.0021915216993979025,1.4999615785996316
4.387774705886841,0.18152540784836665,[0.18196371],5.0,0.6,0.0,-1.3122153667372942e-07,0.0021915207323454614,1.4999615786334877
4.3964011669158936,0.18152540784836665,[0.18196371],5.0,0.6,0.0,-1.2072381373983108e-07,0.002191519913381064,1.499961578662154
4.404094457626343,0.18152540784836665,[0.18196371],5.0,0.6,0.0,-1.1106590864064456e-07,0.002191519230263887,1.4999615786860607
4.413748741149902,0.18152540784836665,[0.18196371],5.0,0.6,0.0,-1.0218063594939291e-07,0.0021915186708799856,1.4999615787056322
4.42408299446106,0.18152540784836665,[0.18196371],5.0,0.6,0.0,-9.400618507344154e-08,0.0021915182233810063,1.4999615787212845
4.434783697128296,0.18152540784836665,[0.18196371],5.0,0.6,0.0,-8.648569026756627e-08,0.0021915178762967292,1.4999615787334197
4.44272518157959,0.18172080656510334,[0.18196371],5.0,0.6,0.0,-7.956683504616106e-08,0.0012242939707793534,1.4999881995206243
4.452870845794678,0.18172080656510334,[0.18196371],5.0,0.6,0.0,-7.320148824246812e-08,0.0012146215555813725,1.499988199524082
4.4617650508880615,0.18152540784836665,[0.18196371],5.0,0.6,0.0,-6.73453691830706e-08,0.0021817483714246613,1.4999615787524823
4.471735954284668,0.18152540784836665,[0.18196371],5.0,0.6,0.0,-6.195773964842504e-08,0.0021914195908799474,1.4999615787542075
4.480756044387817,0.18172080656510334,[0.18196371],5.0,0.6,0.0,-5.7001120476551067e-08,0.0012242926571744707,1.4999881995271171
4.492167949676514,0.18152540784836665,[0.18196371],5.0,0.6,0.0,-5.244103083842696e-08,0.0021818450804371816,1.4999615787525538
4.501188516616821,0.18152540784836665,[0.18196371],5.0,0.6,0.0,-4.824574837135283e-08,0.0021914206850429806,1.4999615787497071
4.510474920272827,0.18152540784836665,[0.18196371],5.0,0.6,0.0,-4.438608850164458e-08,0.0021915165505428276,1.4999615787458307
4.518366813659668,0.18152540784836665,[0.18196371],5.0,0.6,0.0,-4.083520142151296e-08,0.0021915176418257406,1.4999615787411336
4.527292728424072,0.18152540784836665,[0.18196371],5.0,0.6,0.0,-3.756838530779194e-08,0.002191517803245584,1.499961578735803
4.536742925643921,0.18152540784836665,[0.18196371],5.0,0.6,0.0,-3.456291448316857e-08,0.002191517968536391,1.499961578730006
4.545728921890259,0.18152540784836665,[0.18196371],5.0,0.6,0.0,-3.17978813245151e-08,0.002191518142882537,1.4999615787238896
4.55565619468689,0.18152540784836665,[0.18196371],5.0,0.6,0.0,-2.925405081855386e-08,0.0021915183227070242,1.4999615787175826
4.564939737319946,0.18152540784836665,[0.18196371],5.0,0.6,0.0,-2.691372675306954e-08,0.0021915185048352994,1.4999615787111957
4.575766563415527,0.18152540784836665,[0.18196371],5.0,0.6,0.0,-2.4760628612824013e-08,0.0021915186865526844,1.4999615787048244
4.585142612457275,0.18152540784836665,[0.18196371],5.0,0.6,0.0,-2.277977832379812e-08,0.002191518865568408,1.4999615786985485
4.593109607696533,0.18172080656510334,[0.18196371],5.0,0.6,0.0,-2.0957396057894266e-08,0.0012242953921339072,1.4999881994929205
4.600813865661621,0.18152540784836665,[0.18196371],5.0,0.6,0.0,-1.928080437326272e-08,0.0021818469717614732,1.4999615786865372
4.612046480178833,0.18152540784836665,[0.18196371],5.0,0.6,0.0,-1.773834002340171e-08,0.002191422646752098,1.499961578680899
4.620752573013306,0.18152540784836665,[0.18196371],5.0,0.6,0.0,-1.6319272821529556e-08,0.0021915185544430452,1.4999615786755531
4.628753423690796,0.18152540784836665,[0.18196371],5.0,0.6,0.0,-1.5013730995807208e-08,0.002191519655526375,1.4999615786705238
4.63673996925354,0.18152540784836665,[0.18196371],5.0,0.6,0.0,-1.3812632516142641e-08,0.002191519799148615,1.4999615786658271
4.645533084869385,0.18152540784836665,[0.18196371],5.0,0.6,0.0,-1.270762191485121e-08,0.002191519923533458,1.4999615786614724
4.655124187469482,0.18152540784836665,[0.18196371],5.0,0.6,0.0,-1.169101216166311e-08,0.0021915200379620226,1.4999615786574638
4.66375470161438,0.18152540784836665,[0.18196371],5.0,0.6,0.0,-1.0755731188730075e-08,0.002191520142567789,1.4999615786537994
4.674981355667114,0.18152540784836665,[0.18196371],5.0,0.6,0.0,-9.895272693631673e-09,0.002191520237512562,1.4999615786504739
4.683807373046875,0.18172080656510334,[0.18196371],5.0,0.6,0.0,-9.10365087814114e-09,0.0012242966752111849,1.4999881994680049
4.69274377822876,0.18172080656510334,[0.18196371],5.0,0.6,0.0,-8.375358807889853e-09,0.0012146245152210098,1.4999881994665203
4.701728343963623,0.18152540784836665,[0.18196371],5.0,0.6,0.0,-7.705330103258651e-09,0.0021817515085414,1.4999615786424236
4.710763454437256,0.18172080656510334,[0.18196371],5.0,0.6,0.0,-7.08890369499796e-09,0.001224199189594891,1.4999881994640463
4.719750642776489,0.18152540784836665,[0.18196371],5.0,0.6,0.0,-6.521791399398114e-09,0.00218184736559936,1.4999615786385165
4.72821569442749,0.18152540784836665,[0.18196371],5.0,0.6,0.0,-6.000048087446281e-09,0.0021914238915980554,1.4999615786369498
4.735746383666992,0.18152540784836665,[0.18196371],5.0,0.6,0.0,-5.520044240450579e-09,0.002191519694512272,1.4999615786356162
4.743738412857056,0.18152540784836665,[0.18196371],5.0,0.6,0.0,-5.078440701214532e-09,0.0021915206841397637,1.499961578634497
4.752795696258545,0.18152540784836665,[0.18196371],5.0,0.6,0.0,-4.672165445117366e-09,0.002191520720103886,1.4999615786335738
4.761756181716919,0.18152540784836665,[0.18196371],5.0,0.6,0.0,-4.298392209507977e-09,0.002191520741516912,1.4999615786328282
4.771938323974609,0.18152540784836665,[0.18196371],5.0,0.6,0.0,-3.954520832747339e-09,0.0021915207582711613,1.4999615786322422
4.779751300811768,0.18152540784836665,[0.18196371],5.0,0.6,0.0,-3.6381591661275573e-09,0.002191520770947935,1.4999615786317992
4.787747859954834,0.18152540784836665,[0.18196371],5.0,0.6,0.0,-3.347106432837353e-09,0.0021915207800131654,1.4999615786314826
4.798643589019775,0.18152540784836665,[0.18196371],5.0,0.6,0.0,-3.079337918210358e-09,0.002191520785907038,1.499961578631277
4.806750297546387,0.18152540784836665,[0.18196371],5.0,0.6,0.0,-2.832990884753535e-09,0.002191520789042553,1.4999615786311682
4.815747022628784,0.18152540784836665,[0.18196371],5.0,0.6,0.0,-2.6063516139732505e-09,0.0021915207898048233,1.4999615786311422
4.823763132095337,0.18152540784836665,[0.18196371],5.0,0.6,0.0,-2.3978434848553883e-09,0.0021915207885503806,1.4999615786311868
4.8349573612213135,0.18152540784836665,[0.18196371],5.0,0.6,0.0,-2.206016006066957e-09,0.0021915207856066186,1.4999615786312908
4.843052387237549,0.18152540784836665,[0.18196371],5.0,0.6,0.0,-2.0295347255816014e-09,0.0021915207812724744,1.499961578631443
4.850730895996094,0.18152540784836665,[0.18196371],5.0,0.6,0.0,-1.8671719475350746e-09,0.002191520775818711,1.499961578631635
4.8587260246276855,0.18152540784836665,[0.18196371],5.0,0.6,0.0,-1.7177981917322709e-09,0.002191520769489018,1.499961578631857
4.867747068405151,0.18152540784836665,[0.18196371],5.0,0.6,0.0,-1.5803743363936864e-09,0.0021915207625002983,1.4999615786321023
4.8791961669921875,0.18152540784836665,[0.18196371],5.0,0.6,0.0,-1.4539443894821917e-09,0.002191520755044869,1.499961578632364
4.887750864028931,0.18152540784836665,[0.18196371],5.0,0.6,0.0,-1.3376288383236178e-09,0.002191520747291444,1.499961578632636
4.898912668228149,0.18152540784836665,[0.18196371],5.0,0.6,0.0,-1.2306185312577268e-09,0.0021915207393865214,1.499961578632913
4.908633470535278,0.18152540784836665,[0.18196371],5.0,0.6,0.0,-1.1321690487571085e-09,0.0021915207314559025,1.4999615786331912
4.916705369949341,0.18152540784836665,[0.18196371],5.0,0.6,0.0,-1.0415955248565404e-09,0.0021915207236060876,1.4999615786334664
4.924720287322998,0.18152540784836665,[0.18196371],5.0,0.6,0.0,-9.58267882868018e-10,0.002191520715926482,1.4999615786337357
4.93473219871521,0.18152540784836665,[0.18196371],5.0,0.6,0.0,-8.816064522385752e-10,0.002191520708490248,1.4999615786339962
4.9426963329315186,0.18152540784836665,[0.18196371],5.0,0.6,0.0,-8.110779360594899e-10,0.002191520701356233,1.4999615786342462
4.951753616333008,0.18152540784836665,[0.18196371],5.0,0.6,0.0,-7.461917011747302e-10,0.0021915206945699517,1.4999615786344842
4.959871530532837,0.18152540784836665,[0.18196371],5.0,0.6,0.0,-6.864963650807518e-10,0.002191520688165795,1.4999615786347085
4.96773624420166,0.18152540784836665,[0.18196371],5.0,0.6,0.0,-6.315766558742919e-10,0.0021915206821677374,1.4999615786349187
4.978032112121582,0.18152540784836665,[0.18196371],5.0,0.6,0.0,-5.810505234043487e-10,0.00219152067659072,1.4999615786351141
4.9867472648620605,0.18152540784836665,[0.18196371],5.0,0.6,0.0,-5.345664815320003e-10,0.0021915206714420363,1.4999615786352944
4.99612832069397,0.18152540784836665,[0.18196371],5.0,0.6,0.0,-4.918011630094411e-10,0.002191520666722171,1.4999615786354599
5.004350662231445,0.18152540784836665,[0.18196371],5.0,0.6,0.0,-4.524570699686853e-10,0.0021915206624263214,1.4999615786356104
5.013321161270142,0.18152540784836665,[0.18196371],5.0,0.6,0.0,-4.162605043711907e-10,0.0021915206585446834,1.4999615786357463
5.02419900894165,0.18172080656510334,[0.18196371],5.0,0.6,0.0,-3.829596640214953e-10,0.0012242970072169756,1.4999881994615707
5.033122301101685,0.18152540784836665,[0.18196371],5.0,0.6,0.0,-3.523228908997763e-10,0.002181848415487718,1.4999615786359768
5.042430877685547,0.18152540784836665,[0.18196371],5.0,0.6,0.0,-3.2413705962779376e-10,0.0021914239268687867,1.4999615786360723
5.049707412719727,0.18152540784836665,[0.18196371],5.0,0.6,0.0,-2.9820609485757007e-10,0.002191519679621136,1.499961578636156
5.057705879211426,0.18152540784836665,[0.18196371],5.0,0.6,0.0,-2.743496072689646e-10,0.0021915206351055313,1.4999615786362284
5.066651344299316,0.18152540784836665,[0.18196371],5.0,0.6,0.0,-2.5240163868744717e-10,0.0021915206429129106,1.4999615786362903
5.075734853744507,0.18152540784836665,[0.18196371],5.0,0.6,0.0,-2.3220950759245144e-10,0.0021915206415161017,1.4999615786363425
5.084901809692383,0.18152540784836665,[0.18196371],5.0,0.6,0.0,-2.1363274698505546e-10,0.002191520640276889,1.4999615786363858
5.092713356018066,0.18152540784836665,[0.18196371],5.0,0.6,0.0,-1.9654212722625155e-10,0.0021915206392662204,1.4999615786364213
5.10103702545166,0.18152540784836665,[0.18196371],5.0,0.6,0.0,-1.8081875704815145e-10,0.0021915206384626857,1.4999615786364493
5.1097447872161865,0.18152540784836665,[0.18196371],5.0,0.6,0.0,-1.6635325648429907e-10,0.002191520637844776,1.499961578636471
5.11974835395813,0.18172080656510334,[0.18196371],5.0,0.6,0.0,-1.5304499596555505e-10,0.0012242969895450845,1.4999881994619133
5.128749132156372,0.18152540784836665,[0.18196371],5.0,0.6,0.0,-1.4080139628831078e-10,0.0021818484006053125,1.4999615786364975
5.137662649154663,0.18172080656510334,[0.18196371],5.0,0.6,0.0,-1.2953728458524585e-10,0.0012242002666914124,1.499988199461923
5.149772882461548,0.18152540784836665,[0.18196371],5.0,0.6,0.0,-1.1917430181842626e-10,0.0021818474331291985,1.4999615786365061
5.160713195800781,0.18152540784836665,[0.18196371],5.0,0.6,0.0,-1.096403576729522e-10,0.002191423904816521,1.4999615786365055
5.168736934661865,0.18172080656510334,[0.18196371],5.0,0.6,0.0,-1.0086912905911595e-10,0.0012242960217877935,1.4999881994619217
5.176734924316406,0.18152540784836665,[0.18196371],5.0,0.6,0.0,-9.279959873438666e-11,0.0021818483909696435,1.499961578636496
5.187715768814087,0.18152540784836665,[0.18196371],5.0,0.6,0.0,-8.537563083563568e-11,0.002191423914879363,1.4999615786364884
5.199650049209595,0.18152540784836665,[0.18196371],5.0,0.6,0.0,-7.854558036878483e-11,0.00219151967037799,1.499961578636479
5.208761930465698,0.18152540784836665,[0.18196371],5.0,0.6,0.0,-7.226193393928211e-11,0.0021915206282243807,1.4999615786364688
5.2176878452301025,0.18152540784836665,[0.18196371],5.0,0.6,0.0,-6.648097922413956e-11,0.0021915206381173304,1.4999615786364577
5.2264790534973145,0.18152540784836665,[0.18196371],5.0,0.6,0.0,-6.11625008862084e-11,0.002191520638546271,1.499961578636446
5.2367119789123535,0.18152540784836665,[0.18196371],5.0,0.6,0.0,-5.626950081531171e-11,0.002191520638889364,1.499961578636434
5.2461888790130615,0.18152540784836665,[0.18196371],5.0,0.6,0.0,-5.1767940750086726e-11,0.0021915206392344845,1.4999615786364218
5.256573438644409,0.18152540784836665,[0.18196371],5.0,0.6,0.0,-4.762650549007979e-11,0.0021915206395777013,1.4999615786364098
5.265880346298218,0.18152540784836665,[0.18196371],5.0,0.6,0.0,-4.381638505087341e-11,0.002191520639915129,1.499961578636398
5.275726079940796,0.18152540784836665,[0.18196371],5.0,0.6,0.0,-4.0311074246803566e-11,0.0021915206402430185,1.4999615786363865
5.284164905548096,0.18152540784836665,[0.18196371],5.0,0.6,0.0,-3.708618830705929e-11,0.00219152064055886,1.4999615786363756
5.291731595993042,0.18152540784836665,[0.18196371],5.0,0.6,0.0,-3.4119293242494536e-11,0.002191520640860155,1.499961578636365
5.302708148956299,0.18152540784836665,[0.18196371],5.0,0.6,0.0,-3.138974978309497e-11,0.002191520641145367,1.4999615786363547
5.311716318130493,0.18152540784836665,[0.18196371],5.0,0.6,0.0,-2.8878569800447417e-11,0.0021915206414132448,1.4999615786363454
5.320097208023071,0.18152540784836665,[0.18196371],5.0,0.6,0.0,-2.6568284216411648e-11,0.002191520641663088,1.4999615786363367
5.329154014587402,0.18152540784836665,[0.18196371],5.0,0.6,0.0,-2.444282147909869e-11,0.002191520641894341,1.4999615786363285
5.339724540710449,0.18152540784836665,[0.18196371],5.0,0.6,0.0,-2.2487395760770766e-11,0.002191520642106998,1.4999615786363212
5.350469350814819,0.18152540784836665,[0.18196371],5.0,0.6,0.0,-2.068840409990911e-11,0.002191520642301196,1.4999615786363143
5.360539674758911,0.18152540784836665,[0.18196371],5.0,0.6,0.0,-1.9033331771916367e-11,0.002191520642477211,1.499961578636308
5.371717929840088,0.18152540784836665,[0.18196371],5.0,0.6,0.0,-1.7510665230163046e-11,0.002191520642635596,1.4999615786363028
5.380404472351074,0.18152540784836665,[0.18196371],5.0,0.6,0.0,-1.6109812011750024e-11,0.0021915206427769057,1.4999615786362979
5.389064073562622,0.18152540784836665,[0.18196371],5.0,0.6,0.0,-1.4821027050810033e-11,0.0021915206429019697,1.4999615786362934
5.396702766418457,0.18152540784836665,[0.18196371],5.0,0.6,0.0,-1.3635344886745223e-11,0.002191520643011621,1.4999615786362894
5.406123399734497,0.18152540784836665,[0.18196371],5.0,0.6,0.0,-1.2544517295805622e-11,0.0021915206431068297,1.4999615786362863
5.414880990982056,0.18152540784836665,[0.18196371],5.0,0.6,0.0,-1.1540955912141162e-11,0.0021915206431887047,1.4999615786362832
5.422975778579712,0.18152540784836665,[0.18196371],5.0,0.6,0.0,-1.0617679439169861e-11,0.002191520643258081,1.499961578636281
5.430689573287964,0.18152540784836665,[0.18196371],5.0,0.6,0.0,-9.76826508403627e-12,0.002191520643316204,1.4999615786362788
5.438706636428833,0.18152540784836665,[0.18196371],5.0,0.6,0.0,-8.98680387731338e-12,0.0021915206433640476,1.499961578636277
5.448731422424316,0.18152540784836665,[0.18196371],5.0,0.6,0.0,-8.26785956712831e-12,0.0021915206434024457,1.4999615786362757
5.456714391708374,0.18152540784836665,[0.18196371],5.0,0.6,0.0,-7.606430801758041e-12,0.0021915206434323683,1.4999615786362748
5.465714693069458,0.18152540784836665,[0.18196371],5.0,0.6,0.0,-6.9979163376173995e-12,0.0021915206434547875,1.4999615786362739
5.4757020473480225,0.18172080656510334,[0.18196371],5.0,0.6,0.0,-6.438083030608014e-12,0.0012242969956238168,1.4999881994617952
5.486084699630737,0.18152540784836665,[0.18196371],5.0,0.6,0.0,-5.923036388159372e-12,0.0021818484070017068,1.499961578636273
5.493730783462524,0.18172080656510334,[0.18196371],5.0,0.6,0.0,-5.449193477106614e-12,0.0012242002732734372,1.499988199461795
5.501708507537842,0.18152540784836665,[0.18196371],5.0,0.6,0.0,-5.013257998938082e-12,0.002181847439782874,1.499961578636273
5.509734153747559,0.18172080656510334,[0.18196371],5.0,0.6,0.0,-4.61219735902304e-12,0.0012242002635978143,1.4999881994617952
5.520390272140503,0.18152540784836665,[0.18196371],5.0,0.6,0.0,-4.243221570301201e-12,0.0021818474396760887,1.4999615786362734
5.530078649520874,0.18152540784836665,[0.18196371],5.0,0.6,0.0,-3.9037638446770965e-12,0.0021914239114278035,1.4999615786362737
5.537710905075073,0.18152540784836665,[0.18196371],5.0,0.6,0.0,-3.591462737102933e-12,0.0021915196761343294,1.4999615786362739
5.54870343208313,0.18152540784836665,[0.18196371],5.0,0.6,0.0,-3.304145718134698e-12,0.0021915206337690296,1.4999615786362743
5.558516979217529,0.18152540784836665,[0.18196371],5.0,0.6,0.0,-3.0398140606839206e-12,0.0021915206433319127,1.4999615786362748
5.571898698806763,0.18152540784836665,[0.1819637],5.0,0.6,0.0,-2.796628935829207e-12,0.0020114044367734204,1.4999615815043348
5.580280303955078,0.18152540784836665,[0.18196361],5.0,0.6,0.0,-2.57289862096287e-12,0.001858746747541248,1.4999615957523698
5.589685678482056,0.18152540784836665,[0.18196335],5.0,0.6,0.0,-2.367066731285843e-12,0.001115955077316233,1.499961642168539
5.600167989730835,0.18152540784836665,[0.18196261],5.0,0.6,0.0,-2.1777013927829787e-12,-0.0002033111220665115,1.499961770963722
5.609708070755005,0.18152540784836665,[0.18196088],5.0,0.6,0.0,-2.003485281360339e-12,-0.0021418388506529193,1.4999620739481376
5.617675304412842,0.18152540784836665,[0.18195753],5.0,0.6,0.0,-1.8432064588515133e-12,-0.002635807834036704,1.4999626541961857
5.625709056854248,0.18152540784836665,[0.18195193],5.0,0.6,0.0,-1.695749942143393e-12,-0.005514505057392609,1.4999636167737425
5.636962175369263,0.18152540784836665,[0.18194308],5.0,0.6,0.0,-1.560089946771922e-12,-0.008411924531245816,1.4999651099713236
5.645260810852051,0.18152540784836665,[0.18192979],5.0,0.6,0.0,-1.4352827510301663e-12,-0.011009690420252344,1.4999672959855512
5.653200626373291,0.18152540784836665,[0.18191087],5.0,0.6,0.0,-1.3204601309477524e-12,-0.01317018470901735,1.4999702838536224
5.663520812988281,0.18152540784836665,[0.18188531],5.0,0.6,0.0,-1.214823320471932e-12,-0.014940827669055601,1.4999740947570046
5.672678709030151,0.18152540784836665,[0.18185252],5.0,0.6,0.0,-1.117637454834178e-12,-0.013240907544544737,1.499978599800476
5.681435823440552,0.18152540784836665,[0.18181237],5.0,0.6,0.0,-1.0282264584474422e-12,-0.015180242501657408,1.4999835308621687
5.690734624862671,0.18152540784836665,[0.18176456],5.0,0.6,0.0,-9.459683417716476e-13,-0.016562417953394606,1.499988561736393
5.6991987228393555,0.18152540784836665,[0.18170868],5.0,0.6,0.0,-8.702908744299151e-13,-0.017530159900613754,1.4999932824610798
5.708701848983765,0.18133000913162997,[0.18164455],5.0,0.6,0.0,-8.006676044755218e-13,-0.017119116501282457,1.49998021305665
5.71925687789917,0.18113461041489332,[0.1815722],5.0,0.6,0.0,-7.366141961174818e-13,-0.016439280653044987,1.4999617042673914
5.728097677230835,0.18113461041489332,[0.18149184],5.0,0.6,0.0,-0.2760383596793587,-0.016275538658482788,1.4999177592103932
5.73703145980835,0.18093921169815663,[0.18140411],5.0,0.6,0.0,-0.3091629628407462,-0.012697132841049865,1.4998856293520606
5.748456954956055,0.18074381298141998,[0.18130972],5.0,0.6,0.0,-0.5301040659275125,-0.01429931585393247,1.4997268104313297
5.756659030914307,0.18054841426468332,[0.18120947],5.0,0.6,0.0,-0.7631820236126352,-0.013566937837562887,1.4994792191204573
5.767680644989014,0.18035301554794664,[0.18110437],5.0,0.6,0.0,-0.9467250522349033,-0.01365217687371434,1.4992203469697023
5.775670528411865,0.18015761683120995,[0.18099526],5.0,0.6,0.0,-1.0680839576338834,-0.009290949067323947,1.4990111871272265
5.786938667297363,0.1799622181144733,[0.18088282],5.0,0.6,0.0,-0.8575060161588702,-0.009295583647394617,1.4992834433347348
5.795679330825806,0.17976681939773664,[0.1807678],5.0,0.6,0.0,-0.8458025063554582,-0.005547383765005763,1.499267382249203
5.804017543792725,0.17937602196426328,[0.18065099],5.0,0.6,0.0,-0.614172240658004,-0.004407321962564321,1.4993942309119865
5.8116490840911865,0.1791806232475266,[0.1805332],5.0,0.6,0.0,-0.6244036028359686,-0.0011793560675958353,1.4993440296167169
5.819995641708374,0.17898522453078994,[0.18041534],5.0,0.6,0.0,-0.42703924746329225,0.0001779621077374227,1.4994553037137652
5.829698801040649,0.17878982581405328,[0.18029827],5.0,0.6,0.0,-0.19520382759055904,0.0015514037830646461,1.4995166557299395
5.838376522064209,0.17878982581405328,[0.18018272],5.0,0.6,0.0,0.006024991206459718,0.001884968805925976,1.4996120195566736
5.84566330909729,0.17859442709731663,[0.18006941],5.0,0.6,0.0,0.15909270899118727,0.0038126529457939437,1.4995461409364623
5.853853940963745,0.17839902838057992,[0.17995913],5.0,0.6,0.0,0.2656605733629655,0.0053767569219391334,1.4994608002140268
5.8661792278289795,0.17859442709731663,[0.17985252],5.0,0.6,0.0,0.6098580235034602,0.0035302646837469523,1.4994067042088464
5.877208232879639,0.17839902838057992,[0.17974994],5.0,0.6,0.0,0.9578563884527462,0.004159933177830248,1.4989525617088828
5.886636734008789,0.17839902838057992,[0.17965174],5.0,0.6,0.0,1.2294646819686665,0.004578109558020867,1.498562233604188
5.896240711212158,0.17839902838057992,[0.1795584],5.0,0.6,0.0,1.4101162205313946,0.004838916781349858,1.4982532103391815
5.9063990116119385,0.17839902838057992,[0.17947095],5.0,0.6,0.0,1.5102344970258983,0.011230227054905053,1.4980752658774315
5.915102243423462,0.17859442709731663,[0.17939286],5.0,0.6,0.0,1.5472757766361673,0.03070483041425979,1.4980935400031434
5.9246742725372314,0.17859442709731663,[0.17933189],5.0,0.6,0.0,1.2623627511254485,0.061054806269278165,1.498706395503536
5.93302059173584,0.17859442709731663,[0.17930038],5.0,0.6,0.0,1.1888039208779824,0.0992506675481424,1.4988494108020698
5.94100022315979,0.17839902838057992,[0.17931113],5.0,0.6,0.0,0.9069733125230857,0.1067632839221244,1.4992216574473742
5.949832916259766,0.17859442709731663,[0.17937683],5.0,0.6,0.0,0.6007433274547506,0.1574136971588327,1.4996090007397718
5.959356307983398,0.17878982581405328,[0.1795166],5.0,0.6,0.0,0.3376315203182141,0.20834646439661797,1.4998095149380388
5.966681003570557,0.17898522453078994,[0.17975576],5.0,0.6,0.0,0.13434343158784068,0.2550347931086576,1.4998678265366423
5.975667238235474,0.1791806232475266,[0.18011475],5.0,0.6,0.0,0.26336955554264857,0.24653760511710288,1.4997738659471482
5.985446929931641,0.17976681939773664,[0.18060825],5.0,0.6,0.0,0.7477638174428409,0.29171161339690876,1.4994423484241763
5.995548486709595,0.18035301554794664,[0.18125785],5.0,0.6,0.0,1.5216169038697782,0.32102499258581385,1.4981157103762746
6.0056517124176025,0.18133000913162997,[0.18209024],5.0,0.6,0.0,2.2233842425267705,0.33456741299557635,1.4962180274750554
6.015690326690674,0.1823070027153133,[0.18313654],5.0,0.6,0.0,2.741923565146692,0.32657775950887624,1.4942970772092816
6.025311708450317,0.18347939501573338,[0.18442158],5.0,0.6,0.0,3.3460762722018114,0.33874300703632854,1.4915570738274857
6.032740831375122,0.18465178731615337,[0.18594725],5.0,0.6,0.0,3.8228545594381695,0.33955461483994864,1.4889030734666033
6.040998458862305,0.18562878089983675,[0.18770342],5.0,0.6,0.0,4.398194513883401,0.3365226815758649,1.4849451485686265
6.052029609680176,0.18777816678394008,[0.18968471],5.0,0.6,0.0,5.0,0.33544138073460134,1.4810053459462522
6.059688091278076,0.18895055908436015,[0.19188941],5.0,0.6,0.0,5.0,0.3417630075058555,1.4800061784625471
6.068958044052124,0.1909045462517268,[0.19430387],5.0,0.6,0.0,5.0,0.34378700891002156,1.4794236485959424
6.0789666175842285,0.19285853341909354,[0.1969106],5.0,0.6,0.0,5.0,0.3451642039309458,1.4784536017687024
6.08666467666626,0.19461712186972355,[0.19969035],5.0,0.6,0.0,5.0,0.32797156255306326,1.4765977590931585
6.099810600280762,0.19774350133751029,[0.20262586],5.0,0.6,0.0,5.0,0.3493211901505764,1.4769759270948855
6.108145236968994,0.20028368465508697,[0.20570797],5.0,0.6,0.0,4.725356793780375,0.3321677824445964,1.4777842431895738
6.115655422210693,0.20243307053919038,[0.20890889],5.0,0.6,0.0,4.100557104992707,0.30047377425981786,1.4792864294000827
6.124644994735718,0.20497325385676707,[0.21218945],5.0,0.6,0.0,3.7085506441065723,0.2914564010119777,1.479505458114843
6.134221792221069,0.20770883589108044,[0.21551977],5.0,0.6,0.0,3.421482222443836,0.27298266286704076,1.4792331363178657
6.1442296504974365,0.2108352153588672,[0.21887268],5.0,0.6,0.0,2.905650703178923,0.2470560853036672,1.4809174344137284
6.152784585952759,0.2131799999597072,[0.22221982],5.0,0.6,0.0,2.1032592870296147,0.22215134915008464,1.4805069828723347
6.161662340164185,0.21572018327728396,[0.22553189],5.0,0.6,0.0,1.6118492013862182,0.18260470680619018,1.4789999890958183
6.169646263122559,0.21845576531159733,[0.22878018],5.0,0.6,0.0,1.0185624703426825,0.16123718469917037,1.4781352315832885
6.179234266281128,0.22099594862917407,[0.23194008],5.0,0.6,0.0,0.21693482905575123,0.13959476322764158,1.4762948183518916
6.189273834228516,0.2239269293802241,[0.2349907],5.0,0.6,0.0,-0.778110911112377,0.11583580145521372,1.4753653411162657
6.1997010707855225,0.2272487075647475,[0.2379133],5.0,0.6,0.0,-1.3610028978762365,0.09044364124196448,1.476133090506398
6.2086546421051025,0.22959349216558755,[0.24069152],5.0,0.6,0.0,-2.2361765831416784,0.07117410700955179,1.4719591168178112
6.216625213623047,0.2317428780496909,[0.24331187],5.0,0.6,0.0,-3.0123478561264676,0.05705375404356976,1.4668773540402
6.226655006408691,0.23428306136726765,[0.24576383],5.0,0.6,0.0,-3.849057995894991,0.04093134531173245,1.4630750746105492
6.234642505645752,0.23623704853463434,[0.24804007],5.0,0.6,0.0,-4.500098028261108,0.0344515974219027,1.4576725128836459
6.244686603546143,0.23877723185221103,[0.25013689],5.0,0.6,0.0,-5.0,0.028304245926467488,1.4562538908222062
6.252625465393066,0.24053582030284107,[0.25205406],5.0,0.6,0.0,-5.0,0.027475355770999934,1.455547012084514
6.262537956237793,0.24268520618694442,[0.25379378],5.0,0.6,0.0,-5.0,0.022016089856226658,1.457354044395766
6.270658731460571,0.2442483959208378,[0.25535998],5.0,0.6,0.0,-5.0,0.02228301402308004,1.4573409755084143
6.279464244842529,0.24600698437146784,[0.2567583],5.0,0.6,0.0,-5.0,0.019496172691928586,1.4588790967479026
6.290650129318237,0.24796097153883453,[0.25799557],5.0,0.6,0.0,-5.0,0.01557667032263704,1.4617948711878213
6.301079273223877,0.24971955998946457,[0.2590795],5.0,0.6,0.0,-5.0,0.012391227118182671,1.4643629615074976
6.3094162940979,0.2510873510066213,[0.26001861],5.0,0.6,0.0,-5.0,0.010655093190264359,1.4659051791375954
6.31761908531189,0.25225974330704126,[0.26082194],5.0,0.6,0.0,-5.0,0.009624181230159673,1.4671767839981213
6.325802564620972,0.253627534324198,[0.26149896],5.0,0.6,0.0,-5.0,0.007134306053358094,1.4694166584578245
6.334599018096924,0.25479992662461803,[0.26205945],5.0,0.6,0.0,-5.0,0.006699404168421413,1.4712472652198985
6.344655275344849,0.255972318925038,[0.26251338],5.0,0.6,0.0,-5.0,0.0038962813879599057,1.4732114757123207
6.354653596878052,0.2573401099421947,[0.26287044],5.0,0.6,0.0,-5.0,4.293332243083502e-05,1.4756338194314607
6.365108251571655,0.25831710352587806,[0.26314003],5.0,0.6,0.0,-4.698702285629037,-0.0022836067202461016,1.479191117074849
6.372617721557617,0.25909869839282473,[0.26333128],5.0,0.6,0.0,-3.9919219577663423,-0.004064019188035289,1.4847007240343557
6.381764650344849,0.2602710906932448,[0.26345298],5.0,0.6,0.0,-3.793038146517377,-0.007809090114156113,1.4873812509773645
6.3946192264556885,0.26105268556019146,[0.26351355],5.0,0.6,0.0,-3.749968479997122,-0.009760897075594039,1.488430418850939
6.404186248779297,0.26163888171040145,[0.26352094],5.0,0.6,0.0,-3.4442162232797107,-0.011115968344916273,1.4905387971347006
6.412618160247803,0.26183428042713813,[0.26348259],5.0,0.6,0.0,-3.346680866294463,-0.010866629654827159,1.4911884032784883
6.422368288040161,0.26222507786061144,[0.26340531],5.0,0.6,0.0,-3.2945628984546405,-0.01240106525615126,1.4917065512450658
6.433954238891602,0.26222507786061144,[0.26329514],5.0,0.6,0.0,-3.5034753487064396,-0.013015896955444684,1.4907169734534955
6.441659927368164,0.26222507786061144,[0.26315744],5.0,0.6,0.0,-3.4386661641727203,-0.012128643710546607,1.491101070210091
6.451664924621582,0.2624204765773481,[0.26299642],5.0,0.6,0.0,-3.2567683643294316,-0.021285914032642017,1.4921001586706708
6.460372447967529,0.2624204765773481,[0.26281496],5.0,0.6,0.0,-2.7566090322760246,-0.021135330814158367,1.4943441331866314
6.469051361083984,0.26222507786061144,[0.26261536],5.0,0.6,0.0,-2.4919588112324753,-0.027977633545741253,1.4953682167648006
6.47894024848938,0.26222507786061144,[0.2623985],5.0,0.6,0.0,-1.7714458408402356,-0.03778483642605476,1.4976634889911753
6.491122245788574,0.26222507786061144,[0.26216241],5.0,0.6,0.0,-1.2958235391208384,-0.06096783117495004,1.4987508089627848
6.4991185665130615,0.26202967914387476,[0.26190419],5.0,0.6,0.0,-0.6978360278926371,-0.05635845215102664,1.4996344773096004
6.5091023445129395,0.26163888171040145,[0.26162254],5.0,0.6,0.0,0.1103478456774068,-0.06750187018172352,1.4999908823408443
6.518784761428833,0.26144348299366477,[0.26131546],5.0,0.6,0.0,0.5552974781164406,-0.07846109880484041,1.49976723461915
6.528124094009399,0.26105268556019146,[0.26097961],5.0,0.6,0.0,1.068120044689128,-0.08684627984495079,1.4991503808424307
6.535708665847778,0.26085728684345477,[0.26061352],5.0,0.6,0.0,1.2165056081891017,-0.07795027267489607,1.4988877001491212
6.5466554164886475,0.2604664894099814,[0.26021599],5.0,0.6,0.0,1.480789492015084,-0.10398514574009826,1.4983578363664392
6.555632591247559,0.2598802932597714,[0.25978475],5.0,0.6,0.0,1.438370863476227,-0.08894202570608815,1.4984604454219812
6.564253091812134,0.2592940971095614,[0.25931979],5.0,0.6,0.0,1.5640314746952504,-0.09440311536929333,1.498182231371738
6.571689605712891,0.25870790095935137,[0.25882305],5.0,0.6,0.0,1.4251313476096712,-0.08170820571633117,1.4984877547459936
6.5817625522613525,0.2581217048091414,[0.25829501],5.0,0.6,0.0,1.2103321107649532,-0.105303801688182,1.498904706127527
6.589793682098389,0.25773090737566806,[0.25773495],5.0,0.6,0.0,1.2734195899277978,-0.09025081320862817,1.4987943346817363
6.598187446594238,0.25694931250872133,[0.25714431],5.0,0.6,0.0,1.1226805758463043,-0.09333760400719096,1.4990550237792055
6.606664657592773,0.2563631163585114,[0.25652639],5.0,0.6,0.0,1.1942960363841582,-0.07990363118500932,1.4989340246174658
6.614656925201416,0.25558152149156466,[0.25588457],5.0,0.6,0.0,1.0335327881319585,-0.08393999033217937,1.4991871037425306
6.626274347305298,0.25460452790788135,[0.25521969],5.0,0.6,0.0,1.092124579038373,-0.09776724713944641,1.4990372331293411
6.63490104675293,0.2540183317576713,[0.25453186],5.0,0.6,0.0,0.9210723976544989,-0.07986911505886266,1.499316128265714
6.644717216491699,0.253041338173988,[0.25382468],5.0,0.6,0.0,0.9735602625629225,-0.07725000163380497,1.4991722237030856
6.654587030410767,0.25225974330704126,[0.25310207],5.0,0.6,0.0,0.8003342452154227,-0.07444638528186079,1.4993815186737383
6.665627717971802,0.25128274972335796,[0.25236682],5.0,0.6,0.0,0.8537756498136373,-0.07028342309851676,1.4992226631745127
6.675857305526733,0.2505011548564112,[0.25162082],5.0,0.6,0.0,0.9598047896069467,-0.07799947334261155,1.4990640087235079
6.684327840805054,0.24971955998946457,[0.25086613],5.0,0.6,0.0,1.3271423457757516,-0.06156510848795615,1.4984277088791842
6.693617343902588,0.2487425664057812,[0.25010672],5.0,0.6,0.0,1.4168630085173972,-0.05965562603739616,1.4981357302022902
6.701618671417236,0.24796097153883453,[0.24934705],5.0,0.6,0.0,1.659180109231061,-0.04824325839977178,1.4975707781607177
6.714587450027466,0.24678857923841455,[0.24858968],5.0,0.6,0.0,1.6086444928466581,-0.061818929728893655,1.4974288116967154
6.72491192817688,0.24600698437146784,[0.24783425],5.0,0.6,0.0,1.7301466944342492,-0.06301352017686064,1.4971091101633163
6.73661994934082,0.24483459207104782,[0.2470799],5.0,0.6,0.0,1.8631978947739554,-0.06349462751173007,1.496414701185133
6.747454643249512,0.24385759848736446,[0.24632497],5.0,0.6,0.0,1.9523297699100108,-0.08060715609818084,1.4959538447468919
6.756619930267334,0.24307600362041779,[0.24556739],5.0,0.6,0.0,1.9869566088157264,-0.06570818782671994,1.495829099317842
6.765624761581421,0.2422944087534711,[0.24480762],5.0,0.6,0.0,1.9736102473573962,-0.07109624155564671,1.4958464005830836
6.775631904602051,0.24151281388652443,[0.24404398],5.0,0.6,0.0,1.9236690010906443,-0.09248966653100454,1.4959723743578546
6.784631967544556,0.24053582030284107,[0.2432733],5.0,0.6,0.0,1.8483490106931595,-0.07490464257381406,1.4959656569144792
6.792626142501831,0.2397542254358944,[0.24249731],5.0,0.6,0.0,1.7569876747327948,-0.06307678448374672,1.4962035380862293
6.801079273223877,0.2389726305689477,[0.2417172],5.0,0.6,0.0,1.3806974675581762,-0.08977565691675499,1.4970775406572632
6.813546895980835,0.23780023826852767,[0.24092893],5.0,0.6,0.0,1.2436252932837346,-0.09075005513804203,1.496894201421057
6.824766635894775,0.23662784596810765,[0.24012881],5.0,0.6,0.0,0.9186631755171982,-0.09161902936269804,1.496923817821231
6.8335959911346436,0.23584625110116098,[0.23931691],5.0,0.6,0.0,0.8599576998943288,-0.0757966937071802,1.4970436060921362
6.845092535018921,0.23486925751747764,[0.23849313],5.0,0.6,0.0,0.8878214110113262,-0.10169283519274816,1.4967905410789941
6.854868173599243,0.23389226393379428,[0.23765376],5.0,0.6,0.0,0.9276124382142072,-0.10153224048163823,1.4965341060750397
6.86488676071167,0.23291527035011095,[0.23679581],5.0,0.6,0.0,0.9525524167696091,-0.10076875871596042,1.4963178369375303
6.873248815536499,0.23213367548316424,[0.23591888],5.0,0.6,0.0,0.6805027730550891,-0.10038325651183035,1.496793947465363
6.881879091262817,0.2311566818994809,[0.23502312],5.0,0.6,0.0,0.6323842296774297,-0.09861677829825345,1.4967169963591362
6.892091989517212,0.22998428959906086,[0.23410918],5.0,0.6,0.0,0.6579254130938628,-0.09553221451795059,1.4962807224059251
6.90061092376709,0.2292026947321142,[0.23317981],5.0,0.6,0.0,0.6944370987317539,-0.07705221459812427,1.4964826564936005
6.914123058319092,0.22783490371495752,[0.23223787],5.0,0.6,0.0,0.4431724609503043,-0.09447727864600214,1.4959841076751719
6.922065258026123,0.22685791013127415,[0.23128299],5.0,0.6,0.0,0.41770441835356636,-0.09037043572925908,1.495961535726266
6.929940700531006,0.22588091654759082,[0.23031688],5.0,0.6,0.0,0.18873099480076483,-0.07048275646966556,1.4960456583715114
6.938594579696655,0.22490392296390746,[0.22934462],5.0,0.6,0.0,0.2115073767961828,-0.07178327558009143,1.496030511087087
6.94881272315979,0.2239269293802241,[0.2283693],5.0,0.6,0.0,0.03244323539880328,-0.07179610155608357,1.496060065403702
6.956609725952148,0.22275453707980408,[0.22739379],5.0,0.6,0.0,0.09805767318832245,-0.055090231674140615,1.4956975632155278
6.966623544692993,0.22177754349612072,[0.22642223],5.0,0.6,0.0,-0.047223181460905386,-0.05802080248840393,1.495693019351217
6.977616548538208,0.2206051511957007,[0.22545568],5.0,0.6,0.0,0.04379607996413178,-0.07173359954821135,1.49530409652319
6.9859607219696045,0.219823556328754,[0.22449398],5.0,0.6,0.0,0.19308476613477563,-0.05454090487408555,1.4956191704141695
6.994892358779907,0.21884656274507067,[0.22353996],5.0,0.6,0.0,0.3304543395074537,-0.053933480678649,1.4955228110381242
7.005640268325806,0.21767417044465065,[0.22259523],5.0,0.6,0.0,0.7099586472229434,-0.0636393898527136,1.494793282463177
7.014636516571045,0.2166971768609673,[0.22166016],5.0,0.6,0.0,0.8107666574855417,-0.04606977597787708,1.4945967903111554
7.02284574508667,0.2159155819940206,[0.22073864],5.0,0.6,0.0,0.7929517381285932,-0.03392761205731984,1.494890580042844
7.030791997909546,0.2153293858438106,[0.21983521],5.0,0.6,0.0,1.0068480089331173,-0.03739793765264933,1.4951936865043027
7.043350458145142,0.2141569935433906,[0.21895068],5.0,0.6,0.0,1.2426328154095876,-0.04609174038053587,1.4942665208668817
7.057389497756958,0.21298460124297056,[0.21808326],5.0,0.6,0.0,1.4257550233569392,-0.048521320890793675,1.493303323450341
7.067128419876099,0.21220300637602388,[0.21723277],5.0,0.6,0.0,1.5400175947876669,-0.03267290219389952,1.4931907352982254
7.079254627227783,0.2110306140756039,[0.21640198],5.0,0.6,0.0,1.5919172635507326,-0.027200328781195254,1.4923633906961893
7.092572450637817,0.2100536204919205,[0.21559277],5.0,0.6,0.0,1.5947721334272265,-0.03006196104532149,1.491992696923878
7.100897789001465,0.20946742434171048,[0.21480537],5.0,0.6,0.0,1.286116527505917,-0.025157709354149144,1.493087689436524
7.1086649894714355,0.2086858294747638,[0.21404135],5.0,0.6,0.0,1.1964040748513576,-0.013545550233357437,1.4932157047011925
7.119392156600952,0.20790423460781715,[0.21330341],5.0,0.6,0.0,0.9038414749761776,-0.01085413525222841,1.4935789982821044
7.131442308425903,0.2069272410241338,[0.21259269],5.0,0.6,0.0,1.1427786433298635,-0.012348911105261092,1.4926299017836437
7.143957138061523,0.2061456461571871,[0.21190871],5.0,0.6,0.0,0.941670611988735,-0.01195250427605391,1.4927197758937218
7.151670455932617,0.2055594500069771,[0.21125122],5.0,0.6,0.0,0.9018168646355103,-0.006415895636184264,1.492936663348094
7.160659551620483,0.20497325385676707,[0.21062136],5.0,0.6,0.0,0.910637406347866,0.0020770795377666944,1.4930231631455537
7.170186996459961,0.20458245642329373,[0.21002085],5.0,0.6,0.0,0.9225275173378382,0.003790614386265359,1.4934690989081596
7.178164958953857,0.20399626027308376,[0.20945066],5.0,0.6,0.0,0.6460382186603523,0.006625662767112449,1.4937569752843949
7.1865904331207275,0.2036054628396104,[0.20891139],5.0,0.6,0.0,0.8735479775521178,0.011132623226190312,1.4938175401992442
7.19659423828125,0.20321466540613706,[0.20840364],5.0,0.6,0.0,0.9335976433824298,0.011770707663588105,1.493980977435651
7.205623626708984,0.20301926668940037,[0.20792751],5.0,0.6,0.0,0.9171125510186253,0.011911432861221122,1.4945676980265694
7.21510124206543,0.2028238679726637,[0.20748263],5.0,0.6,0.0,1.4201868028105509,0.011938620760475475,1.4941694343779426
7.224602699279785,0.2028238679726637,[0.20706856],5.0,0.6,0.0,1.7018944542677736,0.0112313127889771,1.4942515374948266
7.233615875244141,0.20262846925592706,[0.20668471],5.0,0.6,0.0,1.8383748731891187,0.01158561116065343,1.494205308849807
7.241589546203613,0.20262846925592706,[0.20633055],5.0,0.6,0.0,1.8801003451605969,0.012038997119124288,1.494638299450162
7.250188112258911,0.20262846925592706,[0.20600542],5.0,0.6,0.0,1.8608256803976964,0.010804486046965303,1.49515085153419
7.262602090835571,0.20262846925592706,[0.20570827],5.0,0.6,0.0,2.079279609425193,0.007773515714313952,1.4948967528063462
7.270594835281372,0.20262846925592706,[0.20543766],5.0,0.6,0.0,1.755747824467504,0.007435525013365983,1.4961334636790093
7.280643463134766,0.20262846925592706,[0.20519211],5.0,0.6,0.0,1.5741370645336272,0.00468034310237652,1.4968452542758957
7.290867328643799,0.20262846925592706,[0.20496976],5.0,0.6,0.0,0.9017645549130904,0.001441235220623918,1.498299308914819
7.300115585327148,0.20262846925592706,[0.2047682],5.0,0.6,0.0,0.46433472374106,-0.0026707563816639555,1.4989242608736235
7.309473752975464,0.20262846925592706,[0.20458458],5.0,0.6,0.0,0.18009608626725293,-0.007673077813379038,1.4992108770320904
7.319010972976685,0.20262846925592706,[0.20441564],5.0,0.6,0.0,-0.2790091584295956,-0.013105601205952411,1.4993034633167808
7.328052997589111,0.20262846925592706,[0.20425778],5.0,0.6,0.0,-0.7038433442587042,-0.018871929961839333,1.4991005721682116
7.336582660675049,0.20262846925592706,[0.2041078],5.0,0.6,0.0,-1.02847763369377,-0.017991353152822083,1.4987756309921243
7.346583604812622,0.20243307053919038,[0.20396297],5.0,0.6,0.0,-1.2468253098929643,-0.023965592513753135,1.4983761068677464
7.356572866439819,0.20243307053919038,[0.20381916],5.0,0.6,0.0,-1.374500734433643,-0.038580699105414604,1.4982114399398052
7.367029190063477,0.20223767182245372,[0.20367103],5.0,0.6,0.0,-1.4322273544643442,-0.042076304550794634,1.498064539740708
7.375442743301392,0.202042273105717,[0.20351509],5.0,0.6,0.0,-1.71531403306211,-0.03619324098144181,1.4973807971002717
7.386600494384766,0.20184687438898036,[0.2033496],5.0,0.6,0.0,-1.9965964131881577,-0.04180378978144642,1.4965897761892772
7.396584749221802,0.2016514756722437,[0.20317204],5.0,0.6,0.0,-2.199895000024097,-0.04692532512593019,1.4959480744665365
7.409597396850586,0.20126067823877036,[0.20297721],5.0,0.6,0.0,-2.313057333921507,-0.07186369803145179,1.4954439771898054
7.419603109359741,0.20086988080529702,[0.20275961],5.0,0.6,0.0,-2.3479382629251457,-0.05776547400202084,1.4951990941300741
7.4275922775268555,0.20067448208856034,[0.20251863],5.0,0.6,0.0,-2.3228099438871936,-0.048265413734006675,1.4953197729194418
7.435587644577026,0.20047908337182369,[0.20225599],5.0,0.6,0.0,-2.2552593082704133,-0.05239751003952324,1.4955968503655555
7.44497275352478,0.20008828593835032,[0.20197151],5.0,0.6,0.0,-2.1598201957831966,-0.05408303938451667,1.4958304769111483
7.454296112060547,0.19969748850487698,[0.20166446],5.0,0.6,0.0,-2.0476165827668726,-0.05440153179114414,1.4961151544560578
7.4635772705078125,0.19911129235466699,[0.20133476],5.0,0.6,0.0,-1.926762088060071,-0.05260827664097982,1.4962558260111436
7.472855567932129,0.1989158936379303,[0.200983],5.0,0.6,0.0,-1.802963218386511,-0.051847123795878365,1.4967318181294222
7.481632947921753,0.19832969748772028,[0.20061111],5.0,0.6,0.0,-1.6801024865909964,-0.0399594857329811,1.4968627268612125
7.492583751678467,0.1975481026207736,[0.20022214],5.0,0.6,0.0,-1.5607261443942564,-0.03816111272970102,1.4967609528211596
7.502030611038208,0.1969619064705636,[0.19981774],5.0,0.6,0.0,-1.44642456693298,-0.04342970210849189,1.4968152058849729
7.511568069458008,0.19657110903709027,[0.19939912],5.0,0.6,0.0,-1.0620789089522873,-0.03211225601655188,1.4975627610582538
7.5206358432769775,0.1961803116036169,[0.1989693],5.0,0.6,0.0,-0.9270981448319306,-0.030087844573507584,1.4978061055418754
7.529622793197632,0.19559411545340694,[0.19853143],5.0,0.6,0.0,-0.6108956843008008,-0.02665044235935946,1.497998196103053
7.539205312728882,0.1950079193031969,[0.19808805],5.0,0.6,0.0,-0.5651259164933933,-0.022706637179626794,1.497866672179506
7.546562910079956,0.19481252058646023,[0.19764184],5.0,0.6,0.0,-0.332311860949825,-0.02055955098386851,1.4983180786276398
7.55634617805481,0.1942263244362502,[0.19719548],5.0,0.6,0.0,-0.0795164729770984,-0.016381898849421685,1.4982336661825641
7.569699764251709,0.19364012828604024,[0.1967517],5.0,0.6,0.0,0.13263597799872875,-0.012182862781492646,1.4980524018483847
7.577640771865845,0.19324933085256688,[0.19631312],5.0,0.6,0.0,0.2898008058401613,-0.00899606244861765,1.49806188557338
7.587920427322388,0.19285853341909354,[0.19588226],5.0,0.6,0.0,0.3959206920723672,-0.005873064403660052,1.4980564147595137
7.595552444458008,0.1924677359856202,[0.19546168],5.0,0.6,0.0,0.460690280417412,-0.000613876714269785,1.4980509057695606
7.6052916049957275,0.19207693855214686,[0.19505389],5.0,0.6,0.0,0.494310567692222,0.0012932536640522295,1.4980472669988882
7.613566160202026,0.1918815398354102,[0.19466087],5.0,0.6,0.0,0.5055811986278963,0.002420099014646875,1.4982660202607594
7.621603012084961,0.19149074240193684,[0.19428424],5.0,0.6,0.0,0.7774852056397408,0.005861030409262042,1.4979907172391504
7.629762411117554,0.19129534368520015,[0.19392552],5.0,0.6,0.0,1.0723215759481826,0.006205288766102552,1.4977621583604894
7.638582468032837,0.19129534368520015,[0.19358579],5.0,0.6,0.0,1.305655397968149,0.0057690659532475055,1.497683923270741
7.6490256786346436,0.1910999449684635,[0.19326578],5.0,0.6,0.0,1.4591841084798074,0.00641551184964347,1.497479790137656
7.65844202041626,0.1910999449684635,[0.19296603],5.0,0.6,0.0,1.816373268465502,0.0060191013624005425,1.496853873849072
7.667571544647217,0.1910999449684635,[0.19268691],5.0,0.6,0.0,1.873440313884291,0.005673352731289002,1.4968905707159983
7.678600788116455,0.1909045462517268,[0.19242858],5.0,0.6,0.0,2.352620735373714,0.005997661830870816,1.4954323726922458
7.689455032348633,0.1910999449684635,[0.19219106],5.0,0.6,0.0,2.5724075753717286,0.00441013985138623,1.494860197928997
7.697579622268677,0.1909045462517268,[0.19197418],5.0,0.6,0.0,2.3600029319467435,0.004767483463592937,1.495642322863612
7.707208633422852,0.1909045462517268,[0.19177788],5.0,0.6,0.0,2.0204694779269374,0.0076307154180863266,1.496817820220962
7.715562582015991,0.1909045462517268,[0.19160252],5.0,0.6,0.0,1.6802662694242385,0.009142788313975617,1.497805320082291
7.724256992340088,0.1909045462517268,[0.19144887],5.0,0.6,0.0,1.1082844546817894,0.015513729833125727,1.4990272367088417
7.731542110443115,0.1909045462517268,[0.19131793],5.0,0.6,0.0,0.833085419753705,0.016053902074223077,1.4994494524439879
7.74092435836792,0.1909045462517268,[0.19121062],5.0,0.6,0.0,0.41970287184645894,0.022396860926466935,1.4998501542244955
7.748578071594238,0.1910999449684635,[0.19112825],5.0,0.6,0.0,0.035331482400141834,0.02680960137753093,1.4999989105564087
7.759648561477661,0.1909045462517268,[0.19107236],5.0,0.6,0.0,-0.2670917278157602,0.03224518611319936,1.499941266564453
7.768640995025635,0.1910999449684635,[0.19104417],5.0,0.6,0.0,-0.4824621136446563,0.03486841971531889,1.4998261340463723
7.7775633335113525,0.1910999449684635,[0.1910439],5.0,0.6,0.0,-0.6230915713497118,0.031011648252579592,1.4997104469226006
7.785573720932007,0.1910999449684635,[0.19107021],5.0,0.6,0.0,-0.7054577543787324,0.028405173411949296,1.49962949410927
7.798549175262451,0.19129534368520015,[0.19112223],5.0,0.6,0.0,-0.7449480951340104,0.03866648712920096,1.4995810739224356
7.809761047363281,0.19129534368520015,[0.19120118],5.0,0.6,0.0,-0.7541898727920329,0.04609117425153246,1.4995749890576442
7.819555997848511,0.19129534368520015,[0.19130814],5.0,0.6,0.0,-0.46684703722552845,0.04456760326202946,1.4998377543421815
7.831176042556763,0.1916861411186735,[0.1914423],5.0,0.6,0.0,-0.13299693051165823,0.04102843543813092,1.4999749415285968
7.840640306472778,0.1918815398354102,[0.19160183],5.0,0.6,0.0,-0.12204539927651081,0.03864193276776347,1.4999732647607353
7.849056720733643,0.19207693855214686,[0.1917846],5.0,0.6,0.0,0.06035490418980882,0.03617559048320963,1.4999801964126775
7.859461069107056,0.19207693855214686,[0.19198826],5.0,0.6,0.0,0.2625813958056873,0.034609851929319806,1.4999471043576182
7.870540380477905,0.1924677359856202,[0.19221028],5.0,0.6,0.0,0.15357955017035663,0.03127379003501815,1.4999691859434312
7.879697799682617,0.19266313470235683,[0.192448],5.0,0.6,0.0,0.23926793568748678,0.028841902984899123,1.4999481289219112
7.887916326522827,0.19285853341909354,[0.1926987],5.0,0.6,0.0,0.09245620748052472,0.026572260789796836,1.499988527417875
7.896585941314697,0.19285853341909354,[0.19295965],5.0,0.6,0.0,0.17360255620264126,0.025190290176001794,1.4999755210951033
7.908570766448975,0.1930539321358302,[0.19322813],5.0,0.6,0.0,0.034612009085606354,0.023060397993514992,1.499993039069189
7.916582345962524,0.19344472956930353,[0.1935013],5.0,0.6,0.0,-0.14926975864842446,0.017722565515557582,1.4999827737999478
7.924541473388672,0.19344472956930353,[0.19377626],5.0,0.6,0.0,-0.03483936676920188,0.017606063731373134,1.4999771135843711
7.933315277099609,0.19364012828604024,[0.19405041],5.0,0.6,0.0,-0.12171452122901553,0.01455758475291461,1.499955306160267
7.9435811042785645,0.19403092571951355,[0.19432144],5.0,0.6,0.0,-0.2554432080078832,0.013105740080195907,1.4999345501396035
7.9533774852752686,0.1942263244362502,[0.19458743],5.0,0.6,0.0,-0.3757849632094088,0.012339921065383543,1.4998688117078154
7.966078996658325,0.19442172315298686,[0.19484696],5.0,0.6,0.0,-0.4644417733962261,0.012535901335110376,1.4998032900485871
7.976992607116699,0.19481252058646023,[0.19509886],5.0,0.6,0.0,-0.5204779360720584,0.010808168789943957,1.499781986893107
7.985855579376221,0.19481252058646023,[0.19534196],5.0,0.6,0.0,-0.5491176441080796,0.009217700343935825,1.4997195317135414
7.994185209274292,0.1950079193031969,[0.19557496],5.0,0.6,0.0,-0.556904737493942,0.007924685315435172,1.4997048777486945
8.002955436706543,0.19520331801993357,[0.19579677],5.0,0.6,0.0,-0.549814884369209,0.006700898072068872,1.4997045872954138
8.0106360912323,0.19539871673667025,[0.1960065],5.0,0.6,0.0,-0.5326839479493373,0.00675923769848735,1.4997149414586617
8.021607160568237,0.19559411545340694,[0.19620347],5.0,0.6,0.0,-0.5091824532528133,0.005803309107215829,1.4997327787241406
8.030567407608032,0.19578951417014356,[0.19638726],5.0,0.6,0.0,-0.7580230930231915,0.004537494762952496,1.4995009925646379
8.04210877418518,0.19598491288688025,[0.19655774],5.0,0.6,0.0,-0.7621435417405835,0.004500009030171008,1.499502167223433
8.050551176071167,0.1961803116036169,[0.19671509],5.0,0.6,0.0,-0.6775354811817229,0.004385443583843088,1.4996012015114755
8.060787439346313,0.1961803116036169,[0.19686043],5.0,0.6,0.0,-0.5723019463679098,0.013230463767269867,1.4996637385157088
8.068613529205322,0.19637571032035359,[0.19699607],5.0,0.6,0.0,-0.7495921167808929,0.015513225548061223,1.499504939864408
8.077560901641846,0.19657110903709027,[0.19712524],5.0,0.6,0.0,-0.6991363228183878,0.028630193701422363,1.4995748646998788
8.08789587020874,0.19657110903709027,[0.19725509],5.0,0.6,0.0,-0.5765432933060286,0.06562481423025401,1.499659059818502
8.097126483917236,0.19676650775382695,[0.19739761],5.0,0.6,0.0,-0.44709623003429294,0.0906396757805971,1.499771564926327
8.105973720550537,0.1969619064705636,[0.19756369],5.0,0.6,0.0,-0.33467195515325643,0.09128866687301726,1.4998442039520894
8.113539934158325,0.19715730518730026,[0.19776253],5.0,0.6,0.0,-0.24507356689958387,0.12799563975168032,1.4998820345911998
8.124685287475586,0.19735270390403695,[0.19801234],5.0,0.6,0.0,-0.1769079251053247,0.20537229257374687,1.4998896828568136
8.133377313613892,0.19774350133751029,[0.19833528],5.0,0.6,0.0,-0.12647220451064123,0.19286400964765085,1.499918054329733
8.14253544807434,0.19832969748772028,[0.19874098],5.0,0.6,0.0,0.18622772067759652,0.18500698786433858,1.4999403534388682
8.151042699813843,0.1989158936379303,[0.19924102],5.0,0.6,0.0,0.5217290013110614,0.2701429821343966,1.4997762726291688
8.159863233566284,0.1993066910714036,[0.19985591],5.0,0.6,0.0,1.0706046867404821,0.25054792989187064,1.4990871724079364
8.167539119720459,0.19989288722161366,[0.20059787],5.0,0.6,0.0,1.5710532940417248,0.27782443478412416,1.4980666401816833
8.17817735671997,0.20106527952203365,[0.20147711],5.0,0.6,0.0,1.9419705072699525,0.2931108534268249,1.4971666257019236
8.187994003295898,0.20223767182245372,[0.20250638],5.0,0.6,0.0,2.729477414363435,0.30163450774144096,1.4944703827241925
8.196619987487793,0.20321466540613706,[0.20368868],5.0,0.6,0.0,3.468746161561401,0.2754577383988945,1.491078033023489
8.20655369758606,0.2047778551400304,[0.20501831],5.0,0.6,0.0,4.010396205366665,0.28662971717955094,1.4881582371837963
8.215551376342773,0.2061456461571871,[0.20649293],5.0,0.6,0.0,4.33737476389208,0.29239622745063254,1.4861659067898891
8.225842475891113,0.20790423460781715,[0.20811734],5.0,0.6,0.0,4.757093040549526,0.31399162747019405,1.4834258010640577
8.234570980072021,0.20927202562497385,[0.20989153],5.0,0.6,0.0,4.793803557715295,0.2820763826040069,1.4831058412724227
8.243743896484375,0.21122601279234052,[0.21180181],5.0,0.6,0.0,4.91872329504935,0.27702522730876317,1.4822442831929705
8.251594066619873,0.21278920252623387,[0.2138284],5.0,0.6,0.0,4.43721025228617,0.2432464319359547,1.4853403853021379
8.261554718017578,0.2145477909768639,[0.21595514],5.0,0.6,0.0,4.074705169107922,0.27051486114572304,1.4873960125044938
8.270544290542603,0.21630637942749392,[0.218169],5.0,0.6,0.0,3.494461793011924,0.23282926135196272,1.490298428571977
8.280090093612671,0.21845576531159733,[0.22045226],5.0,0.6,0.0,3.188457746217181,0.22575179004125134,1.4916923312191668
8.28754448890686,0.22021435376222737,[0.22278636],5.0,0.6,0.0,2.714599679715165,0.2174745249409591,1.493222285658013
8.296645879745483,0.22216834092959406,[0.2251535],5.0,0.6,0.0,2.2441504553461984,0.18311508677742996,1.494484414252927
8.305029153823853,0.22431772681369744,[0.22753354],5.0,0.6,0.0,1.561216065631351,0.1775521749291001,1.4961227402490889
8.313687801361084,0.2264671126978008,[0.22990992],5.0,0.6,0.0,1.196922753612038,0.16820265751089628,1.4965669178151142
8.32381796836853,0.2286164985819042,[0.23226913],5.0,0.6,0.0,0.7140461651723431,0.15624154970756668,1.4969558131153202
8.333306789398193,0.23096128318274423,[0.23459781],5.0,0.6,0.0,0.27616375954675987,0.1415552348774244,1.497301863235457
8.342549800872803,0.23291527035011095,[0.236883],5.0,0.6,0.0,-0.06734682725837182,0.12773426849444985,1.4968530020895323
8.350528717041016,0.23486925751747764,[0.23911139],5.0,0.6,0.0,-0.8664712343406031,0.1025882637000165,1.4958487736212438
8.358956098556519,0.236432447251371,[0.24126986],5.0,0.6,0.0,-1.3740336397156876,0.09554038108711473,1.4939273909000235
8.368514060974121,0.23877723185221103,[0.24334809],5.0,0.6,0.0,-1.9508261795219082,0.0833769307122362,1.4930051967255527
8.376673221588135,0.24053582030284107,[0.24533755],5.0,0.6,0.0,-2.4169103258974696,0.0665299810409533,1.4910697704041185
8.384574890136719,0.24209901003673442,[0.24723037],5.0,0.6,0.0,-2.729787457866256,0.06063396368293156,1.489231252201931
8.393054962158203,0.24385759848736446,[0.24902049],5.0,0.6,0.0,-3.177166186306268,0.04842356815382917,1.4872250072134054
8.402580976486206,0.2456161869379945,[0.25070366],5.0,0.6,0.0,-3.5447264761707507,0.04381807631780752,1.485570375927175
8.411923885345459,0.2473747753886245,[0.25227771],5.0,0.6,0.0,-3.774212056025586,0.03905963693488241,1.4847116879948317
8.419648170471191,0.2487425664057812,[0.25374199],5.0,0.6,0.0,-4.146383134091276,0.03242182223594628,1.482377933778376
8.42852783203125,0.25030575613967454,[0.25509673],5.0,0.6,0.0,-4.444029840139305,0.0300089302305491,1.480932393500715
8.437922239303589,0.25186894587356795,[0.25634366],5.0,0.6,0.0,-4.607798466166878,0.02659647673165832,1.4804456127723427
8.446398973464966,0.2532367368907246,[0.2574856],5.0,0.6,0.0,-4.642048729888553,0.023212137187149994,1.4806097112374461
8.454508781433105,0.25440912919114467,[0.25852574],5.0,0.6,0.0,-4.84842030576066,0.01828774265946746,1.4794203538760686
8.462538242340088,0.25577692020830134,[0.25946754],5.0,0.6,0.0,-4.7367849413817416,0.014899850168453098,1.480853249770455
8.472334384918213,0.257144711225458,[0.26031525],5.0,0.6,0.0,-4.487120642177324,0.011930681256124016,1.4832260189056714
8.481046199798584,0.25831710352587806,[0.26107361],5.0,0.6,0.0,-4.186601795101866,0.006718976985800247,1.4856026715078587
8.48928427696228,0.2594894958262981,[0.2617473],5.0,0.6,0.0,-4.152605502693706,0.002870825385480334,1.4863078180080547
8.501230239868164,0.26105268556019146,[0.26234114],5.0,0.6,0.0,-4.1610575024136445,-0.002843470156336357,1.4869438879154042
8.509572267532349,0.26183428042713813,[0.26286014],5.0,0.6,0.0,-3.8556009225443892,-0.0033867879094133264,1.4888451005353147
8.52292013168335,0.2632020714442948,[0.26330924],5.0,0.6,0.0,-3.7368736788307295,-0.009447257276628745,1.4897100372429608
8.530510187149048,0.2639836663112415,[0.26369342],5.0,0.6,0.0,-3.6559889735188213,-0.012508775734911843,1.4901316496332941
8.540510416030884,0.2645698624614515,[0.26401765],5.0,0.6,0.0,-3.5587857918993135,-0.014531683197582605,1.490599540543844
8.550131797790527,0.26496065989492484,[0.26428685],5.0,0.6,0.0,-3.7081295955923146,-0.014857584465297832,1.4897775838528076
8.558524131774902,0.2653514573283982,[0.26450595],5.0,0.6,0.0,-3.587950291028514,-0.015125501059581267,1.4903653276737427
8.569030284881592,0.26554685604513484,[0.2646798],5.0,0.6,0.0,-3.6368015696594513,-0.014379711089587764,1.4901002743019203
8.576825618743896,0.2657422547618715,[0.26481308],5.0,0.6,0.0,-3.687157334303336,-0.013676781140576593,1.4898088526821398
8.584523439407349,0.2657422547618715,[0.2649103],5.0,0.6,0.0,-3.4081457004707154,-0.012157749223057396,1.4912893599171353
8.595051765441895,0.2659376534786082,[0.26497571],5.0,0.6,0.0,-3.3112305860299087,-0.011701940269532427,1.4917194119015131
8.603910207748413,0.2659376534786082,[0.26501334],5.0,0.6,0.0,-2.9755912958659576,-0.010484311985242885,1.4932813650187284
8.612516403198242,0.2659376534786082,[0.26502693],5.0,0.6,0.0,-2.5911471906999184,-0.00941538619746063,1.4948610879255269
8.621520042419434,0.2659376534786082,[0.26501996],5.0,0.6,0.0,-2.2329385487963602,-0.00837673261904401,1.4961337330240185
8.630505800247192,0.2659376534786082,[0.26499567],5.0,0.6,0.0,-1.6484037457607519,-0.007648369596712145,1.497803923090804
8.640923738479614,0.2659376534786082,[0.26495699],5.0,0.6,0.0,-1.0822726864682777,-0.007097092780732924,1.4989365111949746
8.651005268096924,0.2657422547618715,[0.2649066],5.0,0.6,0.0,-0.34060690201034316,-0.0059135154327724995,1.4997739917066621
8.660589456558228,0.2657422547618715,[0.26484689],5.0,0.6,0.0,0.044713488049302696,-0.005503924202133018,1.4998381887038696
8.671913623809814,0.26554685604513484,[0.26478011],5.0,0.6,0.0,0.7936199445021247,-0.003835043261518848,1.4994137977114388
8.680490255355835,0.2653514573283982,[0.26470852],5.0,0.6,0.0,1.2317470885948214,-0.0006404963656450383,1.4987891985683406
8.689859390258789,0.2653514573283982,[0.26463524],5.0,0.6,0.0,1.7478165313454843,0.009079498284579648,1.4976285344029117
8.699409484863281,0.2653514573283982,[0.26456549],5.0,0.6,0.0,1.8939180420865553,0.025645279463310456,1.4972134646569228
8.710657119750977,0.2653514573283982,[0.26450711],5.0,0.6,0.0,2.1464419348533816,0.04801652101338883,1.49643954894426
8.720527648925781,0.2653514573283982,[0.26447044],5.0,0.6,0.0,2.359496991788564,0.07401105034908856,1.4957176537783887
8.732455492019653,0.2653514573283982,[0.26447012],5.0,0.6,0.0,2.7670870185454817,0.12628792153726398,1.4941773190244407
8.741507053375244,0.2653514573283982,[0.2645211],5.0,0.6,0.0,2.850631796599961,0.11638143358217914,1.493849480287058
8.751842498779297,0.26554685604513484,[0.26463512],5.0,0.6,0.0,3.0557912748613854,0.1634236353440686,1.4929307467085917
8.760503768920898,0.2657422547618715,[0.26482515],5.0,0.6,0.0,2.9484225307427554,0.1710252932469798,1.4934022743282775
8.769670963287354,0.2661330521953449,[0.26509877],5.0,0.6,0.0,3.001477049710062,0.1487476075256294,1.4931246433459975
8.779026508331299,0.2665238496288182,[0.26545594],5.0,0.6,0.0,3.3361281358694086,0.15915038948299895,1.4915552093414068
8.789528846740723,0.2671100457790282,[0.26589805],5.0,0.6,0.0,3.6578360726638834,0.16448040202934064,1.4898448957676136
8.799630165100098,0.2676962419292382,[0.26642743],5.0,0.6,0.0,3.8703577744999564,0.1663739892659544,1.488650623003134
8.807499170303345,0.2684778367961849,[0.26704176],5.0,0.6,0.0,4.236936451715249,0.14081278965486352,1.4864014160852816
8.81651782989502,0.2692594316631316,[0.26773481],5.0,0.6,0.0,4.256589929232481,0.1450648099895246,1.486228037203197
8.825490713119507,0.2698456278133416,[0.2685019],5.0,0.6,0.0,4.385758612246552,0.14627977272952297,1.4855235658997876
8.835273742675781,0.27082262139702495,[0.26933954],5.0,0.6,0.0,4.4730200383109775,0.14248346588784933,1.4848859368562997
8.844510078430176,0.27160421626397163,[0.27024267],5.0,0.6,0.0,4.200493056546961,0.1376230197762681,1.4866660093233863
8.853600025177002,0.272581209847655,[0.27120492],5.0,0.6,0.0,3.8134884173187897,0.13027580546367845,1.48891199737265
8.863893032073975,0.27355820343133835,[0.27221884],5.0,0.6,0.0,3.693429352511364,0.12170415561265513,1.4895890299654426
8.872901201248169,0.27473059573175834,[0.27327624],5.0,0.6,0.0,3.6378168327506932,0.11135525781771069,1.4898222880385397
8.885522603988647,0.2759029880321784,[0.27436834],5.0,0.6,0.0,3.293830317577913,0.10074901309487429,1.4915177168817397
8.895514965057373,0.2770753803325984,[0.27548607],5.0,0.6,0.0,2.606780490275649,0.09012847823920045,1.4944620179102124
8.908241987228394,0.2784431713497551,[0.27662118],5.0,0.6,0.0,2.1845607374505045,0.08819721105038686,1.4957963765780438
8.9192955493927,0.27961556365017515,[0.27776621],5.0,0.6,0.0,1.9016232927943446,0.07403048978305946,1.4966315673736064
8.928020715713501,0.28039715851712177,[0.27891246],5.0,0.6,0.0,1.142396666982386,0.06198828988625033,1.4985886797566663
8.93550968170166,0.28137415210080513,[0.28004986],5.0,0.6,0.0,0.6363875834174215,0.04525043403451156,1.4993479301027075
8.947988986968994,0.2825465444012252,[0.28116919],5.0,0.6,0.0,0.024381263653640017,0.04284571563737177,1.499620206456095
8.958651781082153,0.2837189367016452,[0.28226328],5.0,0.6,0.0,-0.5057675405748802,0.0328823634186443,1.4993859181668219
8.96655559539795,0.2845005315685919,[0.28332538],5.0,0.6,0.0,-1.1787991011894148,0.02262485823832329,1.4986905182649148
8.977497100830078,0.28567292386901194,[0.28434918],5.0,0.6,0.0,-1.4797789639505259,0.02058618723529978,1.4980222067829776
8.986555337905884,0.28645451873595856,[0.2853307],5.0,0.6,0.0,-1.862053018189501,0.02192954029211881,1.4971730722595262
8.99726414680481,0.28723611360290524,[0.28626772],5.0,0.6,0.0,-2.1755270955606636,0.020273683483631417,1.496301657900683
9.006978750228882,0.28821310718658855,[0.28716011],5.0,0.6,0.0,-2.3811811805331535,0.03577020503628267,1.4955752610699846
9.015738248825073,0.2889947020535353,[0.28801253],5.0,0.6,0.0,-2.4844687776420846,0.060904560252658335,1.4952332593026911
