t_s,q_rad,q_des_rad,K,B,Kff,jerk,tau_Nm,reward
0.0053424835205078125,0.0,[8.77658023e-05],9.825212432529046,0.9790254919034855,1.9737818648793566,0.0,9.998999999999999,1.4999984594339746
0.017366886138916016,0.0,[0.00042414],9.650424865058092,0.9580509838069711,1.9475637297587132,0.0,10.098989999999999,1.4999640209935952
0.026472806930541992,0.0,[0.00105417],9.475637297587138,0.9370764757104565,1.92134559463807,0.0,10.099989899999999,1.4997777709833588
0.037479400634765625,0.0,[0.00192435],9.300849730116184,0.9161019676139419,1.8951274595174268,0.0,10.099999898999998,1.499259650837634
0.047675371170043945,0.0,[0.00298634],9.12606216264523,0.8951274595174274,1.8689093243967834,0.0,10.099999998989999,1.498217939325229
0.05651664733886719,0.00019539871673667023,[0.00419679],8.951274595174274,0.8741529514209129,1.84269118927614,0.0,0.6639232089965857,1.496802899746636
0.06891536712646484,0.00019539871673667023,[0.00551708],8.77648702770332,0.8531784433243983,1.8164730541554968,0.0,-9.992360767910032,1.4943519425836516
0.07650899887084961,0.00039079743347334047,[0.00691317],8.601699460232366,0.8322039352278838,1.7902549190348536,0.0,-10.0989236076791,1.4915278176531146
0.08739161491394043,0.0005861961502100108,[0.00835526],8.426911892761412,0.8112294271313693,1.7640367839142101,0.276038359678681,-10.09998923607679,1.4879441786521452
0.09576296806335449,0.0009769935836833512,[0.00981764],8.252124325290458,0.7902549190348547,1.7378186487935667,0.5852013225188036,-10.099999892360767,1.4842352640005243
0.10338449478149414,0.0009769935836833512,[0.01127843],8.077336757819502,0.7692804109383402,1.7116005136729235,0.8392670287670616,-10.099999998923607,1.4784756808077635
0.11244082450866699,0.0011723923004200215,[0.01271922],7.902549190348549,0.7483059028418256,1.6853823785522803,1.0172477298603653,-10.099999999989235,1.4729168530469514
0.12042617797851562,0.0013677910171566918,[0.01412477],7.727761622877595,0.727331394745311,1.659164243431637,1.1247057533277216,-10.099999999999891,1.4670351102018206
0.1324172019958496,0.0013677910171566918,[0.01548293],7.55297405540664,0.7063568866487966,1.6329461083109935,0.8995036214221119,-10.099999999999998,1.460334108141211
0.1417076587677002,0.0011723923004200215,[0.01678456],7.378186487935686,0.685382378552282,1.6067279731903503,0.5991792810914075,-8.918420478609804,1.452153969015106
0.15142226219177246,0.0013677910171566918,[0.01802317],7.203398920464732,0.6644078704557674,1.5805098380697071,0.04849870325887817,-6.5095999005659735,1.4460289052697117
0.15967726707458496,0.0011723923004200215,[0.0191949],7.028611352993777,0.643433362359253,1.5542917029490637,-0.4787492577001643,-4.376833783160565,1.4369323071058258
0.1673753261566162,0.0013677910171566918,[0.02029798],6.853823785522822,0.6224588542627384,1.5280735678284203,-0.8925298123513234,-2.80594119559791,1.4302449594134186
0.1784050464630127,0.0013677910171566918,[0.02133221],6.679036218051868,0.6014843461662238,1.501855432707777,-1.1804451990394087,-1.3545671220554476,1.4223426782407513
0.18839502334594727,0.0013677910171566918,[0.02229966],6.504248650580913,0.6,1.475637297587134,-1.082924376105495,-0.23021341150525604,1.4152287876209404
0.19790077209472656,0.0013677910171566918,[0.02320444],6.329461083109958,0.6,1.4494191624664907,-1.1428653171961556,0.9039400895488631,1.4080671708906873
0.20877528190612793,0.0013677910171566918,[0.02405192],6.154673515639004,0.6,1.4232010273458477,-0.9523674240104683,1.576409169444938,1.401529900893807
0.21639561653137207,0.0017585884506300322,[0.02484751],5.97988594816805,0.6,1.3969828922252046,-0.7059944168049521,2.20599880534354,1.3984966221353385
0.22441482543945312,0.0027355820343133836,[0.02559535],5.805098380697095,0.6,1.3707647571045614,0.07210815810492227,2.1164716106318195,1.4007585342791131
0.23380160331726074,0.005275765351890096,[0.02629901],5.63031081322614,0.6,1.3445466219839184,1.7008379457215081,2.114715760483933,1.413250081936805
0.24270129203796387,0.008597543536413491,[0.02696343],5.455523245755186,0.6,1.3183284868632752,4.1017160598698865,1.8901306689378174,1.4223957010457582
0.2513861656188965,0.011723923004200214,[0.0275935],5.280735678284231,0.6,1.292110351742632,5.0,1.4169824763384893,1.432610825788021
0.26238322257995605,0.01621809348914363,[0.02819393],5.105948110813277,0.6,1.2658922166219888,5.0,1.4494652442790463,1.4534554286958818
0.27171778678894043,0.019735270390403698,[0.02877121],5.0,0.6,1.2396740815013456,5.0,1.634008428394654,1.4655350313105229
0.28077030181884766,0.023252447291663758,[0.02933096],5.0,0.6,1.2134559463807026,5.0,1.5523956326460993,1.4743696411833973
0.28948020935058594,0.026769624192923825,[0.02987574],5.0,0.6,1.1872378112600595,5.0,1.0321569834133182,1.4798043265372527
0.29941487312316895,0.030677598527657227,[0.03040081],5.0,0.6,1.1610196761394163,5.0,-0.6658756952015756,1.481716739359253
0.3093693256378174,0.03497637029586397,[0.03089221],5.0,0.6,1.1348015410187733,5.0,-3.0522250330785514,1.4784015554542242
0.3193960189819336,0.03868894591386071,[0.03133918],5.0,0.6,1.10858340589813,5.0,-4.181592665113612,1.4709864039123732
0.32805585861206055,0.040642933081227406,[0.03174321],5.0,0.6,1.082365270777487,3.5424190944825273,-4.273063940405407,1.475029239686979
0.3363642692565918,0.03986133821428073,[0.03211146],5.0,0.6,1.0561471356568437,-1.1812031481863672,-3.9217513771145676,1.4870221803172443
0.34816479682922363,0.035953363879547326,[0.03244874],5.0,0.6,1.0299290005362005,-5.0,-2.3681390756532927,1.4792785994358535
0.35846376419067383,0.031849990828077254,[0.03275707],5.0,0.6,1.0037108654155575,-5.0,-0.6682752747274598,1.481567515702813
0.3667142391204834,0.028137415210080514,[0.03303733],5.0,0.6,0.9774927302949143,-5.0,0.03535026741543151,1.476941738333509
0.3755042552947998,0.02501103574229379,[0.03329022],5.0,0.6,0.9512745951742712,-5.0,-0.06031945862026496,1.4681166155054375
0.38540148735046387,0.021103061407560384,[0.0335167],5.0,0.6,0.9250564600536281,-5.0,-0.2456943988481598,1.4513824508163522
0.39656829833984375,0.017195087072826982,[0.03371792],5.0,0.6,0.898838324932985,-5.0,-0.3603140313825925,1.4285951245468937
0.40543484687805176,0.014068707605040257,[0.03389519],5.0,0.6,0.8726201898123418,-5.0,-0.3548686707208733,1.406125178235939
0.41556382179260254,0.010160733270306851,[0.03404993],5.0,0.6,0.8464020546916986,-5.0,-0.28660743877567463,1.3738662494024618
0.42769622802734375,0.005471164068626767,[0.03418364],5.0,0.6,0.8201839195710555,-5.0,-0.19382238058817564,1.3297264847811143
0.43846964836120605,0.0013677910171566918,[0.03429784],5.0,0.6,0.7939657844504124,-5.0,-0.10084313971083463,1.2867605680094416
0.44848108291625977,-0.002344784600840043,[0.03439407],5.0,0.6,0.7677476493297692,-3.892909957458577,-0.017377850222733634,1.2522638056614845
0.459306001663208,-0.005861961502100107,[0.03447387],5.0,0.6,0.741529514209126,-0.3399954391668003,0.055406451044361,1.2221553804113139
0.46884846687316895,-0.00879294225315016,[0.03453876],5.0,0.6,0.715311379088483,3.32950074711115,0.1152114999692418,1.1787426252609963
0.48126912117004395,-0.012114720437673556,[0.03459021],5.0,0.6,0.6890932439678399,5.0,0.16632918754716397,1.1281751353250373
0.49416375160217285,-0.015241099905460279,[0.03462965],5.0,0.6,0.6628751088471967,5.0,0.20965860938620842,1.0898306296439584
0.5039396286010742,-0.01739048578956365,[0.03465843],5.0,0.6,0.6366569737265535,5.0,0.2403074714320623,1.0634219181934
0.5113663673400879,-0.018953675523457014,[0.03467784],5.0,0.6,0.6104388386059104,5.0,0.2622657157073579,1.044286228779344
0.5193593502044678,-0.020712263974087045,[0.03468908],5.0,0.6,0.5842207034852673,5.0,0.2800418317585718,1.0229886280998133
0.5294461250305176,-0.022080054991243738,[0.03469328],5.0,0.6,0.5580025683646241,5.0,0.2935063883045088,1.0065822700650138
0.5383613109588623,-0.02305704857492709,[0.03469148],5.0,0.6,0.531784433243981,5.0,0.3022312417507464,0.9949891218337621
0.5465154647827148,-0.02383864344187377,[0.03468463],5.0,0.6,0.5055662981233379,5.0,0.30776685578270907,0.9858249081272492
0.5544190406799316,-0.02442483959208378,[0.03467678],5.0,0.6,0.4793481630026947,5.0,0.678964815164688,0.9790129165047148
0.5624186992645264,-0.024815637025557124,[0.03467564],5.0,0.6,0.4531300278820516,5.0,0.9094321095038732,0.9744381346132038
0.5717446804046631,-0.024815637025557124,[0.03468613],5.0,0.6,0.42691189276140845,5.0,0.980975193425623,0.9743151503022719
0.5814440250396729,-0.024229440875347112,[0.03470865],5.0,0.6,0.4006937576407653,5.0,0.9473398836698117,0.9809364775149048
0.5893511772155762,-0.02305704857492709,[0.03474289],5.0,0.6,0.3744756225201221,5.0,0.9347579606429229,0.9943796775492963
0.5997207164764404,-0.021103061407560384,[0.034791],5.0,0.6,0.3482574873994789,5.0,0.796152218564351,1.017084914110682
0.6077558994293213,-0.018758276806720344,[0.03485662],5.0,0.6,0.3220393522788358,5.0,0.6372671680806065,1.0444868076327554
0.617405891418457,-0.01563189733893362,[0.03494202],5.0,0.6,0.2958212171581926,5.0,0.6109340425546509,1.0813010379456238
0.6286277770996094,-0.011528524287463544,[0.03505047],5.0,0.6,0.2696030820375494,5.0,0.7183777383490991,1.1296957769338314
0.638408899307251,-0.00781594866946681,[0.03518576],5.0,0.6,0.24338494691690624,5.0,0.680431827692211,1.1725843006107777
0.6506862640380859,-0.0029309807510500534,[0.03535024],5.0,0.6,0.21716681179626307,5.0,0.6484503258628476,1.2276868407773724
0.6594674587249756,0.0005861961502100108,[0.03554699],5.0,0.6,0.19094867667561988,5.0,0.6170296594635792,1.2648660868817447
0.6674396991729736,0.003907974334733405,[0.03577729],5.0,0.6,0.16473054155497668,5.0,0.4934771405838874,1.297903658105033
0.6763656139373779,0.007425151235993469,[0.03603855],5.0,0.6,0.13851240643433352,5.0,0.32346292219532274,1.3306903026669321
0.6843612194061279,0.010746929420516863,[0.0363282],5.0,0.6,0.11229427131369034,5.0,0.2634325339240963,1.3590548996725929
0.6929185390472412,0.014264106321776927,[0.03664596],5.0,0.6,0.08607613619304716,3.591036082339314,0.19158729334912725,1.3951581283700962
0.703291654586792,0.018172080656510332,[0.03699204],5.0,0.6,0.05985800107240398,1.2711123748037223,0.13920502457443307,1.43041132611719
0.7123763561248779,0.02188465627450707,[0.03736593],5.0,0.6,0.0336398659517608,-1.4686849484948283,0.11954827296119236,1.4515935918238958
0.7203636169433594,0.02501103574229379,[0.03776591],5.0,0.6,0.0074217308311176206,-4.081534224939062,0.08601241245372493,1.4557378993669192
0.7287912368774414,0.028528212643553853,[0.03818903],5.0,0.6,0.0,-5.0,0.06992761023578349,1.4632389311870526
0.7401509284973145,0.03321778184523394,[0.03862441],5.0,0.6,0.0,-5.0,-0.045852704442460604,1.4759027956721091
0.7496728897094727,0.03712575617996735,[0.03905245],5.0,0.6,0.0,-5.0,-0.060799464528879264,1.480989910756135
0.7583658695220947,0.04044753436449074,[0.03946152],5.0,0.6,0.0,-5.0,-0.06264010897302234,1.4815376366291257
0.7673816680908203,0.04376931254901414,[0.03985147],5.0,0.6,0.0,-5.0,-0.05484164821510613,1.478666867989726
0.7783629894256592,0.04748188816701086,[0.04022507],5.0,0.6,0.0,-5.0,-0.06240955052506299,1.4712550617840172
0.7913134098052979,0.05138986250174427,[0.04058382],5.0,0.6,0.0,-5.0,-0.08399446766930138,1.458648541683917
0.7993984222412109,0.05373464710258431,[0.04092649],5.0,0.6,0.0,-5.0,-0.09688778115358122,1.449454704742097
0.807457447052002,0.05549323555321435,[0.04125122],5.0,0.6,0.0,-5.0,-0.10574536452633551,1.4419769104899478
0.8153831958770752,0.05764262143731772,[0.0415566],5.0,0.6,0.0,-5.0,-0.11547934128923264,1.4312963803079108
0.8243746757507324,0.0597920073214211,[0.04184782],5.0,0.6,0.0,-5.0,-0.05678939519603156,1.4193630703333449
0.835364580154419,0.06194139320552447,[0.04213803],5.0,0.6,0.0,-5.0,-0.05803036800920757,1.4062945646336944
0.8443648815155029,0.06369998165615451,[0.04243482],5.0,0.6,0.0,-5.0,-0.08405810885316567,1.3952599131417611
0.8525454998016357,0.06545857010678453,[0.04273624],5.0,0.6,0.0,-5.0,-0.10449803086554618,1.3836237389740176
0.8623631000518799,0.06682636112394122,[0.04303904],5.0,0.6,0.0,-5.0,-0.11009652536114926,1.3747332997491772
0.8732810020446777,0.06838955085783459,[0.04334246],5.0,0.6,0.0,-5.0,-0.10980249119298795,1.36381306486671
0.882826566696167,0.0695619431582546,[0.04364766],5.0,0.6,0.0,-5.0,-0.10841921507368563,1.356051060339749
0.8928511142730713,0.07053893674193797,[0.04395634],5.0,0.6,0.0,-5.0,-0.10608335332005706,1.3499375108825657
0.9033522605895996,0.07151593032562131,[0.04427019],5.0,0.6,0.0,-5.0,-0.1036404723995123,1.3437612697883197
0.9159259796142578,0.07229752519256799,[0.04459191],5.0,0.6,0.0,-5.0,-0.08974781547429897,1.3394154841065895
0.9267642498016357,0.07268832262604133,[0.04492515],5.0,0.6,0.0,-5.0,-0.08601018563899616,1.3388679949312239
0.9357085227966309,0.07288372134277801,[0.04527252],5.0,0.6,0.0,-5.0,-0.08078891965626651,1.3403118532581104
0.9433512687683105,0.07307912005951467,[0.04563459],5.0,0.6,0.0,-5.0,-0.0870319292087695,1.3418889787431083
0.9533960819244385,0.07327451877625135,[0.04601098],5.0,0.6,0.0,-5.0,-0.07756538728146942,1.3435940861524889
0.9629356861114502,0.07327451877625135,[0.04640275],5.0,0.6,0.0,-4.4375509958113994,-0.06764802760059255,1.3510797254455478
0.9729385375976562,0.07327451877625135,[0.04681217],5.0,0.6,0.0,-3.920249943409736,-0.05852618387996377,1.3580034097358182
0.9824533462524414,0.07307912005951467,[0.04724134],5.0,0.6,0.0,-3.1926923724401473,-0.04915459999979797,1.3674809752179589
0.9931154251098633,0.07288372134277801,[0.04769214],5.0,0.6,0.0,-2.7733941921853322,-0.040158721198099545,1.3751083153705586
1.001603126525879,0.07268832262604133,[0.04816612],5.0,0.6,0.0,-1.671626380646808,-0.03275281114404375,1.3846073089283004
1.0096714496612549,0.07249292390930466,[0.04866304],5.0,0.6,0.0,-0.8154180751381862,-0.040514264053833626,1.3921445854489
1.018458366394043,0.07229752519256799,[0.04918105],5.0,0.6,0.0,0.3609022276411908,-0.030425996750666144,1.398541651843329
1.0266602039337158,0.07190672775909465,[0.04971966],5.0,0.6,0.0,1.1364285496032964,-0.02139888935466682,1.405277656173687
1.0343680381774902,0.07171132904235797,[0.05027811],5.0,0.6,0.0,1.8979504256529056,-0.02900652361089679,1.409543421015374
1.0436739921569824,0.07132053160888463,[0.05085399],5.0,0.6,0.0,2.2114599488827045,-0.018627108556008572,1.4160100408961644
1.051537275314331,0.07112513289214797,[0.05144486],5.0,0.6,0.0,2.570643525382979,-0.02486740542231669,1.4205665807784096
1.0595648288726807,0.07073433545867464,[0.0520482],5.0,0.6,0.0,2.845441545196688,-0.014971308705596547,1.426557397488684
1.0694499015808105,0.07034353802520128,[0.05266246],5.0,0.6,0.0,3.0067104934503686,-0.008082019575317703,1.4327059168979415
1.0797874927520752,0.06975734187499127,[0.05327473],5.0,0.6,0.0,3.0647014545721096,-0.1349497617173519,1.4401714511439345
1.0913755893707275,0.06936654444151794,[0.05385893],5.0,0.6,0.0,3.0416422037693702,-0.1198714149819162,1.4462014365824876
1.099374771118164,0.0689757470080446,[0.0544013],5.0,0.6,0.0,2.9603663359342347,-0.09478004317940762,1.451925472256254
1.1084003448486328,0.06838955085783459,[0.05490315],5.0,0.6,0.0,2.84026273627214,-0.06799768918380723,1.4583078241297303
1.1193122863769531,0.06780335470762457,[0.0553676],5.0,0.6,0.0,2.6963931380622936,-0.0566172590225894,1.46416084569942
1.1276912689208984,0.06702175984067789,[0.05579643],5.0,0.6,0.0,2.5398493943231912,-0.05032886261634835,1.470334267276998
1.1353411674499512,0.06663096240720455,[0.05618998],5.0,0.6,0.0,2.3784896943022193,-0.04633178319269531,1.474239589028699
1.1450190544128418,0.06584936754025787,[0.05654867],5.0,0.6,0.0,2.217695723030848,-0.04004224468509813,1.4792004927996343
1.1533401012420654,0.06526317139004786,[0.05687334],5.0,0.6,0.0,1.784984062603356,-0.035203380016966865,1.4836545973838307
1.1615715026855469,0.06467697523983784,[0.0571651],5.0,0.6,0.0,1.6015486726762531,-0.03028355676299213,1.4868720754496532
1.1703944206237793,0.06369998165615451,[0.05742534],5.0,0.6,0.0,1.5140143818643161,-0.02384333672333653,1.4904532515969409
1.1823856830596924,0.06272298807247115,[0.05765561],5.0,0.6,0.0,1.179785227960676,-0.017361350743917585,1.4938424448600063
1.1918509006500244,0.06194139320552447,[0.05785761],5.0,0.6,0.0,1.3675431640050295,-0.012131864466318932,1.4952798810479233
1.200392484664917,0.061355197055314455,[0.05803317],5.0,0.6,0.0,1.39525805751747,-0.007955296162472746,1.4963482004166038
1.2106597423553467,0.06057360218836778,[0.05818416],5.0,0.6,0.0,1.6254685245557465,-0.0032251169692824027,1.4968958164421224
1.2188758850097656,0.059987406038157755,[0.05831249],5.0,0.6,0.0,1.8576369552373995,0.0003160289713083799,1.4968768857572623
1.2276294231414795,0.059401209887947753,[0.05842002],5.0,0.6,0.0,1.747993845241171,0.0040203833061014296,1.4975381331963051
1.240340232849121,0.0584242163042644,[0.05850862],5.0,0.6,0.0,1.804182043581735,0.00942885674787016,1.4975813590053508
1.2504236698150635,0.05803341887079106,[0.05858013],5.0,0.6,0.0,2.157480340677744,0.011622031232062933,1.4964872236233535
1.2589952945709229,0.05744722272058106,[0.05863632],5.0,0.6,0.0,2.5134316490366273,0.014607169769057245,1.4950366665496277
1.2673425674438477,0.05725182400384438,[0.05867885],5.0,0.6,0.0,2.772445298645536,0.01542345401516774,1.4939036145579663
1.278306484222412,0.05705642528710771,[0.05870934],5.0,0.6,0.0,3.1938014448061818,0.016096127618842042,1.4919179292460367
1.2883198261260986,0.05686102657037104,[0.05872929],5.0,0.6,0.0,3.8250869494269795,0.016428617114851506,1.488528392298165
1.2997267246246338,0.056665627853634375,[0.05874012],5.0,0.6,0.0,4.082086058522186,0.016750874336137013,1.4868880060413954
1.3073971271514893,0.056665627853634375,[0.05874315],5.0,0.6,0.0,4.120750084827799,0.015993643535924123,1.4866552430268714
1.3153679370880127,0.056470229136897705,[0.05873957],5.0,0.6,0.0,4.3083534081378545,0.015990578679646983,1.4853422331290544
1.323596477508545,0.056470229136897705,[0.05873047],5.0,0.6,0.0,4.180531953078088,0.015215657772046452,1.4861368031726276
1.335303783416748,0.056470229136897705,[0.05871688],5.0,0.6,0.0,3.9252634124076486,0.014469925885682218,1.4876520797266615
1.3456363677978516,0.056470229136897705,[0.0586997],5.0,0.6,0.0,3.630354771949067,0.01364734177442693,1.4892912030313201
1.3537476062774658,0.056665627853634375,[0.05867976],5.0,0.6,0.0,3.059112044103773,0.012005496470134018,1.4922710633990295
1.3623275756835938,0.056470229136897705,[0.05865777],5.0,0.6,0.0,2.470716513881311,0.012354772718362456,1.4945198318001311
1.3719003200531006,0.056470229136897705,[0.05863434],5.0,0.6,0.0,1.9589443338690953,0.011757519046030805,1.4962153002610274
1.3793339729309082,0.056470229136897705,[0.05861001],5.0,0.6,0.0,1.269535895141788,0.011448579843525358,1.4978863619155847
1.3903307914733887,0.056665627853634375,[0.05858525],5.0,0.6,0.0,0.9147201134033918,0.010158135118120214,1.498640820203958
1.4014854431152344,0.056665627853634375,[0.05856049],5.0,0.6,0.0,0.44804316470619393,0.009857279900723909,1.499132747273598
1.4121582508087158,0.056665627853634375,[0.05853607],5.0,0.6,0.0,0.0286390225242614,0.009668966276873844,1.4992999203511832
1.4208543300628662,0.056665627853634375,[0.05851229],5.0,0.6,0.0,-0.296200157215485,0.009453604195768973,1.4992528973514163
1.4283652305603027,0.056665627853634375,[0.05848934],5.0,0.6,0.0,-0.5253155730117076,0.009242249540830371,1.4991296524219395
1.4403469562530518,0.056665627853634375,[0.05846742],5.0,0.6,0.0,-0.6737722209406932,0.009179265374227377,1.4990130991394457
1.4491841793060303,0.05686102657037104,[0.05844666],5.0,0.6,0.0,-0.7599647158586337,0.008128542644146535,1.4990675392340003
1.460357904434204,0.05686102657037104,[0.05842717],5.0,0.6,0.0,-0.5245736432036219,0.007755857926143951,1.4993047594620417
1.4704234600067139,0.05686102657037104,[0.05840901],5.0,0.6,0.0,-0.5001004415548116,0.0076446848870667175,1.4993347210693657
1.4813499450683594,0.05686102657037104,[0.05839224],5.0,0.6,0.0,-0.5421914973846123,0.007501534652723489,1.4993124010218384
1.4903411865234375,0.05686102657037104,[0.05837687],5.0,0.6,0.0,-0.5912126455462501,0.007379935295335631,1.4992804240813506
1.4987964630126953,0.05705642528710771,[0.05836289],5.0,0.6,0.0,-0.6260567135414714,0.006295714862831194,1.4993670066330294
1.5094962120056152,0.05705642528710771,[0.05835028],5.0,0.6,0.0,-0.6422027082415189,0.006286534003027168,1.4993583285702803
1.5205438137054443,0.05705642528710771,[0.05833901],5.0,0.6,0.0,-0.6415537518486117,0.006188160545514947,1.4993647547764994
1.5291590690612793,0.05705642528710771,[0.05832902],5.0,0.6,0.0,-0.627921477896243,0.006064194089274053,1.4993827318725743
1.5386934280395508,0.05705642528710771,[0.05832025],5.0,0.6,0.0,-0.6051636500059223,0.0060280476784419215,1.4994080602558888
1.5475139617919922,0.05705642528710771,[0.05831261],5.0,0.6,0.0,-0.5765294172466708,0.005951237106534225,1.4994370844528024
1.55778169631958,0.05725182400384438,[0.05830603],5.0,0.6,0.0,-0.5445251333369218,0.005021709046940273,1.4995570822325608
1.5657610893249512,0.05725182400384438,[0.05830045],5.0,0.6,0.0,-0.5109822052995214,0.004954882397411991,1.4995857718871322
1.5733740329742432,0.05725182400384438,[0.0582958],5.0,0.6,0.0,-0.4771852037165296,0.004956592921759829,1.4996125703288552
1.5818243026733398,0.05725182400384438,[0.05829199],5.0,0.6,0.0,-0.44400159830802743,0.0048407041166820194,1.4996369055299137
1.5927073955535889,0.05725182400384438,[0.05828894],5.0,0.6,0.0,-0.4119923723156296,0.004810117259052902,1.4996585663198403
1.6021485328674316,0.05725182400384438,[0.05828654],5.0,0.6,0.0,-0.3814991409659855,0.004776400177546931,1.499677566056246
1.6118793487548828,0.05725182400384438,[0.05828473],5.0,0.6,0.0,-0.35270978415614884,0.004853077311585408,1.4996940439829847
1.6196279525756836,0.05744722272058106,[0.05828346],5.0,0.6,0.0,-0.3257065353321251,0.003804632796956082,1.4997811894005344
1.627732515335083,0.05744722272058106,[0.05828263],5.0,0.6,0.0,-0.3005005521321127,0.0038089475108124627,1.499793212239298
1.6378228664398193,0.05744722272058106,[0.0582822],5.0,0.6,0.0,-0.2770564186454485,0.0038171511993247754,1.4998034339197681
1.6466844081878662,0.05744722272058106,[0.05828211],5.0,0.6,0.0,-0.2553093091052032,0.0038358074190026296,1.4998120811559128
1.6573097705841064,0.05744722272058106,[0.05828231],5.0,0.6,0.0,-0.23517688037908915,0.003809137258331967,1.4998193644608788
1.6653194427490234,0.05744722272058106,[0.05828274],5.0,0.6,0.0,-0.21656741776853777,0.003717287039696465,1.4998254784106746
1.67643141746521,0.05744722272058106,[0.05828335],5.0,0.6,0.0,-0.19938533912998008,0.0037996648168406146,1.4998305970025894
1.6842892169952393,0.05744722272058106,[0.05828409],5.0,0.6,0.0,-0.18353484900217054,0.0038311672782703884,1.4998348670671882
1.6931681632995605,0.05744722272058106,[0.05828494],5.0,0.6,0.0,-0.4449606649897604,0.003976285391080653,1.499712293945025
1.7026143074035645,0.05744722272058106,[0.05828587],5.0,0.6,0.0,-0.4646206588503088,0.004081915027888782,1.4996986739502784
1.7122974395751953,0.05764262143731772,[0.05828686],5.0,0.6,0.0,-0.39712121124624206,0.003175895334435049,1.4997996135968878
1.723275899887085,0.05744722272058106,[0.05828787],5.0,0.6,0.0,-0.309615864000387,0.004146672235367439,1.4997873166051705
1.7327144145965576,0.05744722272058106,[0.0582889],5.0,0.6,0.0,-0.22857924267858387,0.004110162707688335,1.4998194351499599
1.7403018474578857,0.05744722272058106,[0.05828989],5.0,0.6,0.0,-0.16227955824332502,0.0041124124753199355,1.4998383889542128
1.7495100498199463,0.05764262143731772,[0.05829085],5.0,0.6,0.0,-0.1113747528293128,0.003292649465818151,1.499906729998321
1.759321689605713,0.05744722272058106,[0.05829178],5.0,0.6,0.0,-0.07376251445485255,0.004216217750074893,1.4998533053316774
1.7685725688934326,0.05744722272058106,[0.05829266],5.0,0.6,0.0,-0.0466916577848172,0.004120151082232939,1.4998554329176288
1.778318166732788,0.05764262143731772,[0.05829348],5.0,0.6,0.0,-0.027598288897495604,0.00315927628218164,1.4999147132639683
1.7862954139709473,0.05764262143731772,[0.05829421],5.0,0.6,0.0,-0.014370231698028988,0.0032448811984225503,1.499914935277339
1.796327829360962,0.05764262143731772,[0.05829488],5.0,0.6,0.0,-0.005371692949573996,0.0032201461339885305,1.4999148949830294
1.8042736053466797,0.05744722272058106,[0.05829546],5.0,0.6,0.0,0.0006196788108437028,0.004101936083488302,1.499856109431845
1.8134729862213135,0.05744722272058106,[0.05829595],5.0,0.6,0.0,0.004496946020903892,0.004218957186787612,1.4998559275790222
1.8233373165130615,0.05764262143731772,[0.05829636],5.0,0.6,0.0,0.006902827443586694,0.00321119126602032,1.499914493648593
1.834289789199829,0.05764262143731772,[0.05829669],5.0,0.6,0.0,0.008294971243101213,0.003249011698551965,1.499914391204296
1.8426661491394043,0.05744722272058106,[0.05829694],5.0,0.6,0.0,0.00899664455113054,0.004131021855001779,1.4998555448752708
1.8502840995788574,0.05764262143731772,[0.05829711],5.0,0.6,0.0,0.009234708697762536,0.003181297651752245,1.4999142685710678
1.8612968921661377,0.05744722272058106,[0.05829719],5.0,0.6,0.0,0.009167442002191342,0.004157124477196867,1.4998554585161954
1.8732101917266846,0.05764262143731772,[0.05829674],5.0,0.6,0.0,0.008904630143562955,-0.0017457659444732171,1.4999143707328062
1.8817498683929443,0.05764262143731772,[0.05829548],5.0,0.6,0.0,0.008521931433846771,0.005626796971671722,1.4999147054655433
1.889941930770874,0.05764262143731772,[0.05829474],5.0,0.6,0.0,0.008071078735720261,0.011225351358899332,1.499914902836027
1.9003777503967285,0.05764262143731772,[0.05829895],5.0,0.6,0.0,0.007587089521140998,0.039781307922676784,1.4999138080367869
1.9091122150421143,0.05764262143731772,[0.05831476],5.0,0.6,0.0,0.007093343224780332,0.04341825051988101,1.4999096128645348
1.9193918704986572,0.05744722272058106,[0.05834875],5.0,0.6,0.0,0.006605146825697211,0.06735496657259755,1.4998374294453467
1.927297592163086,0.05764262143731772,[0.05840937],5.0,0.6,0.0,0.0061322330474548725,0.09202239033681543,1.4998823975074833
1.9353268146514893,0.05764262143731772,[0.05850533],5.0,0.6,0.0,0.005680507094419866,0.09203028366502836,1.4998511322725685
1.9478044509887695,0.0578380201540544,[0.05864706],5.0,0.6,0.0,0.005253265467045231,0.1537463665503552,1.4998690798917869
1.956312656402588,0.05803341887079106,[0.05885144],5.0,0.6,0.0,0.004852044516129871,0.17887273764796774,1.4998661601733076
1.966740369796753,0.0584242163042644,[0.05913548],5.0,0.6,0.0,0.5565539290268768,0.20262199688574595,1.499668300628912
1.9752912521362305,0.058619615021001076,[0.05950908],5.0,0.6,0.0,0.8984926486122331,0.18838743991737333,1.4992411969282542
1.984337329864502,0.05920581117121108,[0.05997806],5.0,0.6,0.0,1.0971373605870498,0.2189209957708883,1.4989854936534095
1.9922878742218018,0.0597920073214211,[0.06055258],5.0,0.6,0.0,1.4747716181876938,0.2448560922035541,1.4982678954037825
2.000591516494751,0.06037820347163111,[0.06124652],5.0,0.6,0.0,1.8205927411174794,0.2662871927660419,1.497387935377902
2.008286714553833,0.06115979833857779,[0.06206713],5.0,0.6,0.0,2.34465526811186,0.2442386869401445,1.4957597916902052
2.0200653076171875,0.06233219063899781,[0.06302069],5.0,0.6,0.0,3.074442143547447,0.3013045845645619,1.4929182558383998
2.0290913581848145,0.06350458293941783,[0.06411728],5.0,0.6,0.0,3.9709578068044533,0.27486963615871657,1.4883235507496422
2.0387415885925293,0.0650677726733112,[0.06535923],5.0,0.6,0.0,4.427132310360787,0.2889306725708877,1.485603941524296
2.048295021057129,0.06682636112394122,[0.06674774],5.0,0.6,0.0,4.601718217093476,0.29740088322606795,1.4844813693951768
2.05835223197937,0.06858494957457126,[0.06828806],5.0,0.6,0.0,5.0,0.3028207332480484,1.4817144334449228
2.0663516521453857,0.07014813930846461,[0.0699774],5.0,0.6,0.0,5.0,0.2770733626592799,1.4817262315414792
2.0786986351013184,0.07268832262604133,[0.07181225],5.0,0.6,0.0,5.0,0.3131305340536958,1.4815785730929194
2.087786912918091,0.07483770851014471,[0.07380055],5.0,0.6,0.0,5.0,0.3127960246733625,1.481516946865732
2.0952961444854736,0.07659629696077475,[0.07594177],5.0,0.6,0.0,4.924709898194266,0.2912094571527229,1.4821825992660602
2.1032721996307373,0.07874568284487811,[0.07822233],5.0,0.6,0.0,4.996589219467156,0.30214456656634214,1.4817017378990596
2.114314317703247,0.08167666359592816,[0.08063661],5.0,0.6,0.0,4.766202593617238,0.3066554727985613,1.4831561287466353
2.123558521270752,0.08460764434697822,[0.08318614],5.0,0.6,0.0,4.701103720260523,0.30909462137443844,1.4834121226461057
2.1352999210357666,0.08851561868171162,[0.08587239],5.0,0.6,0.0,4.921221404179947,0.30522592522074177,1.4808965833832077
2.1432621479034424,0.09105580199928834,[0.08869684],5.0,0.6,0.0,4.304186723711403,0.30729814706692415,1.4852853457644357
2.1512973308563232,0.09418218146707506,[0.09165309],5.0,0.6,0.0,3.483175330514422,0.2935185120478636,1.4897711836363399
2.1597766876220703,0.09691776350138845,[0.09472782],5.0,0.6,0.0,2.986715856238826,0.3033150805416497,1.4924447902503606
2.167919874191284,0.10004414296917516,[0.09791744],5.0,0.6,0.0,2.377210450014708,0.3056599473972109,1.4949067798839044
2.1752638816833496,0.10277972500348855,[0.10121844],5.0,0.6,0.0,1.8185837554855742,0.2986725217146298,1.4970567326468829
2.183257579803467,0.10590610447127527,[0.10461955],5.0,0.6,0.0,1.3606560730169712,0.307165243464829,1.4982927377956088
2.193147897720337,0.10981407880600867,[0.10811921],5.0,0.6,0.0,1.2818702189033397,0.30447308261688283,1.4982039487302972
2.203857898712158,0.11411285057421541,[0.11172414],5.0,0.6,0.0,1.324754903174726,0.2962133121001043,1.4975547624917662
2.2122902870178223,0.11743462875873882,[0.11543985],5.0,0.6,0.0,1.1067339922777735,0.2915721101226377,1.4982935307628902
2.2209503650665283,0.12114720437673555,[0.11927054],5.0,0.6,0.0,0.55680628522105,0.2851680447628573,1.4990651391912708
2.231670618057251,0.1252505774282056,[0.12321915],5.0,0.6,0.0,0.2738475383977058,0.2773885241869375,1.4991191806155608
2.242546796798706,0.1299401466298857,[0.12728734],5.0,0.6,0.0,-0.14870957147352254,0.26802869064049156,1.498577051679582
2.252079963684082,0.13365272224788244,[0.13147553],5.0,0.6,0.0,-1.0862237078703854,0.26465605322314645,1.4981748831163235
2.2606215476989746,0.13697450043240583,[0.13578309],5.0,0.6,0.0,-1.998391636398585,0.2643620447559097,1.4967521522460894
2.268670082092285,0.14029627861692923,[0.14019931],5.0,0.6,0.0,-2.7051054799359746,0.3040464554466396,1.494580461989402
2.2783074378967285,0.1443996516683993,[0.14470502],5.0,0.6,0.0,-3.4549645717536484,0.2977932577786979,1.4911740950010368
2.286872386932373,0.14772142985292272,[0.14929238],5.0,0.6,0.0,-4.0347836312111856,0.2940856085821571,1.4875337677314484
2.294764518737793,0.15084780932070943,[0.15395394],5.0,0.6,0.0,-4.401266775377291,0.32220477611862597,1.4838583015817715
2.3030636310577393,0.1543649862219695,[0.15867375],5.0,0.6,0.0,-4.576608756123436,0.3203824181360491,1.4809426662281404
2.3126564025878906,0.15846835927343958,[0.16344761],5.0,0.6,0.0,-4.3261306411544025,0.3110811633699886,1.4813142247153137
2.323014259338379,0.16257173232490962,[0.16828148],5.0,0.6,0.0,-4.210254089194077,0.3006893506845766,1.4804781346679436
2.3306632041931152,0.165307314359223,[0.17318062],5.0,0.6,0.0,-4.109212736324746,0.2972442187095782,1.4752657583103972
2.3387269973754883,0.16862909254374644,[0.17813977],5.0,0.6,0.0,-4.25887398145052,0.34730259828145427,1.468750793295876
2.3486523628234863,0.17292786431195314,[0.18314472],5.0,0.6,0.0,-4.1336809791008635,0.33444622814508107,1.4667802030033235
2.3583900928497314,0.1766404399299499,[0.18819365],5.0,0.6,0.0,-3.894167407761329,0.32065634058079223,1.4624958150539282
2.3676068782806396,0.18035301554794664,[0.1932954],5.0,0.6,0.0,-3.3405818231896536,0.3066503704422259,1.4588154059933525
2.3762524127960205,0.18367479373247003,[0.19845787],5.0,0.6,0.0,-3.303036048905039,0.29582228208576683,1.4491777118444331
2.3853487968444824,0.1873873693504668,[0.20368813],5.0,0.6,0.0,-3.1231139983813105,0.2890308717488227,1.4410361693122673
2.393932580947876,0.19070914753499016,[0.20898168],5.0,0.6,0.0,-2.894054608527571,0.37086998729692006,1.4292076583682358
2.4035444259643555,0.19442172315298686,[0.21432419],5.0,0.6,0.0,-2.657965624179463,0.34945496526065095,1.4186036710987187
2.414278984069824,0.19872049492119365,[0.21971451],5.0,0.6,0.0,-2.4325744299400727,0.3231812020397887,1.4112381557295466
2.4272844791412354,0.20399626027308376,[0.22517387],5.0,0.6,0.0,-2.224261357862007,0.354234847616564,1.4105377409781736
2.437962532043457,0.20849043075802715,[0.23073153],5.0,0.6,0.0,-2.0343357885203033,0.35583710636352167,1.4027318484081535
2.445267677307129,0.21142141150907717,[0.23638959],5.0,0.6,0.0,-1.8620048237723856,0.3366894276328614,1.3802033979784782
2.456697702407837,0.2161109807107573,[0.24213814],5.0,0.6,0.0,-1.7057381471205009,0.3822750449936422,1.371133159114032
2.4672598838806152,0.22021435376222737,[0.24799075],5.0,0.6,0.0,-1.5638659820340188,0.38743485422096746,1.3551928048406732
2.4765305519104004,0.22412232809696078,[0.25395777],5.0,0.6,0.0,-1.158779809574956,0.3949012018606569,1.3359181806264513
2.485239267349243,0.22763950499822086,[0.26002387],5.0,0.6,0.0,-1.0080381014728608,0.36988001107514457,1.3100315842357177
2.495281457901001,0.23154747933295422,[0.26617458],5.0,0.6,0.0,-0.9557397782153809,0.42568872611840497,1.2861000110821292
2.5048186779022217,0.23545545366768764,[0.27241881],5.0,0.6,0.0,-0.9336080289582632,0.4326008096440258,1.2602481273558273
2.514615297317505,0.2395588267191577,[0.27876209],5.0,0.6,0.0,-0.9141916525406052,0.43905418042170224,1.2347500012609085
2.5232763290405273,0.24307600362041779,[0.28518453],5.0,0.6,0.0,-0.6123300781874702,0.42887781921444557,1.2011569621108054
2.535670280456543,0.24796097153883453,[0.29166694],5.0,0.6,0.0,-0.5455652479665458,0.4632998689491907,1.1822446323737263
2.546464443206787,0.2520643445903046,[0.2982124],5.0,0.6,0.0,-0.5606401041226827,0.46782454240690025,1.1529290973426045
2.554340362548828,0.2551907240580913,[0.30481065],5.0,0.6,0.0,-0.5924754353730453,0.4851195786928566,1.1108799196222154
2.5622551441192627,0.25831710352587806,[0.31142953],5.0,0.6,0.0,-0.6165492214417166,0.49107078880769484,1.0685401107645722
2.5702602863311768,0.26183428042713813,[0.31804034],5.0,0.6,0.0,-0.626151179951501,0.5716459138608139,1.0313293376060275
2.5789897441864014,0.2653514573283982,[0.32461758],5.0,0.6,0.0,-0.6217550237110779,0.5740209442159017,0.9950603804128321
2.589232921600342,0.2698456278133416,[0.33114801],5.0,0.6,0.0,-0.6062256839222111,0.5757123877560787,0.9713395479052842
2.5982511043548584,0.27336280471460167,[0.3376286],5.0,0.6,0.0,-0.8588256850623338,0.5887583162323649,0.937240177088555
2.6062493324279785,0.2764891841823884,[0.34404625],5.0,0.6,0.0,-0.8634250658654703,0.6419334074656017,0.9008474915027158
2.6152536869049072,0.28000636108364846,[0.35037997],5.0,0.6,0.0,-0.5008949040983791,0.6521033557800571,0.8712082910677933
2.6252622604370117,0.28410973413511853,[0.35661983],5.0,0.6,0.0,-0.359057381189001,0.6605462694199268,0.8493023045292102
2.6342790126800537,0.2876269110363786,[0.36276504],5.0,0.6,0.0,-0.586961688448997,0.6740788281128651,0.8230523444201949
2.6442689895629883,0.29192568280458536,[0.36882088],5.0,0.6,0.0,-0.6075391467040274,0.6507444401607522,0.8062140958837603
2.6538031101226807,0.29622445457279206,[0.37479571],5.0,0.6,0.0,-0.2741188130718421,0.6867713701365105,0.7908694330804411
2.663541078567505,0.29974163147405214,[0.38067852],5.0,0.6,0.0,-0.16280998776398925,0.7100322260676422,0.7697582132529841
2.6734731197357178,0.3036496058087855,[0.38644624],5.0,0.6,0.0,-0.1422160250918424,0.7195428257878564,0.7538235369447486
2.6832520961761475,0.3071667827100456,[0.3920879],5.0,0.6,0.0,-0.15303850879495562,0.7292594137341513,0.7363614644951076
2.6931045055389404,0.31146555447825236,[0.39760058],5.0,0.6,0.0,-0.17008435422182794,0.7334502175165669,0.7267417624129497
2.7038345336914062,0.31576432624645917,[0.40298091],5.0,0.6,0.0,-0.18385439924199315,0.7357973379166048,0.7183924141138617
2.713782787322998,0.31967230058119256,[0.40822553],5.0,0.6,0.0,-0.1917470751864899,0.7385136478985078,0.7083645005102378
2.7218875885009766,0.32318947748245264,[0.4133314],5.0,0.6,0.0,-0.1939466649569292,0.741324658194674,0.6968614128985021
2.7302818298339844,0.32670665438371266,[0.41829085],5.0,0.6,0.0,-0.19156779894338538,0.7168464935728824,0.6868070338800998
2.7392454147338867,0.33022383128497274,[0.42309282],5.0,0.6,0.0,-0.1858678411226983,0.7248517860464772,0.678159838763378
2.7511260509490967,0.3351087992033895,[0.4277386],5.0,0.6,0.0,0.09808729004612386,0.7471622403466038,0.6797666197533906
2.761653184890747,0.33921217225485956,[0.43223973],5.0,0.6,0.0,-0.1355646547269606,0.7405685054029995,0.6771244535866767
2.769352436065674,0.34214315300590964,[0.4365973],5.0,0.6,0.0,-0.2138270729110528,0.7111586429766998,0.6678776594553228
2.7776880264282227,0.345464931190433,[0.44080381],5.0,0.6,0.0,-0.22461827920351946,0.715646278021429,0.6623287636865972
2.785231590270996,0.3485913106582197,[0.44485432],5.0,0.6,0.0,0.0671003529578148,0.6868890853335575,0.6567136790786716
2.793287754058838,0.35210848755947977,[0.44874632],5.0,0.6,0.0,0.12395704907633244,0.6974531649466894,0.6544556812660618
2.804891586303711,0.3569934554778965,[0.45248778],5.0,0.6,0.0,-0.18314041474099438,0.7270408797901641,0.6613809138293567
2.8128085136413574,0.3599244362289466,[0.45609135],5.0,0.6,0.0,-0.27084655527678586,0.6946542345208245,0.6572431029940501
2.822615385055542,0.36402780928041667,[0.45956094],5.0,0.6,0.0,-0.2679943643508278,0.6964869045081021,0.661113252969518
2.830296516418457,0.3671541887482034,[0.46290159],5.0,0.6,0.0,-0.2333083745978452,0.7015572212006611,0.659810515533049
2.8403491973876953,0.37086676436620014,[0.4661193],5.0,0.6,0.0,-0.19216253918051324,0.6683651752885158,0.6628740773559808
2.8492391109466553,0.37457933998419685,[0.46921676],5.0,0.6,0.0,-0.15444839171834104,0.6786930419018339,0.6667341275032346
2.859264612197876,0.3786827130356669,[0.47220679],5.0,0.6,0.0,-0.39918991477373594,0.7155032660559806,0.6737682076765793
2.868927001953125,0.3829814848038737,[0.47510642],5.0,0.6,0.0,-0.40755263569915456,0.675446750675902,0.6830353877846939
2.8762707710266113,0.38591246555492376,[0.47791854],5.0,0.6,0.0,-0.3333218337345281,0.6480940145312785,0.6838797815796309
2.8875648975372314,0.3902112373231304,[0.48064767],5.0,0.6,0.0,-0.24259990776776516,0.6958652284062198,0.6947624523036554
2.8965213298797607,0.3937284142243905,[0.48331337],5.0,0.6,0.0,-0.1608938069128226,0.6972053400189284,0.7008516353465692
2.905247926712036,0.397050192408914,[0.48592916],5.0,0.6,0.0,-0.09568423522341152,0.6639640163322528,0.7059901082725639
2.915677547454834,0.40154436289385737,[0.48850384],5.0,0.6,0.0,-0.04702815372354538,0.7038116669622343,0.7203809227545092
2.9262712001800537,0.4056477359453274,[0.49105686],5.0,0.6,0.0,-0.012382613704981397,0.6994962397698841,0.7324815666283113
2.9381251335144043,0.4101419064302709,[0.49360632],5.0,0.6,0.0,0.011317470717519177,0.6936559086942976,0.7482641278075595
2.9482784271240234,0.4144406781984775,[0.49616388],5.0,0.6,0.0,0.026854292749202053,0.6888970482061237,0.7629639173313927
2.957662582397461,0.4185440512499477,[0.49874052],5.0,0.6,0.0,0.03648829659198149,0.6851000463585202,0.7762916085787683
2.9672272205352783,0.42245202558468103,[0.50134636],5.0,0.6,0.0,0.041953272688722114,0.6821123024248469,0.787979033997233
2.9769742488861084,0.4263599999194144,[0.50399049],5.0,0.6,0.0,0.04453403712064618,0.6787897563495785,0.7996010906187339
2.9852101802825928,0.42968177810393793,[0.50667475],5.0,0.6,0.0,0.04516133170894267,0.6496987378888831,0.8055663135211666
2.9952380657196045,0.4335897524386713,[0.50940065],5.0,0.6,0.0,0.04449848705528743,0.6788770425912023,0.8168067804166527
3.0034775733947754,0.437302328056668,[0.51217526],5.0,0.6,0.0,0.04301217620529475,0.6507058127022526,0.8258899780336897
3.011275053024292,0.44042870752445473,[0.51499175],5.0,0.6,0.0,0.041026962187143176,0.6235499880558638,0.8289224917378225
3.024200201034546,0.44589987159308153,[0.51784367],5.0,0.6,0.0,0.03876596846596418,0.6545903093874114,0.8551605637889201
3.0325725078582764,0.44902625106086824,[0.52074311],5.0,0.6,0.0,0.03638057086587615,0.6540543320017275,0.8574840954488472
3.04021954536438,0.45215263052865495,[0.52369326],5.0,0.6,0.0,0.033971773910415635,0.6271151805863542,0.859293870290026
3.0493409633636475,0.4554744087131783,[0.52668362],5.0,0.6,0.0,0.031605452497134326,0.6334598889789421,0.8627097037240092
3.058204412460327,0.4591869843311751,[0.52971014],5.0,0.6,0.0,0.02932314384703586,0.6344061641146447,0.869832564579832
3.0666801929473877,0.4627041612324352,[0.53277404],5.0,0.6,0.0,-0.24888871145464322,0.6340550275270078,0.8745310460790213
3.074352502822876,0.4658305407002219,[0.53587488],5.0,0.6,0.0,-0.28406460405475004,0.6340169351324242,0.8747852165813945
3.0826375484466553,0.46915231888474523,[0.53900545],5.0,0.6,0.0,-0.2308907218222067,0.6028892978481788,0.8768163210398219
3.0929744243621826,0.47345109065295204,[0.54215296],5.0,0.6,0.0,-0.15660056105589992,0.6046261377872014,0.889054275716924
3.1022281646728516,0.476968267554212,[0.54531082],5.0,0.6,0.0,-0.08774688241465894,0.6062033105965643,0.8929175394760746
3.1112444400787354,0.4804854444554721,[0.54847263],5.0,0.6,0.0,-0.03267298737052894,0.5729060355596748,0.8967482175275276
3.119218111038208,0.48380722263999554,[0.55162688],5.0,0.6,0.0,-0.2681465065333269,0.5815584986974887,0.8985049028767828
3.1282131671905518,0.48751979825799224,[0.55476792],5.0,0.6,0.0,-0.2731802066726809,0.583229470201565,0.9047040668266216
3.1367807388305664,0.491232373875989,[0.55789495],5.0,0.6,0.0,0.07626064009867312,0.5811709410995727,0.9111527938128674
3.1442205905914307,0.49435875334377566,[0.56100186],5.0,0.6,0.0,0.19649504272894072,0.5476252081607684,0.911341862891907
3.1543140411376953,0.4982667276785091,[0.56407827],5.0,0.6,0.0,-0.05831586634545936,0.5512055816176621,0.9205306327941121
3.1634414196014404,0.5021747020132425,[0.56711931],5.0,0.6,0.0,-0.10873914298982454,0.5502707496313642,0.9301673953369637
3.171225070953369,0.5051056827642926,[0.57012471],5.0,0.6,0.0,0.19357404996537197,0.550832865056154,0.9293170288516086
3.183255434036255,0.5099906506827093,[0.57309753],5.0,0.6,0.0,0.2736676311917757,0.5668149918542745,0.9508505343467748
3.192638874053955,0.5138986250174427,[0.57603985],5.0,0.6,0.0,0.26370470543420343,0.5231822792354079,0.9618946815292073
3.2002627849578857,0.5166342070517561,[0.57894143],5.0,0.6,0.0,0.22347208385651604,0.49130956168513096,0.9600045520801956
3.2092459201812744,0.5203467826697529,[0.58178976],5.0,0.6,0.0,0.17845515331825385,0.4950503590406255,0.9699644201671411
3.2177977561950684,0.5242547570044862,[0.58458198],5.0,0.6,0.0,0.13830943025716066,0.49397384043849873,0.9829200022151832
3.228508472442627,0.5283581300559563,[0.58731964],5.0,0.6,0.0,0.1057002102222577,0.48932794026147225,0.9989204535010281
3.2372424602508545,0.5320707056739531,[0.5900043],5.0,0.6,0.0,0.08044509344565587,0.48505349698144995,1.0110592643462966
3.2452311515808105,0.5353924838584764,[0.59263417],5.0,0.6,0.0,0.06139112898452004,0.45091868711585664,1.0192719351675885
3.2537786960601807,0.5389096607597365,[0.5952048],5.0,0.6,0.0,0.047217495268735865,0.45569547570466684,1.0305550077482506
3.263206958770752,0.5426222363777332,[0.59771669],5.0,0.6,0.0,0.03674170851573909,0.45684067025191955,1.044938862730251
3.2726871967315674,0.54633481199573,[0.60017469],5.0,0.6,0.0,0.029006127465613728,0.45603978585727345,1.0600396531843979
3.2828497886657715,0.5506335837639368,[0.60258385],5.0,0.6,0.0,0.02327457952171278,0.45121310218586186,1.0828842260842135
3.2937257289886475,0.5553231529656169,[0.60494941],5.0,0.6,0.0,0.018998029393140017,0.44365340350264576,1.1110640145634227
3.306303024291992,0.5600127221672969,[0.6072806],5.0,0.6,0.0,0.015774556732894,0.46549865347320246,1.1396393536288025
3.3142285346984863,0.5631391016350836,[0.60958615],5.0,0.6,0.0,0.013313340141964666,0.42616366715211307,1.1495562340596015
3.326280355453491,0.5676332721200271,[0.61187068],5.0,0.6,0.0,0.011405441076011557,0.4522927758484559,1.1761165728524534
3.3345329761505127,0.5709550503045504,[0.61413894],5.0,0.6,0.0,0.009901345782673127,0.4127489397626688,1.1886860061328797
3.3442189693450928,0.5752538220727572,[0.6163917],5.0,0.6,0.0,0.00869423726053211,0.4105480791522954,1.2128636942983897
3.353111982345581,0.5789663976907539,[0.61863038],5.0,0.6,0.0,0.00770777825076044,0.41014420482085884,1.2300469581607307
3.3627188205718994,0.5828743720254873,[0.62086095],5.0,0.6,0.0,0.0068873022567459115,0.40776886180481486,1.2493148646954852
3.372209310531616,0.5867823463602206,[0.62308913],5.0,0.6,0.0,0.006193515605726885,0.40465421146317476,1.2682526890218195
3.3802096843719482,0.5899087258280075,[0.6253161],5.0,0.6,0.0,0.0055980201994274194,0.3701604519724279,1.2782274627774193
3.3901968002319336,0.5942074975962143,[0.627539],5.0,0.6,0.0,0.005080142458854653,0.3745100524754535,1.3007569301068946
3.399242877960205,0.5975292757807376,[0.6297647],5.0,0.6,0.0,0.0046246926677751855,0.4118822218569559,1.3123495148243542
3.408217668533325,0.6012418513987344,[0.63200379],5.0,0.6,0.0,0.004220383824741009,0.371502970629687,1.3275717745679967
3.4162089824676514,0.6045636295832577,[0.63425208],5.0,0.6,0.0,0.00385871644128033,0.33908382460574377,1.3383824888313756
3.4241783618927,0.6078854077677811,[0.6365018],5.0,0.6,0.0,0.003533191813361154,0.3530229724085541,1.348929094055622
3.4371089935302734,0.6133565718364078,[0.63876049],5.0,0.6,0.0,0.27927711620888046,0.3832383682347205,1.3788528086945901
3.445202589035034,0.6162875525874579,[0.64104415],5.0,0.6,0.0,0.31213437248168197,0.38031503704076197,1.3845645144633651
3.4541923999786377,0.619804729488718,[0.6433571],5.0,0.6,0.0,0.25679363045733244,0.34202579087988105,1.394940863944042
3.4637913703918457,0.623908102540188,[0.64569837],5.0,0.6,0.0,0.18048635040045544,0.37535662570909245,1.409382215187029
3.4728639125823975,0.6272298807247115,[0.64807191],5.0,0.6,0.0,0.1097603921030424,0.33820925002163116,1.4167799467404234
3.4804604053497314,0.6305516589092349,[0.65047607],5.0,0.6,0.0,0.05295242678351539,0.34285822012928774,1.423671583912146
3.492058753967285,0.6350458293941783,[0.65290944],5.0,0.6,0.0,0.010784139492152286,0.3396579537691259,1.4381721462067152
3.5027270317077637,0.6397353985958584,[0.65537567],5.0,0.6,0.0,-0.018787606562635534,0.33386954532244173,1.4522535977161386
3.5116498470306396,0.643447974213855,[0.65787778],5.0,0.6,0.0,-0.03845918331011482,0.33186051071657163,1.4592102428733476
3.520564556121826,0.6471605498318519,[0.66041819],5.0,0.6,0.0,-0.05074379575890158,0.32919901210358793,1.4654557835115467
3.5290253162384033,0.6502869292996385,[0.6629936],5.0,0.6,0.0,-0.05770680378912975,0.29565983990509775,1.4682214183145643
3.5391979217529297,0.6543903023511087,[0.66559584],5.0,0.6,0.0,-0.06094080202539577,0.3006474030244969,1.4751971455072457
3.548214912414551,0.6579074792523687,[0.66822273],5.0,0.6,0.0,-0.06162830981878745,0.30450373919922413,1.4789411310454363
3.557704448699951,0.6620108523038388,[0.67087719],5.0,0.6,0.0,-0.06062568149102366,0.3026266582019623,1.4843978152750628
3.5662107467651367,0.6651372317716254,[0.67355615],5.0,0.6,0.0,0.2174965391420558,0.26984624496510495,1.485889160579776
3.5756795406341553,0.6690452061063589,[0.67625641],5.0,0.6,0.0,0.25335972842883403,0.3069562145274082,1.489605830477187
3.58674693107605,0.6733439778745656,[0.67898465],5.0,0.6,0.0,-0.07467717276227043,0.29754590131289077,1.4936526205240412
3.594219923019409,0.6764703573423524,[0.68174081],5.0,0.6,0.0,-0.18062840610916617,0.26259802008387634,1.494435580850235
3.604400634765625,0.6805737303938224,[0.68451412],5.0,0.6,0.0,0.08326858047778314,0.2629915101504673,1.4968943221006463
3.615778923034668,0.6852632995955026,[0.68730422],5.0,0.6,0.0,0.13907868378745042,0.284546043747819,1.4991528748319278
3.624202251434326,0.6889758752134992,[0.69011479],5.0,0.6,0.0,0.11561194684751344,0.24489989723660557,1.4997306593149666
3.632755756378174,0.692688450831496,[0.69293857],5.0,0.6,0.0,0.06968940400366494,0.2425158049792427,1.4999838725481074
3.6447231769561768,0.6975734187499129,[0.69576842],5.0,0.6,0.0,0.024425101951054254,0.23228902062779583,1.4993481675288172
3.6558234691619873,0.7018721905181196,[0.69860607],5.0,0.6,0.0,-0.012320130400194543,0.24944640236310858,1.4978686560939325
3.665761947631836,0.7055847661361163,[0.70145586],5.0,0.6,0.0,-0.03919278659610516,0.23431364973933244,1.4965950937967452
3.6735312938690186,0.7089065443206396,[0.70431185],5.0,0.6,0.0,-0.057310355153657185,0.1931823579520409,1.4957842173158793
3.683218002319336,0.712814518655373,[0.70715965],5.0,0.6,0.0,-0.06847872320379914,0.18625350351686207,1.4936214180708727
3.6922357082366943,0.7161362968398964,[0.70998644],5.0,0.6,0.0,-0.07446571408257908,0.1498744525057752,1.492460260762312
3.703770637512207,0.7208258660415765,[0.71278416],5.0,0.6,0.0,-0.07675318467630121,0.17273371858079437,1.4871450906294468
3.711191415786743,0.7237568467926265,[0.7155519],5.0,0.6,0.0,-0.07649375210922207,0.1619038834962344,1.4866216559550198
3.7232561111450195,0.72883721342778,[0.71829039],5.0,0.6,0.0,0.20149277579190045,0.1619428520189284,1.4779683090779105
3.7362935543060303,0.7343083774964068,[0.72099786],5.0,0.6,0.0,0.2376337151011192,0.12817805703809998,1.465144439559999
3.7452595233917236,0.7378255543976668,[0.72366583],5.0,0.6,0.0,0.1861819918337266,0.08303523754575075,1.4606679867228447
3.7532787322998047,0.7411473325821902,[0.72628063],5.0,0.6,0.0,0.11406707473555514,0.06925436268116764,1.456749308274564
3.7644169330596924,0.7454461043503969,[0.72883431],5.0,0.6,0.0,0.047631638575708644,0.06724903148381851,1.446303312061736
3.7743186950683594,0.7495494774018672,[0.73132337],5.0,0.6,0.0,-0.00492385151463148,0.039384328784463365,1.4357207306450905
3.783240556716919,0.7532620530198638,[0.73374013],5.0,0.6,0.0,-0.3190037293138802,-0.0007547539373125355,1.4265355584738215
3.7922146320343018,0.7565838312043872,[0.73607393],5.0,0.6,0.0,-0.6537912384217837,-0.016854941499508693,1.4189925514478567
3.803476095199585,0.7606872042558572,[0.73831818],5.0,0.6,0.0,-0.923791483219411,-0.026487707253085246,1.4041350279977192
3.812511920928955,0.763813583723644,[0.74046857],5.0,0.6,0.0,-1.38658304427781,-0.05820727859588314,1.3953031235015902
3.8235974311828613,0.7675261593416408,[0.74251901],5.0,0.6,0.0,-1.8068840160395911,-0.07765407133426126,1.3800093284957133
3.832218647003174,0.7698709439424808,[0.74446426],5.0,0.6,0.0,-2.388001584899442,-0.09044612970409541,1.3746591037289573
3.8417320251464844,0.7726065259767941,[0.7463011],5.0,0.6,0.0,-3.433910460279915,-0.10488674483865223,1.3620533876910481
3.8503146171569824,0.7749513105776341,[0.74802666],5.0,0.6,0.0,-4.113514164835837,-0.12189797211554287,1.352594565284405
3.8582825660705566,0.7769052977450008,[0.74963901],5.0,0.6,0.0,-4.77271909022121,-0.12561230046256217,1.3451639137119031
3.871215581893921,0.7802270759295242,[0.75113807],5.0,0.6,0.0,-5.0,-0.1413817106373767,1.3260432875498211
3.880268096923828,0.7819856643801543,[0.7525244],5.0,0.6,0.0,-5.0,-0.15084296025818472,1.3223708395410125
3.8907408714294434,0.783939651547521,[0.75379914],5.0,0.6,0.0,-5.0,-0.15439702345701736,1.315591795948321
3.8992578983306885,0.7853074425646777,[0.75496495],5.0,0.6,0.0,-5.0,-0.1571012905606788,1.313556890322429
3.909252405166626,0.7864798348650976,[0.75602552],5.0,0.6,0.0,-5.0,-0.15753091268245673,1.3124266408465979
3.9172379970550537,0.787456828448781,[0.75698477],5.0,0.6,0.0,-5.0,-0.15550327913664416,1.3122471191889207
3.9255197048187256,0.7882384233157278,[0.75784705],5.0,0.6,0.0,-5.0,-0.15296907100580925,1.3130631894387557
3.9341273307800293,0.7890200181826744,[0.75861822],5.0,0.6,0.0,-5.0,-0.14863815926672228,1.3129578529875636
3.944164276123047,0.7894108156161478,[0.75930569],5.0,0.6,0.0,-5.0,-0.1404828277824915,1.3159474359621777
3.95521879196167,0.7898016130496212,[0.75991779],5.0,0.6,0.0,-5.0,-0.13061455252576912,1.3181652635017458
3.9644148349761963,0.7899970117663577,[0.76046373],5.0,0.6,0.0,-5.0,-0.11810774881692666,1.3216568207227257
3.973661184310913,0.7901924104830944,[0.76095361],5.0,0.6,0.0,-4.781279569521977,-0.10402854656348542,1.3261060177276918
3.983393430709839,0.7899970117663577,[0.76139831],5.0,0.6,0.0,-4.586898573391456,-0.08636953454243279,1.3336818462058069
3.993243932723999,0.7898016130496212,[0.76180945],5.0,0.6,0.0,-4.106206121826297,-0.0672879039275249,1.3425549473440175
4.002794981002808,0.7898016130496212,[0.76219926],5.0,0.6,0.0,-3.0233017545892538,-0.047980087145108014,1.3519056235494276
4.011474370956421,0.7896062143328845,[0.76258056],5.0,0.6,0.0,-2.1919957189045416,-0.026435432610129487,1.3605270202482171
4.02095365524292,0.7892154168994111,[0.76296415],5.0,0.6,0.0,-1.5733485441328816,-0.028686990336949384,1.3694110904720453
4.031825542449951,0.7890200181826744,[0.76336157],5.0,0.6,0.0,-0.29372522421625225,0.02755847752702147,1.3765649989133004
4.040623188018799,0.788629220749201,[0.76378999],5.0,0.6,0.0,0.6830903266648337,0.050057919670592844,1.383565053032068
4.0481672286987305,0.7884338220324644,[0.76426264],5.0,0.6,0.0,1.920686456686453,0.03871823331719823,1.386980760656252
4.05834174156189,0.7882384233157278,[0.76478283],5.0,0.6,0.0,2.708024071328293,0.03331755268819997,1.3903753067064768
4.0662150382995605,0.7882384233157278,[0.76535422],5.0,0.6,0.0,3.444326368058663,0.06861117979054727,1.3918074554413429
4.075161457061768,0.7878476258822544,[0.765988],5.0,0.6,0.0,3.982965939626023,0.10148636167910241,1.3971851340688988
4.088094234466553,0.7878476258822544,[0.7667033],5.0,0.6,0.0,4.583859363496294,0.1636505923255844,1.3990655630093678
4.09813666343689,0.7878476258822544,[0.76751778],5.0,0.6,0.0,5.0,0.14225558878239722,1.402395667482144
4.107757329940796,0.7882384233157278,[0.76844351],5.0,0.6,0.0,5.0,0.1986067920896943,1.4063564490141394
4.11518406867981,0.7882384233157278,[0.76949168],5.0,0.6,0.0,5.0,0.17750670595479906,1.4138573493883897
4.123137950897217,0.788629220749201,[0.7706667],5.0,0.6,0.0,5.0,0.19878829216043878,1.4192396316707843
4.1331634521484375,0.7890200181826744,[0.77197293],5.0,0.6,0.0,5.0,0.21736396526816354,1.4252681482248621
4.142173767089844,0.7894108156161478,[0.77341982],5.0,0.6,0.0,5.0,0.2333429998152213,1.4318754311068838
4.151275873184204,0.7899970117663577,[0.7750158],5.0,0.6,0.0,5.0,0.2465118015553334,1.4378372268410042
4.160486221313477,0.7909740053500411,[0.77676829],5.0,0.6,0.0,5.0,0.25631605837624455,1.4421752527923308
4.1681389808654785,0.7917556002169878,[0.77867681],5.0,0.6,0.0,5.0,0.24254888063352115,1.4480996854119232
4.1761744022369385,0.7927325938006711,[0.78072668],5.0,0.6,0.0,5.0,0.22911021763894795,1.4533152195678931
4.18516993522644,0.7939049861010912,[0.78290494],5.0,0.6,0.0,5.0,0.2583967163574574,1.457822344427905
4.196086406707764,0.7954681758349845,[0.78522236],5.0,0.6,0.0,5.0,0.2793567491814691,1.4609555689477092
4.2067320346832275,0.7974221630023514,[0.7877034],5.0,0.6,0.0,5.0,0.27881853518943206,1.4630185087043577
4.214169502258301,0.7987899540195079,[0.79035347],5.0,0.6,0.0,5.0,0.28599546620600635,1.4675980528931731
4.224536895751953,0.8007439411868746,[0.79316117],5.0,0.6,0.0,5.0,0.2909611481691844,1.4702982432097458
4.232464551925659,0.8025025296375047,[0.79612478],5.0,0.6,0.0,5.0,0.2917876492714554,1.473629935954274
4.24302077293396,0.8048473142383447,[0.79925102],5.0,0.6,0.0,5.0,0.28679315386391585,1.4754879263259597
4.251187086105347,0.8069967001224482,[0.80254535],5.0,0.6,0.0,5.0,0.2815730889229802,1.4777770048159224
4.260480165481567,0.8095368834400247,[0.80601195],5.0,0.6,0.0,5.0,0.27429218337357064,1.4792501162755893
4.269214630126953,0.8116862693241282,[0.80964404],5.0,0.6,0.0,5.0,0.3100484345269416,1.4808982717785633
4.27920126914978,0.814812648791915,[0.81342532],5.0,0.6,0.0,5.0,0.301419455134468,1.4813471980345656
4.287542104721069,0.8173528321094915,[0.81735014],5.0,0.6,0.0,4.8304833643830625,0.2930199745162565,1.482928713771537
4.295165061950684,0.819502217993595,[0.82141226],5.0,0.6,0.0,4.548954888489619,0.32699437170964424,1.4841016057885066
4.30427360534668,0.822433198744645,[0.82559545],5.0,0.6,0.0,4.23026155178503,0.32062991265132273,1.4848567919015365
4.312639236450195,0.8253641794956951,[0.82989437],5.0,0.6,0.0,3.6333513655730174,0.3109950558398368,1.4861728084116461
4.320135593414307,0.8280997615300084,[0.83430324],5.0,0.6,0.0,3.2927064324917072,0.3448555375390952,1.484326971352715
4.330954074859619,0.8322031345814787,[0.83881607],5.0,0.6,0.0,3.3358273306926964,0.26490672062158505,1.4830767018471884
4.339146375656128,0.8357203114827386,[0.84343643],5.0,0.6,0.0,3.1782595682614208,0.33540859335589535,1.4806997371142272
4.349148273468018,0.8398236845342087,[0.84815645],5.0,0.6,0.0,2.671830457470686,0.3213355226500925,1.4809231009317427
4.357166767120361,0.8429500640019953,[0.85296851],5.0,0.6,0.0,1.8411891983901223,0.3125615869805502,1.4776091593969898
4.366169452667236,0.8468580383367289,[0.85786519],5.0,0.6,0.0,1.5939559157621837,0.35852771817024087,1.4741720456582614
4.374139308929443,0.8499844178045155,[0.86282947],5.0,0.6,0.0,0.7343117752261561,0.3507330891780842,1.4671382378526117
4.386603116989136,0.8548693857229324,[0.86786615],5.0,0.6,0.0,0.6601070628788657,0.2842898533756688,1.4664568659282389
4.396690845489502,0.8587773600576656,[0.87299821],5.0,0.6,0.0,0.016876377963747302,0.28615722968107193,1.4603603027159748
4.404182195663452,0.8617083408087157,[0.87822383],5.0,0.6,0.0,-0.6875693565198797,0.35918677814190775,1.4465571898619287
4.412164688110352,0.8652255177099757,[0.8835201],5.0,0.6,0.0,-1.8217075344918234,0.35307051492867014,1.4327886036542727
4.424752712249756,0.8703058843451292,[0.88888577],5.0,0.6,0.0,-2.304783215681111,0.3171070987823803,1.4293483983930617
4.436660289764404,0.8748000548300726,[0.89433758],5.0,0.6,0.0,-3.010851714249571,0.31395938305158927,1.4197955337390864
4.444271087646484,0.8777310355811228,[0.89986832],5.0,0.6,0.0,-3.6184406647150933,0.38701047408953704,1.396986019298545
4.452178955078125,0.8808574150489095,[0.90545071],5.0,0.6,0.0,-4.035456012126486,0.3916245770008231,1.3740873751531213
4.462287902832031,0.8851561868171162,[0.91106937],5.0,0.6,0.0,-4.263448271200712,0.39443735139296343,1.3609794566416542
4.4726643562316895,0.8896503573020595,[0.91671887],5.0,0.6,0.0,-4.3360951873519085,0.40021112580618984,1.3498884792507528
4.480146884918213,0.8927767367698464,[0.92238399],5.0,0.6,0.0,-4.292884846764878,0.45191426288500286,1.3256582562396146
4.489198446273804,0.8964893123878431,[0.92804151],5.0,0.6,0.0,-4.169063816058555,0.4572195528170534,1.3066886494168812
4.499022960662842,0.9003972867225765,[0.93367926],5.0,0.6,0.0,-3.9927833731753237,0.46263605435537886,1.2895577863729355
4.508131742477417,0.9043052610573099,[0.93929424],5.0,0.6,0.0,-3.7851908832407606,0.47039861668640276,1.2722727217457779
4.517624616622925,0.9082132353920432,[0.94488231],5.0,0.6,0.0,-3.5615361966444645,0.4799369002918836,1.2548473719459705
4.52663779258728,0.9123166084435134,[0.95043836],5.0,0.6,0.0,-3.3324654388165893,0.4895812728976786,1.2395758620443122
4.539149045944214,0.9168107789284567,[0.95595645],5.0,0.6,0.0,-3.1051845647736274,0.4975124658355121,1.2289093006665506
4.548327445983887,0.9203279558297169,[0.96143003],5.0,0.6,0.0,-2.884401184600269,0.5098518766950504,1.2071286165959052
4.557442903518677,0.9240405314477135,[0.96685208],5.0,0.6,0.0,-2.3970076657920294,0.5202654196067427,1.1888517095239466
4.565150260925293,0.9273623096322371,[0.97220875],5.0,0.6,0.0,-2.163644718606087,0.5234570442841446,1.1653470915978894
4.573130130767822,0.9304886891000236,[0.97748082],5.0,0.6,0.0,-2.030454838824635,0.5358059606396872,1.1399137593493673
4.581151247024536,0.933810467284547,[0.982652],5.0,0.6,0.0,-1.9304613058399291,0.5225113438888007,1.1178146309691095
4.589607000350952,0.9369368467523338,[0.98770869],5.0,0.6,0.0,-1.836990232120835,0.5391315522814838,1.0946627478748896
4.598627328872681,0.9408448210870671,[0.99264558],5.0,0.6,0.0,-1.741335011506374,0.5469822002416551,1.082443548263802
4.607997417449951,0.9445573967050639,[0.99746423],5.0,0.6,0.0,-1.6422549673703535,0.5524360323607101,1.0693045510324097
4.618124723434448,0.9488561684732707,[1.0021656],5.0,0.6,0.0,-1.541190278837746,0.5525750661575605,1.06467778917164
4.628142833709717,0.9529595415247408,[1.00675028],5.0,0.6,0.0,-1.4401945422845748,0.551721163778297,1.0590913900608625
4.640616178512573,0.9582353068766308,[1.01122341],5.0,0.6,0.0,-1.3411278637065145,0.5622861895242169,1.0689885564887058
4.653139114379883,0.9633156735117843,[1.01559382],5.0,0.6,0.0,-1.2454114763617252,0.549626221806123,1.0777609611619212
4.662579298019409,0.9670282491297811,[1.0198636],5.0,0.6,0.0,-1.1540150586733304,0.5424233473903262,1.071182115090303
4.67261266708374,0.9709362234645145,[1.02402936],5.0,0.6,0.0,-1.067526809870944,0.534047370511611,1.0682085158710493
4.6806981563568115,0.9742580016490379,[1.02808839],5.0,0.6,0.0,-0.9862414370038102,0.5286571981207937,1.0594312238819725
4.690252304077148,0.9779705772670346,[1.03203876],5.0,0.6,0.0,-0.9102407137885379,0.5217230036500653,1.0566713413753164
4.699126720428467,0.981292355451558,[1.03587533],5.0,0.6,0.0,-0.8394588966066479,0.48734939621444956,1.0505640606828806
4.708123445510864,0.9850049310695548,[1.03959057],5.0,0.6,0.0,-0.7737326056728392,0.49019652832459387,1.0506107647931524
4.717215299606323,0.9889129054042881,[1.04318338],5.0,0.6,0.0,-0.7128373982001455,0.49008299372650715,1.0544722111079468
4.728195428848267,0.9932116771724948,[1.04665812],5.0,0.6,0.0,-0.6565138402434012,0.48646965256868124,1.0644675051956616
4.737267732620239,0.9967288540737549,[1.05001975],5.0,0.6,0.0,-0.604485663359723,0.4858141982827704,1.0663947727125431
4.7475926876068115,1.000832227125225,[1.05327383],5.0,0.6,0.0,-0.5564721248290379,0.48166437071384066,1.0767053028193823
4.755123853683472,1.003763207876275,[1.05642247],5.0,0.6,0.0,-0.5121962066709214,0.45047503511275694,1.0741069781099628
4.7631309032440186,1.0070849860607984,[1.05946492],5.0,0.6,0.0,-0.47138987224284956,0.4593198493494576,1.0775167090434452
4.774214029312134,1.0117745552624784,[1.06240607],5.0,0.6,0.0,-0.43379726885020853,0.45852891543900454,1.0987303299425772
4.782147169113159,1.0147055360135286,[1.0652515],5.0,0.6,0.0,-0.39917651426933864,0.4297495975892996,1.0997894768238967
4.791554927825928,1.0186135103482619,[1.06800345],5.0,0.6,0.0,-0.36730052020506887,0.43972704885794395,1.1138302874006365
4.80332350730896,1.0234984782666787,[1.07067375],5.0,0.6,0.0,-0.3379571716568084,0.4730012984438483,1.1406743750595467
4.811710357666016,1.0270156551679388,[1.07328243],5.0,0.6,0.0,-0.03491072545038412,0.4688928618491002,1.151730424587691
4.819557189941406,1.0301420346357255,[1.07583949],5.0,0.6,0.0,0.02306986244957629,0.43384544322114116,1.1585913056768313
4.828155040740967,1.0336592115369856,[1.07834171],5.0,0.6,0.0,-0.009153906075634904,0.4038001975529798,1.1707858823319972
4.837147235870361,1.0371763884382457,[1.08078763],5.0,0.6,0.0,-0.06419111447707405,0.4207430846252145,1.183593036983554
4.846320390701294,1.0408889640562422,[1.08319121],5.0,0.6,0.0,-0.11534688754858699,0.4650729555874706,1.1991358483668224
4.8562328815460205,1.045187735824449,[1.08557535],5.0,0.6,0.0,-0.1541490789097128,0.45918184965148,1.2216201761843657
4.8641557693481445,1.0479233178587624,[1.08794614],5.0,0.6,0.0,-0.17975121165453062,0.457314992981988,1.2258598031579786
4.872161388397217,1.0512450960432858,[1.09029504],5.0,0.6,0.0,-0.1940815057635905,0.4566614093819966,1.237110410065354
4.8815553188323975,1.0549576716612825,[1.09263143],5.0,0.6,0.0,-0.19973053388202197,0.47982864464098696,1.2528405442594366
4.890129566192627,1.0580840511290694,[1.09498036],5.0,0.6,0.0,-0.19911411260241824,0.4744945651370481,1.2616209714273159
4.898261070251465,1.0617966267470662,[1.09735349],5.0,0.6,0.0,-0.1942079673085061,0.4398826921745933,1.2765499801358273
4.908418655395508,1.0658999997985361,[1.09975069],5.0,0.6,0.0,-0.18652220288015797,0.44213613951187364,1.295164354738628
4.9174418449401855,1.0698079741332696,[1.10217857],5.0,0.6,0.0,-0.17716342989728567,0.44360134092255754,1.310908655454418
4.927578449249268,1.073715948468003,[1.10464952],5.0,0.6,0.0,-0.4429565135466046,0.4436175946505459,1.3256749898738072
4.935559511184692,1.0768423279357897,[1.10717507],5.0,0.6,0.0,-0.46549397129679954,0.4462598300180697,1.3317619996632684
4.944100856781006,1.080164106120313,[1.10975906],5.0,0.6,0.0,-0.12379671320070479,0.41990824703920304,1.339300971504684
4.952237367630005,1.0836812830215732,[1.1123986],5.0,0.6,0.0,-0.004291154760704047,0.430293241952426,1.347947205300843
4.960104942321777,1.08680766248936,[1.11509133],5.0,0.6,0.0,-0.25502424553506714,0.4069463835698113,1.3521012091603395
4.96854043006897,1.09032483939062,[1.11783533],5.0,0.6,0.0,-0.2982362434842457,0.4230104648652896,1.359467360619507
4.978166103363037,1.09442821244209,[1.12063621],5.0,0.6,0.0,-0.26283733501155004,0.42804894676353467,1.3715946232236056
4.9901442527771,1.0993131803605067,[1.1235133],5.0,0.6,0.0,0.0703409004180586,0.42574082934501883,1.3894666421076387
4.9990129470825195,1.1024395598282934,[1.12648296],5.0,0.6,0.0,0.15921776391239117,0.4226787383498383,1.390797419908897
5.008505582809448,1.1059567367295535,[1.12954405],5.0,0.6,0.0,0.15063236841274952,0.4238315818234576,1.3946782070259247
5.019131660461426,1.110450907214497,[1.13269516],5.0,0.6,0.0,0.11048776224095727,0.41831742995018073,1.4057686624778398
5.028080224990845,1.1141634828324936,[1.13594186],5.0,0.6,0.0,0.0664827122585015,0.4159012080317985,1.4094974064452792
5.037598609924316,1.1182668558839637,[1.13928808],5.0,0.6,0.0,0.028797766318656565,0.41154608805283294,1.4154138491831514
5.0471580028533936,1.1217840327852238,[1.14273613],5.0,0.6,0.0,-3.753958679424997e-05,0.4104259439486829,1.415945821428761
5.057551622390747,1.1260828045534306,[1.1462868],5.0,0.6,0.0,-0.020544102804093023,0.4060254553281272,1.4216030956539127
5.067669630050659,1.1305769750383738,[1.14993946],5.0,0.6,0.0,-0.03422603463090759,0.40129547722595205,1.427760063541423
5.076789379119873,1.1342895506563708,[1.15369219],5.0,0.6,0.0,0.23333820399142585,0.4010037656736052,1.427431621089506
5.085360288619995,1.1374159301241575,[1.15754191],5.0,0.6,0.0,0.2617880860335646,0.4044053866435546,1.4221325370709772
5.093822956085205,1.1409331070254176,[1.16147696],5.0,0.6,0.0,0.20469621063645174,0.40576336495966175,1.419023230438333
5.102091550827026,1.1440594864932043,[1.16547859],5.0,0.6,0.0,0.1284509911416971,0.41312503313415966,1.4123157948931668
5.110142707824707,1.1471858659609908,[1.16952993],5.0,0.6,0.0,0.058983574657878096,0.40452003192735037,1.404969236457068
5.119154453277588,1.1508984415789878,[1.17361586],5.0,0.6,0.0,0.004189616979504873,0.4153453724316955,1.4019319413022746
5.128111362457275,1.1548064159137212,[1.17773029],5.0,0.6,0.0,-0.3115572700870378,0.4200494393279668,1.4001615467562094
5.136477708816528,1.1583235928149813,[1.18187467],5.0,0.6,0.0,-0.3715620449541637,0.42441771375736814,1.394898048586966
5.144086122512817,1.1612545735660311,[1.18604201],5.0,0.6,0.0,-0.3333582079288668,0.4175832194796074,1.3842840769880271
5.154107570648193,1.1651625479007646,[1.19022537],5.0,0.6,0.0,-0.26678962841386644,0.4312526437560884,1.3818889985377651
5.162177085876465,1.1682889273685515,[1.1944253],5.0,0.6,0.0,-0.20053415638411523,0.43043378339481897,1.3722699594338938
5.170144081115723,1.171415306836338,[1.19862738],5.0,0.6,0.0,-0.14456163477361428,0.41613457185930414,1.3623298241416715
5.183734178543091,1.1774726670551747,[1.20281851],5.0,0.6,0.0,-0.37683862236555016,0.4334524736881526,1.379323403763415
5.196117401123047,1.1823576349735918,[1.20701436],5.0,0.6,0.0,-0.37723890113107317,0.42383791484214167,1.3854047452966727
5.207145690917969,1.1866564067417984,[1.21123359],5.0,0.6,0.0,-0.29837195987556225,0.4284734047169002,1.386138174994385
5.217294216156006,1.190955178510005,[1.2154768],5.0,0.6,0.0,-0.2053852290931789,0.4298514436267527,1.386656685115578
5.226096153259277,1.194081557977792,[1.2197301],5.0,0.6,0.0,-0.12305478218275723,0.42278593075909443,1.3767070034833044
5.236083745956421,1.1981849310292618,[1.2239805],5.0,0.6,0.0,-0.058321786205917575,0.43597195733825117,1.3753905482477649
5.246661186218262,1.2024837027974689,[1.22822834],5.0,0.6,0.0,-0.01085457723077642,0.4342327509448276,1.3758527021938016
5.25560188293457,1.2060008796987287,[1.23247292],5.0,0.6,0.0,0.02216453355129356,0.43525945847388203,1.3692241768125526
5.263286590576172,1.2091272591665154,[1.23670082],5.0,0.6,0.0,0.043991751263919174,0.4165893222620525,1.3589350554768636
5.272766351699829,1.2130352335012489,[1.2408944],5.0,0.6,0.0,0.05754010702774105,0.42102736179616673,1.3562186243606775
5.280129432678223,1.2161616129690356,[1.24503869],5.0,0.6,0.0,0.06515800036453911,0.3971640342728955,1.346385124276539
5.290353059768677,1.2204603847372424,[1.24912664],5.0,0.6,0.0,0.3446753487401225,0.4328047583829728,1.348355897068247
5.298111200332642,1.2233913654882922,[1.25315795],5.0,0.6,0.0,0.37846156158335265,0.4083594418770604,1.3374973007351687
5.306095600128174,1.2267131436728156,[1.25712168],5.0,0.6,0.0,0.32216142960582783,0.3825395271598999,1.3310804145647612
5.3193981647491455,1.2321843077414425,[1.26100857],5.0,0.6,0.0,0.24368458251660624,0.419936962137326,1.3468600147050873
5.327521085739136,1.235506085925966,[1.26482708],5.0,0.6,0.0,0.17005321911810123,0.4211331444719938,1.342004696889749
5.335510969161987,1.2388278641104893,[1.26858444],5.0,0.6,0.0,0.10993142188432231,0.42122811184859565,1.337694718136187
5.343771934509277,1.2423450410117491,[1.27227669],5.0,0.6,0.0,-0.21177469031136173,0.38947139181660256,1.3359214547353322
5.353119373321533,1.2460576166297461,[1.2758958],5.0,0.6,0.0,-0.2780071346451564,0.39625142712771455,1.3368317849448468
5.361132621765137,1.2491839960975328,[1.27943563],5.0,0.6,0.0,-0.24605680788822992,0.36806620856065303,1.3326962433736202
5.3704423904418945,1.253091970432266,[1.28289647],5.0,0.6,0.0,-0.1856095092292219,0.41110007400405557,1.3371999958840854
5.378077268600464,1.2558275524665796,[1.28628413],5.0,0.6,0.0,-0.1252438582521678,0.3815021117277688,1.3306600205405412
5.389078140258789,1.260321722951523,[1.2895994],5.0,0.6,0.0,-0.3509094048940702,0.3840615048186387,1.3423621768883431
5.398096561431885,1.2636435011360463,[1.29284352],5.0,0.6,0.0,-0.34555127076987646,0.38891317446387197,1.3431304177665182
5.4066386222839355,1.2675514754707797,[1.29602299],5.0,0.6,0.0,-0.26267494167333155,0.3887609897026092,1.3502831540072522
5.4140613079071045,1.2704824562218298,[1.29913931],5.0,0.6,0.0,-0.16743215702401287,0.3579832338091903,1.3485148916842968
5.423300266265869,1.2741950318398267,[1.30218975],5.0,0.6,0.0,-0.08429431688580027,0.3664801236746756,1.354920310147912
5.432540416717529,1.2777122087410866,[1.30517737],5.0,0.6,0.0,-0.29587728638244426,0.3719248387053542,1.3598969156398544
5.443924188613892,1.2824017779427668,[1.30811012],5.0,0.6,0.0,-0.28257070526186395,0.3685893275005741,1.376120568485841
5.453073501586914,1.2861143535607635,[1.31099538],5.0,0.6,0.0,-0.19598709079229878,0.36803187750551475,1.3835163969586735
5.462162971496582,1.2900223278954968,[1.31383999],5.0,0.6,0.0,0.17613104643463606,0.3650742497316946,1.392720161655131
5.470095872879028,1.2933441060800202,[1.31664567],5.0,0.6,0.0,0.29133692168037434,0.33058708493765926,1.3970326408297273
5.478078603744507,1.2966658842645435,[1.31940975],5.0,0.6,0.0,0.2984318892112893,0.33943923178973917,1.4016487997187919
5.488309860229492,1.3009646560327504,[1.32213509],5.0,0.6,0.0,0.2657859179566785,0.3395521866402367,1.4142100227288057
5.498663663864136,1.304872630367484,[1.32482913],5.0,0.6,0.0,0.22335666793603093,0.3384958535335406,1.4234001950886292
5.50705885887146,1.308389807268744,[1.32749839],5.0,0.6,0.0,0.18315847964137683,0.3373322511704782,1.4295502185849418
5.515065670013428,1.3115161867365306,[1.33014398],5.0,0.6,0.0,0.14911844724273715,0.3029887547448366,1.432937834461693
5.523547410964966,1.314837964921054,[1.33276238],5.0,0.6,0.0,0.12173952583154274,0.31062080505418566,1.437752968679407
5.53208327293396,1.3181597431055774,[1.3353552],5.0,0.6,0.0,0.10024660291642079,0.314167404662936,1.4425703843279232
5.542298793792725,1.3226539135905209,[1.33792821],5.0,0.6,0.0,0.08352966763584371,0.3079978138356802,1.454405858347673
5.550105094909668,1.3257802930583074,[1.34048169],5.0,0.6,0.0,0.3465628217439527,0.27323091617989476,1.4576053268052678
5.561553478240967,1.3306652609767244,[1.34301555],5.0,0.6,0.0,0.36950209181513394,0.3033621108110742,1.4698530640081708
5.57310938835144,1.3353548301784044,[1.3455379],5.0,0.6,0.0,0.3063386448111317,0.28893891608823685,1.4794047224380695
5.584083318710327,1.3400443993800844,[1.34805506],5.0,0.6,0.0,0.22377511410185402,0.27382535279535236,1.48721060187643
5.593523025512695,1.3437569749980813,[1.35056739],5.0,0.6,0.0,0.14796652590511805,0.2633247876271948,1.490750256317631
5.603240013122559,1.347469550616078,[1.35307449],5.0,0.6,0.0,0.08696106264389236,0.2525636952903881,1.4937310009878033
5.614089250564575,1.3521591198177578,[1.355579],5.0,0.6,0.0,0.041269710879820426,0.2633543703818071,1.4976623563883262
5.625120639801025,1.3566532903027015,[1.35808604],5.0,0.6,0.0,0.008695623322421134,0.2413530615844713,1.4995894762486512
5.6336095333099365,1.359975068487225,[1.36059192],5.0,0.6,0.0,-0.013569976004376027,0.19869204481385114,1.4999237636441596
5.642046689987183,1.3631014479550119,[1.36308581],5.0,0.6,0.0,-0.028122938536755394,0.19558209897797216,1.4999993623262913
5.651401042938232,1.3668140235730084,[1.36556189],5.0,0.6,0.0,-0.31312825355637225,0.18922166434816193,1.4996134988275471
5.659141540527344,1.3695496056073215,[1.36801531],5.0,0.6,0.0,-0.35127231750181936,0.15649915284163912,1.4994374544281324
5.667083024978638,1.3730667825085818,[1.37043859],5.0,0.6,0.0,-0.298464418641817,0.1596201771607587,1.498553169511613
5.676076412200928,1.3767793581265784,[1.37282572],5.0,0.6,0.0,-0.22282191551806196,0.12729052600444005,1.4968416795283679
5.688127279281616,1.3820551234784686,[1.37517553],5.0,0.6,0.0,-0.15152488242870527,0.1574307911144662,1.490561818757215
5.696049690246582,1.3851815029462553,[1.37749099],5.0,0.6,0.0,-0.09335522838831142,0.1234176779901771,1.4882344079953687
5.706439018249512,1.3894802747144621,[1.37977533],5.0,0.6,0.0,-0.049344561928638744,0.15456480748817047,1.4813373042296807
5.714538335800171,1.3928020528989855,[1.38203204],5.0,0.6,0.0,-0.017662981354205735,0.11776566429529677,1.47706814295554
5.722200870513916,1.3957330336500358,[1.38426132],5.0,0.6,0.0,0.004241089032361589,0.12450517073826185,1.4740232951746572
5.733069181442261,1.4002272041349793,[1.38646449],5.0,0.6,0.0,0.01878413469657338,0.12265164325799711,1.4628258162671297
5.746012210845947,1.405698368203606,[1.38865164],5.0,0.6,0.0,0.027968342107594232,0.14710278216045333,1.443537839699352
5.754070043563843,1.4088247476713924,[1.39083274],5.0,0.6,0.0,0.0333463840877192,0.10973941261490551,1.4373079680542493
5.7645604610443115,1.4131235194395992,[1.39300953],5.0,0.6,0.0,0.03607685621382927,0.1115746193592107,1.422271559964939
5.775071620941162,1.4170314937743325,[1.39518524],5.0,0.6,0.0,0.03700309886839303,0.11512050843804791,1.4089611596959968
5.787087440490723,1.4219164616927495,[1.39737362],5.0,0.6,0.0,0.036728356342351096,0.14554616493157818,1.3865024854877857
5.800670862197876,1.4271922270446393,[1.39959908],5.0,0.6,0.0,0.03567835739201047,0.15707882758030683,1.358750027407516
5.808633327484131,1.4303186065124263,[1.40187959],5.0,0.6,0.0,0.03415008538489298,0.12541112984456204,1.3506482643714468
5.816070079803467,1.4334449859802127,[1.40421031],5.0,0.6,0.0,0.03234838011017363,0.09502502808836248,1.3428770007735196
5.82787823677063,1.4383299538986296,[1.40658909],5.0,0.6,0.0,0.030412772764267668,0.1338375868856914,1.3175058070878176
5.838089227676392,1.4424333269500995,[1.40903368],5.0,0.6,0.0,0.0284368610739439,0.13079142290703197,1.3000284078102617
5.847469329833984,1.4463413012848332,[1.41156092],5.0,0.6,0.0,0.02648215227296181,0.1284060630433533,1.2851066557091508
5.85703182220459,1.4498584781860933,[1.41417343],5.0,0.6,0.0,0.024587879647265477,0.10597331270557904,1.2751605400748862
5.8690407276153564,1.45474344610451,[1.41687512],5.0,0.6,0.0,-0.25326043496554357,0.11769063895852493,1.2506126107324742
5.878988981246948,1.4586514204392433,[1.41968561],5.0,0.6,0.0,-0.2880972864235395,0.11088301047319594,1.2380449340216166
5.887429475784302,1.4619731986237665,[1.42262277],5.0,0.6,0.0,-0.2346082775315173,0.10584060040101904,1.2336324208461145
5.896037817001343,1.46529497680829,[1.42568657],5.0,0.6,0.0,-0.16002595396595184,0.10831840707191773,1.230671563240747
5.905565023422241,1.4692029511430236,[1.42887777],5.0,0.6,0.0,-0.09090191310529816,0.0764264540736437,1.222359310046175
5.914042949676514,1.4721339318940736,[1.43220573],5.0,0.6,0.0,-0.3116165437606532,0.1064038477122142,1.2269106676042205
5.924405574798584,1.476237304945544,[1.43567866],5.0,0.6,0.0,-0.3039456886157812,0.03999504182221407,1.2195736742048053
5.934352159500122,1.4803406779970136,[1.43931307],5.0,0.6,0.0,-0.22054482125742253,0.03381502693591002,1.2141204135996464
5.943000316619873,1.4834670574648006,[1.44311266],5.0,0.6,0.0,-0.4019968765879097,0.09399738850478342,1.2219047889971122
5.952029705047607,1.4869842343660604,[1.44706072],5.0,0.6,0.0,-0.6294317199924516,0.0812335089750471,1.2267425284021525
5.962055206298828,1.4905014112673207,[1.45115176],5.0,0.6,0.0,-0.8209072202700431,0.0672219704690151,1.233180987475095
5.972159385681152,1.4946047843187906,[1.45538983],5.0,0.6,0.0,-0.9545725803647067,0.051921766000000896,1.23455907351672
5.9810426235198975,1.497926562503314,[1.45976714],5.0,0.6,0.0,-0.7567334262594391,0.1066836972680603,1.246918914200646
5.99053430557251,1.5010529419711007,[1.46427576],5.0,0.6,0.0,-0.7566968164254203,0.029200436522901566,1.2625624715016763
6.001704692840576,1.5049609163058342,[1.46892766],5.0,0.6,0.0,-1.087317579596736,0.031944854688041674,1.2704197952184277
6.009060382843018,1.5075010996234108,[1.47372113],5.0,0.6,0.0,-1.1725059012394818,0.11073524164538898,1.294929021388317
6.017037868499756,1.5102366816577244,[1.47862264],5.0,0.6,0.0,-1.1484091247828656,0.14840613244557374,1.317840453400564
6.028449296951294,1.5141446559924576,[1.48361232],5.0,0.6,0.0,-1.0799200247677376,0.06395491786640305,1.3290371022263077
6.03664755821228,1.5166848393100343,[1.4886921],5.0,0.6,0.0,-0.9971904852724112,0.14903985957587515,1.354204893581644
6.044400691986084,1.5192250226276112,[1.49385207],5.0,0.6,0.0,-0.9136278509452669,0.1454755436142521,1.3785662894103763
6.05550742149353,1.5231329969623446,[1.4990919],5.0,0.6,0.0,-0.8347103263931648,0.10302026148152395,1.3903176717168804
6.063366174697876,1.525868578996658,[1.50441953],5.0,0.6,0.0,-0.7622663329368076,0.16306974083772693,1.4116615650186377
6.073058605194092,1.5295811546146547,[1.50982017],5.0,0.6,0.0,-0.42048561957596997,0.16197061024689402,1.4247409863344318
6.084347486495972,1.5336845276661246,[1.51528858],5.0,0.6,0.0,-0.05187099050958688,0.13112420803340943,1.4345554274057626
6.093055009841919,1.5366155084171749,[1.52081879],5.0,0.6,0.0,0.2559698317774915,0.14369476600099906,1.451268843900214
6.101093292236328,1.5393510904514882,[1.52637599],5.0,0.6,0.0,0.4826800940657502,0.14838201756670474,1.4667165195046852
6.109067440032959,1.5420866724858016,[1.53193845],5.0,0.6,0.0,0.6343992050708256,0.1659596837118909,1.4793138718048449
6.117638826370239,1.5452130519535883,[1.53750475],5.0,0.6,0.0,0.7255317438109417,0.19906656758382157,1.4877950379377232
6.1254565715789795,1.548339431421375,[1.54307203],5.0,0.6,0.0,1.047172202674034,0.22780605744539015,1.4936506444571156
6.133040189743042,1.5510750134556883,[1.54861957],5.0,0.6,0.0,1.3693584582006648,0.24191137902230833,1.4974009780074051
6.143909931182861,1.555373785223895,[1.55412036],5.0,0.6,0.0,1.3380344105258346,0.20744014667371327,1.4983548835573612
6.152592897415161,1.5585001646916818,[1.55957591],5.0,0.6,0.0,1.4588135610306043,0.2401970914504676,1.4981869020673848
6.1620635986328125,1.5622127403096786,[1.56499493],5.0,0.6,0.0,1.8641544996996449,0.27715061056685253,1.4958729157683153
6.171076774597168,1.565534518494202,[1.57036778],5.0,0.6,0.0,1.985701342135491,0.33160646420222717,1.4924122265086057
6.180341482162476,1.5692470941121985,[1.57567808],5.0,0.6,0.0,2.2449825290944783,0.33937835760444235,1.4880249018364762
6.1900434494018555,1.5729596697301953,[1.58091942],5.0,0.6,0.0,2.4724109591185153,0.3468759911458985,1.4828786662300955
6.199078321456909,1.5768676440649287,[1.58609392],5.0,0.6,0.0,2.34066410851682,0.35337411555368026,1.4790575041906129
6.210059404373169,1.5815572132666087,[1.59120328],5.0,0.6,0.0,2.366245109544475,0.35563904151487186,1.4774121047338133
6.220548391342163,1.5858559850348157,[1.59624908],5.0,0.6,0.0,2.4092303472870027,0.35937756885806194,1.474326217154858
6.228203296661377,1.5889823645026022,[1.60123295],5.0,0.6,0.0,2.1447034302345087,0.368581529703766,1.467018243306783
6.238068342208862,1.5926949401205992,[1.60614968],5.0,0.6,0.0,1.529642912736435,0.36651179696344527,1.4627028466387295
6.246053695678711,1.595821319588386,[1.61098853],5.0,0.6,0.0,1.1762547189454233,0.37924458614510476,1.4540046125167592
6.254700183868408,1.5995338952063825,[1.61574853],5.0,0.6,0.0,0.6841153539022977,0.3866516302306959,1.4484273887562815
6.263042211532593,1.6028556733909058,[1.62043712],5.0,0.6,0.0,0.23259520682739043,0.39452431193448195,1.4400104429762237
6.27410101890564,1.607545242592586,[1.62506904],5.0,0.6,0.0,-0.12284786659939329,0.3845384330603994,1.4404200453676497
6.284365653991699,1.6114532169273195,[1.62966524],5.0,0.6,0.0,-0.37834576396127423,0.39197329555846616,1.4357102520329241
6.2927024364471436,1.6147749951118429,[1.6342299],5.0,0.6,0.0,-0.2725382052852193,0.4019814345410745,1.4270402201370542
6.302035331726074,1.6184875707298394,[1.63875297],5.0,0.6,0.0,-0.3432616271287131,0.40792091333047853,1.4210578111993293
6.310149192810059,1.621809348914363,[1.64322682],5.0,0.6,0.0,-0.45327143502371103,0.4009531066330796,1.4121879413308622
6.319107294082642,1.625326525815623,[1.64764599],5.0,0.6,0.0,-0.5495903385068688,0.41416360255852896,1.4049459449701793
6.328077554702759,1.6288437027168832,[1.65201451],5.0,0.6,0.0,-0.6166050950455709,0.42203104624271864,1.3979038359047133
6.338136911392212,1.6331424744850898,[1.65634442],5.0,0.6,0.0,-0.654051851385322,0.4231087681205749,1.3976091026429827
6.346119165420532,1.6366596513863498,[1.66063911],5.0,0.6,0.0,-0.6670142057397709,0.4173999058688652,1.3910324488853774
6.354075908660889,1.6399814295708732,[1.66489459],5.0,0.6,0.0,-0.6616255648587599,0.4292915310652485,1.3829365467636214
6.363070249557495,1.6438894039056067,[1.66911603],5.0,0.6,0.0,-0.6434122385009808,0.43310537975151514,1.3801820732360657
6.37103796005249,1.6470157833733936,[1.67331637],5.0,0.6,0.0,-0.6168089485656423,0.438235892007161,1.3705158479200468
6.382058382034302,1.6513145551416004,[1.67750708],5.0,0.6,0.0,-0.8611953677420224,0.4366795278385533,1.3712356516107433
6.391028881072998,1.655027130759597,[1.68169038],5.0,0.6,0.0,-0.86003434951723,0.43591773352160984,1.366909791499844
6.399528503417969,1.6581535102273839,[1.68586063],5.0,0.6,0.0,-0.7697072377177239,0.44534021872071494,1.3572283247441803
6.4091291427612305,1.6618660858453804,[1.69002145],5.0,0.6,0.0,-0.6585943081764865,0.44782465759665746,1.353061890010033
6.417082071304321,1.6653832627466405,[1.69417626],5.0,0.6,0.0,-0.5539966702371721,0.44464488480679343,1.3469810518002097
6.426062107086182,1.6689004396479008,[1.69832032],5.0,0.6,0.0,-0.4647225473591843,0.4536519958928586,1.3408877800720986
6.43612265586853,1.6730038126993705,[1.70245815],5.0,0.6,0.0,-0.39176800910958764,0.4543412147151435,1.3405931173027847
6.444293737411499,1.6759347934504207,[1.7066021],5.0,0.6,0.0,-0.6092668829469511,0.4584758078147937,1.3282582905100166
6.453535556793213,1.6798427677851542,[1.710763],5.0,0.6,0.0,-0.5956174071733034,0.4569431941945192,1.325693294913743
6.462847471237183,1.6831645459696776,[1.71495024],5.0,0.6,0.0,-0.5029841543357468,0.4582530163195873,1.3168526747349036
6.472043037414551,1.6872679190211477,[1.71916344],5.0,0.6,0.0,-0.3964826334707917,0.46617898043169637,1.315781893173358
6.4810545444488525,1.6913712920726174,[1.72339391],5.0,0.6,0.0,-0.300993027663673,0.46717962739570007,1.314506848870647
6.490035533905029,1.6950838676906144,[1.72764261],5.0,0.6,0.0,-0.22358036727660596,0.4670457731112668,1.3089159015473266
6.498023509979248,1.698210247158401,[1.7319102],5.0,0.6,0.0,-0.1640139243810024,0.4736325288286826,1.2967913438429053
6.506017446517944,1.7015320253429245,[1.73618034],5.0,0.6,0.0,-0.11954342057521944,0.4665121411901723,1.2865376611794528
6.516764163970947,1.7058307971111315,[1.74044755],5.0,0.6,0.0,-0.0869486838325848,0.4728621350679251,1.2868866574383404
6.524619102478027,1.7091525752956547,[1.74473222],5.0,0.6,0.0,0.21271079981926294,0.4746932525569375,1.2762927360274268
6.53204345703125,1.7120835560467045,[1.74905116],5.0,0.6,0.0,0.2628389408055386,0.4794433383076633,1.2607972537182455
6.5430543422698975,1.7165777265316482,[1.75340948],5.0,0.6,0.0,0.21993957537653447,0.47763593706801843,1.2623398185694144
6.554538011550903,1.7212672957333282,[1.75781871],5.0,0.6,0.0,0.15259695740868945,0.42458766903613926,1.2655017021582626
6.5627501010894775,1.7245890739178515,[1.76228747],5.0,0.6,0.0,0.08834754604835053,0.4889886513582002,1.2525848007891947
6.574644565582275,1.7292786431195317,[1.76680554],5.0,0.6,0.0,0.03624136482156276,0.4872384965606697,1.254534069954387
6.5840067863464355,1.7331866174542652,[1.77136289],5.0,0.6,0.0,-0.0024894182470505885,0.49030276472093476,1.2471527574505021
6.59203577041626,1.7365083956387886,[1.77595018],5.0,0.6,0.0,-0.02952460130673392,0.503345674259973,1.2326173598182337
6.600005149841309,1.739830173823312,[1.78055111],5.0,0.6,0.0,-0.047302821166494605,0.5108353926544671,1.2177447628104858
6.6110453605651855,1.7441289455915185,[1.78516722],5.0,0.6,0.0,-0.05815480324853427,0.48857553206670795,1.214029138882595
6.6200056076049805,1.747841521209515,[1.78980691],5.0,0.6,0.0,-0.06401680253153785,0.5168257812360011,1.2031232290962788
6.628231763839722,1.7511632993940385,[1.79446092],5.0,0.6,0.0,-0.06639004585913605,0.523034553175241,1.1873294943056831
6.636005640029907,1.754485077578562,[1.79911315],5.0,0.6,0.0,-0.06639231298655374,0.5241702400687331,1.17143510910691
6.649192810058594,1.7599562416471888,[1.80376514],5.0,0.6,0.0,-0.06483398726744861,0.4819030745600904,1.1812345955886043
6.658636569976807,1.7636688172651855,[1.80843329],5.0,0.6,0.0,-0.062291224691190486,0.5289372823274832,1.1698001740515562
6.666050910949707,1.7664043992994989,[1.81311581],5.0,0.6,0.0,-0.05916710364014377,0.538479381913115,1.1463622550086205
6.674626111984253,1.7699215762007592,[1.81779562],5.0,0.6,0.0,-0.0557393629162056,0.5422764136553557,1.132301770274605
6.683200836181641,1.7734387531020193,[1.82245834],5.0,0.6,0.0,-0.05219625504011692,0.5515604279972157,1.118420104843295
6.691220045089722,1.7767605312865427,[1.82709976],5.0,0.6,0.0,-0.04866283437703116,0.5589516613263829,1.102413957249464
6.6990978717803955,1.7798869107543291,[1.8317167],5.0,0.6,0.0,-0.0452199289100276,0.5570806291956212,1.0843424638463688
6.707064151763916,1.783013290222116,[1.83629935],5.0,0.6,0.0,-0.04191768222792952,0.5714038111070616,1.0667237845662383
6.716052055358887,1.7867258658401126,[1.84084007],5.0,0.6,0.0,-0.038785142357517774,0.5617401189654729,1.0567319878521297
6.725034475326538,1.7902430427413727,[1.84533319],5.0,0.6,0.0,-0.03583700894747379,0.5782719536639176,1.044990615142686
6.732993841171265,1.7933694222091594,[1.84978285],5.0,0.6,0.0,-0.03307835565826352,0.5889232872806631,1.0291430208697112
6.742086172103882,1.7970819978271562,[1.85420147],5.0,0.6,0.0,-0.030507918824969178,0.592601033145779,1.0207276760995554
6.751014232635498,1.8005991747284162,[1.85859254],5.0,0.6,0.0,-0.028120375662926043,0.5908968837379843,1.010355792362714
6.760291337966919,1.8045071490631495,[1.86296025],5.0,0.6,0.0,-0.025907912955795614,0.5873541104689496,1.0049206372226496
6.768047094345093,1.8076335285309364,[1.86731734],5.0,0.6,0.0,-0.02386129911409224,0.605377313963331,0.9904498037404355
6.776124954223633,1.8109553067154598,[1.87165874],5.0,0.6,0.0,-0.02197060964765421,0.6017195088501827,0.9785559131765753
6.784050464630127,1.8140816861832465,[1.87597285],5.0,0.6,0.0,-0.020225711512839722,0.6161435593609812,0.9648205937393582
6.7936131954193115,1.81798966051798,[1.88026775],5.0,0.6,0.0,-0.018616580294308665,0.6174535570543707,0.9603755600945237
6.802717208862305,1.82150683741924,[1.88455991],5.0,0.6,0.0,-0.017133501990756788,0.6163593212339509,0.9515187129282798
6.811978578567505,1.82561021047071,[1.88885538],5.0,0.6,0.0,0.26027116409910245,0.6227656716907907,0.9492828652357743
6.823540925979614,1.83029977967239,[1.89316053],5.0,0.6,0.0,0.29465408125107717,0.5845056864394367,0.9536464316732314
6.831011772155762,1.8332307604234404,[1.89749029],5.0,0.6,0.0,0.24071539201122152,0.6252155960238605,0.9378162405812205
6.839223861694336,1.8365525386079635,[1.90184845],5.0,0.6,0.0,0.16569691176467438,0.6223036951542835,0.9262372777551509
6.848137855529785,1.8402651142259603,[1.90623856],5.0,0.6,0.0,0.0961558871196406,0.6153824252032456,0.9187356271338489
6.856998920440674,1.8437822911272206,[1.91067289],5.0,0.6,0.0,0.04043752721538135,0.610079395869821,0.9086593516457411
6.868006467819214,1.848081062895427,[1.9151616],5.0,0.6,0.0,-0.0007286965871270597,0.602684972040005,0.9065860595843649
6.87748646736145,1.8519890372301604,[1.91971272],5.0,0.6,0.0,-0.02937880568335957,0.5996137800027733,0.8995960879742146
6.884992837905884,1.8547246192644742,[1.92432286],5.0,0.6,0.0,-0.048202659447696805,0.6497095019931006,0.8795429707828514
6.895084381103516,1.8588279923159439,[1.92897881],5.0,0.6,0.0,-0.05970749486648729,0.6436434033105456,0.8737252202303858
6.907970905303955,1.864103757667834,[1.93368666],5.0,0.6,0.0,-0.06595319771014034,0.5613308175107313,0.8797035204175847
6.917358160018921,1.868402529436041,[1.93846836],5.0,0.6,0.0,-0.06852733795170336,0.5805083467109159,0.8746161216989228
6.925987482070923,1.8715289089038274,[1.94332245],5.0,0.6,0.0,-0.3446461800128324,0.6547792074999413,0.8566107703407424
6.934128761291504,1.8748506870883508,[1.94822775],5.0,0.6,0.0,-0.3762097222294101,0.6582805843609939,0.8405654799277289
6.94240403175354,1.8781724652728744,[1.95317338],5.0,0.6,0.0,-0.31851486820810293,0.6638543407360629,0.8245680186486544
6.950012922286987,1.8812988447406611,[1.9581488],5.0,0.6,0.0,-0.239218654443698,0.6912819234072191,0.806872817739184
6.960360288619995,1.8852068190753946,[1.9631429],5.0,0.6,0.0,-0.16516245960401477,0.6692626798993405,0.7967470813097536
6.969037055969238,1.888919394693391,[1.96815276],5.0,0.6,0.0,-0.1048822783623469,0.7029429847783786,0.784900891259148
6.9782562255859375,1.8928273690281245,[1.97316652],5.0,0.6,0.0,-0.05923262059476543,0.70770093043576,0.7750271492810832
6.987987756729126,1.8969307420795947,[1.97817275],5.0,0.6,0.0,0.2497817247641167,0.7118669725846952,0.7670747599444341
6.997484445571899,1.9006433176975914,[1.98316789],5.0,0.6,0.0,0.3058510335333176,0.7185147759723168,0.7560626757955801
7.007917642593384,1.9045512920323246,[1.98814716],5.0,0.6,0.0,0.26614865945207317,0.7244035204319564,0.7471235034498068
7.016029119491577,1.9076776715001116,[1.99309828],5.0,0.6,0.0,0.19995747065508349,0.7258162502239678,0.7323607702200062
7.025083065032959,1.9113902471181083,[1.9980031],5.0,0.6,0.0,0.13541371974315758,0.7349522575534376,0.7230367955367509
7.035187482833862,1.9156890188863152,[2.00285266],5.0,0.6,0.0,0.08203879186657358,0.7389865960230638,0.7188162251333754
7.047152757644653,1.920378588087995,[2.00765221],5.0,0.6,0.0,0.04141699580148503,0.7419311599623386,0.7179819975159802
7.056512832641602,1.9242865624227286,[2.01241188],5.0,0.6,0.0,0.012122845482430502,0.747665219176556,0.7115667115328649
7.067631483078003,1.9289761316244087,[2.01713305],5.0,0.6,0.0,-0.008103388491496718,0.7473170780767346,0.7113311775602283
7.076008081436157,1.9322979098089321,[2.02180391],5.0,0.6,0.0,-0.021469528285375385,0.736046873750883,0.7014394481242237
7.084019184112549,1.9356196879934555,[2.02640834],5.0,0.6,0.0,0.2462088428256694,0.7448698951095857,0.6922900016641489
7.09198784828186,1.938746067461242,[2.03093316],5.0,0.6,0.0,0.2745317901444,0.7253418522390713,0.6826836732028132
7.10000205039978,1.941872446929029,[2.03536786],5.0,0.6,0.0,-0.05893181014900273,0.7421783149370307,0.6740707690677391
7.108020544052124,1.9449988263968156,[2.03971022],5.0,0.6,0.0,-0.16878705331727462,0.754354580185023,0.6662642367824156
7.116032838821411,1.948320604581339,[2.04395927],5.0,0.6,0.0,0.0922958950292076,0.7314031796350023,0.6605114056913698
7.125817775726318,1.952423977632809,[2.04811499],5.0,0.6,0.0,0.14606927043864532,0.770789158995377,0.6601806322578554
7.135051488876343,1.9561365532508057,[2.05218406],5.0,0.6,0.0,-0.1549191688895251,0.745354858188943,0.658003576695419
7.147005081176758,1.9610215211692226,[2.05617278],5.0,0.6,0.0,-0.23505571938538228,0.7717559987678926,0.663489897662396
7.154982566833496,1.9639525019202726,[2.06008688],5.0,0.6,0.0,-0.22603134845040715,0.7479865575935297,0.6574566342160701
7.1639792919158936,1.9676650775382694,[2.06392586],5.0,0.6,0.0,-0.1872994151110044,0.7537548815511,0.6567043351981113
7.174006700515747,1.9715730518730028,[2.0676902],5.0,0.6,0.0,-0.14411312103047047,0.757431454975326,0.6575835764635705
7.183057546615601,1.9754810262077362,[2.07138686],5.0,0.6,0.0,-0.10596856121424475,0.7576365825331742,0.6588748573899255
7.195056200027466,1.9805613928428896,[2.07502186],5.0,0.6,0.0,-0.35146164314039796,0.7503714686506954,0.6677796436039021
7.203224420547485,1.983883171027413,[2.0786001],5.0,0.6,0.0,-0.36138646074514025,0.7506330276503279,0.6661533068993408
7.213345050811768,1.9877911453621464,[2.08212583],5.0,0.6,0.0,-0.28923594436461875,0.7476127372008806,0.668608529880678
7.222093105316162,1.991503720980143,[2.08560271],5.0,0.6,0.0,-0.20089493722076607,0.7445135052210883,0.670145611280991
7.233973264694214,1.9958024927483498,[2.08903872],5.0,0.6,0.0,-0.12171464416177347,0.7593617709248617,0.6757555066660269
7.245116949081421,2.0006874606667666,[2.09244506],5.0,0.6,0.0,-0.05906778098936319,0.7440076580626194,0.685647541685946
7.254577159881592,2.0042046375680265,[2.09582098],5.0,0.6,0.0,-0.01293877287133132,0.7086680554324167,0.6866142984448023
7.263981342315674,2.007917213186023,[2.09915574],5.0,0.6,0.0,0.019262239651247227,0.7069393071599694,0.6892104991453392
7.273976802825928,2.0120205862374934,[2.10244474],5.0,0.6,0.0,0.040629098336908344,0.701657586163759,0.6948915644652874
7.283273220062256,2.0163193580057,[2.10568849],5.0,0.6,0.0,0.053960107156800094,0.6937877767579688,0.702426387610497
7.2939677238464355,2.0204227310571703,[2.10888696],5.0,0.6,0.0,0.33756151903702947,0.6855496905967406,0.708964766869272
7.30396294593811,2.024330705391904,[2.11203971],5.0,0.6,0.0,0.3742166345381567,0.6773586502533762,0.7145828484748639
7.316006898880005,2.0292156733103206,[2.11514983],5.0,0.6,0.0,0.31989997104566414,0.6891929423524825,0.7282601316369458
7.325979471206665,2.0333190463617905,[2.11822323],5.0,0.6,0.0,0.24277176112821175,0.6714195020917016,0.7364710292401968
7.3343799114227295,2.036836223263051,[2.12125661],5.0,0.6,0.0,0.17003933201264637,0.6295915552486983,0.7404003273042081
7.344957113265991,2.041330393747994,[2.12423916],5.0,0.6,0.0,0.11050103386317423,0.6202211227568969,0.7528880010883804
7.355971574783325,2.046019962949674,[2.12716878],5.0,0.6,0.0,-0.2108408495518907,0.6352249789849863,0.7678978566745986
7.366711139678955,2.050123336001144,[2.13005053],5.0,0.6,0.0,-0.27686007970037163,0.6173858344029389,0.7786284359636697
7.3739683628082275,2.053054316752194,[2.13288166],5.0,0.6,0.0,-0.24479944081226018,0.5791402184199321,0.7795314466480231
7.382782220840454,2.056376094936718,[2.13565308],5.0,0.6,0.0,-0.4603493718720698,0.5761177979412355,0.7843576314518594
7.392705917358398,2.0604794679881877,[2.13836059],5.0,0.6,0.0,-0.43311286741266475,0.567420985437409,0.797136480810253
7.399996042251587,2.063410448739238,[2.14100104],5.0,0.6,0.0,-0.3276767121544342,0.5352072895486044,0.7998938969414788
7.407989978790283,2.0665368282070244,[2.14356901],5.0,0.6,0.0,-0.2131610182920793,0.5380801716165756,0.8051651135920785
7.41734504699707,2.070444802541758,[2.14606323],5.0,0.6,0.0,-0.11492176261366857,0.5318603509193413,0.8186506013817423
7.424968242645264,2.0735711820095446,[2.14848294],5.0,0.6,0.0,-0.03920991745789886,0.5011024672901199,0.8255114415230409
7.433958292007446,2.076892960194068,[2.15082525],5.0,0.6,0.0,0.015333369939422584,0.5049731084997773,0.8351432223233993
7.442359209060669,2.080410137095328,[2.1530916],5.0,0.6,0.0,-0.22352520298498357,0.504660240035067,0.8476267611935773
7.452979326248169,2.0847089088635347,[2.15528687],5.0,0.6,0.0,-0.23275538396277617,0.497732308998166,0.8692213800673191
7.462316989898682,2.0886168831982683,[2.15741582],5.0,0.6,0.0,-0.16349842374047177,0.48993381859059226,0.8880154643078348
7.470970869064331,2.092134060099528,[2.15948027],5.0,0.6,0.0,-0.0801654454090683,0.4566835148670108,0.9036874504607937
7.480974435806274,2.096237433150998,[2.16147954],5.0,0.6,0.0,-0.007171269784519582,0.4529047459487543,0.9268567984120146
7.491000413894653,2.1003408062024684,[2.16341621],5.0,0.6,0.0,0.04871097323710195,0.44613930515319644,0.9512629080884912
7.500369548797607,2.1042487805372017,[2.16529556],5.0,0.6,0.0,0.36391937578633743,0.4378022709189625,0.974473499807341
7.5109734535217285,2.1085475523054082,[2.16712248],5.0,0.6,0.0,0.42233581303098056,0.42607313686043097,1.0033506822653844
7.520998001098633,2.1124555266401424,[2.16890152],5.0,0.6,0.0,0.38189808461466446,0.4153478716699149,1.0286464888489202
7.531998872756958,2.116754298408349,[2.17063931],5.0,0.6,0.0,0.3127297062392769,0.4250894770017837,1.0594231861560226
7.5440051555633545,2.1216392663267656,[2.17234654],5.0,0.6,0.0,0.24369929399350057,0.4234183561818762,1.0979074025673616
7.552971601486206,2.125547240661499,[2.17402988],5.0,0.6,0.0,0.46094305331888774,0.37670893185348964,1.1247733080710982
7.560979604721069,2.1288690188460224,[2.17568552],5.0,0.6,0.0,0.44752110529986955,0.3414444144799105,1.1449464369249573
7.569987058639526,2.132581594464019,[2.17730802],5.0,0.6,0.0,0.35700471637600784,0.3354249033189392,1.1701644577170307
7.579616546630859,2.136684967515489,[2.17889781],5.0,0.6,0.0,0.25457797477978483,0.32567593697206343,1.2001549262653968
7.587991714477539,2.1400067457000125,[2.18045783],5.0,0.6,0.0,0.16472224482900635,0.31824063276240433,1.2208774900886334
7.599978923797607,2.144891713618429,[2.18199079],5.0,0.6,0.0,0.09401030238073428,0.30227130808056496,1.2593618365080979
7.6084582805633545,2.1484088905196894,[2.18349912],5.0,0.6,0.0,0.04176980494491213,0.2919443942877719,1.2817138819282403
7.6181676387786865,2.152121466137686,[2.18498504],5.0,0.6,0.0,-0.27113679002211044,0.2806574247725882,1.3056782980806496
7.628319978713989,2.156420237905893,[2.18645054],5.0,0.6,0.0,-0.3292336141915366,0.2659241745527939,1.334885721721729
7.638004541397095,2.160328212240626,[2.18789959],5.0,0.6,0.0,-0.014254132523014301,0.27390190398729836,1.3589570246699645
7.646587133407593,2.1638453891418865,[2.18933556],5.0,0.6,0.0,0.08514250801998785,0.23437401030431576,1.3781341317694962
7.654949903488159,2.166971768609673,[2.19075479],5.0,0.6,0.0,-0.1808239577574875,0.20438336039847155,1.39301338894489
7.665066480636597,2.17068434422767,[2.19215419],5.0,0.6,0.0,-0.2356954681007733,0.2207224869344131,1.411889719186716
7.6730639934539795,2.17420152112893,[2.19353551],5.0,0.6,0.0,-0.20934047021174318,0.18657260542167142,1.427932973557759
7.683029890060425,2.1783048941803997,[2.19489818],5.0,0.6,0.0,-0.1593259006283288,0.17665504118986344,1.4464024565139244
7.692542791366577,2.1826036659486063,[2.19624166],5.0,0.6,0.0,-0.10928380637260476,0.16395095631245746,1.463475490174343
7.699998140335083,2.18533924798292,[2.1975656],5.0,0.6,0.0,-0.06742944140454336,0.13699206193307986,1.4705423791303454
7.709046125411987,2.189247222317653,[2.19886767],5.0,0.6,0.0,-0.035354701314113175,0.12995220670491725,1.4816587420748544
7.71799635887146,2.1927643992189134,[2.20014792],5.0,0.6,0.0,-0.012098944635815864,0.12213572337368132,1.4891558536670892
7.728945016860962,2.19706317098712,[2.20140831],5.0,0.6,0.0,0.004043692950631194,0.10850398295719525,1.496231062138891
7.737991809844971,2.200775746605117,[2.20265042],5.0,0.6,0.0,0.014780280732623354,0.09606144069570356,1.4992972068546453
7.74800705909729,2.2050745183733236,[2.20387541],5.0,0.6,0.0,0.021558805430280974,0.07967046928268634,1.4997121215008713
7.75757908821106,2.208982492708057,[2.2050841],5.0,0.6,0.0,0.02551620845695135,0.06446603295824446,1.496964639343712
7.765483856201172,2.2123042708925804,[2.20627703],5.0,0.6,0.0,0.027507109229142887,0.051533461894743,1.492760240481083
7.7749669551849365,2.2156260490771036,[2.20745445],5.0,0.6,0.0,0.02815643981782625,0.03820496879503607,1.4867331917996844
7.784235954284668,2.219143225978364,[2.20861641],5.0,0.6,0.0,0.027912534717772858,0.023756346374648133,1.4780804489457973
7.792319297790527,2.222269605446151,[2.20976129],5.0,0.6,0.0,-0.24894596040033995,-0.004954746909683196,1.4691467693208873
7.801967620849609,2.2259821810641474,[2.21088607],5.0,0.6,0.0,-0.28324552822830606,-0.01587155232884521,1.4553848378166172
7.81095552444458,2.2291085605319343,[2.21198823],5.0,0.6,0.0,-0.5055636169215847,-0.04062189646788309,1.4428737861405014
7.821177005767822,2.2324303387164575,[2.21306712],5.0,0.6,0.0,-1.016154828757272,-0.03236175432470302,1.4269876301196445
7.82897686958313,2.2349705220340343,[2.2141236],5.0,0.6,0.0,-1.5103637980508802,-0.056174458499784474,1.415056246585702
7.83871054649353,2.238096901501821,[2.21515703],5.0,0.6,0.0,-2.4393503348611016,-0.06412096369415198,1.3956917616181435
7.851288795471191,2.241614078403081,[2.21616802],5.0,0.6,0.0,-3.578593962077925,-0.0619156386003928,1.3690915410361746
7.860544681549072,2.2441542617206576,[2.21715954],5.0,0.6,0.0,-4.250102596010979,-0.07366425648417343,1.3511126413742822
7.86896538734436,2.2463036476047615,[2.21813149],5.0,0.6,0.0,-4.868451050185774,-0.09511153094015393,1.33588727050844
7.878435373306274,2.2484530334888646,[2.2190813],5.0,0.6,0.0,-5.0,-0.09973120644887508,1.3232569184193403
7.886044263839722,2.249820824506021,[2.22000795],5.0,0.6,0.0,-5.0,-0.1010629140004756,1.318874156039323
7.894482851028442,2.2513840142399144,[2.22091069],5.0,0.6,0.0,-5.0,-0.11583167721214775,1.3122343035123867
7.907012224197388,2.253533400124018,[2.22178873],5.0,0.6,0.0,-5.0,-0.10844153013994519,1.2991989831216373
7.915954351425171,2.254705792424438,[2.22264233],5.0,0.6,0.0,-5.0,-0.12181864539531922,1.2958800764927156
7.925013542175293,2.2558781847248577,[2.22347077],5.0,0.6,0.0,-5.0,-0.12144353121975565,1.2922773054792422
7.936840772628784,2.257245975742015,[2.22427427],5.0,0.6,0.0,-5.0,-0.11371714630778759,1.286318618737437
7.94692587852478,2.258027570608961,[2.22505484],5.0,0.6,0.0,-5.0,-0.11592892046913077,1.2863077554878182
7.957975387573242,2.258809165475908,[2.22581325],5.0,0.6,0.0,-5.0,-0.11785797527992413,1.2860617578557259
7.966001033782959,2.259395361626118,[2.22654855],5.0,0.6,0.0,-4.852699982744988,-0.12644117158679335,1.288684598707775
7.975161075592041,2.2597861590595913,[2.22725928],5.0,0.6,0.0,-4.2746465396399085,-0.12344009713556074,1.2958699430528113
7.98670768737793,2.259981557776328,[2.22794578],5.0,0.6,0.0,-4.444539968161429,-0.11199748821284558,1.299946316004787
7.9969916343688965,2.259981557776328,[2.22860992],5.0,0.6,0.0,-3.9415429792736587,-0.10966931668564849,1.3098932541409019
8.005961179733276,2.259981557776328,[2.22926245],5.0,0.6,0.0,-3.5461845477961655,-0.00514018572852901,1.3187337390615492
8.017967700958252,2.2597861590595913,[2.2299239],5.0,0.6,0.0,-3.218049619211918,-0.005353978162964945,1.3289989980053805
8.028949499130249,2.2595907603428547,[2.23060699],5.0,0.6,0.0,-2.6592513398810813,0.0015532011091031546,1.3401074009229634
8.041178941726685,2.2595907603428547,[2.23131601],5.0,0.6,0.0,-2.1004401186041886,0.007179543805642504,1.3489621897406403
8.048956155776978,2.259395361626118,[2.23205197],5.0,0.6,0.0,-1.0705168612826181,-0.01530480726778888,1.360258336510499
8.056971549987793,2.259395361626118,[2.23281096],5.0,0.6,0.0,0.48034197444701476,-0.018084740688179,1.3680170441130335
8.06496262550354,2.259395361626118,[2.23358772],5.0,0.6,0.0,1.8985147839420162,-0.03326121507600706,1.3726080622232968
8.074436902999878,2.259395361626118,[2.23437727],5.0,0.6,0.0,3.2577660414568044,-0.030483808492461715,1.3744988935735423
8.086448907852173,2.259395361626118,[2.23517723],5.0,0.6,0.0,4.024655268130003,-0.016309280316423234,1.3774017489207346
8.094470977783203,2.259395361626118,[2.2359863],5.0,0.6,0.0,4.682837464265414,-0.030556314800308227,1.3801350497634075
8.102197885513306,2.2591999629093813,[2.23680046],5.0,0.6,0.0,5.0,-0.027811788201478928,1.3862550734880892
8.111987829208374,2.2590045641926446,[2.23761479],5.0,0.6,0.0,5.0,-0.03618450078750577,1.3942892904329378
8.119920015335083,2.258809165475908,[2.23842487],5.0,0.6,0.0,5.0,-0.03052004652370871,1.401987626268086
8.127932786941528,2.2586137667591712,[2.23922773],5.0,0.6,0.0,5.0,-0.025885835413761563,1.409323733078871
8.136375665664673,2.258418368042435,[2.24002162],5.0,0.6,0.0,4.712705431529005,-0.022121182584150086,1.4182894587908166
8.147717714309692,2.258027570608961,[2.2408048],5.0,0.6,0.0,4.253686279605566,-0.017830689877194963,1.4291114158648646
8.156329154968262,2.2578321718922245,[2.24157561],5.0,0.6,0.0,3.4995028556419694,-0.014777440883892571,1.4394836887688356
8.163949728012085,2.2574413744587516,[2.2423317],5.0,0.6,0.0,3.3036540717241616,-0.01946304928481408,1.447307439157517
8.171928882598877,2.257245975742015,[2.24307023],5.0,0.6,0.0,3.009118102306097,-0.014139537816409985,1.4539113801341814
8.183055877685547,2.256855178308541,[2.2437896],5.0,0.6,0.0,2.702657276118742,-0.00865193632266071,1.4610264674405813
8.190895557403564,2.2564643808750677,[2.24448857],5.0,0.6,0.0,2.418152315713831,-0.011136349387410757,1.4673894961287988
8.199920654296875,2.256073583441595,[2.24516418],5.0,0.6,0.0,2.4417936184579174,-0.01840354578985509,1.4720593174253076
8.208501100540161,2.2558781847248577,[2.24580851],5.0,0.6,0.0,2.2548262873144242,-0.06428615018533944,1.4761541458890317
8.217942714691162,2.2554873872913843,[2.24641277],5.0,0.6,0.0,2.0085088535286277,-0.03212409758384324,1.4806711698333568
8.227300882339478,2.2552919885746476,[2.24697558],5.0,0.6,0.0,2.0418172525476446,-0.03211682504371519,1.4831689040273708
8.235925912857056,2.254705792424438,[2.24749804],5.0,0.6,0.0,1.858296407206944,-0.025945764964689408,1.4870994254246814
8.245720386505127,2.2545103937077013,[2.24798047],5.0,0.6,0.0,1.8935643085893488,-0.017665792567056037,1.4888462870719252
8.254967451095581,2.2539241975574913,[2.2484244],5.0,0.6,0.0,1.693820153772181,-0.013511562198629961,1.4918375651692766
8.263002634048462,2.253533400124018,[2.24883135],5.0,0.6,0.0,1.7120660241074288,-0.008282692352053882,1.4934107036860123
8.270898580551147,2.2531426026905446,[2.24920286],5.0,0.6,0.0,1.500454815210087,-0.005429781097148069,1.495227388584566
8.281202793121338,2.2525564065403345,[2.24954086],5.0,0.6,0.0,1.5130686583865087,0.0023106664917949995,1.4964816313971063
8.289912939071655,2.252165609106861,[2.24984758],5.0,0.6,0.0,1.301291154547838,0.004338010469042247,1.4976669748371059
8.29852294921875,2.2519702103901245,[2.25012516],5.0,0.6,0.0,1.3179202285237657,0.007605982275850402,1.4980281022534512
8.307566165924072,2.2515794129566515,[2.25037581],5.0,0.6,0.0,1.3891216537582818,0.011476413430985936,1.4982759311504668
8.316388845443726,2.2511886155231777,[2.25060192],5.0,0.6,0.0,1.4476976454584052,0.015038191982401215,1.4983734551194072
8.325190305709839,2.250993216806441,[2.25080586],5.0,0.6,0.0,1.7497447970706117,0.01730451638795187,1.4977191038502484
8.333035230636597,2.2507978180897044,[2.25098976],5.0,0.6,0.0,1.7757654061246613,0.01742698045060559,1.4976507832040298
8.341951370239258,2.2507978180897044,[2.25115551],5.0,0.6,0.0,2.2387290872385783,0.018750188546492193,1.4962574290301667
8.351820468902588,2.250602419372968,[2.25130517],5.0,0.6,0.0,2.4515222294185914,0.020829689938916495,1.4954473713254053
8.361765623092651,2.250602419372968,[2.25144089],5.0,0.6,0.0,2.7899498539733356,0.02181789748056454,1.4940985678098564
8.369903802871704,2.250602419372968,[2.25156455],5.0,0.6,0.0,3.0710511349396676,0.02005786497066302,1.4928432314759728
8.381965398788452,2.250602419372968,[2.25167795],5.0,0.6,0.0,3.243431476267649,0.023747704978195894,1.4919986973776496
8.390967607498169,2.250602419372968,[2.251783],5.0,0.6,0.0,3.3091302324645513,0.021471934703767803,1.4916359282432063
8.402311086654663,2.250602419372968,[2.25188151],5.0,0.6,0.0,3.012246832103579,0.02539089613773504,1.4929638394527789
8.410026550292969,2.2507978180897044,[2.25197516],5.0,0.6,0.0,2.6188728614143155,0.02195199643458275,1.494643319582747
8.421595573425293,2.2507978180897044,[2.2520655],5.0,0.6,0.0,2.2377435071733283,0.02591672703544239,1.495964926852133
8.429945230484009,2.2507978180897044,[2.25215391],5.0,0.6,0.0,1.6300802149697167,0.023363882032037406,1.4976581876569075
8.4383704662323,2.250993216806441,[2.25224137],5.0,0.6,0.0,1.045368057681185,0.023818920204741464,1.4988756537742705
8.448932886123657,2.250993216806441,[2.2523288],5.0,0.6,0.0,0.8426354187066412,0.024729986257469725,1.499115038026456
8.458069562911987,2.2511886155231777,[2.25241722],5.0,0.6,0.0,0.5152694013311995,0.024813958833707156,1.4995005519441718
8.465909242630005,2.2511886155231777,[2.25250726],5.0,0.6,0.0,0.47982610627471345,0.02246245689155597,1.499480939949968
8.476940870285034,2.2513840142399144,[2.25259941],5.0,0.6,0.0,0.263319880911683,0.02566632956435455,1.4996529962881862
8.486518859863281,2.2515794129566515,[2.25269453],5.0,0.6,0.0,0.3025260959166636,0.02480242229766082,1.4996832113738185
8.49633240699768,2.251774811673388,[2.25279329],5.0,0.6,0.0,0.13695386303951626,0.023843558957277557,1.4997786017253278
8.503929853439331,2.251774811673388,[2.25289565],5.0,0.6,0.0,0.21129660751318768,0.02108711016265675,1.4997155441186782
8.512967586517334,2.2519702103901245,[2.25300123],5.0,0.6,0.0,0.07019293427498513,0.02087811843118524,1.4997837559480558
8.521204710006714,2.252165609106861,[2.25310985],5.0,0.6,0.0,-0.1143171027624808,0.02050917341645651,1.499811968331259
8.52993130683899,2.252361007823598,[2.25322129],5.0,0.6,0.0,-0.0003369169943606143,0.01720680472696433,1.499851994397126
8.541918277740479,2.2525564065403345,[2.2533352],5.0,0.6,0.0,-0.08793343145353319,0.01946133001157043,1.4998729472996932
8.55098843574524,2.2527518052570716,[2.25345164],5.0,0.6,0.0,-0.2227391044612091,0.01834794120479486,1.4998651212758671
8.559446334838867,2.2529472039738083,[2.25357035],5.0,0.6,0.0,-0.3444601793965095,0.015263544915489678,1.4998340235233527
8.568273544311523,2.2531426026905446,[2.25369142],5.0,0.6,0.0,-0.15866912768335859,0.02338867862127627,1.4999210212109482
8.575899124145508,2.2533380014072812,[2.25382049],5.0,0.6,0.0,-0.18329380116138622,0.07138992041880549,1.4999284326161009
8.586060285568237,2.253533400124018,[2.25396582],5.0,0.6,0.0,-0.2687941245762122,0.04947502887080702,1.4999088227901338
8.594603061676025,2.2537287988407546,[2.25412869],5.0,0.6,0.0,-0.354425816326954,0.04355248739224309,1.4998745172928767
8.603385210037231,2.2541195962742275,[2.25430699],5.0,0.6,0.0,-0.4195766774532981,0.04229117965085502,1.4998619462545542
8.612337827682495,2.254314994990964,[2.25449995],5.0,0.6,0.0,-0.18468076769645933,0.03760293443950879,1.4999677693871392
8.619930505752563,2.2545103937077013,[2.25470588],5.0,0.6,0.0,-0.17162221103535868,0.0300766668960009,1.4999704315755018
8.628902673721313,2.2549011911411747,[2.25492228],5.0,0.6,0.0,0.045621418374411554,0.026949987959035603,1.499998361724674
8.637004375457764,2.2550965898579114,[2.255147],5.0,0.6,0.0,0.010750534922222929,0.024464452594336893,1.4999994057842323
8.64491868019104,2.2552919885746476,[2.25537788],5.0,0.6,0.0,0.1772335994440107,0.019024402733809596,1.4999751423107694
8.65299940109253,2.2554873872913843,[2.25561238],5.0,0.6,0.0,0.09875569008227124,0.01670930901131485,1.499989615695178
8.662923336029053,2.2558781847248577,[2.25584807],5.0,0.6,0.0,0.23116444130646138,0.012277385101934437,1.4999600417154904
8.673493385314941,2.2562689821583315,[2.25608253],5.0,0.6,0.0,0.1275087015323661,0.007035529425730513,1.499980944567931
8.682238340377808,2.2566597795918044,[2.25631296],5.0,0.6,0.0,-0.033995318204486535,0.0004721447085429701,1.4999750825702702
8.691410779953003,2.256855178308541,[2.25653613],5.0,0.6,0.0,0.0930055831577877,-0.006422294450113629,1.4999732021885932
8.699942588806152,2.257245975742015,[2.25674878],5.0,0.6,0.0,0.011620471178576494,-0.010883851923842777,1.499950460561999
8.70892596244812,2.257245975742015,[2.25694772],5.0,0.6,0.0,-0.12154121147468772,-0.01875910484706485,1.4999712119027082
8.718921184539795,2.2574413744587516,[2.25712823],5.0,0.6,0.0,-0.520654095321861,-0.03711361368010938,1.4997786363356043
8.729907274246216,2.257636773175488,[2.25728403],5.0,0.6,0.0,-0.9233239688786428,-0.04742177432752795,1.4993408957098529
8.73831558227539,2.257636773175488,[2.25741024],5.0,0.6,0.0,-1.2395520295195945,-0.04540065344773625,1.4988472805611452
8.748878002166748,2.257636773175488,[2.25750358],5.0,0.6,0.0,-1.4529878705256305,-0.05798328995703127,1.4984273603869602
8.758904218673706,2.2574413744587516,[2.25755807],5.0,0.6,0.0,-1.8513743122504482,-0.08489618880145317,1.4974522780932675
8.767312049865723,2.257245975742015,[2.25756685],5.0,0.6,0.0,-2.211404931731994,-0.07574948836134464,1.4963522772579225
8.77487587928772,2.257245975742015,[2.25752802],5.0,0.6,0.0,-2.1881039398902464,-0.07077266121765208,1.4964327220717577
8.785649299621582,2.256855178308541,[2.25743926],5.0,0.6,0.0,-2.2955784700523276,-0.10530336874687926,1.4960243660651833
8.793022632598877,2.2566597795918044,[2.2572951],5.0,0.6,0.0,-2.1211572562495418,-0.09436617173731866,1.4965811825509676
8.803159713745117,2.2562689821583315,[2.25709254],5.0,0.6,0.0,-2.139690116116281,-0.10813969591702818,1.4964678784677876
8.811939477920532,2.2558781847248577,[2.25682865],5.0,0.6,0.0,-2.191156662936531,-0.12029707915113642,1.4962580917587203
8.822933912277222,2.2554873872913843,[2.25649881],5.0,0.6,0.0,-2.217155333104727,-0.1310934537066259,1.4961494774223723
8.832170486450195,2.2549011911411747,[2.25609904],5.0,0.6,0.0,-2.203407735661748,-0.13965610319097546,1.4961120358021205
8.840487957000732,2.254314994990964,[2.25562607],5.0,0.6,0.0,-2.1530329907341956,-0.1470913151835198,1.4962174481005843
8.848880767822266,2.253533400124018,[2.25508001],5.0,0.6,0.0,-2.3506374696427144,-0.12677224617052973,1.4954254038500014
8.857468128204346,2.2527518052570716,[2.25446397],5.0,0.6,0.0,-2.2863003983194385,-0.13842236261709864,1.4955378619610424
8.864911794662476,2.252165609106861,[2.25377863],5.0,0.6,0.0,-2.1224065865931108,-0.1483430306160706,1.4961377513385685
8.873934984207153,2.2511886155231777,[2.25302527],5.0,0.6,0.0,-2.208164809324569,-0.12768221057329393,1.4957090161644664
8.88389277458191,2.2502116219394943,[2.25220832],5.0,0.6,0.0,-2.3315189471205615,-0.13913940106182782,1.4951727402018657
8.894927740097046,2.249039229639074,[2.25132696],5.0,0.6,0.0,-2.415563456020651,-0.17145847878051396,1.494629084014936
8.905904769897461,2.247476039905181,[2.25037601],5.0,0.6,0.0,-2.441995046252992,-0.16638979852883165,1.4938999797947026
8.914376020431519,2.2464990463214978,[2.24935736],5.0,0.6,0.0,-2.1395109742964573,-0.13918268141256435,1.4949714232278783
8.921923398971558,2.2453266540210777,[2.24827886],5.0,0.6,0.0,-1.7629139010952934,-0.14426218403143437,1.495950259432142
8.932068586349487,2.243763464287184,[2.24714545],5.0,0.6,0.0,-1.6888892782671117,-0.14501506909182174,1.4955962618245247
8.940373659133911,2.242200274553291,[2.24595964],5.0,0.6,0.0,-1.4300526317784934,-0.1445215574795273,1.4956574051403768
8.947916030883789,2.2408324835361344,[2.24472701],5.0,0.6,0.0,-1.1437248449227244,-0.11910326134961478,1.495998321310781
8.960856676101685,2.238683097652031,[2.24345327],5.0,0.6,0.0,-1.4412992115895984,-0.14430238264477196,1.4939154373371086
8.970477104187012,2.236924509201401,[2.24213932],5.0,0.6,0.0,-1.5770169918063188,-0.13709632275884273,1.4927280348921252
8.978406429290771,2.2353613194675077,[2.24078927],5.0,0.6,0.0,-1.3398680093645507,-0.10827678736972404,1.492790198491534
8.986718893051147,2.2336027310168776,[2.23941245],5.0,0.6,0.0,-1.0116358198983142,-0.10767921996339275,1.4925109117157613
8.996849060058594,2.2318441425662474,[2.2380154],5.0,0.6,0.0,-0.9803376836086779,-0.10481095663227633,1.4916971386804871
9.005903959274292,2.2300855541156173,[2.23660424],5.0,0.6,0.0,-0.4867581867762757,-0.08086494703649211,1.491361022020371
9.015254020690918,2.228326965664987,[2.23518451],5.0,0.6,0.0,-0.20830145768463687,-0.10587571000327925,1.4906066121886499
9.023871660232544,2.226763775931094,[2.233759],5.0,0.6,0.0,0.2265169388379882,-0.08091130896596582,1.4902229067408794
9.035613059997559,2.224223592613517,[2.23233052],5.0,0.6,0.0,0.3503117339893357,-0.09802246106651731,1.4868502198172275
9.04489254951477,2.222269605446151,[2.23090185],5.0,0.6,0.0,0.6222705372912012,-0.070449680946533,1.4849191959518597
9.053869724273682,2.220315618278784,[2.22947756],5.0,0.6,0.0,0.606760372463965,-0.06951234572575285,1.4830779244525116
9.063885927200317,2.218361631111417,[2.2280616],5.0,0.6,0.0,0.7703893664254997,-0.06793246835277249,1.480916454479376
9.073068141937256,2.2164076439440503,[2.22665531],5.0,0.6,0.0,0.9513669882671936,-0.0660498605715819,1.4785427970767369
9.081903219223022,2.2148444542101573,[2.22525963],5.0,0.6,0.0,1.368167075955856,-0.06613771638974617,1.4771469666317583
9.091983556747437,2.212695068326054,[2.22387511],5.0,0.6,0.0,1.4892536163962438,-0.0635720618676065,1.4736629290258176
9.099916696548462,2.2111318785921603,[2.22250387],5.0,0.6,0.0,1.7502812682209337,-0.04317540516376509,1.4721919099071838
9.107951164245605,2.2093732901415306,[2.22114926],5.0,0.6,0.0,1.98577132884604,-0.04956067750907872,1.4697195975763202
9.117267608642578,2.2074193029741638,[2.21981146],5.0,0.6,0.0,2.144465917639936,-0.05387851153843559,1.466342155901442
9.127661943435669,2.2052699170900603,[2.21848788],5.0,0.6,0.0,2.222546801621688,-0.05599709981333541,1.461996907465502
9.136881113052368,2.2033159299226934,[2.21717573],5.0,0.6,0.0,2.233164143077895,-0.058087249541319455,1.4586112466457886
9.144878387451172,2.2015573414720637,[2.21587441],5.0,0.6,0.0,2.1932429592473,-0.03682830868061335,1.456265252332377
9.153424263000488,2.1997987530214336,[2.2145853],5.0,0.6,0.0,2.118314479691189,-0.04504387636997464,1.4538847413407707
9.163135290145874,2.1980401645708034,[2.21330446],5.0,0.6,0.0,2.0209302882708533,-0.07441919173049173,1.4514383159053845
9.172918796539307,2.196086177403437,[2.21202595],5.0,0.6,0.0,1.9105671905408395,-0.04673008469557466,1.4477443359634175
9.180856943130493,2.1945229876695436,[2.21075167],5.0,0.6,0.0,2.0701054269399966,-0.02745311709822387,1.4455093591212629
9.19189190864563,2.19237360178544,[2.20948307],5.0,0.6,0.0,2.2613983628895884,-0.05941572048345386,1.4393417873251133
9.203891277313232,2.1900288171846003,[2.20821405],5.0,0.6,0.0,2.123395514230679,-0.055787034899860935,1.4326541676046511
9.21410584449768,2.188074830017233,[2.2069371],5.0,0.6,0.0,2.156137577680923,-0.07609127269834337,1.4278669363816734
9.222952604293823,2.18651164028334,[2.20564841],5.0,0.6,0.0,2.2117648598426314,-0.04537484507854123,1.4257465014417368
9.232875108718872,2.1843622543992365,[2.20434987],5.0,0.6,0.0,1.961612460821914,-0.042622672572120594,1.420351606881053
9.242700099945068,2.182799064665343,[2.20304341],5.0,0.6,0.0,1.6369886107444929,-0.04174671844591318,1.419311800759599
9.252525568008423,2.18064967878124,[2.2017287],5.0,0.6,0.0,1.3304196216126045,-0.037042464525392525,1.4136531677615032
9.25988221168518,2.179281887764083,[2.2004059],5.0,0.6,0.0,1.347985729859562,-0.035596381486150075,1.4132708420997675
9.271920204162598,2.176937103163243,[2.19907563],5.0,0.6,0.0,1.1743715904585812,-0.02868051194341127,1.4056025534331895
