t_s,q_rad,q_des_rad,jerk
0.005104780197143555,-0.015045701188723608,-5.479053545109567e-06,0.0
0.015185832977294922,-0.015045701188723608,-2.6232669456384007e-05,0.0
0.024923086166381836,-0.015045701188723608,-6.409380955881922e-05,0.0
0.036081790924072266,-0.015045701188723608,-0.0001140631325549237,0.0
0.046781301498413086,-0.015045701188723608,-0.00017103990323054155,0.0
0.05855274200439453,-0.015045701188723608,-0.00022979146980278852,0.0
0.06910276412963867,-0.015045701188723608,-0.000285636613271797,0.0
0.0770876407623291,-0.015045701188723608,-0.0003354854002503136,0.0
0.09050488471984863,-0.015045701188723608,-0.0003773823530113412,0.0
0.09915351867675781,-0.015045701188723608,-0.00040971219923325116,0.0
0.10912752151489258,-0.014850302471986938,-0.0004313903239742145,0.0
0.11911749839782715,-0.015045701188723608,-0.00044131623048952815,0.0
0.13008427619934082,-0.014850302471986938,-0.00043743431091957974,0.0
0.14341187477111816,-0.014850302471986938,-0.00041684016983617944,0.0
0.15607929229736328,-0.014850302471986938,-0.000376719572260966,0.0
0.16916680335998535,-0.014850302471986938,-0.00031498102487592964,0.0
0.17934441566467285,-0.014850302471986938,-0.0002306395197415115,0.0
0.19165587425231934,-0.014850302471986938,-0.00012356792139598595,0.0
0.1999657154083252,-0.014850302471986938,5.629049218881906e-06,0.0
0.20955419540405273,-0.014654903755250269,0.00015523859522016917,0.0
0.22006583213806152,-0.014654903755250269,0.0003235774959168402,0.0
0.23198151588439941,-0.014654903755250269,0.0005099505165088837,0.0
0.24242639541625977,-0.014654903755250269,0.0007139896509514625,0.276038359678681
0.25010204315185547,-0.0144595050385136,0.000934141139605679,0.3091629628401227
0.25911808013916016,-0.0144595050385136,0.001167875814350262,0.2540657062482581
0.26711225509643555,-0.014264106321776927,0.0014128412916395103,0.45401906077198473
0.27607250213623047,-0.014068707605040257,0.0016668630835971168,0.4166209863074791
0.2880873680114746,-0.013873308888303588,0.0019288169610112327,0.3049019340213289
0.2981243133544922,-0.013873308888303588,0.002198037181370962,0.4628576832814027
0.3060719966888428,-0.013677910171566917,0.0024729174988822778,0.39604447440188917
0.31413888931274414,-0.013482511454830247,0.002751952681064708,0.5408359966743941
0.3245117664337158,-0.013287112738093578,0.003034199452481058,0.4437254615072993
0.33506345748901367,-0.012896315304620235,0.0033187748821355083,0.5578871196669946
0.3450489044189453,-0.012700916587883566,0.0036048660594038703,0.7116930635915704
0.3540687561035156,-0.012505517871146895,0.0038917393721128696,0.5644626617449884
0.36518001556396484,-0.012114720437673556,0.004178752368299175,0.6175371406486858
0.37490320205688477,-0.011723923004200214,0.004465351699606778,0.7176151944744864
0.38306570053100586,-0.011528524287463544,0.004750671319526385,0.5291638271859276
0.3950631618499756,-0.010942328137253534,0.0050340047757980256,0.5533001398358197
0.4060475826263428,-0.010551530703780192,0.005315597727252392,0.6346641843443825
0.41707468032836914,-0.009769935836833513,0.005595724642415651,0.7113804198426803
0.42706942558288574,-0.009379138403360172,0.005874288934508124,0.7634874110568846
0.43610310554504395,-0.00879294225315016,0.0061512864756984795,0.5125696886695466
0.44910192489624023,-0.00820674610294015,0.006427267188040751,0.4816398991707521
0.46109628677368164,-0.0076205499527301395,0.006703742193037592,0.5216432052767901
0.4697291851043701,-0.007034353802520129,0.006981657502174924,0.5706266215441184
0.4770622253417969,-0.006643556369046789,0.007260019073783407,0.33030890505537663
0.48848485946655273,-0.006057360218836778,0.00753811385943418,0.3145712427700662
0.49706578254699707,-0.005275765351890096,0.007816421543504138,0.09432529918054006
0.5089261531829834,-0.004689569201680086,0.008095485311693686,0.12498087438157676
0.5180559158325195,-0.003907974334733405,0.008375909598919349,0.22910240885241023
0.5300664901733398,-0.0033217781845233945,0.008658354821594081,0.05830930207373744
0.5404765605926514,-0.0027355820343133836,0.008944140006962009,0.10678301915447498
0.5527055263519287,-0.0015631897338933619,0.009235187193095488,-0.060669108635932605
0.5638890266418457,-0.0007815948669466809,0.009533351358318546,0.010932934787635937
0.5741877555847168,-0.00019539871673667023,0.009839679142144729,-0.13026352180449804
0.5833323001861572,0.0005861961502100108,0.010154496108982903,-0.03555224670885519
0.5932254791259766,0.0011723923004200215,0.010478150729121309,-0.15848555699609598
0.6048650741577148,0.0019539871673667024,0.0108110263201359,-0.05020290845940671
0.6146817207336426,0.0027355820343133836,0.011153531329765798,-0.1634783491805513
0.6235527992248535,0.0033217781845233945,0.011506055310746355,-0.32461142071554394
0.632678747177124,0.0037125756179967346,0.011868966030836248,-0.46664402873235056
0.6410675048828125,0.004103373051470075,0.012241771671560736,-0.5699403636283296
0.65004563331604,0.004494170484943416,0.012623253896391134,-0.9103363902642998
0.6624481678009033,0.004689569201680086,0.013014054193462752,-1.2514792358965343
0.6709611415863037,0.004689569201680086,0.013415490528704868,-2.0651043851020634
0.6817452907562256,0.004884967918416756,0.013827134024590794,-2.5754604454092194
0.6923141479492188,0.004884967918416756,0.014249776708043942,-3.136329041966518
0.7038023471832275,0.004884967918416756,0.014685825369415281,-3.845300053025561
0.7150540351867676,0.004884967918416756,0.015136322546678174,-4.14507358913796
0.72383713722229,0.004884967918416756,0.01560129935426329,-3.6543109640291656
0.7349324226379395,0.005080366635153426,0.016080841662890498,-3.234427221888144
0.7447290420532227,0.005080366635153426,0.016575032710680535,-2.326254545049523
0.7552413940429688,0.005275765351890096,0.017085101910673778,-1.6815289449757025
0.763054370880127,0.005275765351890096,0.01761095311188603,-0.9479144606157788
0.7728419303894043,0.005471164068626767,0.018150246211717236,-0.03765117433804932
0.7850136756896973,0.005666562785363437,0.018703403048577334,0.48095645617782645
0.7950336933135986,0.005861961502100107,0.019272045141470674,1.0451823979449069
0.8054454326629639,0.006057360218836778,0.019856470319244,1.5043523182237988
0.8155989646911621,0.006448157652310118,0.02045697111021454,1.5483613272331378
0.8275845050811768,0.006643556369046789,0.021075191803979227,1.7077848348537819
0.8383803367614746,0.007034353802520129,0.02171395990956457,1.8535879265611095
0.8490533828735352,0.007425151235993469,0.02237435705592067,1.9450596018012138
0.8590621948242188,0.00781594866946681,0.023055902643286257,1.978316227421643
0.8680508136749268,0.00820674610294015,0.02375815540007522,1.962769053467595
0.8760316371917725,0.008597543536413491,0.02447918811898944,1.9109077904602234
0.888211727142334,0.008988340969886831,0.025217320142803652,1.8342761372635574
0.8961343765258789,0.009574537120096843,0.02597257900989924,1.4661787592074607
0.9049508571624756,0.009769935836833513,0.02674336612416315,1.332612134145486
0.9147346019744873,0.010160733270306851,0.027528240719067565,1.2839507246996371
0.9244372844696045,0.010942328137253534,0.028327395854171673,1.2564670537805003
0.9334914684295654,0.011333125570726873,0.029140881457975387,1.2259469074962355
0.9448888301849365,0.012114720437673556,0.029968640131091157,1.185536481048457
0.9553675651550293,0.012896315304620235,0.030810484280810107,1.1353929276405208
0.9630587100982666,0.013482511454830247,0.031666089957255415,1.078017867367235
0.9750752449035645,0.014264106321776927,0.032534847206950074,1.0162793089268267
0.9850490093231201,0.015241099905460279,0.03341588616912801,1.2287090381518389
0.9933087825775146,0.01582729605567029,0.03430848621766163,1.198276439315859
1.00101637840271,0.01660889092261697,0.03521042309846377,1.0810450473512865
1.009589433670044,0.017195087072826982,0.036117879004880615,0.9451658679043642
1.017009973526001,0.018172080656510332,0.03702891274512216,0.8177571545681932
1.0260581970214844,0.018953675523457014,0.03794180616423262,0.7074705009987285
1.0341262817382812,0.019930669107140364,0.03885345963540837,0.6151619688403545
1.0440924167633057,0.020907662690823715,0.03976262377435673,0.5387990692603799
1.0540432929992676,0.022080054991243738,0.040668172454386586,0.4756140254597007
1.0651495456695557,0.023252447291663758,0.0415690177648594,0.6990084009152494
1.0752067565917969,0.02442483959208378,0.04246699023933581,0.6878099575450881
1.0858080387115479,0.0255972318925038,0.043363518029407654,0.5949466112628421
1.0968139171600342,0.026965022909660494,0.04425827159552555,0.4862918427013682
1.107107162475586,0.028137415210080514,0.04515085915791494,0.38736114008024525
1.1170177459716797,0.029309807510500538,0.0460422197142936,0.3057100865089802
1.1260440349578857,0.030482199810920558,0.04693311697479989,0.24146825907219535
1.1340770721435547,0.031459193394603915,0.047820122307660175,0.1921405305548245
1.148662805557251,0.03341318056197061,0.0487016505165347,0.15468172394116791
1.1573801040649414,0.03458557286239063,0.04958173064163266,-0.14973265692889207
1.1665868759155273,0.035757965162810657,0.0504611276322642,-0.20443284878237267
1.1740646362304688,0.036734958746494004,0.05133519251988549,-0.16587884113496792
1.183112382888794,0.03790735104691403,0.05220008845635071,-0.37867005628632644
1.19209623336792,0.03927514206407072,0.05305672715414814,-0.3513817019460188
1.2028021812438965,0.04083833179796408,0.05390868860805742,-0.2477559331306876
1.212137222290039,0.04220612281512077,0.05475640908348996,-0.41230370141044015
1.2208337783813477,0.0433785151155408,0.0555976715360115,-0.3509532685660604
1.2315123081207275,0.04513710356617083,0.056433450969774854,-0.5003471176560365
1.2410199642181396,0.046309495866590854,0.057266043178839154,-0.6832116287898943
1.2500624656677246,0.04767728688374754,0.05809475299149773,-0.8339108964409545
1.2600345611572266,0.049045077900904226,0.058919109526967876,-0.9356131640795841
1.2710785865783691,0.050608267634797595,0.059740184557662744,-0.990987608893914
1.2811191082000732,0.05197605865195429,0.06055896597444428,-1.009031498937354
1.2895431518554688,0.05314845095237431,0.06137638286232094,-0.999518233249065
1.2970283031463623,0.05412544453605766,0.062193295664756405,-0.9709448650969716
1.3070003986358643,0.05510243811974101,0.06300905872261488,-1.206050105197936
1.317978858947754,0.05627483042016103,0.06382319211005968,-1.466917260274805
1.3270227909088135,0.05705642528710771,0.06463822687187071,-1.6689119853860392
1.3350110054016113,0.05764262143731772,0.06545491359156065,-2.069582206131237
1.3430097103118896,0.05803341887079106,0.06626959593588778,-2.433263608055408
1.3523941040039062,0.058619615021001076,0.06708052028636396,-2.9627743403356375
1.363135576248169,0.05901041245447442,0.06789056697580866,-3.6855601454519324
1.3720595836639404,0.05920581117121108,0.06870109234158907,-4.289024499303921
1.3842880725860596,0.05959660860468442,0.06951203785641158,-4.963979184303964
1.3940072059631348,0.0597920073214211,0.0703263072909263,-4.922067896214653
1.4040935039520264,0.06018280475489443,0.07114634996764427,-4.598224094772963
1.4134857654571533,0.06037820347163111,0.0719727544982212,-4.1899496571684685
1.4220013618469238,0.06057360218836778,0.07280601964092032,-3.2297045826209763
1.4316048622131348,0.060964399621841116,0.07364655934408906,-2.2354150721504666
1.440666913986206,0.061355197055314455,0.07449317596115938,-1.1162149197576197
1.4480876922607422,0.06174599448878779,0.07534330488111717,-0.15604699058334492
1.45908522605896,0.06213679192226114,0.07619633424212092,0.8483915797371355
1.472487449645996,0.06291838678920783,0.07705491310768114,1.6660612691889403
1.4808287620544434,0.06311378550594449,0.07792128890032977,2.2482414027749145
1.4920361042022705,0.06389538037289116,0.07879415649629318,2.6170007771574704
1.5030083656311035,0.06448157652310119,0.07967399677519715,2.8155703766179423
1.5150871276855469,0.06526317139004786,0.08056599818882201,2.88782380013661
1.5261380672454834,0.06604476625699454,0.08147283098634364,2.8710213789318244
1.5349929332733154,0.06682636112394122,0.08239175843945218,2.7942831792078158
1.5444080829620361,0.06741255727415124,0.08332036728495668,2.6792945185976764
1.5548102855682373,0.06819415214109792,0.084258165202183,2.5416855208749762
1.563551425933838,0.0689757470080446,0.0852046569265934,2.6684766175975065
1.572000503540039,0.0695619431582546,0.0861577179413182,2.5482541572642754
1.582594871520996,0.07073433545867464,0.08711552106558589,2.3407565491352456
1.5911285877227783,0.07132053160888463,0.08807812286864049,2.392530170049522
1.6010375022888184,0.07249292390930466,0.08904386269467673,2.2132034170227572
1.6090145111083984,0.07327451877625135,0.09001131506309196,1.9669759856578022
1.617004156112671,0.07405611364319802,0.09097926867341455,1.722386035999392
1.6255383491516113,0.07503310722688138,0.09194506097069477,1.5041268134535957
1.6373469829559326,0.07640089824403806,0.09290981325078959,1.593804175239005
1.6479971408843994,0.07796408797793142,0.0938761494840761,1.4704344086582761
1.659972906112671,0.0793318789950881,0.09484463957817797,1.560296869168765
1.6679811477661133,0.08030887257877146,0.09581580293759812,1.4069843171969438
1.6803240776062012,0.0820674610294015,0.09679010603175622,1.1876149842740797
1.6888480186462402,0.08304445461308485,0.09776965500913201,0.9744041613290539
1.7017638683319092,0.08480304306371489,0.09875794760661481,0.7919935850204924
1.7107398509979248,0.08617083408087158,0.09975622678358718,0.644654774607248
1.7189958095550537,0.08734322638129159,0.10076205771934307,0.2528292298168728
1.7285401821136475,0.08871101739844828,0.10177337188004602,0.12973021898807366
1.7360038757324219,0.08968801098213164,0.10278843346485002,0.11499320152452351
1.7439930438995361,0.09086040328255167,0.10380407924418006,-0.13946949885430165
1.7529840469360352,0.09222819429970835,0.10481768512109552,-0.1450639623949335
1.7620179653167725,0.09359598531686505,0.10582712704169811,-0.06771913805222991
1.772993803024292,0.09515917505075841,0.1068343896194165,0.022449250020448307
1.7850065231323242,0.09691776350138845,0.10784493120790253,0.09934544088008042
1.7950122356414795,0.09828555451854513,0.10886161346528829,-0.11987279699542522
1.803004503250122,0.09945794681896515,0.10988315852937093,-0.11531158248467495
1.8153536319732666,0.1010211365528585,0.11090866089660875,-0.3142146357514666
1.8269872665405273,0.10297512372022523,0.11194335822949537,-0.5370710274929092
1.8390016555786133,0.10473371217085524,0.11299377772979295,-0.7188528274624051
1.847219467163086,0.10590610447127527,0.11405960659928761,-0.8442438329575824
1.8570120334625244,0.10746929420516863,0.11513658697130105,-0.917521785592452
1.8659698963165283,0.10864168650558867,0.11622312657014215,-0.9490862627785748
1.8751204013824463,0.10961868008927202,0.11732201111263514,-1.2258710747301735
1.8829612731933594,0.11040027495621868,0.11843353625889498,-1.5143172673086747
1.8939836025238037,0.11137726853990204,0.11955381715013262,-2.0095802003301255
1.904750108718872,0.11215886340684872,0.12068379531471685,-2.4532232040961515
1.918200969696045,0.11313585699053208,0.12182852343329287,-3.5946288205132886
1.9280016422271729,0.1135266544240054,0.12299229433801971,-4.424673025559972
1.9360697269439697,0.11372205314074207,0.12417430248653848,-4.943654380879794
1.9479734897613525,0.11411285057421541,0.1253715575571015,-5.0
1.9602389335632324,0.11469904672442544,0.12658788814871447,-5.0
1.9688076972961426,0.11489444544116212,0.1278263267717889,-4.786303097460743
1.9803783893585205,0.11528524287463544,0.12908265551681458,-4.1027121078196505
1.9889848232269287,0.1156760403081088,0.13035307142867764,-3.072426605191078
1.9987578392028809,0.11606683774158212,0.1316363382580083,-2.089390595617675
2.0084807872772217,0.1168484326085288,0.13293121823337062,-1.007234717800879
2.018110752105713,0.11723923004200215,0.13423432304910285,0.18935331709736936
2.027272939682007,0.11782542619221216,0.13554265223454737,1.1931645401400297
2.036003351211548,0.11841162234242215,0.13685569762733987,1.9298595229053892
2.0451133251190186,0.11899781849263219,0.1381707368171644,2.4174127153011775
2.058147668838501,0.11997481207631551,0.1394875101594995,2.9791365517378328
2.0680058002471924,0.12075640694326222,0.14080999509355438,3.146227808333154
2.078869104385376,0.12173340052694555,0.14213928288975777,3.3927836614451365
2.0873701572418213,0.12251499539389225,0.14347401338448262,3.301329738928178
2.099560022354126,0.12368738769431226,0.1448129226146444,3.354835316748474
2.1072700023651123,0.12446898256125893,0.14615485790336008,3.4045937700905133
2.11901593208313,0.12583677357841566,0.14749878690724982,3.4028364179745014
2.129253625869751,0.12720456459557233,0.14884379738647727,3.343990836387324
2.1388463973999023,0.128572355612729,0.1501890906285217,3.2378156153753697
2.1489715576171875,0.1299401466298857,0.15153401176875403,3.097719755076383
2.156940221786499,0.13111253893030572,0.152875936227656,2.9361470253228643
2.1695237159729004,0.13287112738093576,0.15421272722917176,2.763123797954301
2.1769676208496094,0.13404351968135578,0.1555469490641715,2.3100920782995655
2.1883418560028076,0.13580210813198582,0.15688088292972308,1.825252545923493
2.201512098312378,0.13814689273282588,0.15821659184275358,1.6764257381302348
2.2099318504333496,0.1391238863165092,0.15955590915707824,1.6439550122757478
2.2219436168670654,0.1412732722006126,0.16089613605932945,1.63539292257061
2.23195481300354,0.14303186065124263,0.16223732362163182,1.34049313600002
2.239938259124756,0.1443996516683993,0.16358179261914058,0.9933376528551527
2.2481675148010254,0.14596284140229268,0.16492716042596667,0.9594336850553108
2.256028652191162,0.14733063241944935,0.1662692984311365,0.7452868951792035
2.264556884765625,0.14889382215334274,0.16760484839148396,0.5048463639288542
2.2719404697418213,0.15006621445376275,0.1689334102732281,0.29556479252640516
2.2826743125915527,0.15202020162112945,0.1702571169290962,0.13253312725113944
2.2928874492645264,0.15397418878849614,0.17157799380946961,0.28981791030278126
2.3009350299835205,0.15534197980565284,0.17289561072240375,-0.03519405334510545
2.3119657039642334,0.15768676440649287,0.1742074392763651,-0.1772926080183395
2.323331832885742,0.16003154900733293,0.17551619888992084,-0.2313668083176026
2.333998680114746,0.16218093489143628,0.1768290164139238,-0.24404666675175224
2.342975378036499,0.16393952334206632,0.17814727206045947,-0.23805981400182064
2.355802536010742,0.16667510537637972,0.17946987589150232,0.05169529517358562
2.3669590950012207,0.16882449126048307,0.1808007737847318,0.10111160895389859
2.379950523376465,0.17116927586132313,0.18214574342170586,-0.2135019679873913
2.388951539993286,0.17292786431195314,0.18350717769542677,-0.3069562068276641
2.396949052810669,0.17449105404584653,0.18488206149308478,-0.5837957186165009
2.4059948921203613,0.17644504121321322,0.18627019683665294,-0.8600802324314873
2.4149551391601562,0.17820362966384326,0.18767373938639872,-1.073371016484906
2.422954559326172,0.1799622181144733,0.18908693575998534,-1.2129721183870803
2.432471990585327,0.18172080656510334,0.19050236018947353,-1.2877652678545326
2.4405465126037598,0.18308859758226,0.19191866989596276,-1.3120263750249206
2.4500417709350586,0.1850425847496267,0.19333719941884783,-1.2996622377129807
2.4642157554626465,0.18777816678394008,0.19476153668279098,-1.2622580109144712
2.4719443321228027,0.1891459578010968,0.1961971126277277,-1.4847889419406703
2.482240676879883,0.1909045462517268,0.19764587266625727,-1.7309206495882195
2.490518808364868,0.19207693855214686,0.19910431689450922,-1.9171157350596826
2.501948356628418,0.1938355270027769,0.20056933479765313,-2.301667132808872
2.512322425842285,0.19520331801993357,0.20204311769652902,-2.9254428516240614
2.5205299854278564,0.19598491288688025,0.2035249241828859,-3.472626101028188
2.5279741287231445,0.19676650775382695,0.2050090603507322,-3.849510244682807
2.5387489795684814,0.19793890005424694,0.20649305330738957,-4.3297943257342215
2.5494325160980225,0.19872049492119365,0.20797718448591965,-4.700161679318818
2.5569400787353516,0.1993066910714036,0.2094592031608547,-4.908364109326186
2.565934419631958,0.19969748850487698,0.2109347420637102,-4.965890602928355
2.5759787559509277,0.20047908337182369,0.21240251187880088,-4.90437872398853
2.585238218307495,0.20086988080529702,0.21386383927829797,-4.481332841722194
2.5988729000091553,0.20184687438898036,0.21532220289931106,-3.9684757339146577
2.607388496398926,0.20243307053919038,0.2167828412990736,-3.2004821934806147
2.6159236431121826,0.20301926668940037,0.2182453325044537,-2.1818093484228642
2.629119634628296,0.20380086155634705,0.21970680908415088,-0.9737455359775078
2.6369566917419434,0.2043870577065571,0.22116943584278329,0.07745499003377476
2.64694881439209,0.20536405129024043,0.2226349782517746,0.8774879779907367
2.6555607318878174,0.2061456461571871,0.22410023055940312,1.7101472549251535
2.6629693508148193,0.2067318423073971,0.22556014942792357,2.3745851672337004
2.6752710342407227,0.20790423460781715,0.22701513665345266,2.830117574787269
2.687443494796753,0.20927202562497385,0.2284702441032209,3.37390820115583
2.6959035396575928,0.2100536204919205,0.22992514598287656,3.5262724968801926
2.709993600845337,0.21161681022581388,0.23137733438484917,3.757371387665627
2.722064971923828,0.2131799999597072,0.23282952648535954,3.924825572159537
2.729937791824341,0.2141569935433906,0.23428418027203743,3.992871959307784
2.742152452468872,0.21572018327728396,0.2357436099404359,3.9680657586408774
2.749992609024048,0.2166971768609673,0.23720990663848698,3.594419054041836
2.7603652477264404,0.21826036659486067,0.23868011286648547,3.4123439120806394
2.768406629562378,0.21923736017854403,0.24015192831520674,3.0095626036378285
2.7759902477264404,0.22040975247896405,0.24162354035558123,2.5761276069483827
2.7839457988739014,0.22158214477938404,0.243091129956612,2.1842612407311566
2.7970051765441895,0.22353613194675076,0.2445569643495947,2.130061807897146
2.8060171604156494,0.22509932168064412,0.24602585485582504,1.8932899184775656
2.818889856338501,0.2270533088480108,0.2474997000217324,1.8960352376841079
2.8279237747192383,0.2286164985819042,0.24898046139849847,1.6765927048881082
2.8408195972442627,0.23096128318274423,0.25047012435250077,1.6832190121985668
2.8517673015594482,0.23291527035011095,0.25197360406778896,1.741181859487921
2.8639073371887207,0.23506465623421427,0.2534983255807707,1.7837679493516494
2.876652717590332,0.23760483955179101,0.2550540481745553,1.791906150858005
2.8839452266693115,0.2389726305689477,0.2566430473047537,1.4898646405381062
2.8962061405181885,0.24131741516978775,0.25825812613654237,1.127454774284494
2.90915846824646,0.24405299720410112,0.259902740131098,0.8009347147169537
2.9189436435699463,0.24581158565473116,0.2615861749852117,0.5383987676435905
2.9276211261749268,0.24796097153883453,0.26330647974353133,0.3398867495255596
2.93562650680542,0.24932876255599123,0.26505524113959494,-0.08040928069941675
2.9438118934631348,0.2510873510066213,0.2668284706129438,-0.2152602460330053
2.9576098918914795,0.253627534324198,0.26862933472203604,-0.22999309410580138
2.9649457931518555,0.2551907240580913,0.2704569787897425,-0.20048875015749862
2.9751522541046143,0.2573401099421947,0.272303765875452,-0.15993999072671097
2.9846014976501465,0.25909869839282473,0.2741698428099939,-0.3976582735923613
2.9933109283447266,0.26085728684345477,0.2760585260846095,-0.6750401710499069
3.0042991638183594,0.2630066727275582,0.27796901512322975,-0.6283523501578113
3.0119354724884033,0.2645698624614515,0.2799003761153532,-0.7546828974034048
3.0219168663024902,0.2667192483455549,0.2818515453369232,-0.9036663604438635
3.0320403575897217,0.2686732355129216,0.2838179521383051,-0.7447548483885318
3.039902925491333,0.2700410265300783,0.28579210604837857,-0.7839956431409209
3.0484988689422607,0.271995013697445,0.2877709291234898,-0.594139422286067
3.056509256362915,0.27336280471460167,0.28975175001742476,-0.6354953309793357
3.0648815631866455,0.2753167918819684,0.29172550374774286,-0.7358179787636214
3.0785086154937744,0.2782477726330184,0.2936913215863323,-0.5511984380323861
3.088557720184326,0.28039715851712177,0.2956620060230942,-0.5793292037603721
3.0968878269195557,0.2825465444012252,0.29764152812968264,-0.3876304125560304
3.109358549118042,0.2852821264355385,0.29962633301279096,-0.4329560690763954
3.1213066577911377,0.288017708469852,0.3016233397102877,-0.2647578905176347
3.1321449279785156,0.29036249307069195,0.3036415371960297,-0.05658559630335244
3.1418802738189697,0.29251187895479536,0.30568151838933477,-0.15045370527175284
3.149915933609009,0.2942704674054254,0.3077367943102989,-0.3219384388976955
3.1608996391296387,0.29661525200626543,0.30979834359831304,-0.48197036500769463
3.169450521469116,0.29837384045689547,0.31186179736862707,-0.6021247767565103
3.176931858062744,0.3001324289075255,0.3139267473711126,-0.6793837933277098
3.1873421669006348,0.3024772135083655,0.31599279289043514,-0.7199986739832891
3.1968915462493896,0.3048219981092056,0.31805626027124406,-0.732457331461609
3.2055606842041016,0.3065805865598356,0.3201107869732626,-0.44865469249980816
3.2133708000183105,0.30853457372720233,0.32215447143297843,-0.3940329208556648
3.2208995819091797,0.3100977634610957,0.32418586246477815,-0.41885713004997716
3.230907440185547,0.31244254806193567,0.3262005871696748,-0.4595200597667474
3.243053913116455,0.31498273137951244,0.3282019095474319,-0.4920428601283344
3.2566077709198,0.31791371213056246,0.3302028950766287,-0.5098606924473412
3.266879081726074,0.32006309801466587,0.3322147169513147,-0.5134398086066141
3.278085231781006,0.3226032813322426,0.3342400749685475,-0.5055927483889424
3.286893129348755,0.32436186978287257,0.3362743922126201,-0.48949028783860093
3.2970173358917236,0.32670665438371266,0.3383137869926317,-0.4679151724315982
3.308502435684204,0.32944223641802606,0.34036185545806646,-0.4430621520189183
3.3209052085876465,0.3321778184523394,0.3424216759164998,-0.41655897424857946
3.330564260482788,0.33413180561970607,0.3444924568635078,-0.3895613418944858
3.338932991027832,0.3362811915038095,0.3465735504816128,-0.6388976688876118
3.3468844890594482,0.33803977995443946,0.3486609057208176,-0.6461344969565558
3.355919599533081,0.33999376712180623,0.3507476123008252,-0.5662866750753117
3.3658790588378906,0.34214315300590964,0.3528314789130529,-0.4667732419666598
3.3778038024902344,0.3444879376067496,0.3549179570724629,-0.3742337554297983
3.3878982067108154,0.346637323490853,0.3570117880422245,-0.5730699367445824
3.3991596698760986,0.34898210809169306,0.35911348490214356,-0.5450350097382126
3.407895565032959,0.3509360952590598,0.36122351244643575,-0.7187721615454128
3.4183740615844727,0.3530854811431631,0.36334228996694434,-0.6398062382700214
3.4277164936065674,0.3552348670272665,0.3654701963196052,-0.48679577538107466
3.440141439437866,0.3577750503448432,0.36760760812788257,-0.3331734093809401
3.451045513153076,0.3601198349456833,0.36975858744268236,-0.2045441792064456
3.4599828720092773,0.36207382211305,0.37192646035010474,-0.10594776235049219
3.4702067375183105,0.36422320799715335,0.3741102381431795,-0.31052221711620254
3.479440450668335,0.3659817964477834,0.3763090273255107,-0.2940839198545326
3.4878597259521484,0.36774038489841343,0.37851825939769046,-0.20607378588153724
3.4993112087249756,0.3700851694992534,0.3807341123753352,-0.3853049201904223
3.507866382598877,0.3718437579498835,0.3829571803138409,-0.33587180864642197
3.519774913787842,0.3741885425507235,0.38518807344414524,-0.21817063942740347
3.527871608734131,0.3757517322846169,0.3874274346027435,-0.09823233011552221
3.535893201828003,0.37751032073524693,0.38967203600847117,0.0008168474984115853
3.5442898273468018,0.37907351046914023,0.3919193464149221,0.07431057878897085
3.5538673400878906,0.381027497636507,0.3941713391084314,-0.15131843920596166
3.566694498062134,0.38356768095408367,0.39643402296168945,-0.1525412881026305
3.5759150981903076,0.3855216681214504,0.3987127282754314,-0.3554808734807614
3.584319829940796,0.38708485785534374,0.40100403458183814,-0.3045105966236193
3.5938851833343506,0.3892342437394471,0.40330531815350007,-0.17781156957006772
3.601860761642456,0.39099283219007713,0.4056144856118951,-0.04866696125864295
3.610687732696533,0.39275142064070717,0.4079258086814253,0.05731165217378452
3.6218817234039307,0.3950962052415472,0.4102434395743529,0.13500713887693025
3.6338791847229004,0.3976363885591239,0.4125799625949702,0.1872132306331247
3.643946409225464,0.3997857744432273,0.41494200951147664,0.21904602101510978
3.6540257930755615,0.4019351603273307,0.41733103801046634,0.23564182592981245
3.662912130355835,0.4036937487779607,0.41974844298520625,0.2413504166791543
3.670912027359009,0.4052569385118541,0.42219082496001065,0.23957248722470162
3.6808671951293945,0.4074063243959575,0.4246507199181913,0.5088851946929863
3.689882755279541,0.40916491284658746,0.42712668213235766,0.5321746908163862
3.701524257659912,0.41150969744742755,0.4296271926931876,0.46543361233351394
3.711414337158203,0.41365908333153095,0.43216434380424673,0.6528366500698237
3.7196056842803955,0.4154176717821609,0.4347385694633351,0.6025951165792918
3.7288992404937744,0.4175670576662643,0.43734036945879384,0.7541851407966413
3.7368812561035156,0.419521044833631,0.43996156414502996,0.6568742406263861
3.74588680267334,0.4212796332842611,0.4425951851804582,0.49002382294819236
3.7548820972442627,0.4236244178851011,0.44524048249937753,0.6026413337945937
3.76324200630188,0.42557840505246775,0.4479020450533927,0.776618494559574
3.771864414215088,0.4275323922198345,0.45057879968120623,0.9279783801182164
3.785856008529663,0.43046337297088455,0.4532701209861826,1.0321613842429427
3.7978830337524414,0.4333943537219346,0.4559915567848124,1.0889727251512813
3.808420181274414,0.43573913832277467,0.45876189977728415,1.1066685630295203
3.818887948989868,0.43847472035708807,0.46158661681678637,1.095126976978852
3.8268563747406006,0.4406241062411914,0.46445932460869194,1.0632223180490352
3.8348655700683594,0.4429688908420314,0.46736895518712784,1.0180639670321296
3.845867156982422,0.4457044728763448,0.47031184587731956,0.9650012462520206
3.8544557094573975,0.4480492574771848,0.47329073886940853,0.9078952204013823
3.8619728088378906,0.45019864336128823,0.47630820749081415,0.8494426525848191
3.8721508979797363,0.4529342253956016,0.47936664661860534,0.7914691743093724
3.880847215652466,0.4552790099964417,0.4824621268032403,0.7351672936467877
3.8898561000823975,0.4578191933140183,0.485585359203517,0.6812790172176826
3.901554822921753,0.4613363702152784,0.4887411280723496,0.6302313456666229
3.9109432697296143,0.4638765535328551,0.4919397846094678,0.8582729900117237
3.919914960861206,0.4664167368504319,0.49517758548542584,0.8465158460909836
3.930811643600464,0.4695431163182186,0.4984515254035662,0.7496191595404904
3.9426426887512207,0.4732556919362153,0.5017721621113144,0.9107608404720051
3.9548659324645996,0.476968267554212,0.5051551305972681,1.1134448262700865
3.9629881381988525,0.4795084508717888,0.5086001892386767,1.2776341390183152
3.9757652282714844,0.4834164252065221,0.5121003605095987,1.3829005879541205
3.984969139099121,0.4863474059575722,0.515663149350521,1.1565600827103553
3.9934377670288086,0.4890829879918856,0.5192946673180939,0.85256811322463
4.001197338104248,0.4916231713094623,0.5229859341976164,0.571100029096534
4.010856866836548,0.494749550777249,0.5267220103847629,0.6195487313674425
4.023224115371704,0.4988529238287191,0.5305042978792269,0.4815524409722913
4.033971786499023,0.5025654994467159,0.5343480846569835,0.5799998885007916
4.042842626571655,0.5058872776312392,0.5382516148622176,0.4528788462695604
4.050845384597778,0.5086228596655527,0.5421986290348794,0.2718432022043856
4.060494422912598,0.5123354352835494,0.5461824349852137,0.10458171029462932
4.067895889282227,0.5150710173178628,0.5502045725573007,0.24831855799691402
4.079840898513794,0.5193697890860695,0.5542663056165746,0.4619070472948662
4.092277526855469,0.5236685608542763,0.5583761475205264,0.3758247079738281
4.103553295135498,0.527967332622483,0.5625486524957384,0.7571708291701515
4.111900091171265,0.5310937120902697,0.5667806177892566,0.655410382318306
4.119845628738403,0.5342200915580564,0.5710537579294245,0.40955918086899323
4.129533529281616,0.5377372684593165,0.5753599996462789,0.43514613422298715
4.136834383010864,0.5408636479271033,0.5796922904643498,0.2620145389969333
4.1488707065582275,0.5455532171287834,0.5840447021774017,0.3306847594318669
4.158710479736328,0.54926579274678,0.5884278819779272,0.4601996055137595
4.172443628311157,0.5549323555321435,0.5928587770718907,0.5791762050322686
4.180669069290161,0.5582541337166669,0.5973437321034843,0.38916546110977035
4.190780878067017,0.5625529054848736,0.6018719327360266,0.4071312080899119
4.202861547470093,0.5676332721200271,0.6064421394286673,0.20772795903870067
4.213851690292358,0.5719320438882337,0.6110691861804833,-0.026274224923328204
4.223978519439697,0.5762308156564405,0.6157572616525934,-0.22664156027477061
4.231838703155518,0.5793571951242272,0.6204932564030221,-0.6514273416122068
4.242977142333984,0.5840467643259073,0.6252658631171936,-0.7839110763250292
4.251882553100586,0.5875639412271675,0.6300735553167457,-1.0637330691919722
4.260924577713013,0.5912765168451641,0.6349066019357615,-1.325067005709567
4.269969701766968,0.5949890924631609,0.639756825385696,-1.5148935360759141
4.279685974121094,0.5988970667978942,0.6446257311780395,-1.627448918458947
4.288517713546753,0.6026096424158911,0.6495147216306999,-1.6742080815170248
4.296863555908203,0.6057360218836778,0.6544251092660996,-1.6708061239933594
4.307790756225586,0.6100347936518845,0.6593581598041063,-1.631848984083843
4.3196024894714355,0.6147243628535647,0.6643151115588566,-1.5692627442199145
4.3295509815216064,0.6188277359050346,0.6692971520451862,-1.4921281668141892
4.337839126586914,0.6223449128062948,0.6743054222113622,-1.4070590564253003
4.349950313568115,0.6274252794414481,0.6793410352924305,-1.3187134487126775
4.361869812011719,0.632310247359865,0.6844050815303275,-1.2302739129426046
4.370414972305298,0.6358274242611249,0.689498644431499,-1.1438443571790224
4.3803346157073975,0.6397353985958584,0.6946228188491199,-1.0607574982865162
4.390125751495361,0.6436433729305918,0.699778718791894,-0.9818044009965743
4.398541212081909,0.6473559485485886,0.704967483972417,-0.9074018106158319
4.406845808029175,0.6508731254498485,0.7101810007657047,-0.837712153904739
4.417039155960083,0.6547810997845819,0.7154127706258921,-0.7727285507635502
4.4269561767578125,0.6586890741193153,0.7206668844454883,-0.7123344388596311
4.438142538070679,0.662987845887522,0.7259472194991365,-0.6563450111294652
4.44786810874939,0.6670912189389921,0.731257435315142,-0.6045357428383593
4.455878734588623,0.6704129971235157,0.7365912494096325,-0.5566618179479902
4.465655088424683,0.674320971458249,0.7419438000271804,-0.5124711775463695
4.474923610687256,0.6782289457929824,0.7473210275280163,-0.4717131222959538
4.4860827922821045,0.6829185149946625,0.7527383227128417,-0.4341438324941972
4.497882127761841,0.6878034829130792,0.7582189025066248,-0.3995297642393286
4.506846904754639,0.6913206598143393,0.7637621976642031,-0.3676495931201611
4.515296459197998,0.6946424379988627,0.7693473231701718,-0.3382951742737925
4.526922225952148,0.6993320072005428,0.7749767758120637,-0.31127184514886297
4.538808107376099,0.7042169751189595,0.7806728616613889,-0.28639829730615063
4.548957109451294,0.7083203481704297,0.786443797501272,-0.2635061735587437
4.556831359863281,0.711642126354953,0.7922752934286231,-0.24243949779940072
4.565834999084473,0.7153547019729498,0.7981443031168132,-0.22305401071284353
4.575013875961304,0.7188718788742098,0.8040412475154617,-0.20521646079678835
4.58280873298645,0.7221936570587333,0.8099577003645029,-0.1888038836041937
4.59287691116333,0.7261016313934666,0.815886310340256,-0.1737028906918494
4.602141618728638,0.7300096057282001,0.8218413120278371,-0.4358473415614922
4.610077381134033,0.7333313839127235,0.8278239909195744,-0.45618885188623826
4.62188720703125,0.7386071492646135,0.833824590036992,-0.38933066217120765
4.633290767669678,0.7427105223160836,0.8398550019825879,-0.3024252571431936
4.643701791763306,0.7470092940842904,0.8459246610049292,-0.2219475726540432
4.654847145080566,0.7515034645692338,0.8520304988904239,-0.1561670033593837
4.665822744369507,0.7559976350541772,0.8581691693521687,-0.10574320928309958
4.67579460144043,0.7597102106721738,0.864337086428144,-0.06857589919027242
4.684461832046509,0.763227387573434,0.870530468550893,-0.04191605506734239
4.694740533828735,0.7675261593416408,0.8767454094275482,-0.023201992709377756
4.704845905303955,0.7720203298265842,0.882977948667624,-0.010323720015166103
4.715818643569946,0.7767098990282643,0.8892241042197089,0.27439080091426865
4.724369049072266,0.7800316772127877,0.8954799222811182,0.3132097855091617
4.73285174369812,0.7835488541140476,0.9017317579004642,0.26171628290523596
4.7416911125183105,0.7870660310153078,0.9079676968822243,0.18778532952314364
4.750601768493652,0.7907786066333043,0.914187323704468,0.1184229741788182
4.7608482837677,0.7952727771182478,0.9203804754965883,0.062289479227866366
4.770006895065308,0.7991807514529814,0.9265384835056503,0.020333567613567256
4.7793824672698975,0.8030887257877147,0.9326637766291193,-0.285367901449632
4.786862134933472,0.8060197065387646,0.9387489374508492,-0.3384493863932973
4.79955792427063,0.8107092757404448,0.9447878162825587,-0.29604036167448333
4.807404041290283,0.8140310539249681,0.9507943853493126,-0.2273886232008419
4.818968057632446,0.8185252244099116,0.9567804648845728,-0.43664025740833423
4.827881336212158,0.822433198744645,0.9627371568629325,-0.41434092435221836
4.835834980010986,0.8257549769291685,0.9686477285518825,-0.31674696202564917
4.845838785171509,0.8294675525471652,0.9745076889366754,-0.20965001837167463
4.859483957290649,0.8351341153325286,0.9803321674539617,-0.3933640934828036
4.8667988777160645,0.8378696973668419,0.9861341982145312,-0.3550549135646216
4.877837657928467,0.8427546652852588,0.9919156779693931,-0.24827233074876698
4.886815071105957,0.8464672409032555,0.9976783452731066,0.13928762471268774
4.902234315872192,0.8527199998388288,1.0034330666262687,0.2659116914533135
4.910311937332153,0.856237176740089,1.0091983099304662,0.2812648890475472
4.92080283164978,0.860340549791559,1.0149712282068348,0.25449658056518104
4.930923700332642,0.8646393215597659,1.020740241044931,0.21619716677111367
4.939839839935303,0.8679610997442891,1.0265049339884695,0.17886725968620804
4.95104193687439,0.8724552702292327,1.032265172349644,0.14679580899160669
4.960883140563965,0.8767540419974394,1.0380211022382422,0.12074960717873826
4.968820810317993,0.879880421465226,1.043763821466471,0.10014331856406805
4.979693412780762,0.8843745919501695,1.0494862545223382,0.08400215701319286
4.990859031677246,0.8890641611518495,1.0552016411815546,0.07135756118746757
4.999765157699585,0.8929721354865829,1.0609215530303284,0.061385041997782136
5.011434078216553,0.8976617046882631,1.0666561709264373,0.3294694493057681
5.0230443477630615,0.9023512738899433,1.0724237570350597,0.3561601564870479
5.032420635223389,0.9062592482246766,1.078230196227118,0.01973857630653758
5.041161060333252,0.9097764251259366,1.0840611561580376,-0.09388356340709095
5.050623178482056,0.9138797981774068,1.0898948245077722,-0.11304947398392236
5.060648441314697,0.9175923737954035,1.0957225828967896,-0.09680236208134337
5.070164680480957,0.9215003481301368,1.1015471545683984,-0.07107757985689811
5.080805778503418,0.9252129237481336,1.1073712419771753,-0.04633576545319036
5.090554237365723,0.9295116955163404,1.113197476457672,-0.026055382238943055
5.100339651107788,0.933810467284547,1.1190283897097355,-0.010752188091631596
5.107783079147339,0.9369368467523338,1.1248664145262657,0.00016977054528021385
5.117770195007324,0.9410402198038039,1.130713860437063,0.007603761960293396
5.129763126373291,0.9459251877222207,1.1365728893039606,0.012410924417422569
5.139976739883423,0.9502239594904275,1.1424454830834092,0.01530995599032943
5.149998426437378,0.9541319338251608,1.1483333895541936,0.016860033947720475
5.1598060131073,0.9584307055933676,1.1542381184491726,0.017478913621655136
5.171372890472412,0.9633156735117843,1.1601710451436074,0.2935089730255358
5.180156469345093,0.9668328504130442,1.1661416219403715,0.3262152536606556
5.190258979797363,0.9707408247477777,1.1721373315780357,0.27044250116772706
5.19884181022644,0.9744534003657744,1.178147363689267,0.19353101296707403
5.2086098194122314,0.9781659759837712,1.1841725481508665,0.12210366247119289
5.217824459075928,0.9820739503185046,1.1902033182367207,0.34058651663940775
5.22760272026062,0.9857865259365014,1.196231530833796,0.3307833165392214
5.2385430335998535,0.9904760951381815,1.2022705939159655,0.24536521518510462
5.252406358718872,0.9963380566402815,1.2083418663276864,0.1488841723022799
5.260655403137207,0.9998552335415416,1.2144529020758805,0.06538565032740054
5.2717812061309814,1.0039586065930115,1.2205893466202737,0.001147591456121276
5.282798528671265,1.008648175794692,1.2267489555115834,-0.044697138207779166
5.294777154922485,1.0133377449963719,1.2329600858995102,-0.07537235157219602
5.30329966545105,1.0170503206143686,1.2392359782295097,-0.09443022193012349
5.311164617538452,1.0201767000821553,1.2455463925422883,-0.10499314980873377
5.321932315826416,1.0246708705670988,1.2518552386692174,-0.10955383211438972
5.334777116775513,1.0297512372022521,1.258162732125181,-0.11000061572210046
5.343254804611206,1.0332684141035122,1.264489632917156,-0.10771782767494922
5.351786375045776,1.0367855910047723,1.2708329151033,-0.10369723335179513
5.362818717956543,1.041084362772979,1.2771797720573639,-0.09863661152896247
5.375822067260742,1.0467509255583425,1.2835400943884512,-0.09301897965920067
5.383968830108643,1.0504635011763392,1.2899222978467568,-0.08717311285373867
5.395826816558838,1.0549576716612825,1.2963231990922477,-0.08131839173772078
5.406833171844482,1.0596472408629627,1.3027402233617456,-0.07559739584483469
5.417803049087524,1.0637506139144328,1.3091818851815442,-0.07009927994340737
5.428663492202759,1.0682447843993763,1.315666012712747,-0.06487638206113337
5.4395928382873535,1.072543556167583,1.322197188097852,0.2160824212846913
5.450203895568848,1.076646929219053,1.3287687172425515,0.25381466482001636
5.458752870559692,1.080164106120313,1.3353749354375888,-0.07302530583178785
5.468674421310425,1.0846582766052566,1.3420111469460623,-0.17824327167935025
5.482295989990234,1.09032483939062,1.3486844740586803,0.08606974046978542
5.490882396697998,1.0934512188584067,1.3554009909037499,0.14208105866128493
5.500549554824829,1.0975545919098768,1.3621438668810846,0.11867210823812854
5.51276159286499,1.1026349585450301,1.3689101589781132,0.07271346660254846
5.523771047592163,1.106933730313237,1.3757196239965164,0.027353404708127478
5.534407615661621,1.111623299514917,1.3825776334933484,-0.009523743606241013
5.544224977493286,1.1155312738496506,1.3894773369783342,-0.3125868103233742
5.555276870727539,1.1198300456178572,1.3964127317219508,-0.36399035868750534
5.562919616699219,1.1227610263689072,1.4033785135296932,-0.32022498364853824
5.570784330368042,1.125887405836694,1.4103586913790274,-0.25028793672729144
5.5810770988464355,1.1303815763216374,1.4173283700087262,-0.18220819513438324
5.590743064880371,1.1340941519396341,1.4242779656074278,-0.40151351809692315
5.603622913360596,1.1397607147249975,1.4312222838721766,-0.11479393890875893
5.613421201705933,1.1434732903429943,1.4381852817973875,-0.27031025336443015
5.622753143310547,1.1471858659609908,1.4451643434694526,-0.2593963431077392
5.635627269744873,1.1526570300296177,1.4521456363847864,-0.1938527873251495
5.645753860473633,1.1565650043643512,1.459139928312226,-0.120845527834014
5.655382394790649,1.160668377415821,1.4661560727941911,-0.05785618871798419
5.662746429443359,1.1635993581668713,1.4731786333137056,-0.009366320130208348
5.67279577255249,1.1675073325016045,1.4801943829802304,0.025354039757391388
5.683950185775757,1.1721969017032847,1.4872146512690043,0.32477786066644826
5.694767236709595,1.1764956734714915,1.494248938356756,0.3726099760450563
5.706576108932495,1.1813806413899082,1.5013051427477837,0.32587014060829045
5.714839458465576,1.1847024195744316,1.5083897969057667,0.25364826405477015
5.7227559089660645,1.1878287990422185,1.5154744191821223,0.18389954763806654
5.731746673583984,1.1919321720936886,1.5225237073082964,0.12599265033299478
5.740774631500244,1.1956447477116852,1.5295422690579028,0.08138921746579952
5.750799894332886,1.199943519479892,1.536545884641086,0.04856748178286464
5.760544538497925,1.2040468925313619,1.5435256189203062,-0.2508455870871616
5.7713048458099365,1.2081502655828322,1.550474459264852,-0.3001640754343838
5.779358386993408,1.211081246333882,1.557398464394831,-0.255979627162015
5.786789178848267,1.2140122270849323,1.5642918672777955,-0.18701052294397377
5.7977681159973145,1.2185063975698756,1.5711389373612679,-0.3969591227162526
5.806777477264404,1.222414371904609,1.5779386502785764,-0.3760271200653834
5.8149988651275635,1.2257361500891324,1.5847024774803986,-0.2802163184971478
5.825230121612549,1.2296441244238658,1.5914408668429179,-0.17513600015349906
5.835591077804565,1.2339428961920726,1.5981633178208976,-0.08493452589159192
5.844784259796143,1.2374600730933325,1.604878470413202,-0.015643105223085603
5.8527750968933105,1.2409772499945926,1.611582377743634,0.03393762552400316
5.863826036453247,1.245666819196273,1.6182724033869222,0.0673439237681705
5.871757745742798,1.2489885973807964,1.624958789819849,0.08838673099471406
5.8809332847595215,1.252701172998793,1.631638907929742,0.100389719968663
5.890244960784912,1.2566091473335264,1.6383113912394496,0.10599664292067211
5.899832010269165,1.2605171216682596,1.6449879138040067,0.10720675753756015
5.911673545837402,1.2654020895866764,1.6516792497770723,0.3815230566816894
5.9238128662109375,1.2702870575050933,1.658407904227549,0.13500445436857617
5.934931039810181,1.2747812279900368,1.6652061784342826,0.04203385445194915
5.94475245475769,1.2788846010415067,1.6720893126494885,0.015665719037806426
5.956278324127197,1.28337877152645,1.6790709203712357,0.015565534293610381
5.963813781738281,1.286505150994237,1.6861492363228923,0.0237558783551311
5.972762107849121,1.2900223278954968,1.6932831714508796,0.0327745367800055
5.980824947357178,1.2933441060800202,1.7004513659082456,0.03995307288791024
5.9900805950164795,1.2972520804147536,1.707662725645665,0.044695730874560545
6.000483751296997,1.3011600547494875,1.7149254724721745,0.04721658231820198
6.010173797607422,1.3054588265176938,1.7222471261597558,0.04797645129284762
6.019765615463257,1.3093668008524273,1.7296345362396301,0.04744919139177314
6.027763366699219,1.3128839777536871,1.7370796723090833,0.04603826507725628
6.0387585163116455,1.3173781482386306,1.7445762094974149,0.3200967746752218
6.049014329910278,1.321286122573364,1.7521476384596386,0.07486744515979106
6.058323621749878,1.3249986981913608,1.7598138722385182,-0.01583904560542248
6.066705703735352,1.3285158750926211,1.7675626809111287,-0.03936488050040711
6.077748775482178,1.3330100455775644,1.7753687640561355,0.23972210266954375
6.087716102600098,1.3369180199122979,1.7832252389860554,0.2843088615434588
6.100725412368774,1.3421937852641879,1.7911559237574768,-0.03453500200927484
6.109850645065308,1.3459063608821848,1.7991956916884235,0.14266794747312095
6.1211278438568115,1.350400531367128,1.807358303831616,0.16817903530286596
6.131748199462891,1.354699303135335,1.8156391960686675,0.13798008856908148
6.143499135971069,1.3593888723370147,1.8240480499125482,-0.18211381015621247
6.153657674789429,1.3638830428219582,1.8326062064544713,0.01952604241434404
6.162805557250977,1.3674002197232182,1.8412993819994676,0.0745799187260035
6.171292543411255,1.3709173966244785,1.8500832071752173,0.0710779151584374
6.1807544231414795,1.3748253709592118,1.8589331399058702,0.04853336396567698
6.18986439704895,1.378342547860472,1.8678414619218497,0.02355817679661703
6.199756622314453,1.3824459209119417,1.876799735165502,0.002262912283757322
6.212399244308472,1.3875262875470953,1.8858131223049994,-0.013828471823737776
6.2221903800964355,1.3916296605985656,1.8948979730489521,-0.025020901798456403
6.230035781860352,1.394951438783089,1.904037671750881,-0.03220905602559643
6.240716457366943,1.3992502105512956,1.9132016465447923,-0.03635557548657897
6.24972128868103,1.4029627861692924,1.9223761703698838,-0.03829858294939656
6.257725238800049,1.4058937669203424,1.9315215158853032,-0.03870330513551686
6.267305612564087,1.4096063425383392,1.9405894314406564,-0.03807136258547504
6.275753498077393,1.4129281207228626,1.949564938385364,-0.03676882672391116
6.28381085395813,1.416249898907386,1.9584354630266405,-0.03505661570909739
6.293721675872803,1.4205486706755925,1.9671890855565084,0.24292122967952037
6.301764726638794,1.4240658475768528,1.9758273694119646,0.27808740427778517
6.310713529586792,1.427583024478113,1.9843392291900424,-0.050988760822193946
6.322722911834717,1.4324679923965296,1.9927252388934482,-0.15817626312738547
6.332651376724243,1.4365713654479997,2.001007390740383,0.10438648426159264
6.342742681503296,1.4406747384994696,2.0091810110791406,0.15883089255828212
6.352711915969849,1.4449735102676766,2.017219617189457,-0.14202757229849228
6.360847234725952,1.4480998897354633,2.02511085283561,-0.22238776344164643
6.372707366943359,1.4531802563706164,2.0328631173912157,0.06222793870824715
6.380722761154175,1.4561112371216667,2.040482462512652,0.1335038001467537
6.388744115829468,1.4590422178727167,2.047955051205763,0.12093977360118291
6.396731853485107,1.4621685973405036,2.0552602371312787,-0.19372316879353957
6.4052934646606445,1.4656857742417637,2.062380992089154,-0.26751296533248603
6.413728713989258,1.4692029511430236,2.0693119026428044,-0.24651139197947636
6.423562526702881,1.4733063241944937,2.0760574667586402,-0.19601915975453826
6.432760000228882,1.4768235010957538,2.0826142536036483,-0.14327222957858293
6.44071102142334,1.4801452792802772,2.088972470655582,-0.09810193664089191
6.4507293701171875,1.484248652331747,2.0951324682721895,-0.06277645331237258
6.459756851196289,1.4879612279497438,2.1011029626182856,-0.036579523070613504
6.46875524520874,1.4916738035677406,2.1068851661275207,-0.017860449391984612
6.476715564727783,1.4946047843187906,2.1124742705462856,-0.0048915441328560546
6.4867329597473145,1.498512758653524,2.11787417882512,0.0038204134256031885
6.49775767326355,1.5030069291384676,2.1231020539000167,0.009460516927175797
6.506739377975464,1.5067195047564643,2.1281730799332075,0.01292633755396937
6.515752553939819,1.510432080374461,2.1330880098236134,0.014878417125368996
6.523726940155029,1.5137538585589845,2.137847620677667,0.01579363595289806
6.531685829162598,1.5168802380267712,2.1424541361915885,0.016011570412182187
6.540334224700928,1.5203974149280313,2.1469051000938713,0.015771432912731267
6.54875636100769,1.5235237943958178,2.151199577035197,0.01524016517245393
6.556756258010864,1.5268455725803411,2.1553378473247418,0.014533212383253696
6.566712379455566,1.5311443443485482,2.1593262299523985,0.013729611489622644
6.580518484115601,1.537006305850648,2.1631808142221844,0.012882818738352574
6.59428334236145,1.5424774699192747,2.166924956418524,0.012028415006730553
6.603138446807861,1.545994646820535,2.1705781582051897,-0.26484880341037376
6.614320755004883,1.5502934185887418,2.1741473455579166,-0.2987821513372594
6.623775243759155,1.554201392923475,2.177629613526815,-0.2444548510441192
6.6348960399627686,1.5585001646916818,2.1810226246691453,-0.16909635086730784
6.644713878631592,1.5624081390264153,2.1843367531340925,-0.09925476315116097
6.6532909870147705,1.5657299172109387,2.187580848548924,-0.04326846575567518
6.661180019378662,1.5692470941121985,2.190746802647906,-0.0018617467594066461
6.671220302581787,1.5735458658804056,2.1938242886982584,0.027005412344049254
6.6793012619018555,1.576672245348192,2.1968126044228597,0.3220643676629939
6.68957781791687,1.580971017116399,2.1997152568181777,0.36687274776209755
6.7007691860198975,1.5854651876013421,2.2025355020338386,0.31818437744838746
6.7127697467803955,1.590350155519759,2.20527953317705,0.2448226313320056
6.7260167598724365,1.595821319588386,2.207958855413978,-0.10152144128545443
6.734791278839111,1.5997292939231191,2.210579776388989,-0.19270383226482568
6.743680000305176,1.6032464708243792,2.213135301180922,-0.18208706148336734
6.7526984214782715,1.6067636477256393,2.21561670100612,-0.13852310232574838
6.7624335289001465,1.610671622060373,2.2180255617754505,-0.09096502352289118
6.7717156410217285,1.6141887989616328,2.2203665795706606,-0.05006529288461532
6.779679298400879,1.617510577146156,2.222638753178546,-0.2945180753406082
6.7881691455841064,1.6210277540474165,2.224841591896271,-0.30483576176362975
6.796678066253662,1.6245449309486766,2.2269751550492396,-0.23414355770248038
6.805708885192871,1.6280621078499362,2.229037350303089,-0.14798796498460318
6.814419507980347,1.6313838860344596,2.231029280158092,-0.07144686815589774
6.821713447570801,1.6343148667855099,2.2329546681252785,-0.011687084982988788
6.829711198806763,1.6376366449700333,2.234814779245361,0.031455001409573385
6.8376994132995605,1.6411538218712933,2.2366067207833775,0.06067173300745899
6.8468592166900635,1.6446709987725534,2.238328626927815,0.07912526056176755
6.856270790100098,1.6485789731072868,2.2399838252866466,0.08965736305191462
6.864715576171875,1.6522915487252834,2.241577701976264,0.09456177884176731
6.875760078430176,1.656785719210227,2.2431151366643887,0.09558749916782865
6.884694337844849,1.6603028961114872,2.244598640450172,0.09402234270261368
6.8995513916015625,1.666164857613587,2.246032391358942,0.09079203552659046
6.90941047668457,1.669877433231584,2.247425657003683,0.08654980375886553
6.916698932647705,1.6728084139826338,2.2487844794442857,0.08174915866327086
6.924712181091309,1.6761301921671574,2.2501086132028436,0.07669983714037915
6.933486700057983,1.6798427677851542,2.251396283998349,0.07160941485158262
6.942691326141357,1.6837507421198874,2.2526478165686292,0.06661362537271717
6.953191041946411,1.688049513888094,2.2538652856225383,0.06179814415527459
6.961866617202759,1.6915666907893543,2.2550505093229383,0.057214085899344416
6.969684600830078,1.6946930702571408,2.256203615248182,0.05288894787494572
6.979373455047607,1.6986010445918742,2.257323368409586,0.048834291015209974
6.98950982093811,1.702509018926608,2.2584103371164095,0.045051102401629614
6.999775409698486,1.7066123919780778,2.25946655862145,-0.23450484050756445
7.0106775760650635,1.7113019611797582,2.2604937918949943,-0.2708915633824187
7.022162199020386,1.7157961316647015,2.2614947786261985,-0.21881362129949405
7.033312559127808,1.7198995047161716,2.2624730189561153,-0.14551910264025322
7.041687965393066,1.7232212829006948,2.2634289969804855,-0.07757257563702463
7.054884195327759,1.7286924469693217,2.264361851511155,-0.023327071170001074
7.062780141830444,1.7318188264371084,2.265273132069554,0.01647998304567338
7.072446823120117,1.7361175982053152,2.266164122710844,0.043876756182893925
7.080733776092529,1.7392439776731017,2.267033743744876,0.061545510842638866
7.091513395309448,1.7435427494413085,2.2678801135007514,0.07198623403712016
7.1046881675720215,1.7490139135099352,2.268703656887986,0.07725195888439962
7.115725517272949,1.753312685278142,2.2695066905829546,0.07892382303623097
7.125222444534302,1.7572206596128757,2.2702901915804437,0.0781737239788753
7.1397483348846436,1.7630826211149755,2.271054849173998,0.07584818690134909
7.150824308395386,1.7675767915999188,2.2718020470817137,0.07254703258322504
7.161668300628662,1.7716801646513891,2.272532085175458,0.06868838444305016
7.171416521072388,1.7753927402693859,2.273245103453577,0.0645591058254748
7.179331064224243,1.7787145184539093,2.273941223042375,0.06035253786164346
7.186699867248535,1.7818408979216962,2.274619101316348,0.05619610018707927
7.197001218795776,1.7855534735396927,2.2752776600586704,0.05217117442164462
7.205368995666504,1.7888752517242161,2.275916144324024,0.04832727729325592
7.213680028915405,1.7925878273422127,2.2765333634550036,0.044692084512910735
7.225660562515259,1.7972773965438928,2.277129099529871,0.04127847614673291
7.235389947891235,1.8013807695953632,2.277703931470115,0.31412782151648644
7.242681980133057,1.8043117503464128,2.278257856761558,0.34428456883193237
7.252391815185547,1.8078289272476729,2.2787909464427774,0.010394743079380292
7.261689186096191,1.8115415028656698,2.279304493362397,-0.10136538954641504
7.271411657333374,1.815449477200403,2.2797991652632477,-0.11914895111187332
7.279022455215454,1.818380457951453,2.280274545170787,-0.10186339268511352
7.287694692611694,1.8218976348527132,2.280730457807323,-0.0753474730097658
7.296721458435059,1.8254148117539735,2.2811669291506154,-0.04999323207454169
7.305658578872681,1.8289319886552335,2.2815846221791007,-0.029230438686508695
7.314271688461304,1.8324491655564934,2.281984731503711,-0.013540256888109472
7.324272155761719,1.8365525386079635,2.282368385483898,-0.002302107480577551
7.333922863006592,1.8402651142259603,2.282736618672337,0.005394864399430977
7.341643333435059,1.843391493693747,2.283089996086682,0.010424414085582156
7.350599050521851,1.8469086705950069,2.2834286845421237,0.013514346415835633
7.36073112487793,1.8514028410799506,2.2837536933333875,0.015230462657785177
7.374097585678101,1.856483207715104,2.284066745017916,0.01599538248150029
7.383338689804077,1.8601957833331009,2.2843689438678885,0.01611673770219344
7.390648365020752,1.8627359666506773,2.28466052575089,0.015814406776418766
7.3996641635894775,1.8660577448352007,2.2849414137951976,0.015243318905995016
7.408676862716675,1.8699657191699341,2.2852116390590824,0.014511278167936128
7.420903205871582,1.8742644909381412,2.28547160221256,0.013692363008664735
7.4312357902526855,1.8785632627063478,2.2857223124314103,0.012836759809997104
7.439481019973755,1.8816896421741343,2.285964662683943,0.011977866552617476
7.450367212295532,1.8863792113758147,2.2861990924966915,0.011137369216649932
7.458683252334595,1.8895055908436014,2.286425971146431,0.010328841430561148
7.468719244003296,1.8936089638950713,2.2866456531369366,0.009560282021790082
7.476662874221802,1.8963445459293846,2.2868582396111514,0.008835895333863726
7.4857378005981445,1.9000571215473812,2.287063559781913,-0.26788102468999736
7.4957404136657715,1.9041604945988515,2.2872617116059324,-0.025600033989719773
7.508747577667236,1.9094362599507417,2.2874532892829875,0.06203373645984793
7.519541025161743,1.9135396330022116,2.2876390464703045,-0.19356207891303204
7.528667211532593,1.9170568099034717,2.28781937854494,-0.23275351137415345
7.537656784057617,1.920378588087995,2.2879943735562303,-0.19202331823360247
7.548643112182617,1.9244819611394652,2.2881641233676158,-0.1309928185272143
7.558635711669922,1.9283899354741985,2.2883287295993093,-0.07344950122857713
7.566645622253418,1.9315163149419852,2.2884881015930003,-0.303119252615797
7.5766355991363525,1.9358150867101922,2.2886420583024933,-0.3019585686462751
7.588195085525513,1.9403092571951355,2.2888013823734235,-0.22306751162235294
7.595671892166138,1.9434356366629222,2.2889835126743483,-0.13145976516995078
7.603668928146362,1.9461712186972357,2.2891913967065443,-0.0515851993655751
7.611638069152832,1.9492975981650225,2.2894214123528296,0.009954137159761619
7.620686292648315,1.9526193763495459,2.2896732181531205,0.05377760627143673
7.628664970397949,1.9559411545340692,2.2899454431346826,0.08292477566949716
7.639289617538452,1.960239926302276,2.290236608600148,0.10081311706615495
7.646630764007568,1.9629755083365892,2.290545655765975,0.11046757357610226
7.655758619308472,1.9664926852378493,2.2908705997791157,-0.1617275981459475
7.664756536483765,1.9700098621391096,2.2912086466391077,-0.1949821766750099
7.6726672649383545,1.9729408428901594,2.291557133380475,0.13339863152339815
7.680638313293457,1.9758718236412094,2.2919141685519047,0.2381945374332837
7.690861225128174,1.979779797975943,2.2922784418864155,0.24822654823429058
7.7017271518707275,1.9840785697441496,2.292648502194461,-0.05317857549954724
7.712655782699585,1.9883773415123565,2.2930233299217258,-0.12092298045945829
7.7247233390808105,1.993262309430773,2.293402698372703,-0.09910612126627838
7.733167886734009,1.9965840876152965,2.293785649738103,-0.051406464807302
7.7426981925964355,2.00049206195003,2.29416935789984,-0.0038186047782136495
7.755706548690796,2.0053770298684466,2.294551259465951,0.034737386652239105
7.768350601196289,2.0104573965036003,2.294930730468478,0.062642629382265
7.778659343719482,2.014169972121597,2.295307497115437,0.08106462335956136
7.787169694900513,2.017296351589384,2.2956800417727354,-0.18407830277631532
7.795661449432373,2.0208135284906437,2.2960462701812476,-0.2119046779107414
7.807646036148071,2.0255030976923236,2.2964050676379033,-0.15548525621225406
7.81865119934082,2.029606470743794,2.2967561545156157,-0.08079255498175755
7.827059984207153,2.0327328502115805,2.2970986537499742,-0.013437960315913822
7.836632966995239,2.0362500271128408,2.2974312237597108,0.03891764657330228
7.8464133739471436,2.040158001447574,2.2977533636514424,0.07602900233067351
7.858093976974487,2.045042969365991,2.29806388464437,0.1002682036017487
7.865713357925415,2.048169348833777,2.2983577762943845,0.11455390444348482
7.874220132827759,2.0516865257350374,2.2986291684555775,0.12154564813370532
7.881714344024658,2.054422107769351,2.2988775071436547,0.1234017585424681
7.890607595443726,2.057939284670611,2.2991062994728613,0.12177071295435693
7.903625011444092,2.0630196513057646,2.299317650227627,0.11786545324155125
7.913816928863525,2.0671230243572345,2.2995116904916117,0.11255551048708833
7.9226155281066895,2.0702494038250214,2.299688621781552,0.106451482790798
7.931195974349976,2.0735711820095446,2.299849004472934,0.0999741072119383
7.9410624504089355,2.077479156344278,2.299993546125593,0.09340752568840455
7.952423095703125,2.0819733268292215,2.3001230904469745,0.08693898003191297
7.962634325027466,2.085685902447218,2.30023848496882,0.08068775783891949
7.9754228591918945,2.090961667799108,2.3003406019076005,0.07472599292378412
7.985057830810547,2.0944788447003684,2.3004303894595557,0.06909345667088936
7.994676828384399,2.098191420318365,2.3005088230809747,0.06380799245527871
8.006397247314453,2.1028809895200453,2.3005788475705304,0.05887282772714289
8.015294075012207,2.106398166421305,2.3006449538691442,0.054281666799627384
8.023661375045776,2.109524545889092,2.30070819840961,0.05002221567054736
8.034696578979492,2.1140187163740354,2.300767114900343,0.04607860422304888
8.047001361846924,2.118903684292452,2.300821354904503,0.04243303607728116
8.055248975753784,2.1216392663267656,2.30087075229776,0.03906689938950586
8.062628269195557,2.124570247077816,2.3009144069988166,0.03596150280916742
8.07322359085083,2.1286736201292857,2.3009506083897513,0.033098551860077846
8.0824453830719,2.1323861957472823,2.3009767015260896,0.030460446462186527
8.09165906906128,2.135707973931806,2.3009900394340495,0.028030455999800877
8.1046462059021,2.140788340566959,2.3009870054351684,0.025792811262537012
8.117081642150879,2.1452825110519025,2.300959965904313,0.023732740613725344
8.129619359970093,2.150167478970319,2.3008974641357183,0.02183646935723152
8.138327836990356,2.1536846558715794,2.3007900040494507,0.020091195411591052
8.146198034286499,2.1566156366226297,2.3006349891111357,0.018485050304694675
8.155612707138062,2.1601328135238895,2.300431167006907,0.017007051650597828
8.166620254516602,2.164626984008833,2.300172499828849,0.015647051278763653
8.176663637161255,2.16833955962683,2.2998504773837825,0.014395681809104739
8.186650514602661,2.1722475339615634,2.2994565394035487,0.01324430350746554
8.195631265640259,2.175764710862823,2.29898229686252,0.012184952597143882
8.205703258514404,2.1796726851975565,2.2984197014725396,0.011210291748581888
8.214746713638306,2.18299446338208,2.2977612100822027,0.010313563160273547
8.225685596466064,2.18768403258376,2.296999952675183,0.009488544433498943
8.235450506210327,2.19120120948502,2.296129861856467,0.008729507307060033
8.244704008102417,2.1945229876695436,2.2951458275485974,0.008031179222294533
8.255052089691162,2.19882175943775,2.294043871002652,0.007388707634392441
8.264613628387451,2.2023389363390105,2.292816488463949,0.006797626948589042
8.274606704711914,2.206051511957007,2.2914578681982722,0.0062538279401010595
8.282605409622192,2.20878709399132,2.2899778672531967,0.005753529508130071
8.29265284538269,2.212499669609317,2.2883854948364126,0.0052932526097378505
8.300629615783691,2.2156260490771036,2.2866797657715123,0.004869796224459051
8.309531450271606,2.219143225978364,2.2848657513777386,0.004480215203008828
8.320633888244629,2.223441997746571,2.2829485468710207,-0.2719165598183023
8.33090877532959,2.2271545733645675,2.2809283603339945,-0.5814092653358132
8.34337854385376,2.2316487438495107,2.2788010265518026,-0.8357783352407268
8.353362321853638,2.234579724600561,2.276558762261327,-1.2900764908521316
8.362594842910767,2.237510705351611,2.27420658178884,-1.9829926042833903
8.374625205993652,2.2408324835361344,2.271755097267098,-2.597293727329296
8.386208295822144,2.2439588630039213,2.269198562700695,-3.5904728047218026
8.397481679916382,2.246889843754971,2.2665280470786975,-4.749899244731378
8.405628681182861,2.248648432205601,2.263753252457462,-5.0
8.413621187210083,2.2502116219394943,2.2608942693268066,-5.0
8.421584367752075,2.2515794129566515,2.2579690943383564,-5.0
8.430234909057617,2.2527518052570716,2.2549936477816526,-5.0
8.4382004737854,2.253533400124018,2.2519768310784443,-5.0
8.447293519973755,2.254314994990964,2.2489218894294263,-5.0
8.455623865127563,2.254705792424438,2.2458375177436047,-5.0
8.466567516326904,2.2549011911411747,2.242731431548258,-5.0
8.478498697280884,2.2549011911411747,2.2396002498612075,-5.0
8.486656904220581,2.2545103937077013,2.236447059867813,-5.0
8.494624137878418,2.2541195962742275,2.2332856144379716,-5.0
8.504645824432373,2.253533400124018,2.2301231211772725,-5.0
8.514972686767578,2.2525564065403345,2.226961299878245,-5.0
8.525178670883179,2.2513840142399144,2.2238023374278764,-5.0
8.533132791519165,2.2502116219394943,2.2206487271524726,-4.8567960651470266
8.540630578994751,2.249039229639074,2.2175076892665326,-4.031903109468786
8.549579620361328,2.247476039905181,2.2143901624080202,-3.3718914730287617
8.559383153915405,2.2455220527378144,2.2113006655194423,-3.1259494943093418
8.568207502365112,2.243177268136974,2.2082380425862786,-2.7465171677222555
8.577942132949829,2.241027882252871,2.205200750921808,-2.363234885160661
8.588605642318726,2.238096901501821,2.2021866775355994,-2.2992160915187423
8.597800493240356,2.2355567181842444,2.199192984285028,-2.0465347593240097
8.60558533668518,2.233211933583404,2.196221107946062,-1.480516766041726
8.616750478744507,2.229694756682144,2.1932760516338496,-1.7314966644563876
8.627428770065308,2.2257867823474107,2.1903499915417806,-1.9010473836465307
8.639229774475098,2.2210972131457307,2.187423546666176,-2.541427421233874
8.649881362915039,2.216603042660787,2.1844834960040416,-2.629168443791334
8.659983396530151,2.2123042708925804,2.1815227448890613,-2.214700528219084
8.670644044876099,2.2082008978411105,2.1785275331695027,-1.6906938321891616
8.681981801986694,2.20351132863943,2.1754779466102767,-0.9346502354326107
8.690595388412476,2.1999941517381703,2.1723691271425145,0.03971512247803988
8.70042085647583,2.1956953799699637,2.169209735306688,1.1748124476862325
8.709648132324219,2.1917874056352304,2.165999914278267,2.407937584881152
8.719598531723022,2.1874886338670234,2.1627325316700965,3.68547701012882
8.728949308395386,2.1835806595322897,2.1594012438520584,4.690359621210892
8.737590789794922,2.179868083914293,2.1560006069486493,5.0
8.747690677642822,2.1753739134293495,2.152533627213798,5.0
8.757685422897339,2.1710751416611433,2.149002966591599,5.0
8.766799688339233,2.167557964759883,2.1454036700329118,5.0
8.778054237365723,2.1624775981247297,2.141731849632441,5.0
8.789682388305664,2.157397231489576,2.137976822593974,5.0
8.800596237182617,2.1529030610046327,2.1341302437925127,5.0
8.810628175735474,2.148604289236426,2.1301935883776304,5.0
8.818623304367065,2.145087112335166,2.12616900739129,5.0
8.826598644256592,2.1419607328673793,2.122067171811316,5.0
8.835593938827515,2.1380527585326456,2.1179057350605257,5.0
8.84579873085022,2.1339493854811757,2.113692297994107,5.0
8.857428073883057,2.1286736201292857,2.1094179283266965,5.0
8.869627952575684,2.1235932534941324,2.105067420019641,4.932462434334126
8.88163137435913,2.1187082855757153,2.1006362628693958,4.655337217405963
8.89736795425415,2.1120647292066685,2.096112227306334,4.30751452137888
8.907905578613281,2.1069843625715152,2.091468284085018,3.9513233750705505
8.916601181030273,2.1032717869535182,2.0867070426457346,3.3366596653906937
8.929999828338623,2.097605224168155,2.0818474820893034,3.267590698517094
8.941614866256714,2.0925248575330015,2.0768788729481553,3.072076894472185
8.951637029647827,2.088226085764795,2.0717920581440943,2.8361305528930174
8.96028757095337,2.0847089088635347,2.0666063542944815,2.597961172493082
8.970420122146606,2.080410137095328,2.0613377061541334,2.3731526217989583
8.979550838470459,2.076502162760595,2.0559897182071536,2.166882051440367
8.989497184753418,2.072007992275651,2.0505646139984646,1.979769534500757
8.998548746109009,2.0682954166576546,2.0450737938370116,1.8106200545664595
9.006575345993042,2.064973638473131,2.0395365211963457,1.6576656330806383
9.018049716949463,2.0600886705547143,2.0339469085356585,1.5190953729006114
9.026584148406982,2.056376094936718,2.0282884903918608,1.3932560176203883
9.035568714141846,2.052468120601984,2.0225681299615546,1.2787064190097293
9.047178745269775,2.047387753966831,2.01677891984243,1.1742120687545692
9.057365655899048,2.0425027860484137,2.0108913442301763,1.0787188901933313
9.066598415374756,2.0383994129969443,2.004903277646502,0.991323166161809
9.07656741142273,2.034296039945474,1.9988241743247193,0.9112441320609351
9.084582328796387,2.0309742617609507,1.9926502183751278,0.8378011590121452
9.092653512954712,2.027847882293164,1.9864030732143712,0.7703955485931971
9.100553274154663,2.024330705391904,1.9801134550970807,0.7084962883376003
9.110694408416748,2.0198365349069602,1.9737827699429642,0.6516289768231247
9.123536586761475,2.0143653708383336,1.9673873745390098,0.5993671942691727
9.131598949432373,2.01104359265381,1.9609077253915321,0.5513257243944674
9.141830444335938,2.00694021960234,1.9543407784409896,0.5071551657860428
9.153255939483643,2.0020552516839234,1.947672747679658,0.4665375847514219
9.163224458694458,1.99756108119898,1.9408936080420065,0.4291829518752035
9.172547340393066,1.9934577081475098,1.9340215571729835,0.39482617312992674
9.183564186096191,1.9885727402290931,1.9270737665449111,0.36322457729881286
9.192647457122803,1.984469367177623,1.920041819242189,0.3341557586464856
9.201575517654419,1.980756791559626,1.912932402615503,0.03137734100711878
9.214422464370728,1.9754810262077362,1.9057651435013871,0.24969252311077578
9.2262122631073,1.9705960582893192,1.8985339791174944,0.31528528977598586
9.23425555229187,1.9670788813880593,1.8912351856010745,0.31545538952629765
9.243957757949829,1.9631709070533259,1.8838789905872997,0.29074160690312056
9.254733324050903,1.9586767365683826,1.8764751344818273,0.25922193357118306
9.266709804534912,1.9535963699332293,1.869032629152496,0.2283888381612986
9.280026912689209,1.9475390097143923,1.8615477861964356,-0.07514391676644876
9.290592432022095,1.9434356366629222,1.853994179250936,-0.1318746519427154
9.302329063415527,1.9383552700277689,1.846349835216515,-0.09677380125224878
9.311513662338257,1.9340564982595623,1.8386324690067064,-0.037611055928845755
9.322567701339722,1.9291715303411452,1.8308814204188304,0.018510030526015832
9.332583665847778,1.9248727585729384,1.8231057461206344,0.0627665760324978
9.340555667877197,1.921746379105152,1.8153008433291689,0.09404079679499319
9.349619150161743,1.9180338034871551,1.8074869375069493,0.1140641174835076
9.358539581298828,1.9143212278691581,1.7996805940755398,0.12529144800756697
9.368566513061523,1.9100224561009516,1.7918829183239107,0.1300497795229631
9.376546859741211,1.9065052791996915,1.7841066966179393,0.13026041301544214
9.385545253753662,1.9025973048649583,1.7763744682704223,0.12740354242482232
9.396567344665527,1.8977123369465414,1.7686790996923327,0.12257289842249453
9.40531873703003,1.894390558762018,1.7610010903683206,0.11655364696097235
9.415716171264648,1.8898963882770747,1.7533485940761162,0.10989667791174393
9.427541255950928,1.8848160216419212,1.7457279504346601,0.1029804277836698
9.435546875,1.8811034460239244,1.738131268689515,0.09605901153918076
9.445668697357178,1.876609275538981,1.7305513243534747,0.08929829275315891
9.454553842544556,1.8730920986377209,1.7229817619073455,0.08280227560510635
9.464394330978394,1.8691841243029876,1.7154172175070368,0.07663210833537193
9.474073648452759,1.8650807512515175,1.7078532720761819,0.07081961120763439
9.484122514724731,1.8607819794833107,1.700286395153435,0.06537682298539502
9.49353551864624,1.8568740051485775,1.6927138696807134,0.06030268891713018
9.50156044960022,1.8537476256807905,1.6851462999319198,0.0555877146924032
9.510601043701172,1.849839651346057,1.6776053920654996,0.05121718246365472
9.52155327796936,1.8447592847109036,1.670084227386873,0.04717335549159962
9.529993772506714,1.841046709092907,1.662564282542544,0.043436974470904444
9.540379524230957,1.8367479373247004,1.655055065228262,0.03998825974692499
9.550488710403442,1.832253766839757,1.64756455189855,0.03680757025097775
9.56255292892456,1.8269780014878667,1.6400742114759723,0.03387582503969845
9.572666645050049,1.8228746284363966,1.6325557657671605,0.031174761577808845
9.581539630889893,1.8189666541016634,1.625010608066386,0.028687082557958127
9.59160041809082,1.8146678823334566,1.617465240308828,0.02639652735161331
9.602570295333862,1.8099783131317762,1.6099168204341023,0.024287893174150275
9.610522747039795,1.806656534947253,1.602350299069717,0.02234702334360534
9.619187355041504,1.8031393580459931,1.5947782719713666,0.02056077462049162
9.627538204193115,1.799622181144733,1.5872240155047983,0.01891697185589647
9.636531829833984,1.7955188080932627,1.5797070166023657,0.017404355552903324
9.64555549621582,1.7916108337585295,1.5722307891876017,0.01601252612158312
9.654542684555054,1.787702859423796,1.564785388748947,0.014731887341300232
9.663543701171875,1.7837948850890626,1.5573747973435046,0.013553590670949384
9.671519041061401,1.7806685056212759,1.5500147988243766,0.012469481439182027
9.68054723739624,1.7767605312865427,1.5427060796701058,0.011472047539490767
9.6947762966156,1.7707031710677057,1.5354245490237108,0.010554370967148827
9.704322814941406,1.766990595449709,1.5281382287547085,0.28574844203009897
9.715296030044556,1.762105627531292,1.5208334242406847,0.3180962813465683
9.726409673690796,1.7572206596128757,1.513512015155931,0.2622843891943629
9.735554933547974,1.753312685278142,1.5061767844458316,0.18554191034786416
9.74354076385498,1.7499909070936184,1.4988428064633168,0.11441435064248001
9.751524925231934,1.7466691289090954,1.491535188057737,0.05723605903680472
9.761544227600098,1.742174958424152,1.4842525668627204,0.014726474455825738
9.770378351211548,1.7386577815228919,1.4769826666266694,-0.015159683086218364
9.780563592910767,1.7341636110379486,1.4697384985084896,-0.035120810991692425
9.7899649143219,1.7298648392697418,1.4625314998869026,-0.04767201532025726
9.802437782287598,1.7243936752011149,1.455349167865609,-0.05488043125078688
9.811557054519653,1.7204857008663814,1.4481812221956878,-0.058340305115392385
9.820695638656616,1.7167731252483849,1.441041358206646,-0.059235688739043904
9.832626819610596,1.7120835560467045,1.433930478838872,0.2176140043269704
9.844539880752563,1.7066123919780778,1.4268276884485258,0.25264644267379777
9.857486486434937,1.701336626626188,1.4197159925785836,-0.0759125552756156
9.86847972869873,1.696842456141244,1.4125819333191423,0.09386588391878688
9.876493215560913,1.6933252792399842,1.4054363127081402,0.11468632414072646
9.88920259475708,1.6876587164546208,1.398299881531869,0.08221016916166572
9.896499872207642,1.6847277357035708,1.3911698461318507,0.037756457943997665
9.905276536941528,1.6806243626521005,1.3840547592273116,-0.0025608987463929395
9.915416955947876,1.6761301921671574,1.3769831708659253,-0.03385532072296586
9.926298141479492,1.6714406229654772,1.3699693267176478,-0.05589215369743507
9.935481071472168,1.6679234460642172,1.3630153872148956,-0.07009033890376849
9.944946050643921,1.6640154717294837,1.356123662267211,-0.07822574027260701
9.955839157104492,1.6593259025278038,1.3492966779474214,-0.08192449010246826
9.966530561447144,1.6548317320428605,1.3425371872302854,-0.0825087817879421
9.977777481079102,1.6499467641244434,1.3358392335613434,-0.08098909714913463
9.989553451538086,1.6444756000558167,1.329189804405192,-0.07810880304952236
9.998586416244507,1.6405676257210835,1.3225966938934834,-0.07440034294584635
10.010730028152466,1.6352918603691935,1.3160764685122743,-0.07023701669322344
10.024364709854126,1.62962529758383,1.309618579777149,-0.06587541132833259
10.033538103103638,1.625912721965833,1.3032068378123662,-0.06148816017270406
10.043195486068726,1.6216139501976263,1.2968530191469905,-0.057188370869905025
10.051114559173584,1.6179013745796298,1.2905834339936226,-0.05304744380081006
10.060548305511475,1.6139934002448963,1.2844047764872588,-0.3251462368672791
10.07352352142334,1.608913033609743,1.2783072013091763,-0.07851697493486719
10.085302591323853,1.6038326669745895,1.2722899302481572,0.013187004960508134
10.09856629371643,1.597970705472489,1.2663523582754785,-0.23861531587836957
10.107196569442749,1.5940627311377558,1.2604863201715963,-0.2742824811250397
10.116484880447388,1.5901547568030223,1.2546989156901516,-0.23028597510066456
10.12929391860962,1.584488194017659,1.249009835514587,-0.16623367137044942
10.138553857803345,1.5805802196829255,1.2434273311413377,-0.10589853443127265
10.149201393127441,1.576086049197982,1.2379426552996642,-0.056953218804001976
10.156545639038086,1.5729596697301953,1.2325399831223183,-0.020291596982738358
10.168524265289307,1.5676839043783053,1.227211823992669,0.005692466450770366
10.17657208442688,1.564166727477045,1.2219649953210487,0.023233074433556114
10.185502767562866,1.5604541518590485,1.2168112150559283,0.03444337735138041
10.19658088684082,1.5557645826573687,1.2117441912527445,0.04107204395564735
10.20850396156311,1.5506842160222152,1.2067423607210237,0.044473112484600355
10.217583656311035,1.547167039120955,1.2018010507492085,-0.23038334561562387
10.230285167694092,1.5416958750523284,1.1969225126070546,-0.26381304042536996
10.240009307861328,1.5377879007175947,1.1920925063876628,-0.20998591895655588
10.24796724319458,1.534075325099598,1.1872980746255306,-0.135769424697678
10.255985021591187,1.5303627494816012,1.1825426828795405,-0.06745945321325769
10.26668643951416,1.5254777815631846,1.1778362091526278,-0.01322076320561677
10.279745101928711,1.5202020162112944,1.1731709919424531,0.026340272223496858
10.289495468139648,1.516294041876561,1.1685246730852659,0.05334242288003111
10.298070430755615,1.5125814662585644,1.163885742583417,0.07053009494058618
10.30653190612793,1.5088688906405676,1.159259687574636,0.08044548606238686
10.315486907958984,1.5049609163058342,1.1546587140623892,0.08516993257610778
10.325477123260498,1.5006621445376274,1.1500854509081897,0.08630321089743018
10.334508180618286,1.4969495689196308,1.1455344940444534,0.08502917164900978
10.34346342086792,1.4930415945848974,1.141001437057108,0.08220169354046401
10.354735851287842,1.4883520253832172,1.1364828603696246,0.07842480863720258
10.366864204406738,1.4832716587480639,1.1319691133270031,0.07411872517394602
10.374674081802368,1.4797544818468038,1.1274527228547122,0.06957097093031248
10.38670015335083,1.4744787164949138,1.12294259823937,0.06497462035059404
10.39849591255188,1.469593748576497,1.1184402345534334,0.060456232916555684
10.408925533294678,1.46529497680829,1.1139338224011024,0.056095968432801666
10.418479204177856,1.4611916037568202,1.1094280447173006,0.051941918169915405
10.427542686462402,1.4572836294220868,1.1049412461287806,0.048020235417938054
10.435505390167236,1.4541572499542998,1.1004828224477232,0.044342251902420415
10.44486403465271,1.4504446743363033,1.0960546107371913,0.04090944938605552
10.4552743434906,1.4457551051346231,1.0916587599215724,0.03771691423700438
10.463494539260864,1.4422379282333628,1.0873036960572695,0.03475572388765068
10.471574068069458,1.4385253526153663,1.0830029087629927,0.032014584043478296
10.479491949081421,1.4353989731475796,1.078761779585226,0.029480942023915234
10.492599964141846,1.4299278090789527,1.0745731827527454,0.027141734983299748
10.502259731292725,1.425629037310746,1.07043135117612,0.024983884523859332
10.511467933654785,1.421525664259276,1.066343108153643,0.022994615856444765
10.519494533538818,1.4182038860747526,1.0623144221654668,0.0211616561827305
10.527501821517944,1.414491310456756,1.058350060372339,0.01947335046872742
10.535752296447754,1.410974133555496,1.0544592539585136,0.01791872120976054
10.546099185943604,1.4068707605040258,1.0506389285391229,0.016487490674041868
10.554472208023071,1.4033535836027657,1.0468808264170695,0.015170078440887181
10.564225196838379,1.3992502105512956,1.0431880437269831,0.013957583084220137
10.574586153030396,1.394951438783089,1.0395628165842443,0.012841754082478257
10.587000608444214,1.3894802747144621,1.0359963916556456,0.011814958108403453
10.596550941467285,1.3855723003797287,1.032480884492878,0.010870142506960875
10.608474731445312,1.3804919337445751,1.029014149889725,0.010000797839756374
10.617467641830444,1.3763885606931052,1.025593817805771,0.00920092072606166
10.628522396087646,1.3716989914914248,1.022217252989483,0.008464977767423066
10.639369249343872,1.3672048210064816,1.0188766213550053,0.007787871035714742
10.649213790893555,1.3629060492382747,1.0155647252225328,0.28320326507434374
10.658527374267578,1.358802676186805,1.0122849937174903,0.3157547206340866
10.670981884002686,1.3535269108349148,1.0090397794982418,0.26013015479970464
10.67937159538269,1.3500097339336545,1.0058204177786878,0.18356001572732067
10.693372249603271,1.3443431711482912,1.002614097476482,0.11259100830730503
10.701479196548462,1.3408259942470313,0.9994148139025142,0.055558584589530655
10.709503412246704,1.337504216062508,0.9962275164157156,0.013183198315087501
10.72134280204773,1.3324238494273544,0.9930512364861267,-0.016579496890183266
10.731475830078125,1.3281250776591476,0.9898800266282606,-0.03642703951944354
10.743297100067139,1.3228493123072576,0.9867139694956323,-0.048873745445538914
10.752549171447754,1.3193321354059975,0.9835531993045588,-0.05598602288186735
10.762494325637817,1.3152287623545271,0.9804028566292098,-0.05935744935700596
10.775544166564941,1.3093668008524273,0.977262266404935,-0.0601714614000811
10.785470485687256,1.3050680290842205,0.9741207611341303,-0.05928526617107983
10.794273138046265,1.3011600547494875,0.9709742118862491,-0.057308558099834005
10.80448579788208,1.2970566816980171,0.9678239700259306,-0.054668576729797386
10.814057111740112,1.292953308646547,0.9646709120949847,0.22437776478161692
10.821472406387329,1.2896315304620236,0.9615205729898418,0.26067725651534024
10.829587697982788,1.2863097522775002,0.9583823293551016,0.2087872321130088
10.838492155075073,1.2824017779427668,0.9552582625454997,-0.14018451831276832
10.847641229629517,1.2786892023247702,0.9521495158246042,0.03524698163997547
10.855497121810913,1.2753674241402468,0.9490615652805268,0.06974301976527196
10.867518663406372,1.2700916587883566,0.9459868807603714,0.05146667570107428
10.876477718353271,1.26637908317036,0.9429125603069602,0.019052529835650835
10.885487794876099,1.262666507552363,0.9398380454755494,-0.011983930853401261
10.89644455909729,1.2579769383506831,0.9367617256968319,-0.036536042214431116
10.906962871551514,1.2534827678657396,0.9336690743747778,-0.05389685942671571
10.914746046066284,1.2501609896812165,0.9305468497010889,-0.06499676233963957
10.923938512802124,1.2460576166297461,0.9273956856620893,-0.07119170814659476
10.93245553970337,1.2421496422950127,0.924215395869678,-0.07377591756440409
10.940840721130371,1.2384370666770161,0.9210056268894458,-0.07382115906477514
10.952475309371948,1.233552098758599,0.9177655498258781,-0.07215440310184325
10.963186740875244,1.2290579282736558,0.9144805688115905,-0.06938721475140619
10.970508098602295,1.2263223462393424,0.9111452289062393,-0.06595880638180855
10.979236125946045,1.222414371904609,0.9077688115916078,-0.06217737707968643
10.988934993743896,1.2183109988531389,0.9043523732963668,-0.05825461807972171
10.996503829956055,1.2149892206686155,0.9008971096326891,-0.054332619710118275
11.005545854568481,1.211276645050619,0.8974113951137607,-0.050504054517237724
11.017489433288574,1.206391677132202,0.8938884563771652,-0.046826953539579115
11.026473760604858,1.2026791015142053,0.8903159394302551,-0.04333534978259878
11.035572290420532,1.1989665258962086,0.8866982480194148,-0.04004685664706864
11.04751992225647,1.1934953618275819,0.8830328995922112,-0.036968016547641355
11.055474281311035,1.1899781849263218,0.8793116674898508,-0.03409804814621197
11.065596342086792,1.1856794131581152,0.8755427192807712,-0.031431453849935044
11.076444625854492,1.1809898439564348,0.8717341102348805,-0.02895982148571718
11.086226463317871,1.1766910721882282,0.8678801060121595,-0.02667305915492518
11.095463752746582,1.1729784965702312,0.8639770612458143,-0.0245602331079876
11.105457067489624,1.1688751235187615,0.860036498920586,-0.02261012869594021
11.116239309310913,1.164380953033818,0.8560692526501745,-0.2968499786230948
11.128437042236328,1.1593005863986645,0.8520723065057006,-0.32831686293904294
11.138586282730103,1.155001814630458,0.848037683291552,0.004346017725775864
11.151427984237671,1.1493352518450946,0.8439599178175806,-0.16107613618204278
11.160825729370117,1.1452318787936242,0.839841875791324,-0.17748018866684429
11.174663543701172,1.1397607147249975,0.8356932319554766,-0.14065388025728975
11.184770584106445,1.1350711455233173,0.8315167582048315,-0.09199654767457374
11.196768045425415,1.129990778888164,0.8273154220142572,-0.3237089196053241
11.20950198173523,1.124519614819537,0.8230923782283188,-0.321752119008661
11.220749378204346,1.1198300456178572,0.8188385177665187,0.034973748135336796
11.229007005691528,1.1165082674333338,0.8145526926975962,0.16169929529377985
11.23641061782837,1.113381887965547,0.8102526121734572,0.18834649391335453
11.244475603103638,1.1100601097810237,0.805959466771255,0.17544533863861764
11.252452373504639,1.1065429328797636,0.8016971515475511,0.15015548884857893
11.26071834564209,1.1028303572617668,0.7974853729031594,0.1238796850184675
11.271433353424072,1.0983361867768233,0.7933276932717969,0.10079225049495216
11.281429290771484,1.09442821244209,0.7892200414693584,0.08190857644170263
11.28945803642273,1.09091103554083,0.7851580415229708,0.06698350841269232
11.300500392913818,1.0864168650558865,0.7811370911169925,0.0553650723479934
11.313682794570923,1.0805549035537865,0.777146092727755,0.046354493760022875
11.324138641357422,1.076060733068843,0.7731686072858587,0.03933940128605643
11.331649780273438,1.073129752317793,0.7692030701116714,0.03382765009545355
11.344452381134033,1.067853986965903,0.7652542365747887,0.02944127572318948
11.355428218841553,1.0631644177642228,0.7613130983208539,0.025897388508472407
11.365028142929077,1.059451842146226,0.7573719675159045,0.02298735206715674
11.37420129776001,1.0555438678114926,0.7534307742529928,0.020558474273977057
11.383411407470703,1.051831292193496,0.7494895108000932,0.018499314654840282
11.3928701877594,1.0473371217085525,0.7455481972016742,0.01672845283956986
11.400426626205444,1.0442107422407658,0.7416132032843588,0.015186145227957625
11.414453029632568,1.0381533820219289,0.7376897050403203,0.013828236773370847
11.424456119537354,1.033854610253722,0.7337689059047354,0.012621768612470606
11.43740963935852,1.028188047468359,0.7298365023405924,0.011541831953358828
11.446504592895508,1.0244754718503621,0.7258865992744252,0.010569324419640517
11.456403970718384,1.0201767000821553,0.7219270425274985,0.009689353602606409
11.470736742019653,1.0143147385800553,0.7179571616093602,0.008890101820339835
11.479503870010376,1.0104067642453218,0.7139623766434675,0.008162018184151559
11.489267826080322,1.0064987899105884,0.7099365300165662,0.007497242363603165
11.500272750854492,1.002004619425645,0.705880664394714,0.006889192157178484
11.512119054794312,0.9969242527904917,0.7017878004213115,0.006332266831906125
11.519418716430664,0.9936024746059682,0.6976515487972786,0.005821632328193682
11.529123783111572,0.989499101554498,0.693480702036361,0.005353064436747276
11.53940463066101,0.9850049310695548,0.6892821149597183,0.004922833120650992
11.549389362335205,0.9809015580180845,0.6850535860002358,0.2805659758130311
11.560444116592407,0.9762119888164045,0.6807925871240498,0.3133273964361788
11.569623470306396,0.9723040144816711,0.6764963423385085,0.2578963038774616
11.58146047592163,0.9676144452799911,0.6721619324267318,0.18150437401372715
11.58972716331482,0.9642926670954678,0.6677864149057627,0.11069946872371544
11.599369764328003,0.959993895327261,0.663366939668599,0.053818123726943286
11.61283540725708,0.9541319338251608,0.6588923732418336,0.01158180320916442
11.621736288070679,0.9506147569239006,0.6543447698476612,-0.01805290016643061
11.630263090133667,0.9469021813059041,0.6497262804971973,-0.03778265437891884
11.639431476593018,0.9429942069711705,0.6450562526135181,-0.05012096980794031
11.651787519454956,0.9375230429025437,0.6403342208522351,-0.05713351037953608
11.660352945327759,0.933810467284547,0.6355516764600223,-0.060413166613866434
11.67032504081726,0.9293162967996036,0.6307193873610027,-0.061142741407638215
11.67904806137085,0.9256037211816069,0.6258470789125443,-0.06017885786994186
11.691956520080566,0.9201325571129801,0.6209262573929171,-0.05813067232716908
11.700448751449585,0.9168107789284567,0.6159504722435187,-0.055424928723972464
11.708410739898682,0.9136843994606699,0.6109323680999035,-0.05235644356523911
11.717125654220581,0.91016722255941,0.6058919269082961,0.22691246919559707
11.725139141082764,0.9064546469414132,0.6008464536181192,0.26329551691077463
11.732783079147339,0.9031328687568898,0.5958022785908448,-0.06464136886614283
11.744074583053589,0.8984432995552097,0.5907564730389397,0.1052711508537361
11.752411842346191,0.8949261226539497,0.585715331871428,0.1259061869078753
11.760441780090332,0.8916043444694263,0.580692806848893,0.09304234212853521
11.769360780715942,0.8878917688514296,0.5756922724614535,0.048079480123340325
11.78282880783081,0.8818344086325928,0.5706998318945572,0.007186724590853861
11.791093587875366,0.8787080291648061,0.5657038970326225,-0.024712073801261773
11.798414707183838,0.8749954535468092,0.5607198436746712,-0.047357501414054134
11.80871319770813,0.8708920804953393,0.5557607126404963,-0.06215242237257852
11.819453716278076,0.8663979100103958,0.5508124977107968,-0.07086261613772804
11.831464767456055,0.861512942091979,0.5458633533225932,-0.07510823953769302
11.840928792953491,0.857409569040509,0.5409116845506929,-0.07620830395950962
11.853554010391235,0.8521338036886189,0.535948113991017,-0.07517198650279983
11.862848043441772,0.8480304306371489,0.5309568292091295,-0.0727425905599258
11.871623754501343,0.8443178550191521,0.5259413230329792,-0.06945329748689388
11.88147783279419,0.8398236845342087,0.5209213379501242,-0.06567864365205103
11.890074491500854,0.8363065076329487,0.5159056136344586,-0.061676744156640706
11.897388458251953,0.8329847294484253,0.5109016087122817,-0.05762191153282917
11.906410932540894,0.8292721538304285,0.5059237570559171,-0.05362898970169944
11.916836261749268,0.8249733820622217,0.5009760449269646,-0.0497711104174074
11.927388906478882,0.8202838128605418,0.4960536598044315,-0.046092458572137104
11.940206527709961,0.814812648791915,0.4911447079424364,-0.04261735231005412
11.95144510269165,0.8103184783069715,0.48622380373902807,-0.03935664968777595
11.964428663253784,0.8050427129550815,0.48127044903629507,-0.0363122387394612
11.972418069839478,0.8017209347705582,0.47629182070290427,-0.033480164925555486
11.985267400741577,0.7962497707019311,0.4713028501113302,-0.030852795714388315
11.994819402694702,0.7921463976504612,0.4663018051502567,-0.028420307986915343
12.006680011749268,0.786870632298571,0.4612881210575876,-0.02617170106949883
12.020834922790527,0.7806178733629977,0.4562626402612839,-0.30013383835311214
12.032430648803711,0.7759283041613175,0.45121281237939875,-0.33134306344665665
12.042984247207642,0.7714341336763741,0.44612946542529625,-0.274479981285829
12.050390720367432,0.767916956775114,0.44102736702697454,-0.1967678420242408
12.061126947402954,0.7636181850069071,0.43593384776000604,-0.12474639873162532
12.073430061340332,0.7583424196550171,0.4308586986424284,-0.06674447698185972
12.083925485610962,0.7540436478868106,0.4257968149246069,-0.023476272577528382
12.09705376625061,0.748377085101447,0.420744440523543,0.007108431275647304
12.105457305908203,0.744859908200187,0.4157056138041727,-0.24832570663476017
12.116410255432129,0.7403657377152436,0.4106973524068176,-0.2683071572317569
12.125395774841309,0.7366531620972468,0.4057342033476342,-0.20545668101356512
12.135453701019287,0.73176819417883,0.40082184684144473,-0.12541043467026297
12.145852088928223,0.7270786249771499,0.3959650117024101,-0.3295693716144692
12.154395818710327,0.72356144807589,0.3911675603589818,-0.30645898741985056
12.167840003967285,0.7182856827239998,0.38642643922503206,0.06515701271229685
12.175457000732422,0.7149639045394763,0.381738890916541,0.20156453731991308
12.184183359146118,0.7114467276382163,0.37711466939703386,0.2338987286853708
12.196210861206055,0.7061709622863263,0.3725617281432921,0.22377102564320883
12.210458517074585,0.6999182033507527,0.3680744293208398,0.19920960387200903
12.219375371932983,0.696205627732756,0.36364191307688903,0.17227667956017945
12.230424404144287,0.691516058531076,0.35926084975138345,0.14763006689481256
12.240600824356079,0.6876080841963426,0.35493432513087936,0.12663094218331855
12.252367973327637,0.6823323188444524,0.3506649380737943,0.10927657098187249
12.260461807250977,0.6790105406599292,0.3464548688352871,0.095081822087204
12.26901912689209,0.6752979650419323,0.34230596446774547,0.08346049200021854
12.276554346084595,0.6721715855741456,0.3382250244247203,0.07387432958188823
12.289406299591064,0.6667004215055189,0.3342177756600711,0.06587837005733502
12.300515174865723,0.661815453587102,0.33027855955152485,0.0591231477335651
12.308887481689453,0.6584936754025786,0.32640260025509316,0.053341457257084286
12.319080829620361,0.6545857010678453,0.3225911747069303,0.04833166773894018
12.32840895652771,0.650677726733112,0.3188454633550677,0.0439423103249573
12.336362600326538,0.6475513472653252,0.31517108320472326,0.040059402233301566
12.34522271156311,0.643447974213855,0.31157723334648246,0.036596610534006827
12.359454870223999,0.6373906139950184,0.3080626455007179,0.03348786740954691
12.36944055557251,0.6330918422268116,0.30461748329534427,0.030681934710916597
12.377411365509033,0.6297700640422882,0.3012420413074965,0.028138450965572236
12.38957953453064,0.6244942986903982,0.29794092857979615,0.025825076283207824
12.398488998413086,0.6205863243556646,0.2947136833729472,0.02371543699339369
12.410414934158325,0.6155059577205113,0.2915598607512237,0.02178764672113805
12.423190593719482,0.6102301923686212,0.2884718731621757,0.020023240223634463
12.433358669281006,0.6059314206004144,0.28544321502224507,0.01840640165338315
12.444897174835205,0.6012418513987344,0.2824758585758406,0.01692340246424087
12.454201459884644,0.597333877064001,0.2795680698439596,0.01556218857225178
12.464393377304077,0.5928397065790576,0.27671824162319736,0.014312073922483657
12.475389957427979,0.5883455360941141,0.2739283299531719,0.013163510125066839
12.487345933914185,0.5832651694589607,0.271196685108385,0.012107910702135526
12.498483657836914,0.5785756002572806,0.26851863634029854,0.2871758744485029
12.507373571395874,0.5746676259225473,0.26589616221589557,0.3194082422514196
12.518409729003906,0.5699780567208671,0.2633366961256082,-0.012547860307755815
12.5274019241333,0.5662654811028704,0.2608430537055891,-0.12251205683482543
12.537138938903809,0.5619667093346636,0.25841133226720125,0.13740684208128395
12.546600580215454,0.5580587349999302,0.2560378308360446,0.18935626515235437
12.556391716003418,0.5539553619484602,0.2537246795222486,-0.11384150824273581
12.566461324691772,0.54985198889699,0.25147323845518166,-0.1963846441772733
12.576454639434814,0.5453578184120467,0.24928135583894473,0.0862011843869929
12.585379123687744,0.5420360402275233,0.2471441543023975,0.15559445820127632
12.595961809158325,0.5373464710258432,0.24505458138495248,0.1412878738628529
12.603641271591187,0.5342200915580564,0.2430116081536892,0.10105273173728734
12.61337947845459,0.530312117223323,0.24101920346702693,0.05890063822726202
12.625354528427124,0.5250363518714329,0.2390753250678241,0.023433376479555
12.634337425231934,0.5211283775366995,0.23717536901429534,-0.003423790226305866
12.644243717193604,0.5172204032019662,0.23532010245038337,-0.02236455917183632
12.655499696731567,0.512530834000286,0.23350994119850127,-0.03488912722888091
12.666588068008423,0.5074504673651327,0.2317402509355614,-0.042549341142271394
12.678377866744995,0.5025654994467159,0.23000467448882872,-0.046677200284153744
12.689689636230469,0.49768053152829916,0.22830011032214642,-0.04832322154914637
12.699939012527466,0.4931863610433557,0.22662620907548406,-0.04827746831895208
12.709980487823486,0.4890829879918856,0.2249826199121589,-0.047116327195167146
12.720385313034058,0.4847842162236789,0.22336696614839455,-0.04525125205684312
12.733100175857544,0.4793130521550521,0.22177525012598368,0.23306750026119283
12.741344690322876,0.47599127397052876,0.22020823713264107,0.2686886040089683
12.750226974487305,0.47227869835253194,0.2186706036534135,0.21616879195689837
12.761375427246094,0.46758912915085193,0.21716237487703105,0.14265234380361555
12.772268295288086,0.4628995599491718,0.21567972619249964,0.07463127584926568
12.784749746322632,0.4578191933140183,0.21422137798562932,0.020408147920187455
12.79677438735962,0.4525434279621283,0.2127864810005782,-0.01931454678937051
12.804641008377075,0.44922164977760487,0.211374350022152,-0.046589015445944695
12.815378427505493,0.44453208057592475,0.20998784099992926,-0.0641139380833309
12.825347900390625,0.44023330880771805,0.20862934980693465,-0.07440040434440859
12.83843994140625,0.43437134730561794,0.2072975461911512,-0.07950885421061056
12.846340656280518,0.4312449678378312,0.20599122966277847,-0.08102527107250021
12.856370449066162,0.4275323922198345,0.20471093913292362,-0.08012463085045883
12.866358518600464,0.42323362045162777,0.20345554013476347,-0.07765532431929086
12.8755362033844,0.41893484868342096,0.20222543924350653,-0.07421821158576772
12.889353275299072,0.41307288718132085,0.20102238056314253,-0.0702318981353598
12.899424076080322,0.4093603115633242,0.19984472271079198,-0.06598335883213816
12.910437107086182,0.40447534364490745,0.19869091978027226,0.21437255471288602
12.921947717666626,0.3997857744432273,0.19755960172202774,-0.02428177082383129
12.93331265449524,0.3950962052415472,0.19644810482483427,-0.10838333056431404
12.94323444366455,0.39040663603986714,0.1953554902524553,-0.12543900340088582
12.951653957366943,0.38688945913860706,0.19428358373702795,-0.11616005477467897
12.963243007659912,0.3820044912201903,0.1932338044137586,-0.0987704376191139
12.971459865570068,0.37848731431893023,0.1922058740653924,-0.08088796720526012
12.98023772239685,0.37497013741767016,0.19120063822388061,-0.06527381181443312
12.99134874343872,0.3706713656494634,0.19021734025286507,-0.05257345764343141
13.003338813781738,0.3655909990143101,0.18925266131298013,-0.04259353326601256
13.01407790184021,0.36090142981262996,0.18830499890283192,-0.034874650514684774
13.024272441864014,0.35679805676115983,0.18737420792660048,-0.02893191508342114
13.034479141235352,0.35230388627621645,0.1864601013607729,-0.02434303584023716
13.046637058258057,0.347223519641063,0.185562458183475,-0.29680822859441003
13.056332111358643,0.34331554530632963,0.18468105238159835,-0.3271163874865829
13.065417289733887,0.33960296968833287,0.18381565978591669,-0.26976603463593324
13.074605464935303,0.33549959663686285,0.18296603496844394,-0.19184901563001378
13.08333444595337,0.3315916223021294,0.18213192542462428,-0.1198115755457218
13.092365264892578,0.32768364796739596,0.18131416581636653,-0.33795509426230064
13.101007223129272,0.3239710723493993,0.18051446730644324,-0.3279957923467924
13.1116304397583,0.31967230058119256,0.17973211979434423,0.03349465963520917
13.122883319854736,0.3151781300962491,0.17896443285551303,0.16305466046765915
13.132969379425049,0.311074757044779,0.17821018134239175,0.1913599999462327
13.140360593795776,0.3079483775769923,0.177470292747637,0.17938700396847435
13.151759624481201,0.30306340965857553,0.17674553815329386,0.15456660916202605
13.163083553314209,0.29798304302342216,0.17603469005655742,0.12847042763599387
13.174401044845581,0.2934888725384787,0.17533669816767447,0.10538007214458983
13.182334899902344,0.29036249307069195,0.17465245101171512,0.08638019931388445
13.195528507232666,0.2845005315685919,0.17398268806645725,0.07127087534610473
13.204093217849731,0.2807879559505952,0.17332627958346108,0.05942982916180201
13.21534276008606,0.276098386748915,0.17268222870256228,0.05017780924892144
13.223437309265137,0.2729720072811283,0.17205130658768603,0.04291520586785573
13.232430458068848,0.2692594316631316,0.17143489146302346,0.03715810678206591
13.241317510604858,0.2653514573283982,0.17083326774506424,0.03253373162426356
13.249934911727905,0.26202967914387476,0.17024577174402564,0.028762320071791095
13.260334253311157,0.25792630609240474,0.1696709946237395,0.025636983154309807
13.273343801498413,0.25265054074051463,0.16910694698909196,0.023005852485738783
13.286902666091919,0.24659318052167786,0.1685519348783938,0.020757700826586428
13.295425415039062,0.24307600362041779,0.16800522379590954,0.018810924813673552
13.304551362991333,0.2389726305689477,0.16746759360968463,0.017105348103632408
13.314350605010986,0.23506465623421427,0.16693965846580464,0.01559623296678019
13.326312065124512,0.22998428959906086,0.16642117220714298,0.29028831521546855
13.336669206619263,0.22529472039738077,0.1659112088969123,0.3222038679339114
13.344680786132812,0.22216834092959406,0.16540892660343395,0.2660149767118275
13.356332063674927,0.21728337301117734,0.16491491731422958,0.18894016415255793
13.364968061447144,0.2133753986764439,0.16442965882557478,0.11751701733923832
13.37505030632019,0.20946742434171048,0.16395286107429255,0.060073900582424664
13.383350610733032,0.20595024744045046,0.1634842400583098,0.01732565888070136
13.39433240890503,0.20184687438898036,0.16302351850504296,-0.012776575036467251
13.406600952148438,0.19637571032035359,0.16256985018606743,-0.03293405110241618
13.416316509246826,0.19227233726888354,0.16212252420524506,-0.04566418607449302
13.425138473510742,0.18836436293415013,0.1616821444939867,-0.05303602133673127
13.433984279632568,0.18465178731615337,0.16124919205471958,-0.05664540313653213
13.445370197296143,0.18015761683120995,0.16082344783552946,-0.05767774754178767
13.455386400222778,0.17585884506300323,0.16040472577857248,-0.05699200749858286
13.465493440628052,0.17175547201153316,0.15999285609420988,-0.0551994307811864
13.47733187675476,0.16706590280985303,0.1595871325777417,-0.052728649061608006
13.485309362411499,0.163548725908593,0.1591869344873066,0.22616216960942215
13.493341207504272,0.16022694772406962,0.15879333768174494,0.2623186789173044
13.50275468826294,0.1563189733893362,0.15840722531631835,0.21029717969470124
13.511344909667969,0.1529971952048128,0.15802821452962726,0.13724288042125
13.520057439804077,0.14967541702028941,0.15765647103178676,0.3456877815070327
13.529151678085327,0.146353638835766,0.15729209891512458,0.8770610002028255
13.539297103881836,0.14283646193450597,0.15693460590374594,1.6769698532929935
13.547316312789917,0.14010087990019257,0.15658402410002495,2.115202500652809
13.558321475982666,0.1365837029989325,0.15624032668741525,2.8804054961186987
13.568932294845581,0.13306652609767244,0.15590244545819001,3.84697786826143
13.576372146606445,0.13091714021356907,0.15556992221472732,4.096501975210534
13.584289073944092,0.12837695689599235,0.1552433175660625,4.294607296423146
13.595313310623169,0.1252505774282056,0.154922575717152,4.663018829719741
13.605336427688599,0.12271039411062891,0.15460711744092032,4.6842761863457465
13.614602088928223,0.12036560950978886,0.1542964112547924,4.809538045767341
13.626288414001465,0.11802082490894884,0.1539899684480732,4.88677514524983
13.639311790466309,0.1156760403081088,0.1536868664952258,5.0
13.650624513626099,0.11372205314074207,0.15338582063259285,5.0
13.658962488174438,0.11254966084032206,0.15308621184516705,4.721186849097184
13.666341781616211,0.11137726853990204,0.1527880027411775,4.439251898867859
13.67833662033081,0.10981407880600867,0.15249115225498136,4.432646706691313
13.68829607963562,0.10883708522232532,0.15219606096957936,4.46276092264104
13.69629716873169,0.10786009163864198,0.15190351652953432,4.1693855962265385
13.707281589508057,0.10727389548843196,0.151613239337098,4.053593681713503
13.719292402267456,0.10629690190474862,0.1513240515835952,4.244379325088307
13.728315830230713,0.10610150318801194,0.1510358718423329,3.894624398603395
13.73938512802124,0.10590610447127527,0.1507490702384011,4.218648430908577
13.74960970878601,0.10571070575453859,0.15046303068830888,3.543287501920533
13.759287357330322,0.10571070575453859,0.1501772276403982,3.18400046123814
13.768340587615967,0.10590610447127527,0.1498921081763639,2.4044690254275993
13.77629804611206,0.10590610447127527,0.14960848728111145,1.8849145985633626
13.78709101676941,0.10610150318801194,0.14932657540132388,1.5251691345012772
13.801342964172363,0.10629690190474862,0.1490451547187939,0.9908934053405687
13.812839031219482,0.10688309805495863,0.14876229358350368,-0.33807448054147626
13.82237720489502,0.10727389548843196,0.1484777570322698,-1.1142957294463536
13.835493803024292,0.10746929420516863,0.1481922709016453,-1.8277173348779856
13.848312616348267,0.10786009163864198,0.14790510183915548,-2.639473101739358
13.857295513153076,0.10825088907211532,0.1476156601766305,-3.2969851956565788
13.86767315864563,0.10844628778885199,0.1473248318630971,-3.740339706693625
13.877350568771362,0.10883708522232532,0.14703338835558227,-3.9856140424658935
13.887113571166992,0.10903248393906198,0.14674155649269088,-4.348715429175278
13.900478601455688,0.10942328137253533,0.14644909720744562,-4.628583277661514
13.909321546554565,0.10961868008927202,0.14615536895677406,-4.772932036295586
13.921098709106445,0.11000947752274534,0.14585986544757082,-4.788942199421226
13.931029558181763,0.11020487623948202,0.145562202428929,-4.703118097406225
13.943368196487427,0.11040027495621868,0.14526253907940553,-4.820410883908595
13.952352523803711,0.11059567367295536,0.14496195515682914,-4.6469383887925355
13.963325023651123,0.11079107238969202,0.14466139474122178,-4.633074346080559
13.975318670272827,0.11079107238969202,0.14436033981572013,-4.617641501004994
13.98330283164978,0.11079107238969202,0.1440588149194879,-4.549224044120667
13.99226999282837,0.11079107238969202,0.14375861461677342,-4.422154170512478
14.004272222518921,0.11079107238969202,0.14346038657799218,-4.247275644658622
14.01535415649414,0.11079107238969202,0.14316337930346112,-4.039262344957988
14.023271322250366,0.1109864711064287,0.14286782475983975,-3.5355926672036335
14.032262563705444,0.11079107238969202,0.14257477421037548,-3.266030122161547
14.041281700134277,0.11079107238969202,0.14228468245766318,-3.083874595944871
14.055448770523071,0.11079107238969202,0.1419970751308619,-2.651428824941122
14.064272403717041,0.11079107238969202,0.1417115388753716,-2.188737145707356
14.080435037612915,0.11079107238969202,0.14142771227053239,-1.7779528573294519
14.091170310974121,0.11079107238969202,0.1411444611283768,-1.440596329310984
14.100270986557007,0.11079107238969202,0.14086128640578202,-1.173694124500032
14.112257480621338,0.11079107238969202,0.14057821993966513,-0.9661053011819796
14.122289180755615,0.11079107238969202,0.14029490122718563,-0.8054639995208868
14.134451866149902,0.11079107238969202,0.14001146315362029,-0.6807960791546933
14.14328384399414,0.11079107238969202,0.13972883333287456,-0.583228939485177
14.154914140701294,0.11079107238969202,0.1394478065265639,-0.5059272604633768
14.16536831855774,0.11079107238969202,0.13916827793418443,-0.443767251658723
14.178385496139526,0.11079107238969202,0.1388897894529133,-0.39296805531697
14.187339782714844,0.11079107238969202,0.13861236291614384,-0.35076327122940004
14.203141689300537,0.11079107238969202,0.1383360394175564,-0.3151356376095632
14.214442491531372,0.11079107238969202,0.1380601150038212,-0.28461346917678954
14.222259998321533,0.11079107238969202,0.13778475141166754,-0.25811911090635664
14.234577178955078,0.11079107238969202,0.13751085130423413,-0.23485820624870343
14.243269205093384,0.11079107238969202,0.1372388073448088,-0.2142397470643346
14.257632970809937,0.11079107238969202,0.1369686030972153,-0.1958187856026211
14.265566349029541,0.11079107238969202,0.13669988454086812,-0.17925557565809705
14.273285150527954,0.11079107238969202,0.13643342288505647,-0.16428650468367056
14.284268379211426,0.11079107238969202,0.13617055630818445,-0.15070343188655239
14.299272537231445,0.11079107238969202,0.13591098106707283,-0.1383389931513415
14.31193232536316,0.11079107238969202,0.13565306026564508,-0.1270561300259383
14.319844722747803,0.11079107238969202,0.1353961101915401,-0.11674060468040884
14.327253818511963,0.11079107238969202,0.13514093240973538,-0.1072956246594842
14.3402578830719,0.11079107238969202,0.13488791169575357,-0.09863795894114433
14.353273630142212,0.1109864711064287,0.13463674471429168,-0.09069510940742762
14.364095211029053,0.11079107238969202,0.13438751963546083,-0.08340323078367659
14.372837543487549,0.11079107238969202,0.1341406540793526,-0.0767055829620431
14.382237672805786,0.11079107238969202,0.1338965345330898,-0.0705513635492572
14.392415285110474,0.11079107238969202,0.13365551725958627,-0.0648948134099585
14.40228533744812,0.11079107238969202,0.13341819213093073,-0.059694519542269925
14.412267208099365,0.1109864711064287,0.13318533723923517,-0.05491286179439349
14.422308921813965,0.1109864711064287,0.13295705463309637,-0.05051556550766033
14.431234121322632,0.1109864711064287,0.13273312882880564,-0.04647133311980263
14.440719604492188,0.11079107238969202,0.13251392753722407,-0.04275153546363819
14.451228141784668,0.11079107238969202,0.1322997937443467,-0.03932994892018659
14.46323537826538,0.11079107238969202,0.13209050776958592,-0.036182528411242074
14.473257780075073,0.11079107238969202,0.13188565276155384,-0.03328720892117343
14.486880779266357,0.11079107238969202,0.13168493714212898,-0.030623730155241682
14.495176553726196,0.1109864711064287,0.1314883706351303,-0.028173480306146206
14.505299091339111,0.1109864711064287,0.13129638682882758,-0.02591935587592637
14.51523208618164,0.1109864711064287,0.13110935614166294,-0.02384563520181516
14.523762226104736,0.1109864711064287,0.13092739590468996,-0.021937863842830287
14.5332772731781,0.11118186982316537,0.13075078041750068,-0.020182750355409236
14.542502403259277,0.11118186982316537,0.13057987779222835,0.2574702884177041
14.556578159332275,0.11137726853990204,0.13041447279047805,0.2920803786262255
14.569279670715332,0.11157266725663871,0.13024850551913325,0.2383497577138144
14.57733941078186,0.11157266725663871,0.1300632851930995,0.4395604083799364
14.587377071380615,0.11176806597337538,0.1298386663127028,0.6793573999672234
14.596716165542603,0.11196346469011205,0.12957122250023329,0.6018271164512541
14.607226610183716,0.11215886340684872,0.12926965667549742,0.7056646385013358
14.616289138793945,0.11235426212358537,0.12894218101611468,0.5636671294134735
14.62624216079712,0.11254966084032206,0.1285938542557217,0.6387646211516059
14.638278245925903,0.11313585699053208,0.12822681558254673,0.7618330042716452
14.649129390716553,0.11333125570726875,0.12784212633698763,0.8678230255725903
14.6582772731781,0.1135266544240054,0.12744275181312228,0.6617234743350552
14.667261123657227,0.11391745185747876,0.1270330792860407,0.662387673461923
14.678243160247803,0.1143082492909521,0.12661658045257596,0.44551659061179844
14.690435409545898,0.11469904672442544,0.12619579384188678,0.47049681329794446
14.698233127593994,0.11508984415789876,0.1257741375065181,0.5629609522968277
14.708388090133667,0.11528524287463544,0.12535590973891744,0.3767928348323813
14.716250658035278,0.11548064159137211,0.12494488875498098,0.13175555908700012
14.729637145996094,0.11606683774158212,0.12454444107108209,0.18877678973641732
14.73929500579834,0.11645763517505547,0.12415776883663089,0.05392314446605276
14.754091501235962,0.1168484326085288,0.12378799371542147,0.15829926369597314
14.763741493225098,0.11704383132526547,0.12343829352911946,-0.23410040608040888
14.771393775939941,0.11704383132526547,0.12311124795500507,-0.43305837810766656
14.781399250030518,0.11704383132526547,0.12280877138177829,-1.0788061275945937
14.795243978500366,0.11704383132526547,0.12253298521450862,-1.7327824394898876
14.804941892623901,0.11704383132526547,0.12228620175155416,-1.9683211002680054
14.81331467628479,0.11723923004200215,0.12207009163265624,-2.276788998314017
14.825149297714233,0.11723923004200215,0.12188570294294701,-2.522809742151778
14.835294246673584,0.11723923004200215,0.12173379409711203,-2.395666484420808
14.843234539031982,0.11723923004200215,0.12161436804013227,-2.143773639340539
14.853352308273315,0.11704383132526547,0.12152725196029657,-1.5978074243482832
14.862290859222412,0.11723923004200215,0.12147252522723198,-1.0417094760007117
14.87463665008545,0.11704383132526547,0.12145006554565596,-0.5755072059867633
14.883357524871826,0.11704383132526547,0.12145959411834523,-0.21992368922704772
14.891282558441162,0.11704383132526547,0.1215000513640402,0.03511880507118377
14.90029501914978,0.11723923004200215,0.12157034684871813,0.20890759055929703
14.910294532775879,0.11704383132526547,0.12166992801191033,0.32100592148109963
14.92221736907959,0.11704383132526547,0.12179881717918921,0.3880891720996368
14.932326555252075,0.11704383132526547,0.12195756131271257,0.42327467917780326
14.94033670425415,0.11704383132526547,0.12214503739501897,0.43642457034098425
14.951205730438232,0.11704383132526547,0.12235866350546941,0.43474341901444435
14.960594892501831,0.11704383132526547,0.12259675816712876,0.42338916973008445
14.971256256103516,0.11704383132526547,0.1228584540274123,0.40599682023057204
14.980560779571533,0.11704383132526547,0.1231428901425095,0.3850927870239226
14.99091625213623,0.11704383132526547,0.12344919284800696,0.36240864452855054
14.998233556747437,0.11704383132526547,0.12377564639099145,0.33911239018198835
15.007330417633057,0.11704383132526547,0.12411984735673842,0.31597597546300604
15.015209674835205,0.11704383132526547,0.1244804895071625,0.2934952361951547
15.028250217437744,0.11723923004200215,0.12485809492088089,0.2719750220491173
15.037333250045776,0.11704383132526547,0.12525302437623131,0.2515892374154615
15.050395250320435,0.11704383132526547,0.12566467789710414,0.23242296731620193
15.06169056892395,0.11704383132526547,0.12609344615085677,0.21450189660808316
15.069305419921875,0.11704383132526547,0.1265395861402713,0.19781276077915683
15.081575155258179,0.11723923004200215,0.12700232896991162,0.18231749065947708
15.094223022460938,0.11723923004200215,0.12748198261802346,0.1679629367329996
15.102286100387573,0.11723923004200215,0.12797875161880226,0.1546875034259682
15.113242626190186,0.11743462875873882,0.12849070642109403,0.41846398892430414
15.124215841293335,0.11743462875873882,0.12901722998140197,0.44027373248751156
15.13380742073059,0.11763002747547549,0.1295598733766008,0.3747430490807479
15.141255378723145,0.11782542619221216,0.13011776198689545,0.5650810211266507
15.149208307266235,0.11802082490894884,0.13068793404615262,0.7948635132860709
15.158247470855713,0.1182162236256855,0.13126779850353804,0.70811174557364
15.170197010040283,0.11860702105915884,0.1318562761449895,1.079498160458313
15.180211782455444,0.11899781849263219,0.1324547709074626,0.9628109540283036
15.191250324249268,0.11919321720936885,0.13306569918116892,1.251657598665691
15.200891733169556,0.1195840146428422,0.1336899602722385,1.325147030003008
15.20870590209961,0.11997481207631551,0.13432584999464148,1.2994266823435758
15.218218803405762,0.12036560950978886,0.13497063423208325,1.2310545317143582
15.23134160041809,0.12114720437673555,0.13562445502217596,1.1471665547678511
15.240220308303833,0.12153800181020889,0.13628989861921798,1.0604551987097965
15.248211860656738,0.12192879924368223,0.13696531423889136,1.2526227695230174
15.257555723190308,0.12271039411062891,0.1376480594788437,1.2070076834213208
15.266207218170166,0.12310119154410225,0.13833841025586893,1.0790093559512908
15.274919748306274,0.12368738769431226,0.13903526024933577,0.9358551947085416
15.28292989730835,0.12427358384452228,0.13973767701117,0.803789883290603
15.292998790740967,0.1252505774282056,0.1404461787126403,0.966780471764848
15.302209377288818,0.12583677357841566,0.14115987804316585,0.9061711228544175
15.311729431152344,0.126813767162099,0.14187803255608045,0.7742043169248434
15.322178602218628,0.127986159462519,0.14260268380267144,0.9110820108373112
15.333460330963135,0.12896315304620237,0.1433355211508177,1.0975878877254974
15.34226655960083,0.1299401466298857,0.1440752439016896,0.9754285085917269
15.354182243347168,0.1313079376470424,0.14482072783722055,0.7653840569512055
15.363822937011719,0.13228493123072574,0.14557367243054578,0.8338028087704639
15.371236801147461,0.13306652609767244,0.146334060612964,0.41680479619551447
15.381197452545166,0.13423891839809246,0.14709908433149022,0.46980726967788594
15.394231081008911,0.13580210813198582,0.14786905731269567,0.10636502311555687
15.40595269203186,0.13736529786587917,0.14864830128377327,-0.04735641705301956
15.415246486663818,0.1385376901662992,0.14943900374182945,-0.10377240692614262
15.424365520477295,0.13971008246671923,0.15023875800614603,-0.11689173484513181
15.435195207595825,0.14088247476713922,0.1510453931342277,-0.11217416449212941
15.446712493896484,0.1424456645010326,0.15185972326961,-0.1012633612887088
15.457999467849731,0.1438134555181893,0.15268373145354402,-0.08921622938064953
15.46833848953247,0.14537664525208266,0.1535175975505566,-0.07802155993964849
15.477227449417114,0.146353638835766,0.15435857985345483,-0.06829211188755549
15.486279964447021,0.14752603113618606,0.15520289971622184,-0.3361019145886256
15.498576641082764,0.14889382215334274,0.1560500727417186,-0.6383622705439581
15.50627851486206,0.14967541702028941,0.1569010257898496,-0.8866258897690886
15.514219045639038,0.15006621445376275,0.15775376406586808,-1.33573132111582
15.52461862564087,0.15084780932070943,0.15860659449304124,-2.024187367835085
15.534794092178345,0.15143400547091945,0.15945944841498122,-2.6346174154136235
15.542261362075806,0.15182480290439276,0.16031225101207186,-3.348364332922647
15.553292036056519,0.1524109990546028,0.16116495589333085,-4.195625355906195
15.56645917892456,0.15260639777133944,0.16201894699541544,-5.0
15.575123071670532,0.15280179648807612,0.16287541117794005,-5.0
15.585261344909668,0.1531925939215495,0.1637325831090274,-5.0
15.596193075180054,0.15338799263828612,0.1645904142861201,-4.623484408826419
15.605212926864624,0.15377879007175946,0.16545028767120365,-4.018186064739328
15.61541223526001,0.15397418878849614,0.1663105845420807,-3.4060081268137594
