t_s,q_rad,q_des_rad,jerk
0.006193637847900391,0.0,0.003945874825010537,0.0
0.02023792266845703,0.0,0.019068852499365435,0.0
0.03677821159362793,0.0,0.047392501279662574,0.0
0.051224470138549805,0.00019539871673667023,0.0865107927699774,0.0
0.06528043746948242,0.0005861961502100108,0.13424964902379816,0.0
0.08040714263916016,0.0015631897338933619,0.18865930394554076,1.6562301580720857
0.09622979164123535,0.0037125756179967346,0.2480047654665182,4.063284654470183
0.11387085914611816,0.00820674610294015,0.31075518995237633,5.0
0.13149285316467285,0.014850302471986938,0.3755723531622365,5.0
0.13923096656799316,0.017976681939773663,0.4412980970408729,5.0
0.14963412284851074,0.022080054991243738,0.5069412259294556,5.0
0.16332507133483887,0.027551219059870506,0.5716649926232299,5.0
0.17832231521606445,0.03360857927870728,0.6347744161573389,5.0
0.20030951499938965,0.04181532538164743,0.6957037336469878,5.0
0.21329879760742188,0.04709109073353753,0.7540037762539669,5.0
0.2283308506011963,0.05373464710258431,0.809328647682462,4.119850445453386
0.23733782768249512,0.05764262143731772,0.8614236074219385,1.5667439076577683
0.24777674674987793,0.061550595772051124,0.9101146520400833,-1.3348038231334103
0.25826191902160645,0.06545857010678453,0.9552990477662556,-3.7812379033412657
0.27043962478637695,0.07053893674193797,0.996935664871099,-5.0
0.2842264175415039,0.07640089824403806,1.0350362456964515,-5.0
0.2922334671020508,0.07952727771182479,1.0696563881230872,-5.0
0.3044412136077881,0.08441224563024154,1.1008871807275062,-5.0
0.31978869438171387,0.09046960584907832,1.1288509985206021,-5.0
0.3282597064971924,0.09359598531686505,1.1536948592935152,-5.0
0.3489837646484375,0.1023889275700152,1.1755832139398026,-5.0
0.35730862617492676,0.10590610447127527,1.1946933781286002,-5.0
0.37775278091430664,0.11391745185747876,1.2112112547851497,-5.0
0.391326904296875,0.11938861592610552,1.2253285961457134,-5.0
0.4052274227142334,0.1252505774282056,1.2372382495738012,-5.0
0.4193143844604492,0.13091714021356907,1.2471306691663766,-4.86352678516536
0.43424296379089355,0.13677910171566918,1.255192883647846,-4.6408520414395795
0.4482424259185791,0.1424456645010326,1.2616065872982967,-4.3770383822213486
0.4688088893890381,0.15065241060397278,1.2665473050796736,-4.0975781268794975
0.4828464984893799,0.1563189733893362,1.2701830640762501,-3.817006178578164
0.4983808994293213,0.162962529758383,1.2726718991007653,-3.819619220856829
0.5143561363220215,0.1694106874106931,1.2741612851647275,-3.591047561740429
0.5277359485626221,0.1748818514793199,1.2747886540220676,-3.288370473266
0.5463709831237793,0.18191620528184,1.2746814709044745,-3.2559179973479315
0.5562553405761719,0.18582417961657338,1.2739568521529971,-3.0015344414505716
0.5682830810546875,0.1909045462517268,1.2727210570298506,-2.688003540122977
0.5812222957611084,0.1961803116036169,1.2710702248956918,-2.3827420223375864
0.5942273139953613,0.20126067823877036,1.2690911380944248,-2.1095500301640633
0.6097362041473389,0.20731803845760713,1.2668613750933078,-1.8732763033884499
0.629784345626831,0.2159155819940206,1.264449825352702,-1.6713029505177477
0.6439192295074463,0.22177754349612072,1.2619170519994238,-1.4986936196835834
0.6516423225402832,0.22490392296390746,1.2593153352471536,-1.3503509533675144
0.6632339954376221,0.22978889088232424,1.2566893919623838,-0.9457646885072801
0.6838960647583008,0.23799563698526438,1.254077461912874,-0.8002285586557756
0.6976315975189209,0.2434668010538911,1.2515118106098164,-0.7561556942450898
0.713233232498169,0.24991495870620126,1.249018937199569,-0.7440539772133786
0.72831130027771,0.25577692020830134,1.2466201234553271,-0.7356176481471093
0.7422482967376709,0.26163888171040145,1.2443320875588668,-0.721137064750578
0.7563104629516602,0.2671100457790282,1.2421674803753253,-0.6988078975281059
0.7787473201751709,0.27629378546565175,1.2401353546722964,-0.6698083333155469
0.7934420108795166,0.2825465444012252,1.2382416018419788,-0.6361331184727564
0.8015866279602051,0.28567292386901194,1.2364893802120502,-0.5997170375255614
0.8211963176727295,0.2934888725384787,1.2348794974279171,-0.8381792083009824
0.836235761642456,0.29954623275731546,1.2334107503570226,-0.5577094938268969
0.8455641269683838,0.3032588083753122,1.232080296876102,-0.4327788038052641
0.858863115310669,0.308729972443939,1.2308839744128621,-0.3764751651156978
0.8679792881011963,0.31244254806193567,1.2298165488591528,-0.34844942632474973
0.8782107830047607,0.3165459211134058,1.2288719587519397,-0.3306726685555361
0.8912055492401123,0.3216262877485592,1.2280435476858007,-0.3156055946288089
0.9052176475524902,0.32729285053392265,1.2273242882343696,-0.30048651580990127
0.9162106513977051,0.33178702101886604,1.2267069777365467,-0.2846174782015486
0.9311823844909668,0.3378443812377029,1.2261844012845116,0.007931698408490034
0.9432370662689209,0.3429247478728562,1.225749474317763,0.05785399616158596
0.9561898708343506,0.3480051145080097,1.225395363024534,0.019470954395715848
0.9711663722991943,0.3542578734435831,1.2251155824172137,-0.04028728021249483
0.9852428436279297,0.35972903751220986,1.2249040717955864,-0.09509081497781555
1.0084843635559082,0.36949897334904347,1.224756034534751,-0.4127835346873377
1.022024393081665,0.37457933998419685,1.2246679599441288,-0.47377319310907895
1.0373549461364746,0.3804413014862969,1.2246360409039405,-0.4348311523787148
1.0500211715698242,0.38591246555492376,1.2246561537242608,-0.36589211843163744
1.0633189678192139,0.3913836296235505,1.2247246167371515,-0.29600176369752357
1.078209400177002,0.3974409898423873,1.2248381508743544,-0.23553222990504522
1.0932612419128418,0.4033029513444874,1.2249938342531093,0.08927933456116256
1.1160526275634766,0.41268208974784754,1.2251907117574072,-0.11565323571640501
1.132204532623291,0.419521044833631,1.2254295490061404,0.10123832915729936
1.1462714672088623,0.42499220890225775,1.2257092837813917,0.13549464859506194
1.1602439880371094,0.43026797425414787,1.226027211935296,0.10280778252619913
1.1751844882965088,0.43652073318972134,1.2263808455202114,0.05354202188697895
1.1912891864776611,0.4431642895587681,1.2267681590015342,0.00765584745484869
1.2102704048156738,0.4509802382282349,1.2271892581927584,-0.02851559724590224
1.2248551845550537,0.45684219973033496,1.22764611601864,-0.054344137313038846
1.2392444610595703,0.4623133637989618,1.228139125931511,-0.07128270982770576
1.2495622634887695,0.4664167368504319,1.2286660482752259,-0.08128499149471163
1.259542465209961,0.4707155086186386,1.2292226282745824,-0.08617793409409971
1.2792582511901855,0.4787268560048421,1.22980732520257,-0.08746187521072188
1.2942802906036377,0.4847842162236789,1.2304239022568106,-0.08629022653523982
1.308262586593628,0.49045077900904227,1.2310751947039376,-0.08351500847654572
1.3319523334503174,0.5000253161291391,1.2317657261215733,-0.07974855240593723
1.348273754119873,0.5070596699316593,1.2325041463701425,-0.07542156172005672
1.3598358631134033,0.5117492391333394,1.2332944170516273,-0.07083114837771515
1.3730137348175049,0.5168296057684928,1.2341365318339834,-0.06617811769444228
1.3872053623199463,0.5224961685538563,1.2350319550657765,-0.06159486264495127
1.4022135734558105,0.5283581300559563,1.2359825622941023,-0.05716575545718196
1.4172523021697998,0.5346108889915298,1.236990119820839,-0.05294182518109031
1.4365227222442627,0.5426222363777332,1.238060924295083,-0.04895120672087317
1.453641414642334,0.5496565901802534,1.2392084243679518,-0.045206517692091774
1.4673957824707031,0.5553231529656169,1.2404435940078722,-0.04171003064338276
1.483241319656372,0.561771310617927,1.241770033246763,-0.038457276803831125
1.4983305931091309,0.5682194682702371,1.2431904869324244,-0.3114779006442301
1.520904302597046,0.5772078092401239,1.2447178754065087,-0.3418085390814235
1.5361855030059814,0.5828743720254873,1.2463732249258181,-0.5601668381253606
1.551316499710083,0.5891271309610607,1.2481659526213145,-0.5148216053302438
1.5641684532165527,0.5944028963129508,1.2500950166553002,-0.38700157024995413
1.5803215503692627,0.6006556552485243,1.2521598146843103,-0.2522664366562378
1.602262020111084,0.6098393949351478,1.2543729174833862,-0.13787711948399609
1.6183044910430908,0.6164829513041946,1.2567582826446537,-0.05011860002846705
1.6331636905670166,0.622735710239768,1.259323906748414,0.01299210706611166
1.6563060283660889,0.6319194499263915,1.2620781597809712,0.056019278947644316
1.6722393035888672,0.638172208861965,1.2650422638234764,0.08373215848581983
1.6845195293426514,0.6432525754971185,1.2682180714211477,0.10024360287524124
1.6992802619934082,0.6495053344326919,1.2715916630966178,0.3848464471569773
1.7121655941009521,0.6549764985013187,1.275152299337154,0.42104366474596855
1.7282986640930176,0.6614246561536288,1.2788896915588723,0.08928591554238628
1.7413263320922852,0.6667004215055189,1.2827928320448587,0.2530859277510336
1.7582430839538574,0.6735393765913023,1.2868550360573516,-0.009780213675462807
1.776397943496704,0.6811599265440325,1.2910840836634099,-0.08393256745874912
1.784804344177246,0.6842863060118193,1.295479061576148,-0.08222294359257915
1.8009655475616455,0.6907344636641293,1.3000171201634845,-0.05542391613478882
1.810136318206787,0.6940562418486528,1.304678988511253,-0.024972828943789507
1.8202247619628906,0.6983550136168594,1.3094347841526617,0.27720654854098187
1.836153268814087,0.7049985699859063,1.3142598806673755,0.3301035155170863
1.8505520820617676,0.7114467276382163,1.3191609955410548,0.28871988039769514
1.8742027282714844,0.7208258660415765,1.3241613165053525,0.22137614351152307
1.8882167339324951,0.7264924288269399,1.3292898867822829,0.1558120501426286
1.9022438526153564,0.73235439032904,1.3345520549920984,0.10140843512470263
1.9151902198791504,0.7376301556809302,1.3399315489245576,0.3357566394464144
1.9282116889953613,0.742515123599347,1.3454131811407644,0.3384893314222942
1.9432175159454346,0.7487678825349204,1.3509827735938575,0.26206074497036813
1.9572222232818604,0.7542390466035471,1.3566270758123247,0.17151892935087007
1.977745771408081,0.762641191423224,1.3623462713364471,-0.1844609879238383
1.9864609241485596,0.7665491657579574,1.3681405228604666,-0.28002389811543416
2.0070157051086426,0.7747559118608975,1.3740009540628861,-0.2702152923125559
2.0207433700561523,0.7800316772127877,1.3799334338736369,-0.22509810995421659
2.032714605331421,0.7849166451312045,1.3859309405647315,-0.1744826532736693
2.0491702556610107,0.7915602015002512,1.3919695403496135,0.1464184624873288
2.0629122257232666,0.7972267642856145,1.3980378595115044,0.2155849672490846
2.0781426429748535,0.8034795232211881,1.4041251136496702,0.18796427175732516
2.0921711921691895,0.8091460860065515,1.410216075466737,0.1321704586662702
2.114844799041748,0.818916021843385,1.4163131322226798,0.07631968069162728
2.1302330493927,0.8249733820622217,1.4224333816192765,0.3061847313500315
2.14619779586792,0.8314215397145318,1.4285738382590225,0.3046633427482233
2.1622252464294434,0.8378696973668419,1.4347147824568678,0.22526862442606793
2.183626651763916,0.8460764434697822,1.4408541447122623,0.13318046692194122
2.19915771484375,0.8527199998388288,1.4470046876106268,0.05290360632401028
2.214231014251709,0.8587773600576656,1.4531609113547481,-0.008952256432403424
2.236931324005127,0.8679610997442891,1.4593168702231771,-0.05301651688292452
2.2531769275665283,0.874604656113336,1.4654816639542383,-0.08234347370276071
2.267174005508423,0.8804666176154361,1.4716474713456746,-0.37640313495199756
2.2821319103240967,0.8863285791175362,1.4777924468656414,-0.4192801940920992
2.2962191104888916,0.8919951419028997,1.4838980858214033,-0.3680984517872782
2.3081271648406982,0.8966847111045797,1.489949014582557,-0.2919371250336108
2.3221170902252197,0.9025466726066799,1.4959327755944203,-0.21869977867032495
2.3375895023345947,0.9091902289757265,1.5018422648419782,-0.15769465245760245
2.349087715148926,0.9134890007439334,1.5076724122481138,-0.11032693928434734
2.3652453422546387,0.9201325571129801,1.5134184243368147,-0.07502641534130369
2.377633810043335,0.9252129237481336,1.519078517527336,-0.04941830889554407
2.3950116634368896,0.9322472775506537,1.5246557287108946,-0.031203681401784426
2.403111219406128,0.9353736570184404,1.5301517873095172,-0.018456089177578353
2.4161314964294434,0.9408448210870671,1.5355570750055865,-0.009669451762566797
2.42820405960083,0.945729789005484,1.5408660256067075,0.27232669019481254
2.4385807514190674,0.9500285607736906,1.5460814084019323,0.3094107456819313
2.4510293006896973,0.9549135286921074,1.5512021798279334,0.2568742098348172
2.4658827781677246,0.961166287627681,1.5562329343970147,0.18237929487111731
2.4800572395324707,0.9670282491297811,1.5611891131088438,-0.16325909554226672
2.494126081466675,0.9726948119151444,1.566084085138094,-0.5285752817253689
2.5054898262023926,0.9773843811168246,1.5709202695576514,-0.5484363797121035
2.5200631618499756,0.9828555451854514,1.5757003411091823,-0.4467060941256327
2.5340476036071777,0.9887175066875513,1.5804379565120434,-0.3197916641604618
2.5452497005462646,0.9934070758892316,1.5851369102254487,-0.20504418142881625
2.5631155967712402,1.000246030975015,1.589796159814281,-0.11355594724824614
2.5761194229125977,1.0053263976101683,1.5944330883037001,-0.04557728422842168
2.58937931060791,1.0107975616787952,1.5990629996529384,0.002462278314613736
2.603106737136841,1.016854921897632,1.6036905040151492,0.03492438628117095
2.617111921310425,1.022716883399732,1.608319771630895,0.055783660725032345
2.6321120262145996,1.028774243618569,1.6129545063139379,0.06827415670162157
2.647104263305664,1.0348316038374055,1.6175979283498114,0.07487742189567118
2.6581239700317383,1.0393257743223492,1.6222527665859363,0.0774318493281988
2.673084020614624,1.0453831345411857,1.626921259270647,0.07726802759743098
2.6870949268341064,1.0510496973265493,1.6316051629811021,0.07533283943367886
2.701098680496216,1.0567162601119127,1.6363057687964022,0.07229096295648448
2.7225735187530518,1.0655092023650627,1.6410393770302867,0.06860319781751752
2.738109827041626,1.0715665625838997,1.64583530644045,0.0645848935320433
2.7521133422851562,1.0774285240859998,1.6507025416839571,0.06044861473334258
2.7660772800445557,1.0832904855880998,1.655631562127219,0.0563348577362094
2.780250072479248,1.0887616496567265,1.660612777924372,0.052333948295855026
2.8013503551483154,1.0971637944764034,1.6656466272286437,0.04850154118291716
2.8132359981536865,1.1030257559785035,1.6707390624483607,0.04486953067667725
2.830307960510254,1.1090831161973405,1.6758888174336455,0.041453695505822924
2.840561866760254,1.1131864892488104,1.6810885835053504,0.038259033129348544
2.849064826965332,1.1165082674333338,1.6863139199568078,0.03528346584663911
2.8620829582214355,1.1217840327852238,1.691534954382909,0.0325204033777071
2.8750925064086914,1.1270597981371138,1.6967396864054924,0.02996050448734601
2.8900837898254395,1.1333125570726872,1.7019255349667006,0.30363123868334496
2.9030895233154297,1.1385883224245774,1.7070903577266232,0.3345688626929655
2.9170727729797363,1.144254885209941,1.7122324068411283,0.27745345030849533
2.940154790878296,1.1536340236133011,1.7173656007776739,0.1995074471543987
2.95406436920166,1.1593005863986645,1.7225168632115495,0.12726964500593466
2.9670958518981934,1.1645763517505545,1.727693072790472,0.06906783024949115
2.9820847511291504,1.170829110686128,1.7328841169244984,0.025615134273958645
2.9970641136169434,1.1763002747547546,1.7380810103486732,-0.005139714830120101
3.0110747814178467,1.1819668375401182,1.743275831222007,-0.025900759333791035
3.034440040588379,1.191541374660215,1.74847653289435,-0.03918839118842773
3.050076723098755,1.1981849310292618,1.7537043136866868,-0.04707467342341329
3.065075397491455,1.2042422912480988,1.7589614580735307,-0.05115843137522957
3.0800366401672363,1.2101042527501988,1.7642342825383672,-0.052627961320437545
3.0935349464416504,1.215966214252299,1.7695117919094612,-0.05234496362212953
3.105056047439575,1.2206557834539788,1.7747843175776055,0.2251150776569474
3.1180877685546875,1.2257361500891324,1.780041269262239,0.26036897851536084
3.1408772468566895,1.2347244910590192,1.7852862136510177,-0.06822852642562194
3.1491525173187256,1.2380462692435428,1.7905230422012068,0.10134280357924003
3.1721115112304688,1.2476208063636394,1.7957434942487538,-0.1541868872646201
3.1860616207122803,1.253091970432266,1.8009543428397217,-0.22015986323552686
3.2025694847106934,1.2599309255180497,1.806163019444255,-0.20991879322398405
3.2130556106567383,1.263838899852783,1.8113612766859124,-0.17456357818973106
3.23026180267334,1.2710686523720398,1.8165397258454923,-0.13574433637633007
3.244318962097168,1.2767352151574034,1.8216957171876462,-0.1015564018480703
3.254099130630493,1.2806431894921368,1.8268203920792059,-0.07413677900377189
3.276185989379883,1.2896315304620236,1.8319083991365004,-0.05321663951412711
3.292095422744751,1.2956888906808604,1.8369732099358762,-0.037725560493520466
3.3071696758270264,1.3021370483331705,1.842018032772058,-0.026473237231960434
3.3200693130493164,1.307803611118534,1.847031957136154,-0.018406055897799565
3.3361034393310547,1.3140563700541072,1.8520054837005342,-0.012676382046828317
3.3569765090942383,1.3222631161570475,1.8569424485174575,-0.008635907052703283
3.37310791015625,1.3287112738093576,1.8618576309007313,-0.005803413454624133
3.389014482498169,1.3349640327449313,1.8667504267165274,-0.00382842268836122
3.402021646499634,1.3406305955302946,1.8716073988839135,-0.002458855007139527
3.4161505699157715,1.3464925570323945,1.8764167115804227,-0.0015149451587907735
3.4301042556762695,1.3521591198177578,1.88116804240069,-0.0008692606618445971
3.446897268295288,1.358802676186805,1.8858564218774179,-0.00043185365451103554
3.459155797958374,1.3642738402554317,1.8904787555253169,-0.00013943708636531918
3.4748127460479736,1.3707219979077419,1.895028804832338,-0.27598595302124584
3.4941046237945557,1.378342547860472,1.8995091963938355,-0.3089881760795721
3.507906198501587,1.3836183132123618,1.9039275194484628,-0.5298546160161575
3.519808053970337,1.3885032811307787,1.9082813291451763,-0.48685209512888417
3.5342063903808594,1.3943652426328788,1.9125636958382883,-0.3612120226832869
3.546515703201294,1.3990548118345592,1.9167693253641587,-0.22849972812838648
3.560185194015503,1.4047213746199223,1.9208940672097514,-0.1159835172821578
3.5723061561584473,1.4099971399718125,1.9249323922099648,-0.02995672324354899
3.586803913116455,1.4158591014739124,1.928880520584268,0.03155486839460661
3.5947940349578857,1.4193762783751724,1.9327338347511243,0.07310670402784131
3.609588623046875,1.425042841160536,1.9364842756862524,0.09945936900885274
3.6204493045806885,1.4295370116454795,1.9401321415083381,0.11471738226527324
3.6411380767822266,1.4377437577484196,1.9436891964326717,0.12212728656057892
3.6561031341552734,1.4438011179672565,1.9471728069657646,0.12413669051549404
3.669133186340332,1.4490768833191465,1.9505931748448677,0.12253570632316363
3.678006410598755,1.4527894589371433,1.9539472232839188,0.11860593566815163
3.6948318481445312,1.4598238127396632,1.9572329065716576,0.11324968096860054
3.706270694732666,1.464317983224607,1.9604551478800836,0.1070927906279527
3.715724468231201,1.4682259575593402,1.9636120770954537,0.1005627912880794
3.7357795238494873,1.4764327036622804,1.9667054064423077,0.09394659722953447
3.7521164417266846,1.4828808613145905,1.9697499532237084,0.08743236617602632
3.7650270462036133,1.4879612279497438,1.9727544816333802,0.0811394827161443
3.7800815105438232,1.4936277907351074,1.9757199311108422,0.07513984724616714
3.8004345893859863,1.5022253342715206,1.9786530016505313,0.3455112498799275
3.8080217838287354,1.5053517137393075,1.9815592062545275,0.09728070592690798
3.820042610168457,1.510432080374461,1.984431076570261,0.004095129731489393
3.8389484882354736,1.5182480290439277,1.9872657404445646,0.2545285107530231
3.8491275310516357,1.5223514020953979,1.990066529655677,0.28893215179662457
3.868342876434326,1.5303627494816012,1.9928335519756946,0.24377033894747813
3.8796350955963135,1.5350523186832816,1.9955703001458658,0.1786439503188216
3.8912672996520996,1.5393510904514882,1.9982752757881996,0.11731925472486501
3.9112179279327393,1.5475578365544282,2.0009460963533026,0.06746256539413858
3.9238390922546387,1.5524428044728453,2.0035866176085126,0.029961794268323932
3.9382967948913574,1.5583047659749452,2.006197064177194,0.2792435934658855
3.9503324031829834,1.5633851326100987,2.0087748840495014,0.018078195981044015
3.9650955200195312,1.5694424928289352,2.0113176248280045,-0.082008351986514
3.979396343231201,1.5751090556142986,2.013823418024909,-0.11022696607176274
3.990872859954834,1.579798624815979,2.0162890286781745,-0.10861984517785611
4.007050514221191,1.586246782468289,2.0187110186695567,0.17962760723023707
4.021039009094238,1.5919133452536525,2.0210903564395304,0.22721233946296132
4.031353950500488,1.5960167183051226,2.0234264923597927,0.1855360286014635
4.0452656745910645,1.6018786798072226,2.0257171870481407,0.12080972858408003
4.0610082149505615,1.608131438742796,2.0279645439912546,0.05950961231873523
4.071225166320801,1.6126256092277396,2.0301687103608264,0.01024563396419437
4.081029653549194,1.6167289822792097,2.0323227777750987,-0.025905499703278788
4.099947214126587,1.6243495322319397,2.0344268481526355,-0.05065471598826336
4.112288951873779,1.6292345001503563,2.036493113395159,-0.06642230719008384
4.12010931968689,1.6321654809014066,2.038524366973811,-0.07550490510045182
4.132124185562134,1.6370504488198232,2.0405125599488696,-0.07980318270685012
4.155481338500977,1.6462341885064469,2.042463279183261,-0.08078659823770229
4.171109676361084,1.6526823461587568,2.044393715658629,-0.07954634005045094
4.185125827789307,1.658544307660857,2.0463129419005255,-0.07687115190098265
4.206980466842651,1.6677280473474807,2.0482284720147974,-0.07331974822923429
4.222895860671997,1.6737854075663172,2.050153501445731,-0.06928113287824317
4.236000299453735,1.679256571634944,2.0520949455451576,-0.0650215986886386
4.248603105545044,1.6841415395533608,2.0540505825496704,-0.06071998094472511
4.26111912727356,1.6890265074717774,2.056016101043065,-0.05649347989644421
4.268998384475708,1.692348285656301,2.057984638608082,-0.05241627986446981
4.283916234970093,1.6986010445918742,2.059948461823638,-0.048532827407467546
4.295121908187866,1.7027044176433446,2.061906082444126,-0.04486722370763709
4.315345525741577,1.7113019611797582,2.063864265455625,-0.041429825326018827
4.324515104293823,1.7146237393642816,2.065831704132586,-0.3142602165241232
4.333040714263916,1.7181409162655412,2.067804967961286,-0.34440157936236254
4.34705376625061,1.7238074790509048,2.0697750909124446,-0.2865373971770015
4.3610920906066895,1.7294740418362682,2.071740619260367,-0.2078911753432257
4.374047756195068,1.7347498071881584,2.073703217396332,-0.13500122478692247
4.389237403869629,1.7410025661237318,2.0756648908156823,0.19984449018852657
4.410745859146118,1.7494047109434088,2.0776335573095253,0.2769827819005465
4.426180124282837,1.7554620711622455,2.0796204915718715,-0.022879145165021236
4.441071271896362,1.761714830097819,2.081628196858827,-0.11084846711374766
4.4550461769104,1.767772190316656,2.0836524755067622,-0.38858237711797794
4.476423263549805,1.7761743351363324,2.085694563259284,-0.3939496933711313
4.488363981246948,1.7808639043380126,2.0877590763836533,-0.30586778002792825
4.4983601570129395,1.7847718786727458,2.089839455959014,-0.20076036492960214
4.508072137832642,1.7886798530074792,2.0919212404948357,-0.10773202275558964
4.520186185836792,1.793564820925896,2.093995369191821,-0.034975742803301395
4.534048080444336,1.798840586277786,2.096058004737251,0.017848948836359676
4.549097299575806,1.8047025477798866,2.0981064711365582,-0.22203356943692013
4.564229726791382,1.8111507054321965,2.1001384285914706,-0.23188736831828077
4.575992107391357,1.8160356733506133,2.102151645556477,-0.16301704934819916
4.590066909790039,1.8217022361359765,2.1041436096672697,-0.07992672044209344
4.607994318008423,1.82912738737197,2.1061139734795957,-0.007085590183412982
4.626142263412476,1.8361617411744904,2.108067135705267,0.04870051044385485
4.640617609024048,1.8420237026765904,2.1100071347741225,0.08781112628528401
4.6538004875183105,1.8474948667452171,2.1119320549991523,0.1130674855003949
4.666247606277466,1.852184435946897,2.1138358139061024,0.12770725600489877
4.682050943374634,1.8586325935992072,2.1157129929417806,0.13461444147671608
4.696048736572266,1.864103757667834,2.1175613220342497,0.13610399603069215
4.71107292175293,1.8699657191699341,2.1193786899622924,0.13393281011138658
4.726046800613403,1.8762184781055076,2.1211618781115935,0.12938819736311227
4.741057872772217,1.882471237041081,2.122908030994258,0.12339015922966824
4.762464284896851,1.8906779831440212,2.124617941551339,0.1165830634568045
4.773897171020508,1.8953675523457014,2.126294294645314,0.10940980255943666
4.7898945808410645,1.9018157099980113,2.1279356249096604,0.10216863843181188
4.802081108093262,1.9067006779164282,2.129538894280784,0.09505540698700468
4.814972639083862,1.9117810445515817,2.131101376145676,0.08819421895682399
4.823057651519775,1.9147120253026317,2.1326177258412136,0.08165948400430226
4.831052541732788,1.9180338034871551,2.1340785849833193,0.07549155277582742
4.839039325714111,1.9211601829549418,2.1354736937957397,0.06970774064653272
4.846960544586182,1.9242865624227286,2.1367951283340347,0.06431004628393498
4.855029106140137,1.9274129418905153,2.1380371421574655,0.05929052321582989
4.862976789474487,1.930539321358302,2.1391959046630693,0.05463499440875158
4.870976448059082,1.9338610995428254,2.140269254990523,0.05032560229429364
4.879071950912476,1.9369874790106119,2.1412564722823912,0.04634254346899837
4.887032985687256,1.9403092571951355,2.142158062751369,0.04266523461799155
4.895054340362549,1.9434356366629222,2.1429755637187067,0.03927308312504767
4.903024911880493,1.946562016130709,2.1437113645427956,0.03614598408752549
4.9110352993011475,1.9498837943152325,2.1443685441506144,0.03326462894872469
4.919032335281372,1.953010173783019,2.144950724713983,0.030610685274286308
4.927035570144653,1.9563319519675424,2.145461940874145,0.028166889166201158
4.935136795043945,1.959458331435329,2.145906523808833,0.025917079165053473
4.94312858581543,1.962584710903116,2.146288999352662,0.02384619164058375
4.951127290725708,1.9659064890876394,2.146613999321442,0.021940231483523275
4.959135055541992,1.9690328685554261,2.1468861851510597,0.0201862275908644
4.967127561569214,1.971963849306476,2.147110182939345,0.018572179623857675
4.975036859512329,1.9750902287742627,2.1472905289723023,0.017087000423099283
4.983007192611694,1.978021209525313,2.1474316248220755,0.015720457008246355
4.991034507751465,1.9811475889930996,2.1475377011208896,0.014463112081091481
4.999048709869385,1.984469367177623,2.147612789141072,0.013306267258128408
5.007012128829956,1.9877911453621464,2.1476606993444207,0.012241908778037144
5.015126466751099,1.9909175248299331,2.147685006103041,0.011262656106241508
5.023130893707275,1.9942393030144565,2.1476890378369955,0.010361713639089984
5.03103232383728,1.99756108119898,2.1476758718604194,0.009532825562916913
5.039068698883057,2.0006874606667666,2.1476483332760834,0.008770233828343476
5.047069072723389,2.0038138401345535,2.14760899730784,0.008068639139353972
5.055035591125488,2.00694021960234,2.147560194510077,0.007423164820321557
5.063033580780029,2.0100665990701265,2.147504018342617,0.006829323403144321
5.071035861968994,2.0133883772546506,2.147442334647816,0.006282985768827038
5.079034090042114,2.0167101554391738,2.1473767926134792,0.005780352673891674
5.087029933929443,2.020031933623697,2.1473088368502298,0.005317928496574987
5.095033168792725,2.0229629143747467,2.1472397202548574,0.004892497042479444
5.103030681610107,2.0260892938425337,2.147170517371691,0.00450109925705615
5.110981225967407,2.029020274593584,2.14710213800203,0.004141012701071087
5.119034767150879,2.0319512553446337,2.147035340847051,0.0038097326541161707
5.127042531967163,2.0352730335291573,2.1469707470022747,0.003504954720264236
5.1494245529174805,2.0440659757823076,2.146914788043798,0.0032245588175268992
5.1685662269592285,2.0516865257350374,2.1468835048304693,0.002966594444511571
5.194557428359985,2.062042657722081,2.1468950679736776,0.0027292671216188284
5.2181620597839355,2.071030998691968,2.146964996455753,0.0025109259148223635
5.238477945327759,2.079237744794908,2.147104587746736,0.002310051955705711
5.263323068618774,2.089203079348478,2.1473210120297823,0.0021252478790223846
5.279275894165039,2.096042034434262,2.1476184791581843,0.0019552281046040726
5.307103395462036,2.106593565138042,2.14799933079084,-0.2742395497834237
5.348341703414917,2.1222254624769756,2.148470980335999,-0.8595847770664673
5.377336025238037,2.1327769931807556,2.1490436045812924,-1.6989841982247929
5.409260034561157,2.143914720034746,2.1497203151989677,-2.9923920887695923
5.437520265579224,2.1519260674209493,2.1504970332110385,-5.0
5.452103614807129,2.155638643038946,2.1513633927038636,-5.0
5.46789026260376,2.159155819940206,2.1523031920381865,-5.0
5.506807088851929,2.165603977592516,2.153300857424265,-5.0
5.535089492797852,2.168144160910093,2.154343922040447,-5.0
5.572718381881714,2.16833955962683,2.155419394191657,-5.0
5.609524965286255,2.1659947750259896,2.1565130511105677,-5.0
5.627371788024902,2.164431585292096,2.157610245471086,-5.0
5.65836763381958,2.1607190096740996,2.158696065288761,-5.0
5.692111253738403,2.156420237905893,2.159755644338161,-5.0
5.715585947036743,2.1536846558715794,2.160774852073011,-4.113488259466744
5.7239696979522705,2.1529030610046327,2.1617427659361668,-0.8350579608351549
5.7369890213012695,2.1515352699874764,2.1626525166821757,2.876727411972783
5.7509765625,2.150167478970319,2.1634993279167256,5.0
5.762004613876343,2.149385884103373,2.1642795952138054,5.0
5.777962684631348,2.1482134918029527,2.1649910378121904,5.0
5.796417713165283,2.1466503020690593,2.165632319713317,5.0
5.81095290184021,2.1458687072021125,2.1662028567803815,5.0
5.820913553237915,2.145477909768639,2.1667033311628265,5.0
5.841172218322754,2.1446963149016924,2.1671350928699447,5.0
5.855989933013916,2.1443055174682195,2.167499478768955,5.0
5.86944317817688,2.143914720034746,2.167798842872311,5.0
5.883925914764404,2.143719321318009,2.1680365503774253,5.0
5.897897243499756,2.1435239226012723,2.16821622155458,5.0
5.910887718200684,2.1431331251677994,2.1683416409778817,5.0
5.924973011016846,2.1431331251677994,2.168416675773449,5.0
5.938260555267334,2.1431331251677994,2.1684452027015144,5.0
5.951018333435059,2.1431331251677994,2.1684310439062915,5.0
5.964913606643677,2.1431331251677994,2.1683779111444568,5.0
5.976306915283203,2.1431331251677994,2.1682893889370423,4.7084468255006104
5.990047454833984,2.1431331251677994,2.1681688593600734,4.241415715629934
6.004533767700195,2.1431331251677994,2.1680194097144025,3.479681273178891
6.01806640625,2.1431331251677994,2.167843880920863,2.7260257264245222
6.03200888633728,2.1431331251677994,2.1676448818191507,2.085453829250717
6.045855283737183,2.1431331251677994,2.1674247445736414,1.5779780817538693
6.060964584350586,2.1431331251677994,2.167185523492338,1.1908439494963554
6.074896574020386,2.1431331251677994,2.166929000453459,0.9017251750808786
6.088974714279175,2.1431331251677994,2.1666566962736744,0.6882792109285079
6.110934734344482,2.1431331251677994,2.166368608778927,0.5314952743386655
6.126972675323486,2.1431331251677994,2.1660633966553298,0.41636751528396365
6.141932964324951,2.1431331251677994,2.16574111584219,0.3315309094325627
6.165246963500977,2.1431331251677994,2.165401603612508,0.2685886391111999
6.179470062255859,2.1431331251677994,2.165043265240159,0.22143231252223383
6.193968057632446,2.1431331251677994,2.1646662261529515,0.18566157411673667
6.208882570266724,2.1431331251677994,2.1642721258621296,0.15812549651395968
6.222963333129883,2.1431331251677994,2.1638624545203227,0.1365753284760189
6.236901044845581,2.1431331251677994,2.1634385677268537,0.11940825130345203
6.250875473022461,2.1431331251677994,2.1630016959367544,0.10548137503668173
6.264971733093262,2.1431331251677994,2.1625529481850037,0.09397817345182412
6.277881860733032,2.1431331251677994,2.1620933106516427,0.08431326533424344
6.290945768356323,2.1431331251677994,2.1616236412688377,0.07606486107145538
6.30392599105835,2.1431331251677994,2.161144661959764,0.06892698952698273
6.318970441818237,2.1431331251677994,2.160656950177318,0.06267578123693371
6.331952095031738,2.1431331251677994,2.1601609312840124,0.05714569871507506
6.344952344894409,2.1431331251677994,2.1596568731107384,0.05221278598514616
6.357944488525391,2.1431331251677994,2.1591448837846547,0.04778286191508321
6.37105917930603,2.1431331251677994,2.158624913560776,0.043783191423828166
6.3859686851501465,2.1431331251677994,2.1580967608567665,0.04015660168120181
6.397977590560913,2.1431331251677994,2.157560082039498,0.036857316770558396
6.413875341415405,2.1431331251677994,2.157014403976483,0.03384800034758912
6.427965879440308,2.1431331251677994,2.156459138116105,0.031097647893843908
6.439897298812866,2.1431331251677994,2.1558935948466322,0.02858007702967441
6.449278116226196,2.1431331251677994,2.1553176551093283,0.02627283937718433
6.464945554733276,2.1429377264510627,2.1547310139902693,0.02415643010030198
6.478979587554932,2.1431331251677994,2.1541318839296704,0.022213708161769288
6.499929904937744,2.1429377264510627,2.153516637189858,0.020429466216565217
6.5109336376190186,2.1429377264510627,2.152882032937411,-0.25724825247447813
6.526372194290161,2.1425469290175894,2.1522274029996993,-0.2918795654180086
6.543527126312256,2.1423515303008527,2.15155010248568,-0.5142057911452342
6.553885221481323,2.1421561315841156,2.150847790380476,-0.7485573264068937
6.571643829345703,2.1417653341506426,2.1501206455407225,-0.9332715317220432
6.585475921630859,2.1413745367171693,2.149365882020717,-1.0557075594038736
6.599952459335327,2.140983739283696,2.1485809600055803,-1.1221586779153805
6.614911794662476,2.140397543133486,2.1477656885610394,-1.420529398700554
6.629953145980835,2.1400067457000125,2.14691973440098,-1.1677647223268959
6.642938852310181,2.139615948266539,2.1460426456494206,-1.0475849195898475
6.66504168510437,2.139029752116329,2.1451294282964275,-0.704322229970069
6.67684531211853,2.138443555966119,2.144172392244297,-0.34599489504216663
6.692168474197388,2.137857359815909,2.1431692618695246,-0.04674699922084474
6.70177698135376,2.137466562382436,2.142123003418116,-0.09885717868592078
6.713198184967041,2.137271163665699,2.141039514928955,0.023020921528056057
6.722926616668701,2.1370757649489627,2.139924316489264,0.17749015769969845
6.742067813873291,2.136294170082016,2.13877756962008,0.31097470288469753
6.75443959236145,2.136098771365279,2.137595137167139,0.40860841755223287
6.76723051071167,2.135707973931806,2.136376849274696,0.7472828176743679
6.7769105434417725,2.1353171764983325,2.1351272852376084,0.8142184289989024
6.790860176086426,2.1349263790648587,2.1338496941089193,0.7711657630309604
6.804937124252319,2.134535581631386,2.132544553101913,0.6916228891523826
6.817939043045044,2.1341447841979124,2.131211150584954,0.6071438396936795
6.8309338092803955,2.133753986764439,2.12984897403494,0.5298406350190042
6.84494686126709,2.133167790614229,2.128457706211865,0.4631775736327507
6.858874559402466,2.1327769931807556,2.1270372173540926,0.4070484891651587
6.871873140335083,2.132581594464019,2.1255875528066546,0.3600912894442422
6.8946123123168945,2.1317999995970722,2.124103041037717,0.3206882090853918
6.910008668899536,2.131409202163599,2.122573198829674,0.2873558819202878
6.922342538833618,2.1310184047301255,2.1209952967444163,0.25886320886189373
6.935912847518921,2.1304322085799154,2.1193732314149196,-0.0418022058780676
6.943859100341797,2.129846012429706,2.117716733646371,-0.0964408284896813
6.959332704544067,2.1286736201292857,2.116038561479369,-0.6123969151552479
6.975072145462036,2.1271104303953923,2.1143390694942963,-1.7235935251552332
6.988832235336304,2.1257426393782355,2.112609692955264,-3.0706854651457154
7.002398252487183,2.1237886522108687,2.110845523590795,-4.200940007213196
7.017892837524414,2.1210530701765555,2.1090467742049666,-5.0
7.030911684036255,2.1187082855757153,2.1072154396950062,-5.0
7.044056177139282,2.1163635009748756,2.1053548912472597,-5.0
7.057843208312988,2.1132371215070886,2.103467768749192,-5.0
7.072004318237305,2.1103061407560384,2.10155239778728,-5.0
7.086981534957886,2.106593565138042,2.099607081370333,-5.0
7.101989984512329,2.1022947933698353,2.097631919954092,-5.0
7.12243127822876,2.096432831867735,2.0956211283891997,-5.0
7.1332643032073975,2.093501851116685,2.093566297720666,-4.6086273782671805
7.143353462219238,2.0913524652325814,2.091470734565996,-3.2823370040408353
7.163360118865967,2.086272098597428,2.0893355037449064,-1.3155335212087222
7.170914649963379,2.084513510146798,2.087156978557698,0.775647282789538
7.191333055496216,2.079823940945118,2.0849365264791366,2.500245464050155
7.2059924602508545,2.076502162760595,2.0826656483693315,4.025165800459818
7.219909906387329,2.073375783292808,2.0803368586470303,5.0
7.234985589981079,2.0700540051082847,2.077952614531998,5.0
7.2499473094940186,2.066732226923761,2.0755154810131193,5.0
7.263976812362671,2.0641920436061842,2.073027780722089,5.0
7.275886535644531,2.061651860288608,2.070491629250047,5.0
7.287855863571167,2.0595024744045043,2.0679089670210815,5.0
7.2995686531066895,2.0573530885204008,2.0652823174132204,4.8105051347740755
7.31391978263855,2.0546175064860877,2.0626139549900135,4.731811095828595
7.328930377960205,2.0516865257350374,2.059904469862372,4.370926697516395
7.346817493438721,2.0483647475505142,2.0571518546103373,4.211332278475963
7.358924150466919,2.0462153616664107,2.054355308567093,3.8203018253582868
7.379699945449829,2.0426981847651504,2.051509585029347,3.659239493134485
7.3879075050354,2.041330393747994,2.0486104911436813,3.2828795053647752
7.410973310470581,2.0372270206965237,2.0456615663563475,2.869307516121107
7.424808740615845,2.034882236095684,2.0426553110337102,2.7639386098444056
7.438976526260376,2.0325374514948438,2.039586079784185,2.1925872058000975
7.452871561050415,2.0301926668940036,2.0364599830232355,1.5534351577734768
7.474649429321289,2.0268708887094804,2.033271263257425,1.2712873292949278
7.48999547958374,2.024721502825377,2.030004061555157,1.1424474989703226
7.504801511764526,2.022376718224537,2.0266564382043697,1.0737430418253104
7.518807888031006,2.0204227310571703,2.02323835733022,1.0245711051997313
7.5339062213897705,2.017882547739594,2.019758634230119,0.702698095199207
7.553118467330933,2.0149515669885436,2.0162170136888293,0.3457388343296584
7.569701194763184,2.0120205862374934,2.0126014193204367,0.041155194233548686
7.582411050796509,2.0100665990701265,2.0089084830342836,0.08685189299266777
7.596341609954834,2.007917213186023,2.0051476633317775,-0.04042409429569549
7.604780673980713,2.0067448208856034,2.0013355899180985,-0.19872975977503027
7.62429404258728,2.0038138401345535,1.9974864441441582,-0.058525788394774514
7.637981414794922,2.00166445425045,1.9935953709738732,-0.12417651872592719
7.6528894901275635,1.9995150683663467,1.9896582694175815,-0.24214870602049116
7.665873289108276,1.99756108119898,1.9856814951867077,-0.35164790239912846
7.678892374038696,1.9954116953148764,1.9816704094359046,-0.43339417356205584
7.692841053009033,1.9928715119973,1.977629469513694,-0.7615098408805067
7.7068071365356445,1.9899405312462497,1.9735623180048958,-1.3735147185586742
7.7209694385528564,1.9868141517784632,1.9694718690421664,-2.2202071782697703
7.73382306098938,1.9834923735939396,1.9653603910660309,-3.230993345589823
7.744501113891602,1.980756791559626,1.9612336933227092,-4.339834754500751
7.759888410568237,1.9764580197914197,1.9570964045511248,-5.0
7.773963689804077,1.972550045456686,1.9529438878179077,-5.0
7.78891134262085,1.9680558749717427,1.9487719550205629,-5.0
7.803869009017944,1.9627801096198525,1.9445809680487742,-5.0
7.8235814571380615,1.9557457558173323,1.940361376827773,-5.0
7.832513332366943,1.9520331801993358,1.9361039575913812,-5.0
7.852699279785156,1.9440218328131322,1.931805566902205,-5.0
7.866875410079956,1.9383552700277689,1.9274509948040386,-5.0
7.881927251815796,1.9321025110921954,1.9230325408080418,-4.938066399709172
7.896937370300293,1.9256543534398853,1.9185576438585914,-4.771254134259905
7.9109227657318115,1.919792391937785,1.9140329267243066,-3.716995140417861
7.934170961380005,1.910413253534425,1.90944893562843,-2.2566452074996217
7.948094367980957,1.9047466907490616,1.9047826549969293,-0.6398823772846687
7.963870286941528,1.8984939318134881,1.9000304229914233,1.831892495361167
7.977897882461548,1.8934135651783346,1.8952050930882545,4.087361309922672
7.9984235763549805,1.886183812659078,1.8903070251265406,5.0
8.005857229232788,1.883643629341501,1.8853371000292218,5.0
8.028169393539429,1.8762184781055076,1.880302858829841,5.0
8.036405086517334,1.8732874973544575,1.8752070046431317,5.0
8.052348375320435,1.868207130719304,1.870064127232483,5.0
8.062331914901733,1.8652761499682542,1.8648909252957993,5.0
8.077929258346558,1.860586580766574,1.8596968810643584,5.0
8.088941097259521,1.8574602012987873,1.8544941763917633,5.0
8.11086106300354,1.8512074423632139,1.849280730212028,5.0
8.124874591827393,1.8474948667452171,1.8440338456437342,5.0
8.139312028884888,1.8437822911272206,1.8387441038628978,4.864615693398781
8.153933763504028,1.8400697155092236,1.8334201607979894,4.644599248949836
8.168930768966675,1.8363571398912268,1.8280694806621374,4.659437549250493
8.19053339958191,1.8314721719728102,1.8226815469494568,4.4151281900337365
8.206883668899536,1.8277595963548137,1.8172307381968296,4.080810524423141
8.219921588897705,1.8248286156037634,1.8117127486059128,3.4560224546479867
8.234920740127563,1.8209206412690302,1.8061414386802113,2.814940378533347
8.249887704849243,1.8170126669342965,1.800529035574066,1.4285228632606861
8.265000343322754,1.81271389516609,1.7948856053231326,-0.22765396955679196
8.27926254272461,1.8080243259644098,1.7892154439793526,-2.205364576111111
8.298103332519531,1.8023577631790462,1.7835064012550537,-4.1604180273286735
8.306671619415283,1.799622181144733,1.7777542671864435,-5.0
8.326939105987549,1.7927832260589496,1.7719724080207937,-5.0
8.341859579086304,1.7869212645568493,1.7661569150084802,-5.0
8.355836153030396,1.7814501004882224,1.7603047359459212,-5.0
8.36991834640503,1.776369733853069,1.7544276565405403,-5.0
8.382754564285278,1.771093968501179,1.7485357571505726,-5.0
8.394747734069824,1.7658182031492888,1.7426375311546065,-5.0
8.407777070999146,1.7601516403639255,1.7367400054837467,-5.0
8.420756578445435,1.7546804762952988,1.7308521480468455,-4.64526395949099
8.435746431350708,1.7484277173597254,1.7249811522590275,-4.020900598203205
8.448789119720459,1.742761154574362,1.7191260327559834,-3.104057111412196
8.463813543319702,1.7365083956387886,1.7132854615899948,-1.677909882005069
8.476851463317871,1.7312326302868983,1.7074611143933758,-0.6146382621575688
8.490843772888184,1.7253706687847985,1.7016538901122147,0.13714146278658013
8.513676643371582,1.7156007329479648,1.6958484690938969,0.9201753119577119
8.521724700927734,1.712474353480178,1.6900315520853983,1.2774160943652668
8.54486870765686,1.7021182214931343,1.6842043855114632,1.6903851271637838
8.557860136032104,1.6966470574245076,1.6783493289605274,2.0225499188304985
8.571816444396973,1.6907850959224076,1.6724542055846738,2.5173521950888746
8.587831020355225,1.6843369382700975,1.6665272424587108,2.6642647228769087
8.599889993667603,1.679256571634944,1.6605754824069199,2.6392721947032216
8.614479303359985,1.6728084139826338,1.6546034809866974,2.5320035525264197
8.627919912338257,1.6673372499140071,1.6486150327529212,2.388239001023882
8.642436742782593,1.6612798896951704,1.6426139254888583,2.231379163491609
8.653836488723755,1.6565903204934902,1.636603215963346,2.073329463027096
8.675220489501953,1.64721118209013,1.6305724958664662,1.9200461162302647
8.691385746002197,1.6407630244378202,1.624493648025011,1.7743808178110902
8.706912517547607,1.6343148667855099,1.6183530528608403,1.6375523678553794
8.727345705032349,1.625912721965833,1.6121473102976676,1.5099161601823297
8.743421077728271,1.619464564313523,1.605858135074717,1.3913717400598857
8.757932186126709,1.6130164066612127,1.5994743451917524,1.281581854471316
8.771925210952759,1.6069590464423762,1.593006873449743,1.180092025010883
8.785834074020386,1.601097084940276,1.5864737496910444,1.0863967769209686
8.800943374633789,1.5946489272879658,1.5798908345564537,0.9999767198464558
8.814788818359375,1.5889823645026022,1.5732719556146615,0.9203193644848631
8.826557397842407,1.5839019978674491,1.5666319993635263,0.846930664219741
8.840826511383057,1.5780400363653488,1.5599836107885892,0.7793411559753823
8.853832483291626,1.5727642710134586,1.5533314805970304,0.7171089002565257
8.866008758544922,1.5674885056615686,1.5466823928682525,0.6598205016342727
8.880357265472412,1.5614311454427319,1.5400447977722982,0.6070909747157696
8.894297122955322,1.555373785223895,1.5334195541376199,0.5585629229038231
8.908789157867432,1.5497072224385315,1.5268070420466553,0.7899436805242485
8.921750783920288,1.5440406596531684,1.5202102105939987,0.7819750469891361
8.937827110290527,1.537592502000858,1.5136311757033432,0.6890662493096489
8.949879884719849,1.5325121353657045,1.5070713268289075,0.5781905953431462
8.96389627456665,1.526454775146868,1.500531426499701,0.47565770076165925
8.977893590927124,1.5203974149280313,1.4940117025304886,0.38958453226354983
8.990835428237915,1.515121649576141,1.4875119328455166,0.32049028319179945
9.00815749168396,1.5076964983401473,1.4810246936133729,0.26614527010060773
9.021260261535645,1.5020299355547841,1.474540361694037,0.22368132024127832
9.037129640579224,1.494995581752264,1.4680528613955421,0.46646540705164236
9.049965858459473,1.489719816400374,1.461552367095138,0.47333444061245566
9.057792901992798,1.4867888356493237,1.4550466225522085,0.3972536973629597
9.073799848556519,1.4803406779970136,1.4485604319847332,0.30415142282957275
9.09535551071167,1.4709615395936537,1.4420822979435866,0.2196078303101883
9.109230995178223,1.465490375525027,1.4355708980900614,0.15124812201426674
9.122040033340454,1.4600192114564001,1.4290122405727879,0.09927299155036746
9.134993314743042,1.4543526486710365,1.4224179670663197,0.06125769403795244
9.15076994895935,1.4479044910187262,1.415798289546875,0.03422527693469889
9.158927917480469,1.4441919154007297,1.4091767273543392,0.015454803249703677
9.177053689956665,1.4367667641647361,1.4025731093712757,0.002725607706493693
9.188339471817017,1.4322725936797929,1.3959769452781718,-0.005672456414289523
9.204878330230713,1.4254336385940094,1.3893791924360206,0.26502616512155874
9.220861434936523,1.4185946835082262,1.3827728865003261,0.018904148008096325
9.233803033828735,1.4129281207228626,1.3761521834956392,0.20497893808250936
9.247787952423096,1.4068707605040258,1.369521530663289,0.21636878302153
9.268823385238647,1.3980778182508755,1.3628684924969758,0.1667495796923553
9.27712893486023,1.3945606413496152,1.3561812469601249,0.10491211649699336
9.29074501991272,1.3892848759977254,1.3494804228355692,0.04963054623389716
9.3059663772583,1.3826413196286786,1.3427774293517583,0.006367905290145456
9.323384523391724,1.3756069658261585,1.3360525378205739,-0.0248811534969395
9.33771276473999,1.3699404030407951,1.329285590019484,-0.04602594381805181
9.346119165420532,1.3662278274227981,1.3224903632342404,-0.05934733820629951
9.359110116958618,1.3607566633541714,1.3157060609292242,-0.06690636611184893
9.368753671646118,1.3566532903027015,1.3089543117511813,-0.07037082031470947
9.381767272949219,1.3511821262340749,1.3022432361786458,-0.07101412564291754
9.395794153213501,1.3455155634487113,1.2955765584441952,-0.06977462351341966
9.40870451927185,1.3400443993800844,1.2889520843337854,-0.06732706730496738
9.421778440475464,1.334377836594721,1.2823681763014663,-0.06414762855504144
9.43571162223816,1.3287112738093576,1.2758238574288974,-0.060566845446599765
9.448764085769653,1.3234355084574676,1.269318897650528,-0.056810376099927375
9.461784362792969,1.3179643443888407,1.262853877958582,-0.053029340447243334
9.47676706314087,1.3119069841700037,1.256430229470526,-0.32536079881136304
9.49076771736145,1.306435820101377,1.2500502458442229,-0.35491481389529456
9.511561393737793,1.2970566816980171,1.243703632077672,-0.29642025161029173
9.522868394851685,1.2921717137796,1.2373738125477678,-0.21713097122730246
9.53077507019043,1.2892407330285505,1.2310754431912514,-0.14360518323479854
9.54574966430664,1.2831833728097135,1.2248413008357517,-0.08418187731183893
9.556131839752197,1.2788846010415067,1.2186870274334316,-0.03957981621288961
9.570313930511475,1.2730226395394069,1.212617733968714,-0.007749629761473982
9.582793235778809,1.2677468741875166,1.2066389453380828,0.014013273184754559
9.59577751159668,1.2624711088356266,1.2007564975628011,0.028231400004398968
9.611773014068604,1.2560229511833163,1.1949764335321926,0.3130182476941112
9.62566065788269,1.2501609896812165,1.1893049000803562,0.0749857841132078
9.639699459075928,1.2444944268958527,1.1837480487346201,-0.011029799347080961
9.652774095535278,1.2392186615439627,1.1783119420152681,0.24441773071978778
9.664774656295776,1.2339428961920726,1.173002466692484,0.28230998018239895
9.678773164749146,1.2284717321234457,1.167825254933668,-0.036476177548438765
9.697404861450195,1.2206557834539788,1.1627824750224383,0.14297102106135956
9.709426164627075,1.215966214252299,1.1578741252978748,0.17100038074548496
9.724478960037231,1.2095180565999888,1.153103200447828,0.142895613386644
9.736199140548706,1.2048284873983088,1.148475717029853,0.10034081555747791
9.752156972885132,1.1981849310292618,1.143998499066474,0.060014429717772357
9.769079685211182,1.191150577226742,1.1396726806731157,-0.24869092698716594
9.78044056892395,1.1864610080250617,1.1354969054904713,-0.03009928405547868
9.790170669555664,1.1819668375401182,1.1314781585525537,0.04107241233218068
9.809735298156738,1.174541686304125,1.127623507661678,0.05075939467092501
9.821906566619873,1.169656718385708,1.123932311210987,0.0381986597055495
9.832316875457764,1.1651625479007646,1.120405329802083,0.02040231549526541
9.841706037521362,1.1614499722827678,1.1170471007420073,0.004056582722018356
9.86082935333252,1.1536340236133011,1.1138587754302023,-0.008765042934173503
9.878292560577393,1.1464042710940443,1.1108340391283182,-0.017910616708810306
9.886730432510376,1.1428870941927842,1.1079674262479686,-0.023919915359859725
9.903740644454956,1.1360481391070005,1.1052582506690452,-0.027490527693109633
9.912262678146362,1.132530962205741,1.1027049850280055,0.24677077932221983
9.926892518997192,1.1264736019869042,1.100306387187855,0.27938470700436285
9.941661357879639,1.1202208430513305,1.0980592564053637,0.2246389157975304
9.95650315284729,1.1141634828324936,1.095957015881403,0.14946932844823213
9.966059923171997,1.110450907214497,1.093994348078567,0.08021186839608455
9.978272914886475,1.1055659392960802,1.0921677508977237,0.025054488322697688
9.990738868713379,1.1006809713776635,1.0904726964364744,-0.015383417643456819
10.001763105392456,1.09618680089272,1.0889032307600521,0.23282450987698786
10.014187812805176,1.09091103554083,1.0874529833476874,0.2479846357539628
10.025534868240356,1.08680766248936,1.0861158386534626,0.4582854896347874
10.036725044250488,1.082508890721153,1.0848865182659753,0.9620034294984674
10.05415153503418,1.076646929219053,1.0837584937864275,1.7289895809992655
10.062819004058838,1.0739113471847397,1.0827240212539124,2.4142728528901065
10.073285579681396,1.0703941702834796,1.0817773711944418,2.9140727016525902
10.083836555480957,1.0674631895324294,1.0809137136102716,3.776292763840385
10.0967435836792,1.0641414113479062,1.0801270235281242,5.0
10.111745357513428,1.0604288357299092,1.0794108047186433,5.0
10.123743772506714,1.0578886524123328,1.078758744949667,5.0
10.139706373214722,1.054762272944546,1.0781648937562895,5.0
10.152733087539673,1.0524174883437059,1.0776236621600688,5.0
10.164815902709961,1.0506588998930757,1.0771298197977304,5.0
10.179669618606567,1.0489003114424458,1.0766784894098924,5.0
10.196762800216675,1.0471417229918158,1.076264771504702,5.0
10.20673680305481,1.0463601281248691,1.0758841625463682,5.0
10.224547147750854,1.0453831345411857,1.0755328600098253,5.0
10.23481011390686,1.0449923371077126,1.0752073650325653,4.63138515955027
10.24937129020691,1.0447969383909759,1.0749047076379918,5.0
10.261765241622925,1.044601539674239,1.0746221473997672,4.705513199317222
10.280511140823364,1.0449923371077126,1.07435658018938,4.340376051846117
10.289074420928955,1.045187735824449,1.0741051411629852,3.1416659590704716
10.305565118789673,1.045773931974659,1.073865814887248,2.4166770233826904
10.315663814544678,1.0461647294081324,1.0736368743360036,0.5727822753838567
10.327693462371826,1.0467509255583425,1.073416962049451,-0.45981845032790214
10.34067678451538,1.0473371217085525,1.0732047503954758,-1.0294705415740535
10.351661920547485,1.048118716575499,1.0729985924440524,-1.8815423480440197
10.365721940994263,1.0490957101591825,1.0727970004799632,-2.3640427917315194
10.38069200515747,1.0502681024596026,1.0725986365259483,-2.331459299122982
10.393725872039795,1.0512450960432858,1.072402303732793,-2.3872704907119835
10.40775179862976,1.0526128870604428,1.07220693822284,-2.9843701176794655
10.42179560661316,1.053589880644126,1.0720116009701175,-3.330464890624161
10.435740947723389,1.0549576716612825,1.071815469577622,-3.4900125150265517
10.451792478561401,1.0563254626784393,1.0716178304449577,-3.793336118460216
10.473811388015747,1.0584748485625428,1.0714172117095497,-3.763765709389363
10.488702774047852,1.060038038296436,1.0712115243138838,-3.8634949771815235
10.502795696258545,1.0612104305968562,1.070999921228613,-4.215586599995563
10.517717838287354,1.0627736203307494,1.0707826441569632,-4.531454453592034
10.533936500549316,1.0641414113479062,1.0705598431827867,-4.721265907874007
10.553728342056274,1.0655092023650627,1.070331044381118,-5.0
10.5654935836792,1.0658999997985361,1.070095869233847,-5.0
10.580206871032715,1.0662907972320095,1.069855085736789,-5.0
10.595720052719116,1.0664861959487462,1.0696098848479987,-5.0
10.608726501464844,1.0664861959487462,1.0693615681884272,-5.0
10.618005752563477,1.0664861959487462,1.0691120131819427,-5.0
10.637725353240967,1.0664861959487462,1.0688630916287893,-5.0
10.651716947555542,1.0664861959487462,1.068616049079418,-5.0
10.665712594985962,1.0662907972320095,1.06837218851717,-5.0
10.678697347640991,1.0664861959487462,1.0681331405750936,-4.495455942293441
10.690727472305298,1.0664861959487462,1.0679004796455678,-3.498222977668039
10.706732034683228,1.0664861959487462,1.0676756974335493,-2.4898397725615773
10.724787712097168,1.0664861959487462,1.0674601852416965,-1.6395809217197046
10.734147071838379,1.0664861959487462,1.0672552072267467,-0.9821123235503505
10.745583534240723,1.0662907972320095,1.067061864809047,-0.49985587251111857
10.759714603424072,1.0662907972320095,1.0668810929991615,-0.15964818807510553
10.773688793182373,1.0664861959487462,1.0667136664484853,0.07209611172872608
10.788700580596924,1.0664861959487462,1.0665601920991865,0.22401863137752567
10.805831670761108,1.0662907972320095,1.0664211867650426,0.3186850355066007
10.822899580001831,1.0664861959487462,1.0662972132694595,0.3731041332277237
10.831702947616577,1.0662907972320095,1.0661885363877726,0.3997467201197379
10.845332384109497,1.0662907972320095,1.066094923356647,0.4075862183738591
10.863238334655762,1.0664861959487462,1.0660163195986943,0.4029905827978105
10.876145601272583,1.0664861959487462,1.065952841090909,0.3904281178943232
10.88592791557312,1.0664861959487462,1.06590404596976,0.3730020648643307
10.898855209350586,1.0664861959487462,1.0658691851684075,0.35284486175492935
10.908636569976807,1.0664861959487462,1.065847645970706,0.33140395856968674
10.924752235412598,1.0664861959487462,1.0658389164081061,0.30964662806238274
10.937057495117188,1.0664861959487462,1.0658425838683552,0.2882055412170136
10.950110673904419,1.0664861959487462,1.065858197075071,0.26748162483680377
10.95968508720398,1.0664861959487462,1.0658853033540392,0.2477164019605741
10.972221851348877,1.0664861959487462,1.0659235408832426,0.2290426739155818
10.982680082321167,1.0664861959487462,1.0659724524926117,0.21151990344781024
10.998708724975586,1.0664861959487462,1.0660317434265294,0.1951588288674061
11.01262617111206,1.0664861959487462,1.0661016364741907,0.17993851858660226
11.026238918304443,1.0664861959487462,1.066182452047603,0.16581813114058358
11.040627717971802,1.0664861959487462,1.0662744355539098,0.15274497488842198
11.054579973220825,1.0664861959487462,1.0663779807470075,0.14065998706993202
11.06330394744873,1.0664861959487462,1.0664930905167886,0.1295014173277584
11.078902959823608,1.0664861959487462,1.0666196532062786,0.11920726544923829
11.093693971633911,1.0664861959487462,1.0667588877740193,0.10971685779434266
11.10697078704834,1.0664861959487462,1.0669127510630125,0.10097183094035225
11.121667623519897,1.0664861959487462,1.0670826178173891,0.09291670983522728
11.134267807006836,1.0664861959487462,1.0672694119998012,0.08549921087318793
11.148605108261108,1.0664861959487462,1.067474250614725,0.07867036051353145
11.163620233535767,1.0664861959487462,1.0676988525390754,0.0723844922460144
11.176684141159058,1.0664861959487462,1.0679451678826786,0.06659916527604262
11.19469404220581,1.0664861959487462,1.0682159324436993,0.0612750347448623
11.214470148086548,1.0664861959487462,1.0685171968531677,0.056375693850958794
11.229648351669312,1.0664861959487462,1.0688569223354414,0.05186750166388861
11.24461317062378,1.0664861959487462,1.0692404224593646,0.04771940585599548
11.258668184280396,1.0664861959487462,1.0696712109359998,0.04390276641542509
11.271672487258911,1.0664861959487462,1.0701533756718402,0.040391184221855836
11.28744626045227,1.0664861959487462,1.0706921360598767,0.03716033686793689
11.300674438476562,1.0664861959487462,1.0712930666221576,0.03418782308721472
11.322351217269897,1.0664861959487462,1.0719666750118335,0.03145301645835251
11.334987163543701,1.0664861959487462,1.0727288816529164,0.02893692859437279
11.350666761398315,1.0664861959487462,1.0735903692384379,0.026622081723708904
11.364216566085815,1.0664861959487462,1.0745564316249994,0.02449239037763433
11.378702878952026,1.0664861959487462,1.075631169658334,0.02253305178170007
11.388080596923828,1.0664861959487462,1.0768148282440957,0.02073044448315812
11.403249025344849,1.0664861959487462,1.0781076996608874,0.019072034715301597
11.418687105178833,1.0666815946654828,1.0795155972669008,0.01754628999163489
11.432748079299927,1.0668769933822195,1.0810431376777248,0.016142599429794312
11.445655822753906,1.0670723920989562,1.0826907318795864,0.290889560000335
11.459660530090332,1.0674631895324294,1.0844580280437865,0.5988644330070956
11.471901655197144,1.067853986965903,1.086343867029867,1.1278754544296308
11.484680891036987,1.0682447843993763,1.0883462611818404,1.6140135161186069
11.500173091888428,1.0690263792663228,1.0904623962025752,1.9746120908590503
11.514655113220215,1.0698079741332696,1.0926886547125214,2.2025778765110715
11.527657508850098,1.0707849677169528,1.0950206592615872,2.318091470284604
11.540753602981567,1.0717619613006362,1.0974533318966373,2.623669137491557
11.554780006408691,1.073129752317793,1.0999809668859593,2.900903649924854
11.568745851516724,1.0744975433349495,1.102597313068089,3.9096413443956517
11.587621927261353,1.0768423279357897,1.1053005098550828,4.087232126364284
11.606027364730835,1.0793825112533664,1.1080963553768046,4.190442928095488
11.619847059249878,1.0813364984207332,1.110988282928253,4.199808008724162
11.633785724639893,1.0834858843048365,1.1139695452010208,4.126777705733682
11.647642135620117,1.08563527018894,1.1170276026947967,3.991570514317228
11.663642883300781,1.0883708522232534,1.1201492648214746,3.8141328850249265
11.677612781524658,1.0911064342575667,1.1233220562254154,3.8870789693605152
11.696359157562256,1.0950144085923001,1.1265389917856499,3.7041055461495174
11.706636667251587,1.0971637944764034,1.129793101668721,3.7050800850435053
11.722197771072388,1.1008763700944002,1.1330700510296439,3.1685630249675496
11.740764141082764,1.105175141862607,1.1363656347827866,2.7989275148167834
11.748647689819336,1.1071291290299736,1.1396763338926312,2.519671480492735
11.769605159759521,1.1126002930986003,1.1429895020157066,2.0163018664619
11.783668756484985,1.1161174699998604,1.1463041693868208,1.788250643712491
11.7976393699646,1.1200254443345938,1.1496189516681596,1.3946843078748465
11.810640096664429,1.1239334186693273,1.1529235519362797,1.0058634977374066
11.825655937194824,1.1284275891542705,1.1562088449273111,1.2324530581860969
11.838643550872803,1.132335563489004,1.1594668251351963,0.7712482257439739
11.851647853851318,1.1364389365404741,1.162690558134875,0.4429858979247988
11.863544702529907,1.1401515121584709,1.1658741350554036,-0.337491651252624
11.876446723937988,1.1444502839266775,1.1690126302322532,-0.8352035078699939
11.887178421020508,1.1477720621112009,1.1720998956204576,-1.1372771166312396
11.901353120803833,1.152461631312881,1.17512998175539,-1.3053138985186723
11.910158157348633,1.1551972133471944,1.178097046698269,-1.3826000668118534
11.922791719436646,1.1596913838321379,1.1809930604545336,-1.675427324428956
11.939111948013306,1.1651625479007646,1.1838179164105878,-1.6858781462892316
11.948620080947876,1.1682889273685515,1.1865758765860548,-1.859225921605589
11.965458631515503,1.1739554901539149,1.1892679828126427,-2.0297797275654115
11.97840929031372,1.1780588632053848,1.1918987654665478,-2.4187096552080094
11.990279912948608,1.1817714388233818,1.1944716998904192,-2.498997132239168
12.00577712059021,1.1874380016087451,1.1969908951935853,-2.7106975136293014
12.014564514160156,1.1901735836430585,1.1994628254999042,-2.891961407595406
12.027647972106934,1.194667754128002,1.2018898840105325,-2.9942810758662315
12.040680646896362,1.1987711271794719,1.2042758764092194,-3.291846953260004
12.053640604019165,1.2026791015142053,1.2066280889996532,-3.280204070168761
12.067652463912964,1.2067824745656754,1.2089539197936754,-3.6839223845040117
12.081604719161987,1.2102996514669355,1.2112608074827313,-4.6525501754302
12.09568190574646,1.2138168283681954,1.2135561471795835,-5.0
12.108689546585083,1.216552410402509,1.215847196313125,-5.0
12.12169361114502,1.2190925937200856,1.2181409753850045,-5.0
12.136664152145386,1.2216327770376625,1.220444169076831,-5.0
12.153911113739014,1.2237821629217658,1.2227648192849816,-5.0
12.169540405273438,1.2257361500891324,1.2251156032470205,-5.0
12.182660818099976,1.2267131436728156,1.2275086339173442,-5.0
12.19564175605774,1.2278855359732357,1.2299484103036358,-5.0
12.213548421859741,1.2288625295569193,1.2324408950338988,-5.0
12.228618621826172,1.2296441244238658,1.2349960103163742,-5.0
12.242574691772461,1.2298395231406025,1.2376163694858124,-5.0
12.255550146102905,1.230034921857339,1.240298625533463,-4.979756588438087
12.26963186264038,1.2302303205740757,1.2430391987598406,-4.490381963126982
12.283613204956055,1.2304257192908123,1.2458342905429194,-3.613005322561582
12.295584440231323,1.2306211180075495,1.2486799007647569,-2.457999171242288
12.31055998802185,1.230816516724286,1.2515718483933156,-1.127513136477299
12.32465672492981,1.2314027128744958,1.2545057955176335,0.29625359146823704
12.337100505828857,1.2317935103079691,1.2574769095297278,2.0280627005680145
12.350019931793213,1.2325751051749159,1.2604799625303187,3.7817193329423584
12.364591360092163,1.233552098758599,1.2635105254989043,5.0
12.376629114151001,1.2345290923422825,1.266564879565144,5.0
12.392563819885254,1.2360922820761762,1.2696388615380647,5.0
12.407532453536987,1.2376554718100692,1.2727280080193,5.0
12.420604705810547,1.2392186615439627,1.2758280607243637,5.0
12.433577299118042,1.2409772499945926,1.2789350470781797,5.0
12.448617696762085,1.2433220345954328,1.2820453622212167,5.0
12.47168254852295,1.2472300089301662,1.285165296359876,5.0
12.482114791870117,1.2493793948142695,1.28830429488449,5.0
12.494497537612915,1.2519195781318462,1.2914563055875126,5.0
12.505082845687866,1.254459761449423,1.294611078084134,5.0
12.51569128036499,1.256804546050263,1.2977597805898609,5.0
12.535414457321167,1.261494115251943,1.3009013804561633,5.0
12.549421072006226,1.2654020895866764,1.3040484893383475,5.0
12.562192916870117,1.2689192664879365,1.307206899087444,5.0
12.570517301559448,1.2712640510887767,1.3103662336382713,5.0
12.58656644821167,1.2761490190071934,1.3135151860059409,4.896258509700566
12.59816312789917,1.27986159462519,1.3166537182943998,4.694146441333046
12.614845037460327,1.285332758693817,1.3197872644840325,3.8903538631640746
12.624261140823364,1.2882637394448668,1.3229207844042212,3.5509332236905387
12.636579751968384,1.2925625112130739,1.326053278774638,2.554803992256546
12.649572849273682,1.2972520804147536,1.3291828044446117,2.3339365793127547
12.66434359550476,1.302918643200117,1.332313952233469,1.54854596239432
12.674593210220337,1.3068266175348506,1.335452196510698,0.7120205394617769
12.68957233428955,1.3121023828867409,1.338600661364819,0.8375403719124539
12.702493906021118,1.3167919520884206,1.3417620239912686,0.13478608525316615
12.715524911880493,1.3218723187235741,1.3449392844297865,-0.42672822663858
12.729592084884644,1.3269526853587275,1.3481347263892345,-0.8309548086761411
12.752807855606079,1.3359410263286144,1.3513607955231628,-1.0977602334093608
12.76060962677002,1.3388720070796645,1.354627392660482,-1.8085266113477656
12.778952598571777,1.3464925570323945,1.3579240048462398,-1.9534237657163582
12.794276714324951,1.3517683223842847,1.361249193973426,-2.417216204934215
12.806949615478516,1.3564578915859649,1.3646141868055723,-3.1426041276416576
12.814528942108154,1.3593888723370147,1.3680112181008148,-3.500652481507916
12.83560824394226,1.3668140235730084,1.3714279893342336,-4.182457196551942
12.850545883178711,1.371894390208162,1.3748724326479578,-5.0
12.86351728439331,1.375411567109422,1.3783494764148263,-5.0
12.881749629974365,1.3797103388776286,1.3818506915427502,-5.0
12.91098403930664,1.386158496529939,1.3853717837656312,-5.0
12.918536901473999,1.3875262875470953,1.3889037355571532,-5.0
12.926525115966797,1.3890894772809885,1.3924141958137803,-5.0
12.934548377990723,1.3904572682981455,1.3958610059178092,-5.0
12.94259786605835,1.3916296605985656,1.3992093391771958,-5.0
12.950580596923828,1.3928020528989855,1.4024310202684493,-5.0
12.958620309829712,1.393779046482669,1.4055038635620867,-5.0
12.966532230377197,1.3947560400663521,1.4084110359876427,-4.963638033883553
12.974580764770508,1.3957330336500358,1.4111404489041492,-4.30790337519471
12.982559442520142,1.3967100272337187,1.4136841823769124,-3.801663813824768
12.99057912826538,1.3976870208174021,1.4160379443166846,-3.1180888650072704
12.99858808517456,1.3986640144010856,1.4182005661065895,-2.1938357356481513
13.00658392906189,1.3998364067015054,1.4201735356186036,-1.6174046575838255
13.01458740234375,1.4010087990019255,1.4219605678978426,-0.6910086096203106
13.022575378417969,1.4019857925856087,1.4235672132619828,0.18035301285318656
13.030519485473633,1.4031581848860288,1.42500050211746,1.1423089655733696
13.038508653640747,1.404330577186449,1.4262686254262433,1.936956954029279
13.046591520309448,1.4055029694868688,1.4273806494597112,2.779543536415752
13.054518938064575,1.4068707605040258,1.42834626324246,3.4441203729575154
13.062594413757324,1.408043152804446,1.4291755569119153,3.883779027918782
13.070587635040283,1.4096063425383392,1.4298788290929751,4.120873535633502
13.078552007675171,1.410974133555496,1.4304664213044247,4.474282308720115
13.08655333518982,1.412537323289389,1.4309485773698145,4.468266860986704
13.09457015991211,1.4139051143065458,1.431335325794497,4.294040546886713
13.102566242218018,1.4154683040404392,1.4316363830876264,4.047224846933075
13.110565900802612,1.416836095057596,1.4318610760485755,4.051402009241237
13.118561744689941,1.4183992847914892,1.4320182810972597,3.8109500285695734
13.126484632492065,1.4197670758086463,1.432116378803503,3.2156435801645005
13.134472370147705,1.4213302655425393,1.4321632218584472,2.8566328550629434
13.142482280731201,1.4226980565596958,1.4321661148280789,2.607641796373658
13.15053391456604,1.4242612462935895,1.4321318041325273,2.4100936698635973
13.158572912216187,1.4258244360274828,1.4320664768025528,1.961684827835167
13.16651201248169,1.4269968283279029,1.4319757666745363,1.7701946571398035
13.174513101577759,1.4283646193450594,1.4318647667955482,1.4005347354814988
13.18252944946289,1.4297324103622162,1.4317380469192442,1.0269331223024118
13.190572500228882,1.4307094039458996,1.4315996750801456,0.43468503381133106
13.198557376861572,1.4316863975295828,1.4314532423373052,-0.12065630332260413
13.206507682800293,1.432663391113266,1.4313018898776093,-0.5571509368242179
13.214484930038452,1.4336403846969494,1.4311483377633907,-1.417833859506443
13.2224862575531,1.4344219795638962,1.4309949146981322,-1.9585232900024403
13.2305006980896,1.4350081757141062,1.4308435882675228,-2.822018264097504
13.23848009109497,1.4355943718643163,1.430695995190733,-3.315489999305578
13.246493339538574,1.4361805680145263,1.430553471188449,-3.556268741910853
13.254461288452148,1.4365713654479997,1.4304170801398965,-3.903295514578797
13.26249384880066,1.4369621628814728,1.4302876422608874,-3.895721160266362
13.270565748214722,1.4371575615982095,1.4301657610889738,-3.7286557164623777
13.278455018997192,1.437548359031683,1.430051849110257,-3.773271067246049
13.286523818969727,1.4377437577484196,1.4299461519055405,-3.5562531047524084
13.294565200805664,1.4377437577484196,1.4298487707315723,-3.2535475910002347
13.302494287490845,1.4377437577484196,1.4297596834864026,-2.9417221622637024
13.310474634170532,1.4379391564651562,1.4296787640366808,-2.6509062864149993
13.318499088287354,1.4379391564651562,1.4296057999093617,-2.1142612678917896
13.32648754119873,1.4379391564651562,1.4295405083710948,-1.8510890434107319
13.334481954574585,1.4381345551818931,1.4294825509358673,-1.4277263530630668
13.342512369155884,1.4381345551818931,1.4294315463555682,-1.016088527635663
13.350470542907715,1.4379391564651562,1.4293870821593584,-0.3982058735334646
13.358516454696655,1.4381345551818931,1.4293487248163568,-0.10256997807368595
13.366564273834229,1.4379391564651562,1.42931602860249,0.5864392000601235
13.374495029449463,1.4379391564651562,1.4292885432566587,0.9881272012901536
13.382496356964111,1.4379391564651562,1.4292658205139142,1.2091195369079641
13.390513896942139,1.4379391564651562,1.4292474196043512,1.5914682496670571
13.39850640296936,1.4379391564651562,1.4292329118061269,1.9340298414454014
13.406500101089478,1.4379391564651562,1.429221884139624,2.1754849197327095
13.414468050003052,1.4379391564651562,1.429213942287473,2.3124014167645273
13.422480583190918,1.4379391564651562,1.4292087128220976,2.3618935391948597
13.4304518699646,1.4379391564651562,1.4292058448188114,2.3454887872714103
13.438462257385254,1.4379391564651562,1.4292050109284171,2.2828362792242456
13.446480512619019,1.4377437577484196,1.4292059079788353,2.1898019348835076
13.454436302185059,1.4377437577484196,1.4292082571706717,2.07838354146238
13.462469339370728,1.4377437577484196,1.429211803926862,1.957274376489834
13.470516681671143,1.4377437577484196,1.4292163174517398,1.8325682319046408
13.478461742401123,1.4377437577484196,1.4292215900500904,1.7084072085725
13.486546993255615,1.4377437577484196,1.4292274362520583,1.587511422214078
13.494545459747314,1.4377437577484196,1.429233691785214,1.471587104502731
13.50253939628601,1.4377437577484196,1.4292402124306864,1.3616301748068618
13.510550260543823,1.4377437577484196,1.429246872796074,1.258146998596509
13.518558979034424,1.4377437577484196,1.4292535650338778,1.1613124105053019
13.526546478271484,1.4377437577484196,1.4292601975304648,1.071081490599726
13.534549236297607,1.4377437577484196,1.4292666935870986,0.9872678487447855
13.54254937171936,1.4377437577484196,1.4292729901113421,0.9095979481896506
13.550548315048218,1.4377437577484196,1.4292790363341892,0.8377484380602516
13.558518409729004,1.4377437577484196,1.4292847925655685,0.7713715193158049
13.5665442943573,1.4377437577484196,1.4292902289984204,0.7101119313269675
13.574450969696045,1.4377437577484196,1.4292953245693418,0.65361810238339
13.582444190979004,1.4377437577484196,1.4293000658818273,0.6015492581230681
13.590455293655396,1.4377437577484196,1.4293044461963917,0.5535797482427369
13.598439455032349,1.4377437577484196,1.4293084644903344,0.5094014739311133
13.606443166732788,1.4377437577484196,1.429312124588576,0.46872503190464804
13.614525318145752,1.4377437577484196,1.4293154343658565,0.4312800034761768
13.62252926826477,1.4377437577484196,1.4293184050196144,0.3968146855859559
13.630486488342285,1.4377437577484196,1.4293210504120568,0.36509546866116144
13.638530731201172,1.4377437577484196,1.4293233864792636,0.33590600183901137
13.646454572677612,1.4377437577484196,1.4293254307046328,0.3090462412240529
13.654426336288452,1.4377437577484196,1.4293272016535588,0.28433144562996404
13.662433385848999,1.4377437577484196,1.429328718565916,0.26159116258791215
13.670453071594238,1.4377437577484196,1.4293300010027103,0.24066823241455093
13.678481101989746,1.4377437577484196,1.4293310685431087,0.22141782780887245
13.686463594436646,1.4377437577484196,1.4293319405279992,0.2037065393773604
13.694440126419067,1.4377437577484196,1.429332635846222,0.18741151268338857
13.702463865280151,1.437548359031683,1.4293331727596497,0.17241963918855868
13.710467338562012,1.4377437577484196,1.429333568763392,0.15862680131760765
13.718438386917114,1.4377437577484196,1.4293338404775096,0.14593717049721494
13.726439952850342,1.4377437577484196,1.4293340035667794,0.13426255615701005
13.734457731246948,1.4377437577484196,1.429334072685219,0.12352180317418046
13.742456912994385,1.4377437577484196,1.4293340614422678,0.11364023497707329
13.750476598739624,1.4377437577484196,1.4293339823877202,0.10454913941869406
13.75846266746521,1.4377437577484196,1.429333847012711,0.09618529453305316
13.766448497772217,1.4377437577484196,1.4293336657642648,0.08849053135790898
13.774440050125122,1.4377437577484196,1.4293334480711226,0.08141133112052706
13.782467126846313,1.4377437577484196,1.429333202378776,0.07489845422076111
13.79047679901123,1.4377437577484196,1.4293329361918288,0.06890659859601383
13.798482418060303,1.4377437577484196,1.429332656122011,0.06339408520737233
13.806482791900635,1.4377437577484196,1.4293323679403458,0.05832256854011027
13.814491510391235,1.4377437577484196,1.4293320766321571,0.05365677016143086
13.822550058364868,1.4377437577484196,1.4293317864537631,0.04936423352168712
13.830458164215088,1.4377437577484196,1.429331500989864,0.04541509832117158
13.838467836380005,1.4377437577484196,1.4293312232107718,0.0417818928923315
13.846467733383179,1.4377437577484196,1.4293309555287652,0.03843934316674254
13.8544340133667,1.4377437577484196,1.429330699852975,0.03536419690746141
13.862550497055054,1.4377437577484196,1.4293304576423147,0.032535061990705244
13.870524644851685,1.4377437577484196,1.4293302299560762,0.02993225761653745
13.878467082977295,1.4377437577484196,1.4293300175018886,0.027537677416776415
13.886422872543335,1.4377437577484196,1.4293298206808334,0.02533466351012769
13.89454460144043,1.4377437577484196,1.429329639629565,0.023307890630002836
13.902508974075317,1.4377437577484196,1.429329474259357,0.02144325952008238
13.910504817962646,1.4377437577484196,1.4293293242920388,0.01972779885681164
13.918529272079468,1.4377437577484196,1.429329189292842,0.018149575017101807
13.92652416229248,1.4377437577484196,1.4293290687002032,0.016697609063918217
13.934501886367798,1.4377437577484196,1.4293289618526104,0.015361800372533955
13.942617654800415,1.4377437577484196,1.4293288680126002,0.014132856366341684
13.950589418411255,1.4377437577484196,1.4293287863880342,0.013002227873561648
13.958575248718262,1.4377437577484196,1.4293287161508008,0.011962049655245822
13.966593265533447,1.4377437577484196,1.4293286564530951,0.011005085690924527
13.974597454071045,1.437548359031683,1.429328606441441,0.01012467884131943
13.98249626159668,1.4377437577484196,1.4293285652686236,0.009314704537982083
13.990513324737549,1.4377437577484196,1.4293285321036973,0.008569528177721275
13.998506784439087,1.4377437577484196,1.4293285061402394,0.007883965925447985
14.006511449813843,1.4377437577484196,1.4293284866030114,0.007253248652773233
14.014501333236694,1.4377437577484196,1.4293284727531888,0.006672988761504144
14.022519588470459,1.4377437577484196,1.4293284638923107,0.006139149661250752
14.030563116073608,1.437548359031683,1.4293284593650981,0.005648017688817545
14.038521766662598,1.4377437577484196,1.4293284585612773,0.005196176274038939
14.046598672866821,1.437548359031683,1.4293284609165386,0.004780482172344587
14.054423332214355,1.4377437577484196,1.4293284659127523,0.004398043598717151
14.062422037124634,1.4377437577484196,1.4293284730775524,0.004046200110931871
14.070425748825073,1.4377437577484196,1.429328481983392,0.003722504102135789
14.078420639038086,1.4377437577484196,1.4293284922461635,0.003424703774019854
14.086418867111206,1.4377437577484196,1.4293285035234704,0.0031507274721367107
14.094491958618164,1.4377437577484196,1.4293285155126236,0.0028986692743926843
14.102505922317505,1.4377437577484196,1.429328527948434,0.0026667757324601088
14.110433101654053,1.4377437577484196,1.4293285406008593,0.002453433673876484
14.11853575706482,1.4377437577484196,1.4293285532725595,0.002257158979975596
14.126481294631958,1.4377437577484196,1.4293285657964048,0.0020765862615840128
14.134429931640625,1.4377437577484196,1.4293285780329783,0.0019104593606618153
14.142415285110474,1.4377437577484196,1.4293285898681043,0.001757622611812038
14.15040373802185,1.4377437577484196,1.4293286012104311,0.0016170128028692892
14.158419132232666,1.4377437577484196,1.4293286119890911,0.0014876517786412981
14.16641640663147,1.4377437577484196,1.429328622151458,0.0013686396363510795
14.17444109916687,1.4377437577484196,1.4293286316610119,0.0012591484654437563
14.182401180267334,1.4377437577484196,1.429328640495327,0.0011584165882087879
14.190419435501099,1.437548359031683,1.429328648644186,0.0010657432611524567
14.198453903198242,1.4377437577484196,1.4293286561078289,0.0009804838002605196
14.206473350524902,1.4377437577484196,1.4293286628953346,0.0009020450962398623
14.214483499526978,1.4377437577484196,1.4293286690231397,0.0008298814885408005
14.222496032714844,1.4377437577484196,1.4293286745136902,0.0007634909694576247
14.23048448562622,1.437548359031683,1.4293286793942221,0.0007024116919010775
14.23849368095398,1.437548359031683,1.4293286836956702,0.0006462187565490355
14.246419906616211,1.437548359031683,1.429328687451696,0.0005945212560251442
14.254448890686035,1.4377437577484196,1.4293286906978306,0.0005469595555431544
14.262486457824707,1.437548359031683,1.4293286934707268,0.000503202791099717
14.270485162734985,1.4377437577484196,1.4293286958075098,0.0004629465678117502
14.27843713760376,1.4377437577484196,1.4293286977452238,0.00042591084238681763
14.286490678787231,1.4377437577484196,1.4293286993203653,0.0003918379749958768
14.294480323791504,1.4377437577484196,1.429328700568494,0.00036049093699621064
14.302514553070068,1.4377437577484196,1.4293287015239171,0.0003316516620365161
14.310544490814209,1.4377437577484196,1.429328702219438,0.0003051195290735967
14.318422794342041,1.4377437577484196,1.4293287026861639,0.0002807099667477102
14.32642126083374,1.4377437577484196,1.4293287029533637,0.0002582531694078939
14.334396362304688,1.4377437577484196,1.4293287030483741,0.00023759291585526366
14.342396259307861,1.4377437577484196,1.4293287029965425,0.00021858548258684262
14.350393295288086,1.437548359031683,1.4293287028212058,0.0002010986439798954
14.358399391174316,1.437548359031683,1.4293287025436994,0.000185010752461504
14.36638855934143,1.4377437577484196,1.429328702183388,0.00017020989226458383
14.3743896484375,1.4377437577484196,1.4293287017577208,0.00015659310088341746
14.38236951828003,1.4377437577484196,1.4293287012823,0.00014406565281274426
14.390385866165161,1.4377437577484196,1.429328700770964,0.00013254040058772467
14.398391962051392,1.4377437577484196,1.429328700235881,0.00012193716854070664
14.406474590301514,1.4377437577484196,1.429328699687648,0.00011218219505745011
14.41445541381836,1.4377437577484196,1.4293286991353966,0.00010320761945285414
14.422481775283813,1.4377437577484196,1.4293286985869014,9.495100989662591e-05
14.430421352386475,1.4377437577484196,1.429328698048688,8.735492910489586e-05
14.438453674316406,1.4377437577484196,1.4293286975261414,8.036653477650411e-05
14.446398496627808,1.4377437577484196,1.429328697023613,7.393721199438387e-05
14.454398393630981,1.4377437577484196,1.4293286965445227,6.802223503483314e-05
14.462371587753296,1.4377437577484196,1.4293286960914589,6.258045623204647e-05
14.470464944839478,1.437548359031683,1.4293286956662732,5.757401973348272e-05
14.478410243988037,1.437548359031683,1.429328695270171,5.2968098154804094e-05
14.486462116241455,1.4377437577484196,1.4293286949037942,4.873065030241975e-05
14.494457006454468,1.4377437577484196,1.429328694567301,4.4832198278226175e-05
14.502475023269653,1.4377437577484196,1.4293286942604373,4.124562241596807e-05
14.510402202606201,1.437548359031683,1.429328693982605,3.794597262269064e-05
14.518385648727417,1.437548359031683,1.4293286937329224,3.49102948128754e-05
14.526415824890137,1.437548359031683,1.4293286935102785,3.211747122784536e-05
14.534389734268188,1.4377437577484196,1.4293286933133844,2.9548073529617734e-05
14.542397022247314,1.4377437577484196,1.4293286931408162,2.718422764724835e-05
14.55039381980896,1.4377437577484196,1.4293286929910545,2.500948943546849e-05
14.558395862579346,1.4377437577484196,1.4293286928625188,2.3008730280630985e-05
14.566418886184692,1.4377437577484196,1.4293286927535984,2.1168031858180473e-05
14.574383735656738,1.4377437577484196,1.4293286926626763,1.9474589309526057e-05
14.582374572753906,1.437548359031683,1.4293286925881523,1.7916622164763972e-05
14.590391397476196,1.4377437577484196,1.4293286925284605,1.648329239158287e-05
14.598419427871704,1.437548359031683,1.429328692482085,1.5164629000256251e-05
14.606393814086914,1.4377437577484196,1.429328692447571,1.3951458680235757e-05
14.614409923553467,1.4377437577484196,1.4293286924235349,1.2835341985816881e-05
14.622398138046265,1.437548359031683,1.4293286924086703,1.1808514626951543e-05
14.630372285842896,1.437548359031683,1.4293286924017543,1.0863833456795408e-05
14.638393878936768,1.437548359031683,1.4293286924016497,9.994726780251781e-06
14.646401643753052,1.4377437577484196,1.4293286924073063,9.195148637831643e-06
14.654392957687378,1.4377437577484196,1.4293286924177615,8.459536746805115e-06
14.66239595413208,1.437548359031683,1.4293286924321391,7.782773807060696e-06
14.670386552810669,1.437548359031683,1.4293286924496478,7.160151902495835e-06
14.678371667861938,1.4377437577484196,1.4293286924695772,6.587339750296164e-06
14.68639349937439,1.4377437577484196,1.4293286924912956,6.060352570272482e-06
14.6943941116333,1.4377437577484196,1.4293286925142457,5.575524364650689e-06
14.702393054962158,1.437548359031683,1.4293286925379398,5.129482415478632e-06
14.710371017456055,1.4377437577484196,1.4293286925619564,4.719123822240349e-06
14.718517303466797,1.4377437577484196,1.4293286925859345,4.341593916461119e-06
14.726445436477661,1.4377437577484196,1.4293286926095696,3.9942664031442305e-06
14.734442949295044,1.437548359031683,1.429328692632608,3.6747250908926934e-06
14.742438554763794,1.4377437577484196,1.4293286926548439,3.3807470836212744e-06
14.750432252883911,1.4377437577484196,1.4293286926761128,3.1102873169315675e-06
14.758410453796387,1.437548359031683,1.4293286926962887,2.8614643315770454e-06
14.766399145126343,1.4377437577484196,1.4293286927152786,2.632547185050884e-06
14.774442434310913,1.437548359031683,1.4293286927330198,2.4219434102468146e-06
14.782374143600464,1.4377437577484196,1.429328692749475,2.2281879374270705e-06
14.79043698310852,1.4377437577484196,1.4293286927646298,2.0499329024329022e-06
14.79843544960022,1.437548359031683,1.4293286927784883,1.8859382702382665e-06
14.80643105506897,1.4377437577484196,1.429328692791071,1.7350632086192053e-06
14.81443452835083,1.437548359031683,1.429328692802412,1.5962581519296678e-06
14.822537422180176,1.4377437577484196,1.4293286928125561,1.4685574997752968e-06
14.830442428588867,1.4377437577484196,1.4293286928215567,1.3510728997932736e-06
14.838481664657593,1.4377437577484196,1.4293286928294735,1.2429870678098137e-06
14.846439599990845,1.4377437577484196,1.429328692836371,1.143548102385028e-06
14.85446834564209,1.437548359031683,1.4293286928423177,1.0520642541942261e-06
14.862476587295532,1.437548359031683,1.4293286928473827,9.678991138586891e-07
14.870437860488892,1.4377437577484196,1.4293286928516369,8.904671847499928e-07
14.878408908843994,1.4377437577484196,1.42932869285515,8.192298099699942e-07
14.88636827468872,1.4377437577484196,1.4293286928579914,7.536914251723941e-07
14.89438509941101,1.4377437577484196,1.4293286928602273,6.933961111586021e-07
14.902381658554077,1.437548359031683,1.4293286928619229,6.379244222659139e-07
14.9103844165802,1.4377437577484196,1.4293286928631392,5.86890468484641e-07
14.918447494506836,1.4377437577484196,1.4293286928639348,5.399392310058695e-07
14.926449298858643,1.437548359031683,1.429328692864364,4.967440925254005e-07
14.934455633163452,1.4377437577484196,1.4293286928644782,4.570045651233682e-07
14.942482471466064,1.4377437577484196,1.4293286928643245,4.2044419991349916e-07
14.950394630432129,1.437548359031683,1.429328692863946,3.8680866392041917e-07
14.958440780639648,1.4377437577484196,1.4293286928633822,3.5586397080678497e-07
14.966439008712769,1.437548359031683,1.429328692862669,3.2739485314224203e-07
14.974449634552002,1.4377437577484196,1.4293286928618387,3.0120326489086304e-07
14.982398748397827,1.4377437577484196,1.4293286928609203,2.771070036995942e-07
14.990436792373657,1.4377437577484196,1.4293286928599394,2.5493844340362623e-07
14.998435735702515,1.4377437577484196,1.4293286928589184,2.345433679313365e-07
15.006466388702393,1.4377437577484196,1.4293286928578766,2.1577989849682928e-07
15.014452695846558,1.437548359031683,1.4293286928568307,1.98517506617083e-07
15.022401332855225,1.437548359031683,1.4293286928557951,1.826361060877163e-07
15.030401468276978,1.437548359031683,1.4293286928547815,1.680252176006991e-07
15.038431644439697,1.4377437577484196,1.4293286928537996,1.5458320019264328e-07
15.046439170837402,1.437548359031683,1.4293286928528572,1.4221654417723171e-07
15.05444622039795,1.4377437577484196,1.4293286928519606,1.3083922064305344e-07
15.062434434890747,1.437548359031683,1.429328692851114,1.2037208299160924e-07
15.070436954498291,1.4377437577484196,1.4293286928503204,1.1074231635228027e-07
15.078396797180176,1.4377437577484196,1.429328692849582,1.0188293104409781e-07
15.086443424224854,1.437548359031683,1.4293286928489004,9.373229656057005e-08
15.094446182250977,1.437548359031683,1.4293286928482751,8.62337128357245e-08
15.102439165115356,1.437548359031683,1.4293286928477058,7.93350158088665e-08
15.110437154769897,1.4377437577484196,1.4293286928471909,7.29882145441572e-08
15.11844778060913,1.437548359031683,1.4293286928467288,6.71491573806246e-08
15.1264328956604,1.437548359031683,1.4293286928463178,6.177722479017467e-08
15.134437799453735,1.4377437577484196,1.4293286928459548,5.683504680696064e-08
15.14243745803833,1.437548359031683,1.4293286928456372,5.2288243062403914e-08
15.150444507598877,1.4377437577484196,1.4293286928453623,4.810518361741156e-08
15.158483505249023,1.4377437577484196,1.429328692845127,4.425676892801865e-08
15.166438102722168,1.4377437577484196,1.4293286928449283,4.071622741377717e-08
15.174413919448853,1.437548359031683,1.429328692844763,3.745892922067499e-08
15.182453155517578,1.437548359031683,1.4293286928446283,3.446221488302093e-08
15.190440893173218,1.437548359031683,1.429328692844521,3.1705237692379234e-08
15.19843602180481,1.437548359031683,1.4293286928444382,2.9168818676988935e-08
15.206435203552246,1.437548359031683,1.4293286928443776,2.6835313182829817e-08
15.214408874511719,1.4377437577484196,1.429328692844336,2.4688488128203432e-08
15.222435474395752,1.437548359031683,1.4293286928443114,2.271340907794717e-08
15.230446577072144,1.437548359031683,1.4293286928443012,2.0896336351711375e-08
15.238439083099365,1.4377437577484196,1.4293286928443034,1.922462944357449e-08
15.24643874168396,1.4377437577484196,1.429328692844316,1.7686659088088533e-08
15.254355192184448,1.4377437577484196,1.4293286928443376,1.627172636104145e-08
15.262370824813843,1.4377437577484196,1.429328692844366,1.4969988252158142e-08
15.270365238189697,1.437548359031683,1.4293286928444002,1.3772389191985484e-08
15.27835988998413,1.437548359031683,1.4293286928444389,1.2670598056626633e-08
15.286441564559937,1.437548359031683,1.4293286928444806,1.1656950212096491e-08
15.294444799423218,1.437548359031683,1.4293286928445248,1.0724394195128785e-08
15.302454948425293,1.437548359031683,1.4293286928445703,9.86644265951848e-09
15.31035304069519,1.437548359031683,1.4293286928446163,9.077127246756996e-09
15.318369150161743,1.437548359031683,1.4293286928446618,8.350957067016455e-09
15.326368808746338,1.437548359031683,1.4293286928447064,7.682880501655129e-09
15.33437705039978,1.437548359031683,1.4293286928447497,7.068250061522726e-09
15.342366695404053,1.437548359031683,1.4293286928447915,6.502790056600918e-09
15.350381135940552,1.437548359031683,1.4293286928448312,5.982566852072839e-09
15.35836386680603,1.4377437577484196,1.4293286928448687,5.503961503907008e-09
15.36637020111084,1.4377437577484196,1.4293286928449038,5.063644583594445e-09
15.374386310577393,1.437548359031683,1.4293286928449365,4.658553016906889e-09
15.382349491119385,1.437548359031683,1.4293286928449669,4.285868775554334e-09
15.390339374542236,1.437548359031683,1.4293286928449946,3.942999273509994e-09
15.398329257965088,1.437548359031683,1.4293286928450202,3.6275593316291934e-09
15.406335592269897,1.437548359031683,1.4293286928450433,3.337354585098856e-09
15.414339542388916,1.437548359031683,1.4293286928450644,3.0703662182909523e-09
15.422362089157104,1.4377437577484196,1.4293286928450835,2.824736920827675e-09
15.430344343185425,1.437548359031683,1.4293286928451001,2.598757967161458e-09
15.438443899154663,1.437548359031683,1.4293286928451148,2.3908573297885417e-09
15.446353912353516,1.4377437577484196,1.4293286928451276,2.1995887434054584e-09
15.454327583312988,1.437548359031683,1.4293286928451387,2.0236216439330213e-09
15.462337255477905,1.4377437577484196,1.4293286928451483,1.8617319124183816e-09
15.47032356262207,1.437548359031683,1.4293286928451563,1.7127933594249084e-09
15.478320121765137,1.437548359031683,1.429328692845163,1.5757698906709195e-09
15.486335277557373,1.4377437577484196,1.429328692845168,1.4497082994172449e-09
15.494309425354004,1.4377437577484196,1.4293286928451723,1.3337316354638652e-09
15.502341508865356,1.437548359031683,1.4293286928451754,1.2270331046267564e-09
15.510403871536255,1.4377437577484196,1.4293286928451776,1.1288704562566138e-09
15.518399715423584,1.437548359031683,1.4293286928451792,1.0385608197560865e-09
15.526418447494507,1.4377437577484196,1.4293286928451798,9.55475954175599e-10
15.534322023391724,1.437548359031683,1.4293286928451798,8.790378778415518e-10
15.542402029037476,1.437548359031683,1.4293286928451794,8.087148476142278e-10
15.550400018692017,1.437548359031683,1.4293286928451785,7.440176598050893e-10
15.558408498764038,1.437548359031683,1.4293286928451774,6.844962470206823e-10
15.56641173362732,1.4377437577484196,1.429328692845176,6.297365472590268e-10
15.574360847473145,1.437548359031683,1.4293286928451747,5.793576234783049e-10
15.582401514053345,1.437548359031683,1.4293286928451732,5.330090136000407e-10
15.590397834777832,1.4377437577484196,1.4293286928451716,4.903682925120381e-10
15.598410367965698,1.437548359031683,1.4293286928451698,4.5113882911107595e-10
15.606441497802734,1.437548359031683,1.429328692845168,4.1504772278219015e-10
15.614366292953491,1.437548359031683,1.4293286928451665,3.818439049596147e-10
15.622401714324951,1.437548359031683,1.4293286928451647,3.5129639256284523e-10
15.630361557006836,1.437548359031683,1.429328692845163,3.2319268115781726e-10
15.638403177261353,1.4377437577484196,1.429328692845161,2.9733726666519175e-10
15.646414279937744,1.437548359031683,1.429328692845159,2.735502853319763e-10
15.654363632202148,1.437548359031683,1.4293286928451572,2.516662625054182e-10
15.66234302520752,1.4377437577484196,1.4293286928451556,2.3153296150498464e-10
15.670399904251099,1.437548359031683,1.429328692845154,2.1301032458458614e-10
15.67838430404663,1.437548359031683,1.4293286928451527,1.959694986178193e-10
15.686412811279297,1.437548359031683,1.4293286928451514,1.802919387283936e-10
15.694382667541504,1.4377437577484196,1.4293286928451503,1.658685836301224e-10
15.70237112045288,1.437548359031683,1.4293286928451492,1.525990969397125e-10
15.710418939590454,1.4377437577484196,1.4293286928451483,1.403911691845354e-10
15.718380451202393,1.4377437577484196,1.4293286928451474,1.291598756497725e-10
15.726419687271118,1.4377437577484196,1.4293286928451465,1.1882708559779064e-10
15.7343590259552,1.437548359031683,1.4293286928451459,1.0932091874996739e-10
15.74234390258789,1.4377437577484196,1.4293286928451452,1.005752452499701e-10
15.750365018844604,1.437548359031683,1.4293286928451445,9.252922562997266e-11
15.758332014083862,1.4377437577484196,1.4293286928451439,8.512688757957497e-11
15.766412734985352,1.4377437577484196,1.4293286928451434,7.831673657320881e-11
15.774315357208252,1.4377437577484196,1.4293286928451432,7.20513976473522e-11
15.782329320907593,1.4377437577484196,1.429328692845143,6.628728583556395e-11
15.790346145629883,1.4377437577484196,1.4293286928451427,6.098430296871884e-11
15.798357725143433,1.437548359031683,1.4293286928451425,5.610555873122139e-11
15.80637526512146,1.4377437577484196,1.4293286928451423,5.161711403272372e-11
15.814347743988037,1.4377437577484196,1.429328692845142,4.7487744910105746e-11
15.822362899780273,1.4377437577484196,1.4293286928451419,4.368872531729722e-11
15.83030390739441,1.437548359031683,1.4293286928451414,4.019362729191348e-11
15.838366508483887,1.437548359031683,1.4293286928451412,3.697813710856041e-11
15.846412658691406,1.437548359031683,1.4293286928451412,3.401988613987557e-11
15.854329586029053,1.437548359031683,1.4293286928451414,3.129829524868551e-11
15.862410068511963,1.437548359031683,1.4293286928451419,2.8794431628790704e-11
15.870409727096558,1.437548359031683,1.429328692845142,2.6490877098487464e-11
15.878324508666992,1.437548359031683,1.429328692845142,2.4371606930608454e-11
15.886300325393677,1.4377437577484196,1.4293286928451419,2.2421878376159744e-11
15.89434552192688,1.437548359031683,1.4293286928451414,2.0628128106066994e-11
15.902379751205444,1.437548359031683,1.4293286928451412,1.89778778575816e-11
15.910400629043579,1.437548359031683,1.4293286928451412,1.74596476289751e-11
15.918405532836914,1.4377437577484196,1.4293286928451414,1.6062875818657088e-11
15.92639422416687,1.437548359031683,1.4293286928451419,1.4777845753164527e-11
15.934378623962402,1.437548359031683,1.429328692845142,1.359561809291137e-11
15.942371845245361,1.437548359031683,1.429328692845142,1.2507968645478443e-11
15.950406789779663,1.437548359031683,1.4293286928451419,1.150733115384019e-11
15.958394527435303,1.437548359031683,1.4293286928451414,1.058674466153298e-11
15.966392993927002,1.437548359031683,1.4293286928451412,9.739805088610336e-12
15.974316596984863,1.437548359031683,1.4293286928451412,8.960620681521506e-12
15.982393026351929,1.437548359031683,1.4293286928451414,8.24377102699979e-12
15.990390300750732,1.437548359031683,1.4293286928451419,7.58426934483981e-12
15.99841833114624,1.437548359031683,1.429328692845142,6.977527797252617e-12
16.00634455680847,1.437548359031683,1.429328692845142,6.419325573472405e-12
16.014334678649902,1.437548359031683,1.4293286928451419,5.905779527594622e-12
16.022327423095703,1.437548359031683,1.4293286928451414,5.433317165387047e-12
16.030391454696655,1.437548359031683,1.4293286928451412,4.998651792156091e-12
16.038395881652832,1.437548359031683,1.4293286928451412,4.5987596487836005e-12
16.046406507492065,1.437548359031683,1.4293286928451414,4.2308588768809184e-12
16.054342031478882,1.437548359031683,1.4293286928451419,3.8923901667304434e-12
16.062373399734497,1.437548359031683,1.429328692845142,3.5809989533920015e-12
16.070301294326782,1.437548359031683,1.429328692845142,3.2945190371206406e-12
16.07834267616272,1.437548359031683,1.4293286928451419,3.03095751415099e-12
16.086406230926514,1.437548359031683,1.4293286928451414,2.788480913018913e-12
16.094446420669556,1.437548359031683,1.4293286928451412,2.5654024399774024e-12
16.10262656211853,1.437548359031683,1.4293286928451412,2.360170244779211e-12
16.110328197479248,1.437548359031683,1.4293286928451414,2.1713566251968724e-12
16.118300676345825,1.437548359031683,1.4293286928451419,1.9976480951811226e-12
16.126338005065918,1.437548359031683,1.429328692845142,1.837836247566631e-12
16.134413480758667,1.437548359031683,1.429328692845142,1.6908093477613017e-12
16.142351150512695,1.437548359031683,1.4293286928451419,1.5555445999403993e-12
16.15037989616394,1.437548359031683,1.4293286928451414,1.431101031945165e-12
16.158642292022705,1.437548359031683,1.4293286928451412,1.3166129493895525e-12
16.16644048690796,1.437548359031683,1.4293286928451412,1.2112839134383876e-12
16.17438530921936,1.437548359031683,1.4293286928451414,1.1143812003633167e-12
16.18241310119629,1.437548359031683,1.4293286928451419,1.025230704334252e-12
16.190378189086914,1.437548359031683,1.429328692845142,9.43212247987514e-13
16.19837188720703,1.437548359031683,1.429328692845142,8.677552681485131e-13
16.20640206336975,1.437548359031683,1.4293286928451419,7.983348466966301e-13
16.21466827392578,1.437548359031683,1.4293286928451414,7.344680589608992e-13
16.222491979599,1.437548359031683,1.4293286928451412,6.757106142440276e-13
16.230351209640503,1.437548359031683,1.4293286928451412,6.216537651045052e-13
16.23830246925354,1.437548359031683,1.4293286928451414,5.719214638961448e-13
16.246339082717896,1.437548359031683,1.4293286928451419,5.261677467844532e-13
16.254393815994263,1.437548359031683,1.429328692845142,4.840743270416974e-13
16.262409448623657,1.437548359031683,1.429328692845142,4.4534838087836184e-13
16.270322561264038,1.437548359031683,1.4293286928451419,4.0972051040809263e-13
16.27834987640381,1.437548359031683,1.4293286928451414,3.7694286957544587e-13
16.28629779815674,1.437548359031683,1.4293286928451412,3.467874400094104e-13
16.29429531097412,1.437548359031683,1.4293286928451412,3.1904444480865715e-13
16.30230474472046,1.437548359031683,1.4293286928451414,2.935208892239642e-13
16.31031060218811,1.437548359031683,1.4293286928451419,2.700392180860471e-13
16.31831932067871,1.437548359031683,1.429328692845142,2.4843608063916353e-13
16.32684087753296,1.437548359031683,1.429328692845142,2.285611941880306e-13
16.334291696548462,1.437548359031683,1.4293286928451419,2.102762986529882e-13
16.342283248901367,1.437548359031683,1.4293286928451414,1.9345419476074932e-13
16.350331783294678,1.437548359031683,1.4293286928451412,1.7797785917988927e-13
16.358317613601685,1.437548359031683,1.4293286928451412,1.637396304454978e-13
16.366382360458374,1.437548359031683,1.4293286928451414,1.5064046000985783e-13
16.374297618865967,1.437548359031683,1.4293286928451419,1.3858922320906918e-13
16.382294178009033,1.437548359031683,1.429328692845142,1.2750208535234376e-13
16.390312671661377,1.437548359031683,1.429328692845142,1.1730191852415633e-13
16.39826798439026,1.437548359031683,1.4293286928451419,1.0791776504222379e-13
16.406297206878662,1.437548359031683,1.4293286928451414,9.928434383884573e-14
16.414366006851196,1.437548359031683,1.4293286928451412,9.134159633173818e-14
16.422372817993164,1.437548359031683,1.4293286928451412,8.403426862519907e-14
16.43029522895813,1.437548359031683,1.4293286928451414,7.73115271351832e-14
16.43836522102356,1.437548359031683,1.4293286928451419,7.112660496436868e-14
16.44637680053711,1.437548359031683,1.429328692845142,6.543647656721918e-14
16.45431923866272,1.437548359031683,1.429328692845142,6.020155844184167e-14
16.46236491203308,1.437548359031683,1.4293286928451419,5.538543376649424e-14
16.470365285873413,1.437548359031683,1.4293286928451414,5.0954599065174696e-14
16.478307723999023,1.437548359031683,1.4293286928451412,4.6878231139960725e-14
16.486366033554077,1.437548359031683,1.4293286928451412,4.312797264876388e-14
16.49437928199768,1.437548359031683,1.4293286928451414,3.9677734836862756e-14
16.50228524208069,1.437548359031683,1.4293286928451419,3.650351604991377e-14
16.51035499572754,1.437548359031683,1.429328692845142,3.3583234765920684e-14
16.5183687210083,1.437548359031683,1.429328692845142,3.089657598464702e-14
16.526310920715332,1.437548359031683,1.4293286928451419,2.842484990587529e-14
16.53429913520813,1.437548359031683,1.4293286928451414,2.6150861913405278e-14
16.542277812957764,1.437548359031683,1.4293286928451412,2.405879296033284e-14
16.550280809402466,1.437548359031683,1.4293286928451412,2.213408952350619e-14
16.55826687812805,1.437548359031683,1.4293286928451414,2.036336236162571e-14
16.566258192062378,1.437548359031683,1.4293286928451419,1.8734293372695634e-14
16.574383020401,1.437548359031683,1.429328692845142,1.723554990288e-14
16.582295656204224,1.437548359031683,1.429328692845142,1.5856705910649608e-14
16.590301990509033,1.437548359031683,1.4293286928451419,1.4588169437797645e-14
16.598371744155884,1.437548359031683,1.4293286928451414,1.3421115882773833e-14
16.606364011764526,1.437548359031683,1.4293286928451412,1.2347426612151893e-14
16.614372968673706,1.437548359031683,1.4293286928451412,1.1359632483179742e-14
16.6223726272583,1.437548359031683,1.4293286928451414,1.0450861884525378e-14
16.63038158416748,1.437548359031683,1.4293286928451419,9.61479293376334e-15
16.638370752334595,1.437548359031683,1.429328692845142,8.845609499062282e-15
16.646372318267822,1.437548359031683,1.429328692845142,8.1379607391373e-15
16.654351234436035,1.437548359031683,1.4293286928451419,7.486923880006315e-15
16.662373065948486,1.437548359031683,1.4293286928451414,6.887969969605808e-15
16.67037034034729,1.437548359031683,1.4293286928451412,6.3369323720373435e-15
16.678311347961426,1.437548359031683,1.4293286928451412,5.829977782274357e-15
16.686348915100098,1.437548359031683,1.4293286928451414,5.363579559692415e-15
16.694344758987427,1.437548359031683,1.4293286928451419,4.9344931949170265e-15
16.702420473098755,1.437548359031683,1.429328692845142,4.539733739323662e-15
16.710362195968628,1.437548359031683,1.429328692845142,4.176555040177769e-15
16.718367099761963,1.437548359031683,1.4293286928451419,3.842430636963546e-15
16.7263822555542,1.437548359031683,1.4293286928451414,3.5350361860064657e-15
16.734381675720215,1.437548359031683,1.4293286928451412,3.2522332911259457e-15
16.742349863052368,1.437548359031683,1.4293286928451412,2.9920546278358703e-15
16.750354290008545,1.437548359031683,1.4293286928451414,2.7526902576089982e-15
16.758352756500244,1.437548359031683,1.4293286928451419,2.5324750370002785e-15
16.766355276107788,1.4373529603149464,1.429328692845142,2.3298770340402573e-15
16.774398803710938,1.437548359031683,1.429328692845142,2.1434868713170343e-15
16.782397747039795,1.437548359031683,1.4293286928451419,1.972007921611672e-15
16.790391206741333,1.437548359031683,1.4293286928451414,1.8142472878827395e-15
16.79840111732483,1.437548359031683,1.4293286928451412,1.6691075048521222e-15
16.80630922317505,1.437548359031683,1.4293286928451412,1.5355789044639487e-15
16.814261198043823,1.437548359031683,1.4293286928451414,1.4127325921068332e-15
16.822263479232788,1.437548359031683,1.4293286928451419,1.2997139847382864e-15
16.830283880233765,1.437548359031683,1.429328692845142,1.1957368659592244e-15
16.838269233703613,1.437548359031683,1.429328692845142,1.1000779166824864e-15
16.846287488937378,1.4373529603149464,1.4293286928451419,1.0120716833478862e-15
16.854281425476074,1.437548359031683,1.4293286928451414,9.311059486800553e-16
16.862311124801636,1.437548359031683,1.4293286928451412,8.566174727856523e-16
16.870288848876953,1.437548359031683,1.4293286928451412,7.880880749628002e-16
16.87824296951294,1.437548359031683,1.4293286928451414,7.25041028965777e-16
16.886232137680054,1.4373529603149464,1.4293286928451419,6.670377466485142e-16
16.894246578216553,1.437548359031683,1.429328692845142,6.136747269166324e-16
16.902233362197876,1.437548359031683,1.429328692845142,5.645807487633026e-16
16.910300493240356,1.437548359031683,1.4293286928451419,5.194142888622381e-16
16.91824173927307,1.437548359031683,1.4293286928451414,4.778611457532588e-16
16.926246643066406,1.4373529603149464,1.4293286928451412,4.396322540929987e-16
16.934247255325317,1.437548359031683,1.4293286928451412,4.044616737655593e-16
16.942230939865112,1.437548359031683,1.4293286928451414,3.7210473986431455e-16
16.950265169143677,1.437548359031683,1.4293286928451419,3.423363606751689e-16
16.958293676376343,1.437548359031683,1.429328692845142,3.149494518211553e-16
16.966312408447266,1.4373529603149464,1.429328692845142,2.897534956754632e-16
16.974245071411133,1.437548359031683,1.4293286928451419,2.6657321602142615e-16
16.98231863975525,1.437548359031683,1.4293286928451414,2.4524735873971204e-16
16.990315198898315,1.437548359031683,1.4293286928451412,2.2562757004053485e-16
16.99830985069275,1.437548359031683,1.4293286928451412,2.0757736443729225e-16
17.00630760192871,1.437548359031683,1.4293286928451414,1.9097117528230853e-16
17.014306783676147,1.437548359031683,1.4293286928451419,1.7569348125972413e-16
17.02230930328369,1.437548359031683,1.429328692845142,1.6163800275894612e-16
17.030320405960083,1.437548359031683,1.429328692845142,1.4870696253823045e-16
17.03830885887146,1.437548359031683,1.4293286928451419,1.3681040553517204e-16
17.046305894851685,1.437548359031683,1.4293286928451414,1.2586557309235829e-16
17.054275274276733,1.437548359031683,1.4293286928451412,1.1579632724496958e-16
17.06224012374878,1.437548359031683,1.4293286928451412,1.0653262106537211e-16
17.070311069488525,1.437548359031683,1.4293286928451414,9.801001138014239e-17
17.078299045562744,1.437548359031683,1.4293286928451419,9.016921046973094e-17
17.086317539215088,1.437548359031683,1.429328692845142,8.295567363215252e-17
17.094318628311157,1.437548359031683,1.429328692845142,7.63192197415803e-17
17.10232639312744,1.437548359031683,1.4293286928451419,7.021368216225385e-17
17.110338926315308,1.437548359031683,1.4293286928451414,6.45965875892736e-17
17.11831831932068,1.437548359031683,1.4293286928451412,5.942886058213172e-17
17.126346588134766,1.437548359031683,1.4293286928451412,5.4674551735561245e-17
17.134354829788208,1.437548359031683,1.4293286928451414,5.0300587596716206e-17
17.142316818237305,1.437548359031683,1.4293286928451419,4.6276540588979006e-17
17.150329113006592,1.437548359031683,1.429328692845142,4.257441734186058e-17
17.158315181732178,1.437548359031683,1.429328692845142,3.9168463954511804e-17
17.16631531715393,1.437548359031683,1.4293286928451419,3.603498683815085e-17
17.17431330680847,1.437548359031683,1.4293286928451414,3.3152187891098804e-17
17.182279586791992,1.437548359031683,1.4293286928451412,3.050001285981089e-17
17.190313816070557,1.437548359031683,1.4293286928451412,2.8060011831025976e-17
17.198358297348022,1.437548359031683,1.4293286928451414,2.5815210884543908e-17
17.206316232681274,1.437548359031683,1.4293286928451419,2.3749994013780455e-17
17.214307069778442,1.437548359031683,1.429328692845142,2.184999449267797e-17
17.222243309020996,1.437548359031683,1.429328692845142,2.010199493326376e-17
17.230318784713745,1.437548359031683,1.4293286928451419,1.849383533860265e-17
17.23835849761963,1.437548359031683,1.4293286928451414,1.7014328511514435e-17
17.246321201324463,1.437548359031683,1.4293286928451412,1.565318223059328e-17
17.254332065582275,1.437548359031683,1.4293286928451412,1.4400927652145812e-17
17.2623291015625,1.437548359031683,1.4293286928451414,1.3248853439974148e-17
17.27028727531433,1.437548359031683,1.4293286928451419,1.2188945164776222e-17
17.278257131576538,1.437548359031683,1.429328692845142,1.1213829551594122e-17
17.286322116851807,1.437548359031683,1.429328692845142,1.03167231874666e-17
17.294312953948975,1.437548359031683,1.4293286928451419,9.491385332469277e-18
17.302241802215576,1.437548359031683,1.4293286928451414,8.732074505871728e-18
17.310315370559692,1.437548359031683,1.4293286928451412,8.033508545401994e-18
17.31834125518799,1.437548359031683,1.4293286928451412,7.390827861769834e-18
17.3262722492218,1.437548359031683,1.4293286928451414,6.79956163282825e-18
17.334232807159424,1.437548359031683,1.4293286928451419,6.255596702201992e-18
17.34222435951233,1.437548359031683,1.429328692845142,5.755148966025832e-18
17.35025429725647,1.437548359031683,1.429328692845142,5.2947370487437705e-18
17.358245134353638,1.437548359031683,1.4293286928451419,4.871158084844259e-18
17.36623477935791,1.437548359031683,1.4293286928451414,4.48146543805672e-18
17.374225854873657,1.437548359031683,1.4293286928451412,4.122948203012187e-18
17.38223958015442,1.437548359031683,1.4293286928451412,3.793112346771205e-18
17.39024066925049,1.437548359031683,1.4293286928451414,3.489663359029508e-18
17.39823842048645,1.437548359031683,1.4293286928451419,3.2104902903071497e-18
17.406212329864502,1.437548359031683,1.429328692845142,2.9536510670825812e-18
17.41423463821411,1.437548359031683,1.429328692845142,2.7173589817159744e-18
17.422226190567017,1.437548359031683,1.4293286928451419,2.4999702631786953e-18
17.430267572402954,1.437548359031683,1.4293286928451414,2.2999726421243962e-18
17.438249111175537,1.4373529603149464,1.4293286928451412,2.1159748307544465e-18
17.446235179901123,1.437548359031683,1.4293286928451412,1.946696844294092e-18
17.454329013824463,1.437548359031683,1.4293286928451414,1.790961096750562e-18
17.462356328964233,1.437548359031683,1.4293286928451419,1.647684209010519e-18
17.4703369140625,1.437548359031683,1.429328692845142,1.5158694722896792e-18
17.478245496749878,1.437548359031683,1.429328692845142,1.394599914506503e-18
