t_s,q_rad,q_des_rad,K,B,Kff,jerk,tau_Nm,reward
0.00542902946472168,0.0,0.005528900772333145,9.825212432529046,0.9781515540661307,1.9737818648793566,0.0,9.9,1.4939049021834307
0.06371188163757324,0.0,0.0187310092151165,9.650424865058092,0.9563031081322615,1.9475637297587132,0.0,9.999,1.4322351947568548
0.12874865531921387,0.0,0.0396849550306797,9.475637297587138,0.9344546621983922,1.92134559463807,0.0,9.99999,1.2298041042771106
0.191497802734375,0.0,0.06821592152118683,9.300849730116184,0.9126062162645229,1.8951274595174268,0.0,9.9999999,0.894284562787524
0.2552454471588135,0.0,0.10663746297359467,9.12606216264523,0.8907577703306536,1.8689093243967834,0.0,9.999999999,0.6028678934445907
0.3205864429473877,0.0,0.16365188360214233,8.951274595174274,0.8689093243967844,1.84269118927614,0.0,9.99999999999,0.5047179174201101
0.3838381767272949,0.0,0.23413556814193726,8.77648702770332,0.847060878462915,1.8164730541554968,0.0,9.9999999999999,0.5000173157709897
0.44769906997680664,0.0,0.32790523767471313,8.601699460232366,0.8252124325290457,1.7902549190348536,0.0,10.0,0.5000000004579006
0.5113656520843506,0.0,0.43076735734939575,8.426911892761412,0.8033639865951765,1.7640367839142101,0.0,10.0,0.5000000000000001
0.5758476257324219,0.0,0.5705063343048096,8.252124325290458,0.7815155406613071,1.7378186487935667,0.0,10.0,0.5
0.6395649909973145,0.0,0.7031257748603821,8.077336757819502,0.7596670947274378,1.7116005136729235,0.0,5.05,0.5
0.704042911529541,0.003907974334733405,0.8571332097053528,7.902549190348549,0.7378186487935685,1.6853823785522803,5.0,5.000500000000001,0.4817320621239355
0.7690105438232422,0.029700604943973877,1.023452639579773,7.727761622877595,0.7159702028596993,1.659164243431637,5.0,5.000005,0.4817320621239355
0.8311202526092529,0.05471164068626767,1.1939975023269653,7.55297405540664,0.6941217569258299,1.6329461083109935,5.0,5.000000050000001,0.4817320621239355
0.8960013389587402,0.0806996700122448,1.4154020547866821,7.378186487935686,0.6722733109919605,1.6067279731903503,5.0,5.0000000005,0.4817320621239355
0.960066556930542,0.1070784967716953,1.6193262338638306,7.203398920464732,0.6504248650580913,1.5805098380697071,5.0,5.0000000000050004,0.4817320621239355
1.0231127738952637,0.13208953251398908,1.8075557947158813,7.028611352993777,0.6285764191242219,1.5542917029490637,4.698935762897058,5.00000000000005,0.4838308561650602
1.088029384613037,0.1586637579901762,2.010892391204834,6.853823785522822,0.6067279731903527,1.5280735678284203,1.5582379568658586,5.000000000000001,0.49819578001125253
1.151676893234253,0.18367479373247003,2.1838977336883545,6.679036218051868,0.5848795272564833,1.501855432707777,-1.6427497710179768,5.0,0.49799517088078205
1.2156264781951904,0.20985822177518385,2.2543556690216064,6.504248650580913,0.563031081322614,1.475637297587134,-3.959211828509571,5.0,0.48846636148093087
1.279336929321289,0.23545545366768764,2.2986557483673096,6.329461083109958,0.5411826353887447,1.4494191624664907,-5.0,5.0,0.4817320621239355
1.3431098461151123,0.26183428042713813,2.3249599933624268,6.154673515639004,0.5193341894548753,1.4232010273458477,-5.0,-4.9,0.4817320621239355
1.407343864440918,0.28215574696775186,2.339280843734741,5.97988594816805,0.5,1.3969828922252046,-5.0,-4.9990000000000006,0.4817320621239355
1.4722070693969727,0.257144711225458,2.348177909851074,5.805098380697095,0.5,1.3707647571045614,-5.0,-4.99999,0.4817320621239355
1.5365138053894043,0.2305704857492709,2.355426549911499,5.63031081322614,0.5,1.3445466219839184,-5.0,-4.999999900000001,0.4817320621239355
1.5991096496582031,0.20575484872371377,2.359841823577881,5.455523245755186,0.5,1.3183284868632752,-5.0,-4.999999999,0.4817320621239355
1.663170576095581,0.17957142068099996,2.363311767578125,5.280735678284231,0.5,1.292110351742632,-5.0,-4.99999999999,0.4817320621239355
1.7271745204925537,0.15397418878849614,2.3657236099243164,5.105948110813277,0.5,1.2658922166219888,-5.0,-4.9999999999999005,0.4817320621239355
1.7926199436187744,0.12720456459557233,2.367767810821533,5.0,0.5,1.2396740815013456,-5.0,-4.999999999999999,0.4817320621239355
1.8551464080810547,0.10219352885327855,2.3690664768218994,5.0,0.5,1.2134559463807026,-1.276572068019819,-5.0,0.4987883683381828
1.9193394184112549,0.07561930337709137,2.3701422214508057,5.0,0.5,1.1872378112600595,2.7434900658357364,-5.0,0.4944283680558634
1.9831442832946777,0.050217470201324256,2.37091064453125,5.0,0.5,1.1610196761394163,5.0,-5.0,0.4817320621239355
2.0494887828826904,0.02305704857492709,2.3715195655822754,5.0,0.5,1.1348015410187733,5.0,-5.0,0.4817320621239355
2.1111526489257812,-0.0017585884506300322,2.3720815181732178,5.0,0.5,1.10858340589813,5.0,-5.0,0.4817320621239355
2.175065755844116,-0.027355820343133833,2.3724939823150635,5.0,0.5,1.082365270777487,5.0,-5.0,0.4817320621239355
2.2401254177093506,-0.04533250228290749,2.3728244304656982,5.0,0.5,1.0561471356568437,5.0,-5.0,0.4817320621239355
2.3030455112457275,-0.05549323555321435,2.3730900287628174,5.0,0.5,1.0299290005362005,5.0,-5.0,0.4817320621239355
2.3670578002929688,-0.05959660860468442,2.3733041286468506,5.0,0.5,1.0037108654155575,5.0,-5.0,0.4817320621239355
2.432049036026001,-0.06018280475489443,2.3734729290008545,5.0,0.5,0.9774927302949143,5.0,-5.0,0.4817320621239355
2.495854139328003,-0.06018280475489443,2.3767073154449463,5.0,0.5,0.9512745951742712,5.0,-5.0,0.4817320621239355
2.560368299484253,-0.06018280475489443,2.3668057918548584,5.0,0.5,0.9250564600536281,5.0,-5.0,0.4817320621239355
2.623159170150757,-0.06018280475489443,2.3239338397979736,5.0,0.5,0.898838324932985,5.0,-5.0,0.4817320621239355
2.6885581016540527,-0.06018280475489443,2.2192296981811523,5.0,0.5,0.8726201898123418,5.0,-5.0,0.4817320621239355
2.7510740756988525,-0.06018280475489443,2.0274226665496826,5.0,0.5,0.8464020546916986,3.7382290667427576,-5.0,0.48970494735674913
2.816108226776123,-0.06018280475489443,1.8242605924606323,5.0,0.5,0.8201839195710555,1.9397896619259325,-5.0,0.49720681270924755
2.8791260719299316,-0.06018280475489443,1.619620680809021,5.0,0.5,0.7939657844504124,0.2869690202390218,-5.0,0.4999387014668251
2.9431450366973877,-0.06018280475489443,1.4306923151016235,5.0,0.5,0.7677476493297692,-1.0083700860424387,-5.0,0.49924365855256075
3.0071046352386475,-0.06018280475489443,1.226285457611084,5.0,0.5,0.741529514209126,-1.9303852666973356,-5.0,0.49723375577283546
3.0727744102478027,-0.06018280475489443,1.0412646532058716,5.0,0.5,0.715311379088483,-2.5338426357756925,-5.0,0.4952434509869867
3.135571241378784,-0.06018280475489443,0.9492027163505554,5.0,0.5,0.6890932439678399,-2.889661377772205,-5.0,0.4938226263824057
3.199942111968994,-0.06018280475489443,0.9840202331542969,5.0,0.5,0.6628751088471967,-3.063458984335767,-5.0,0.4930625422497764
3.2632055282592773,-0.06018280475489443,1.1354047060012817,5.0,0.5,0.6366569737265535,-3.108862732230803,4.9,0.4928568640122214
3.328145742416382,-0.056665627853634375,1.3615511655807495,5.0,0.5,0.6104388386059104,2.729814960504558,4.9990000000000006,0.49448346716556585
3.3911073207855225,-0.03165459211134058,1.5654844045639038,5.0,0.5,0.5842207034852673,5.0,4.99999,0.4817320621239355
3.4551994800567627,-0.005666562785363437,1.7694212198257446,5.0,0.5,0.5580025683646241,5.0,4.999999900000001,0.4817320621239355
3.519744396209717,0.020126067823877037,1.9571805000305176,5.0,0.5,0.531784433243981,5.0,4.999999999,0.4817320621239355
3.583052635192871,0.04611409714985418,2.136122465133667,5.0,0.5,0.5055662981233379,5.0,4.99999999999,0.4817320621239355
3.6471340656280518,0.07132053160888463,2.2476699352264404,5.0,0.5,0.4793481630026947,3.7047759224714016,4.9999999999999005,0.48988651435557967
3.7114593982696533,0.09750395965159846,2.294546127319336,5.0,0.5,0.4531300278820516,0.37267546090612336,4.999999999999999,0.49989662313206373
3.7758424282073975,0.12349198897757559,2.3197007179260254,5.0,0.5,0.42691189276140845,-3.262710573831091,5.0,0.4921381126087354
3.8391778469085693,0.14928461958681605,2.3335120677948,5.0,0.5,0.4006937576407653,-5.0,5.0,0.4817320621239355
3.9040346145629883,0.1754680476295299,2.3427846431732178,5.0,0.5,0.3744756225201221,-5.0,-4.9,0.4817320621239355
3.967090129852295,0.19637571032035359,2.35038161277771,5.0,0.5,0.3482574873994789,-5.0,-4.9990000000000006,0.4817320621239355
4.031725645065308,0.17116927586132313,2.35518479347229,5.0,0.5,0.3220393522788358,-5.0,-4.99999,0.4817320621239355
4.095134973526001,0.14518124653534598,2.359488010406494,5.0,0.5,0.2958212171581926,-5.0,-4.999999900000001,0.4817320621239355
4.15985107421875,0.11938861592610552,2.362333059310913,5.0,0.5,0.2696030820375494,-5.0,-4.999999999,0.4817320621239355
4.223105430603027,0.09359598531686505,2.3649673461914062,5.0,0.5,0.24338494691690624,-5.0,-4.99999999999,0.4817320621239355
4.287856340408325,0.06741255727415124,2.3670623302459717,5.0,0.5,0.21716681179626307,-5.0,-4.9999999999999005,0.4817320621239355
4.351830005645752,0.04161992666491077,2.36881422996521,5.0,0.5,0.19094867667561988,-5.0,-4.999999999999999,0.4817320621239355
4.41556978225708,0.01582729605567029,2.3702967166900635,5.0,0.5,0.16473054155497668,-2.0794792025421094,-5.0,0.49679137760490455
4.480929851531982,-0.010160733270306851,2.3715736865997314,5.0,0.5,0.13851240643433352,2.205547762097211,-5.0,0.496391988292494
4.543876886367798,-0.027746617776607176,2.3726887702941895,5.0,0.5,0.11229427131369034,5.0,-5.390765511919501,0.4817320621239355
4.607045650482178,-0.03693035746323068,2.3736042976379395,5.0,0.5,0.08607613619304716,5.0,1.4774026749606926,0.4817320621239355
4.671034097671509,-0.039470540780807396,2.3744919300079346,5.0,0.5,0.05985800107240398,5.0,6.336142798810711,0.4817320621239355
4.735776662826538,-0.017195087072826982,2.3752939701080322,5.0,0.5,0.0336398659517608,5.0,9.490823840306183,0.4817320621239355
4.7991111278533936,0.008011347386203481,2.375967502593994,5.0,0.5,0.0074217308311176206,5.0,9.994908238403061,0.4817320621239355
4.863084316253662,0.033803977995443955,2.3766367435455322,5.0,0.5,0.0,5.0,9.999949082384031,0.4817320621239355
4.927835464477539,0.06018280475489443,2.3772594928741455,5.0,0.5,0.0,5.0,9.999999490823841,0.4817320621239355
4.992020606994629,0.08636623279760824,2.3778364658355713,5.0,0.5,0.0,5.0,9.999999994908238,0.4817320621239355
5.055090427398682,0.11196346469011205,2.378340244293213,5.0,0.5,0.0,4.437416776450041,9.999999999949083,0.4855550217792506
5.119167804718018,0.13756069658261585,2.378891706466675,5.0,0.5,0.0,0.8745767700648268,9.999999999999492,0.4994309436217746
5.183255672454834,0.16374412462532967,2.3793394565582275,5.0,0.5,0.0,-2.711862880742272,9.999999999999995,0.49455539013761346
5.247093915939331,0.18934135651783346,2.379765272140503,5.0,0.5,0.0,-5.0,10.0,0.4817320621239355
5.311140537261963,0.2155247845605473,2.3802096843719482,5.0,0.5,0.0,-5.0,10.0,0.4817320621239355
5.375385999679565,0.24131741516978775,2.3806612491607666,5.0,0.5,0.0,-5.0,5.05,0.4817320621239355
5.44011664390564,0.2678916406459749,2.381033182144165,5.0,0.5,0.0,-5.0,5.000500000000001,0.4817320621239355
5.503014326095581,0.2929026763882687,2.3814213275909424,5.0,0.5,0.0,-5.0,5.000005,0.4817320621239355
5.567271947860718,0.3198676992979292,2.381765842437744,5.0,0.5,0.0,-5.0,5.000000050000001,0.4817320621239355
5.632031679153442,0.34526953247369635,2.382124662399292,5.0,0.5,0.0,-5.0,5.0000000005,0.4817320621239355
5.695862770080566,0.37106216308293677,2.3824970722198486,5.0,0.5,0.0,-5.0,5.0000000000050004,0.4817320621239355
5.7594850063323975,0.39665939497544056,2.3828303813934326,5.0,0.5,0.0,-5.0,5.00000000000005,0.4817320621239355
5.823001384735107,0.42225662686794435,2.3831284046173096,5.0,0.5,0.0,-5.0,5.000000000000001,0.4817320621239355
5.887194395065308,0.4484400549106582,2.383418560028076,5.0,0.5,0.0,-5.0,5.0,0.4817320621239355
5.951431751251221,0.47423268551989867,2.3837437629699707,5.0,0.5,0.0,-5.0,5.0,0.4817320621239355
6.015070915222168,0.4998299174124025,2.384016752243042,5.0,0.5,0.0,-5.0,5.0,0.4817320621239355
6.0790183544158936,0.5254271493049063,2.384302854537964,5.0,0.5,0.0,-5.0,5.0,0.4817320621239355
6.14298677444458,0.5516105773476201,2.384580135345459,5.0,0.5,0.0,-5.0,5.0,0.4817320621239355
6.207359552383423,0.5774032079568606,2.384849786758423,5.0,0.5,0.0,-5.0,5.0,0.4817320621239355
6.271662473678589,0.6035866359995743,2.38509202003479,5.0,0.5,0.0,-4.862482338807242,5.0,0.4827057628162218
6.335102796554565,0.6291838678920781,2.3853490352630615,5.0,0.5,0.0,-4.570397980113912,5.0,0.4846898593996998
6.3989949226379395,0.6549764985013187,2.385589838027954,5.0,0.5,0.0,-3.95315603753719,5.0,0.4885012083825766
6.46302342414856,0.6809645278272958,2.385807991027832,5.0,0.5,0.0,-3.5770898092677905,5.0,0.49056512257551205
6.529296159744263,0.7077341520202196,2.3860104084014893,5.0,0.5,0.0,-3.3072096666652753,5.0,0.49192395159537416
6.591824769973755,0.7327451877625135,2.3861539363861084,5.0,0.5,0.0,-3.0831121547420137,5.0,0.4929738746073448
6.655298948287964,0.7587332170884905,2.3862931728363037,5.0,0.5,0.0,-2.60329947162733,5.0,0.49498043833567096
6.718968629837036,0.7837442528307843,2.3864033222198486,5.0,0.5,0.0,-2.6531480388786557,5.0,0.494787381576352
6.783029556274414,0.8095368834400247,2.3865084648132324,5.0,0.5,0.0,-2.2801618051461663,5.0,0.4961446992006232
6.847043752670288,0.835524912766002,2.3865959644317627,5.0,0.5,0.0,-2.0905665679229566,5.0,0.4967571824201088
6.91133451461792,0.8617083408087157,2.386669635772705,5.0,0.5,0.0,-2.246997887511732,5.0,0.49625561290433523
6.975111961364746,0.8876963701346929,2.3867292404174805,5.0,0.5,0.0,-2.182125473343352,5.0,0.496467943624525
7.038923740386963,0.9136843994606699,2.3867883682250977,5.0,0.5,0.0,-2.0321335099169504,5.0,0.4969353788775429
7.102938175201416,0.9392816313531739,2.386840343475342,5.0,0.5,0.0,-2.410922641918881,5.0,0.4956918040451445
7.167014837265015,0.9654650593958877,2.386878728866577,5.0,0.5,0.0,-2.0309632008292446,5.0,0.4969388968777639
7.231821060180664,0.9916484874386016,2.3869125843048096,5.0,0.5,0.0,-1.7305458142799977,6.924716978358815,0.4977756401102409
7.2949793338775635,1.017441118047842,2.386936902999878,5.0,0.5,0.0,-1.4920537229656894,6.81549878530493,0.49834554072438286
7.358925819396973,1.0430383499403457,2.387934684753418,5.0,0.5,0.0,-1.3009104293911862,6.720920570124389,0.4987417861626107
7.42331075668335,1.0694171766997962,2.3839361667633057,5.0,0.5,0.0,-0.869681389636691,6.443195956913764,0.4994372927206255
7.488117456436157,1.0952098073090366,2.362643003463745,5.0,0.5,0.0,-0.7086804401685889,6.11713728771471,0.4996262809698215
7.551077604293823,1.1208070392015406,2.2889914512634277,5.0,0.5,0.0,-0.6567789508896176,5.029300516071605,0.4996789995209242
7.616058588027954,1.1471858659609908,2.1445071697235107,5.0,0.5,0.0,-0.641987423343946,3.1262259795127605,0.4996932910284251
7.681318044662476,1.1737600914371782,1.9216872453689575,5.0,0.5,0.0,-0.3582134849512006,0.4421853315101697,0.4999044899539967
7.742952585220337,1.1985757284627352,1.7330259084701538,5.0,0.5,0.0,-0.3134840564195851,-1.3383602123504863,0.49992685143326554
7.806943893432617,1.2233913654882922,1.5283228158950806,5.0,0.5,0.0,-3.1108473395940286,-3.122679771070371,0.49284781510968845
7.870987176895142,1.2155754168188255,1.3238328695297241,5.0,0.5,0.0,-5.0,-4.54694497682326,0.5776813754158832
7.934987306594849,1.1893919887761117,1.1350914239883423,5.0,0.5,0.0,-5.0,-5.525765524876396,1.0362199768935154
7.998992204666138,1.1641855543170812,0.9307653307914734,5.0,0.5,0.0,-5.0,-6.674289481701883,0.4817505758129986
8.063100576400757,1.137806727557631,0.7265034317970276,5.0,0.5,0.0,-5.0,-7.742985432506915,0.4817320621239375
8.126915216445923,1.1122094956651272,0.5220207571983337,5.0,0.5,0.0,-5.0,-8.765203129417085,0.4817320621239355
8.191126108169556,1.0860260676224132,0.3234540522098541,5.0,0.5,0.0,-3.885240873508309,-9.664486411329584,0.4888885270520357
8.25632619857788,1.0596472408629627,0.21049080789089203,5.0,0.5,0.0,1.0058697243178383,-9.364470963609724,0.49924740194081885
8.318958282470703,1.033463812820249,0.15815861523151398,5.0,0.5,0.0,5.0,-8.434409204608887,0.4817320621239355
8.383338212966919,1.0078665809277452,0.13090041279792786,5.0,0.5,0.0,5.0,-7.47043798747179,0.4817320621239355
8.448024272918701,0.981292355451558,0.11317683756351471,5.0,0.5,0.0,5.0,-6.658012176747382,0.4817320621239355
8.511067152023315,0.9560859209925274,0.10397595912218094,5.0,0.5,0.0,5.0,-5.9634418375749165,0.4817320621239355
8.575641632080078,0.929707094233077,0.09739290177822113,5.0,0.5,0.0,5.0,-5.410129992228624,0.4817320621239355
8.639513969421387,0.9041098623405732,0.09258066117763519,5.0,0.5,0.0,5.0,-4.972069585240209,0.4817320621239355
8.70326566696167,0.878121833014596,0.08942461758852005,5.0,0.5,0.0,5.0,-4.609122306512428,0.4817320621239355
8.767690658569336,0.8519384049718822,0.08726847171783447,5.0,0.5,0.0,5.0,-4.305730785344849,0.4817320621239355
8.830946683883667,0.8259503756459051,0.0855322778224945,5.0,0.5,0.0,5.0,-4.052342465652065,0.4817320621239355
8.894930839538574,0.799962346319928,0.056497156620025635,5.0,0.5,0.0,5.0,-4.216916083251175,0.4817320621239355
8.959900379180908,0.7733881208437408,0.052867304533720016,5.0,0.5,0.0,5.0,-3.9850038143789077,0.4817320621239355
9.022928476333618,0.7481816863847104,0.07062141597270966,5.0,0.5,0.0,5.0,-3.6406661581620963,0.4817320621239355
9.08690094947815,0.7221936570587333,0.11153021454811096,5.0,0.5,0.0,5.0,-2.7625423346388676,0.4817320621239355
9.15091586112976,0.6965964251662294,0.16867974400520325,5.0,0.5,0.0,5.0,-1.9205938286833155,0.4817320621239355
9.214945554733276,0.6706083958402522,0.24895024299621582,5.0,0.5,0.0,5.0,-0.8836351243129015,0.4817320621239358
9.278993129730225,0.6446203665142752,0.3513229787349701,5.0,0.5,0.0,5.0,0.3107962957937637,0.4817320958609066
9.34289026260376,0.6196093307719813,0.48275724053382874,5.0,0.5,0.0,5.0,1.7399920850928923,0.505351177517237
9.4083890914917,0.6063222180338877,0.6469367742538452,5.0,0.5,0.0,5.0,3.3718874825203615,1.200721626541832
9.470972061157227,0.6274252794414481,0.8261631727218628,5.0,0.5,0.0,5.0,4.816101259499014,0.4821030467092982
9.534912347793579,0.6528271126172153,1.0321365594863892,5.0,0.5,0.0,5.0,6.414377873702662,0.481732062124254
9.598903179168701,0.6786197432264557,1.2362254858016968,5.0,0.5,0.0,5.0,7.780233987061054,0.4817320621239355
9.664822340011597,0.7055847661361163,1.4558464288711548,5.0,0.5,0.0,5.0,9.213620953351278,0.4817320621239355
9.726919174194336,0.7302050044449367,1.6440802812576294,5.0,0.5,0.0,5.0,9.992136209533513,0.4817320621239355
9.791580200195312,0.7567792299211239,1.8479288816452026,5.0,0.5,0.0,4.132644335015865,9.999921362095336,0.4874468400358744
9.855210304260254,0.7819856643801543,2.0512330532073975,5.0,0.5,0.0,-0.13987416205020864,9.999999213620955,0.4999854361785511
9.920145988464355,0.8079736937061315,2.1977052688598633,5.0,0.5,0.0,-4.695398086659495,9.99999999213621,0.4838547962149677
9.983313083648682,0.8335709255986353,2.2692179679870605,5.0,0.5,0.0,-5.0,9.999999999921362,0.4817320621239355
10.047133684158325,0.859754353641349,2.3064661026000977,5.0,0.5,0.0,-5.0,9.999999999999215,0.4817320621239355
10.111137628555298,0.8855469842505895,2.3245511054992676,5.0,0.5,0.0,-5.0,9.749931686465823,0.4817320621239355
10.175234079360962,0.91192581101004,2.3389925956726074,5.0,0.5,0.0,-5.0,9.055578549364325,0.4817320621239355
10.239011526107788,0.9373276441858072,2.347301959991455,5.0,0.5,0.0,-5.0,5.040555785493644,0.4817320621239355
10.3039391040802,0.9639018696619943,2.354241132736206,5.0,0.5,0.0,-5.0,5.000405557854936,0.4817320621239355
10.367930173873901,0.9896945002712347,2.358642339706421,5.0,0.5,0.0,-5.0,5.000004055578549,0.4817320621239355
10.430856943130493,1.0150963334470018,2.3622500896453857,5.0,0.5,0.0,-5.0,5.000000040555785,0.4817320621239355
10.494884729385376,1.041084362772979,2.3651950359344482,5.0,0.5,0.0,-5.0,5.000000000405558,0.4817320621239355
10.559922218322754,1.067853986965903,2.3674800395965576,5.0,0.5,0.0,-5.0,6.791300598450513,0.4817320621239355
10.623012065887451,1.0928650227081966,2.369215250015259,5.0,0.5,0.0,-5.0,6.6136234448703535,0.4817320621239355
10.68687105178833,1.1188530520341737,2.370788812637329,5.0,0.5,0.0,-5.0,6.433673917638553,0.4817320621239355
10.751189708709717,1.1452318787936242,2.372215986251831,5.0,0.5,0.0,-5.0,6.388278956114284,0.4817320621239355
10.81482982635498,1.1710245094028648,2.373349905014038,5.0,0.5,0.0,-5.0,6.2575432292644875,0.4817320621239355
10.879401445388794,1.1970125387288422,2.374342203140259,5.0,0.5,0.0,-5.0,6.096871996738183,0.4817320621239355
10.94386100769043,1.223000568054819,2.3751583099365234,5.0,0.5,0.0,-5.0,5.930218743918703,0.4817320621239355
11.00804352760315,1.2489885973807964,2.3759522438049316,5.0,0.5,0.0,-5.0,5.769683623697686,0.4817320621239355
11.070970058441162,1.2741950318398267,2.3766684532165527,5.0,0.5,0.0,-5.0,5.618888218012029,0.4817320621239355
11.134901762008667,1.3001830611658038,2.377274751663208,5.0,0.5,0.0,-5.0,5.468129481528218,0.4817320621239355
11.19990086555481,1.3261710904917812,2.3779289722442627,5.0,0.5,0.0,-5.0,5.325674035587495,0.4817320621239355
11.262936353683472,1.3519637211010214,2.378448963165283,5.0,0.5,0.0,-4.695249508035962,5.184066098886942,0.48385580130287087
11.32686471939087,1.3779517504269985,2.3789353370666504,5.0,0.5,0.0,-4.646776295331941,5.044904626184329,0.4841821199536289
11.390830278396606,1.4039397797529758,2.3794515132904053,5.0,0.5,0.0,-4.358234601740705,4.910153434921164,0.48605874936033905
11.455309867858887,1.4299278090789527,2.3798458576202393,5.0,0.5,0.0,-3.994914963865214,4.77342083930609,0.48825988129083686
11.51880693435669,1.45532964225472,2.380234718322754,5.0,0.5,0.0,-3.3525702198815144,4.641817417460956,0.4917027566499356
11.583683252334595,1.4815130702974335,2.380526304244995,5.0,0.5,0.0,-2.97823241012798,4.504983849272628,0.49344067015405757
11.646926879882812,1.5073057009066742,2.3807311058044434,5.0,0.5,0.0,-2.725578228128187,4.369239792545813,0.4945004829904591
11.71284008026123,1.534075325099598,2.3809516429901123,5.0,0.5,0.0,-2.2513651704287643,4.231383337567992,0.4962410984209518
11.77488088607788,1.5592817595586286,2.3811228275299072,5.0,0.5,0.0,-2.044932613350525,4.101086715355281,0.49689677356952744
11.840590238571167,1.5854651876013421,2.3813064098358154,5.0,0.5,0.0,-1.9394083719570407,3.9679702913511186,0.4972079076019237
11.902835607528687,1.6104762233436363,2.381455183029175,5.0,0.5,0.0,-1.8631533136152385,3.8403638497132992,0.49742259836985914
11.966820478439331,1.63607345523614,2.3816077709198,5.0,0.5,0.0,-1.7884535535376949,3.7110084714567506,0.497624645921783
12.030799388885498,1.662061484562117,2.3817367553710938,5.0,0.5,0.0,-1.9830244709522094,3.579665267477091,0.4970812819404486
12.095583438873291,1.6884403113215678,2.3818705081939697,5.0,0.5,0.0,-1.9274974188803093,3.447119673840332,0.4972420033084001
12.158786058425903,1.7142329419308078,2.3845949172973633,5.0,0.5,0.0,-1.7788589915007997,3.406704658590827,0.4976500039764737
12.222926616668701,1.740220971256785,2.360445737838745,5.0,0.5,0.0,-1.8831720542550356,2.8971895363602584,0.497367061655394
12.287078857421875,1.7664043992994989,2.262085199356079,5.0,0.5,0.0,-1.7504795905793247,1.4579597595771099,0.4977242186209472
12.351452350616455,1.7925878273422127,2.0972301959991455,5.0,0.5,0.0,-1.5456771604046278,-0.6668926346919448,0.4982247072367066
12.415665626525879,1.8175988630845066,1.8769830465316772,5.0,0.5,0.0,-2.994249814897619,-3.2108332944968714,0.9873326141771522
12.47950530052185,1.820725242552293,1.6882234811782837,5.0,0.5,0.0,-5.0,-4.817144906287028,0.511588841401806
12.5439612865448,1.7951280106597896,1.4835013151168823,5.0,0.5,0.0,-5.0,-6.29886785857031,0.4817320657970001
12.60690450668335,1.7697261774840223,1.2948049306869507,5.0,0.5,0.0,-5.0,-7.3856719312614425,0.4817320621239355
12.672064542770386,1.742565755857625,1.074610948562622,5.0,0.5,0.0,-5.0,-8.818148220101556,0.4817320621239355
12.734803438186646,1.7175547201153312,0.8860623836517334,5.0,0.5,0.0,-5.0,-9.686754140369908,0.4817320621239355
12.800198554992676,1.6907850959224076,0.6817408800125122,5.0,0.5,0.0,-5.0,-9.996867541403699,0.4817320621239355
12.862869024276733,1.6655786614633772,0.49297672510147095,5.0,0.5,0.0,-0.9607103260800143,-9.999968675414037,0.49931341668906765
12.927730083465576,1.63900443598719,0.29056596755981445,5.0,0.5,0.0,3.9870046879945176,-9.99999968675414,0.4883057807011574
12.991079330444336,1.6132118053779496,0.194648876786232,5.0,0.5,0.0,5.0,-9.999999996867542,0.4817320621239355
13.055126190185547,1.5872237760519723,0.15284401178359985,5.0,0.5,0.0,5.0,-9.999999999968676,0.4817320621239355
13.119658470153809,1.5614311454427319,0.12500110268592834,5.0,0.5,0.0,5.0,-9.999999999999687,0.4817320621239355
13.182928085327148,1.535833913550228,0.11057843267917633,5.0,0.5,0.0,5.0,-9.303659178666074,0.4817320621239355
13.247739315032959,1.5094550867907774,0.10150426626205444,5.0,0.5,0.0,5.0,-5.043036591786661,0.4817320621239355
13.311883687973022,1.4832716587480639,0.09539451450109482,5.0,0.5,0.0,5.0,-5.000430365917866,0.4817320621239355
13.374768495559692,1.4578698255722966,0.09138981252908707,5.0,0.5,0.0,5.0,-5.000004303659179,0.4817320621239355
13.438735485076904,1.4320771949630564,0.08822090923786163,5.0,0.5,0.0,5.0,-5.000000043036592,0.4817320621239355
13.502844095230103,1.406089165637079,0.08588851988315582,5.0,0.5,0.0,5.0,-5.000000000430366,0.4817320621239355
13.566829204559326,1.3801011363111018,0.08412417769432068,5.0,0.5,0.0,5.0,-6.790933603660817,0.4817320621239355
13.631595611572266,1.3537223095516515,0.08276072144508362,5.0,0.5,0.0,5.0,-6.596030298285053,0.4817320621239355
13.696989297866821,1.3269526853587275,0.08176484704017639,5.0,0.5,0.0,5.0,-6.4009348794089584,0.4817320621239355
13.758973360061646,1.3019416496164338,0.0809047669172287,5.0,0.5,0.0,5.0,-6.3605603825541435,0.4817320621239355
13.822842597961426,1.2759536202904564,0.08022402226924896,5.0,0.5,0.0,5.0,-6.216524720399483,0.4817320621239355
13.88753342628479,1.2499655909644793,0.0796842873096466,5.0,0.5,0.0,5.0,-6.042915344916619,0.4817320621239355
13.952687501907349,1.2233913654882922,0.07926007360219955,5.0,0.5,0.0,5.0,-5.864426322387738,0.4817320621239355
14.014708042144775,1.1981849310292618,0.07893821597099304,5.0,0.5,0.0,5.0,-5.698692258194778,0.4817320621239355
14.079145193099976,1.1721969017032847,0.07865877449512482,5.0,0.5,0.0,5.0,-5.5378899981591605,0.4817320621239355
14.143015384674072,1.1458180749438343,0.07843448221683502,5.0,0.5,0.0,5.0,-5.382147840301931,0.4817320621239355
14.208955764770508,1.1188530520341737,0.07825866341590881,5.0,0.5,0.0,5.0,-5.228990469679552,0.4817320621239355
14.270806074142456,1.0936466175751434,0.07811865210533142,5.0,0.5,0.0,5.0,-5.089045361934009,0.4817320621239355
14.3348388671875,1.0680493856826394,0.07801897823810577,5.0,0.5,0.0,5.0,-4.950268205915341,0.4817320621239355
14.398823976516724,1.0416705589231892,0.07791194319725037,5.0,0.5,0.0,5.0,-4.811175674697743,0.4817320621239355
14.463016510009766,1.0160733270306852,0.07782232761383057,5.0,0.5,0.0,4.7580206180410345,-4.67761576068464,0.483428531031105
14.527270555496216,0.9896945002712347,0.07774713635444641,5.0,0.5,0.0,4.400732834462049,-4.541501298485286,0.48578945399291046
14.591150999069214,0.9637064709452576,0.0776897668838501,5.0,0.5,0.0,4.29742999010651,-4.408186829266395,0.48643975599094347
14.654685735702515,0.9377184416192806,0.07677344977855682,5.0,0.5,0.0,3.9679303170485842,-4.30570401067537,0.48841610329186547
14.718862533569336,0.91192581101004,0.0781792551279068,5.0,0.5,0.0,3.580585039224887,-4.1171640350847625,0.49054685112730945
14.783174991607666,0.8855469842505895,0.08314131200313568,5.0,0.5,0.0,3.2052420589823214,-3.826837443025529,0.4924105336497865
14.847784280776978,0.8593635562078759,0.09186646342277527,5.0,0.5,0.0,2.5905777204207032,-3.5367022492186293,0.4950291333662799
14.910781383514404,0.8333755268818985,0.10673439502716064,5.0,0.5,0.0,1.9845511961618754,-3.4107805430015055,0.49707679915227687
14.974769592285156,0.8077782949893948,0.14087271690368652,5.0,0.5,0.0,1.748674833042426,-2.872675957565023,0.49772889822878086
15.038747310638428,0.7817902656634177,0.18390843272209167,5.0,0.5,0.0,1.6558192328060866,-2.277549788763985,0.4979632090872076
15.103779792785645,0.7559976350541772,0.26517254114151,5.0,0.5,0.0,1.6067890514694056,-1.2274015114679466,0.4980818171133524
15.16668438911438,0.7302050044449367,0.35081055760383606,5.0,0.5,0.0,1.5619049208546545,-0.2663620597352313,0.49818729379436194
15.230788230895996,0.7044123738356962,0.46531298756599426,5.0,0.5,0.0,1.5081409443389957,0.9741594126138131,0.4983205570029162
15.296005010604858,0.6790105406599292,0.6000566482543945,5.0,0.5,0.0,3.6519419990785424,2.3348075686434204,0.7776094228104917
15.358821868896484,0.6807691291105592,0.742246150970459,5.0,0.5,0.0,5.0,3.493400715002927,0.9513269750290368
15.42314076423645,0.7067571584365363,0.9209634065628052,5.0,0.5,0.0,5.0,4.897265414531828,0.48183546649253545
15.48674201965332,0.7321589916123035,1.1090914011001587,5.0,0.5,0.0,5.0,6.247296204667665,0.4817320621243918
15.551701068878174,0.7587332170884905,1.3287694454193115,5.0,0.5,0.0,5.0,7.8699459249073005,0.4817320621239355
15.614925384521484,0.7837442528307843,1.5327073335647583,5.0,0.5,0.0,5.0,9.089358403336774,0.4817320621239355
15.67868161201477,0.8095368834400247,1.7209433317184448,5.0,0.5,0.0,5.0,9.988213499418155,0.4817320621239355
15.742743253707886,0.8353295140492653,1.9245237112045288,5.0,0.5,0.0,0.4559714890343214,9.999882134994182,0.49984525563685234
15.806800127029419,0.861512942091979,2.122271776199341,5.0,0.5,0.0,-5.0,9.999998821349942,0.4817320621239355
15.871440172195435,0.8876963701346929,2.235917329788208,5.0,0.5,0.0,-5.0,9.9999999882135,0.4817320621239355
15.935178279876709,0.9138797981774068,2.2812819480895996,5.0,0.5,0.0,-5.0,9.999999999882135,0.4817320621239355
15.999146223068237,0.9394770300699106,2.308027505874634,5.0,0.5,0.0,-5.0,9.82739248348133,0.4817320621239355
16.064757108688354,0.966442052979571,2.324486017227173,5.0,0.5,0.0,-5.0,9.031034175157039,0.4817320621239355
16.128854751586914,0.9922346835888115,2.333594560623169,5.0,0.5,0.0,-5.0,8.355155571951242,0.4817320621239355
16.190715789794922,1.0176365167645787,2.3401224613189697,5.0,0.5,0.0,-5.0,5.033551555719512,0.4817320621239355
16.254658222198486,1.043429147373819,2.345358371734619,5.0,0.5,0.0,-5.0,5.000335515557195,0.4817320621239355
16.318655729293823,1.0698079741332696,2.3493306636810303,5.0,0.5,0.0,-5.0,5.000003355155572,0.4817320621239355
16.3826687335968,1.0952098073090366,2.352444648742676,5.0,0.5,0.0,-5.0,6.750252757889337,0.4817320621239355
16.447051286697388,1.121197836635014,2.3549423217773438,5.0,0.5,0.0,-5.0,6.527224691150628,0.4817320621239355
16.510717391967773,1.1471858659609908,2.3569812774658203,5.0,0.5,0.0,-5.0,6.315391042099358,0.4817320621239355
16.574753046035767,1.1733692940037048,2.358548879623413,5.0,0.5,0.0,-5.0,6.1234903026341145,0.4817320621239355
16.638671875,1.1989665258962086,2.359894037246704,5.0,0.5,0.0,-5.0,6.041210383153728,0.4817320621239355
16.703075408935547,1.2249545552221854,2.361199140548706,5.0,0.5,0.0,-5.0,5.936290063823743,0.4817320621239355
16.7667293548584,1.2509425845481628,2.3624017238616943,5.0,0.5,0.0,-5.0,5.786475348380092,0.4817320621239355
16.831212759017944,1.27693061387414,2.3635025024414062,5.0,0.5,0.0,-5.0,5.626177412807519,0.4817320621239355
16.894646167755127,1.3023324470499071,2.3643686771392822,5.0,0.5,0.0,-5.0,5.4662781602846735,0.4817320621239355
16.958641290664673,1.3283204763758845,2.3654277324676514,5.0,0.5,0.0,-5.0,5.316935844678388,0.4817320621239355
17.022719621658325,1.354699303135335,2.36637282371521,5.0,0.5,0.0,-5.0,5.168624406998005,0.4817320621239355
17.08669900894165,1.3804919337445751,2.367197275161743,5.0,0.5,0.0,-5.0,5.025018037862727,0.4817320621239355
17.15284037590027,1.407261557937499,2.3680779933929443,5.0,0.5,0.0,-5.0,4.883671736792415,0.4817320621239355
17.214675188064575,1.4322725936797929,2.368739366531372,5.0,0.5,0.0,-4.710541300124952,4.747029188488724,0.4837522012861947
17.280072689056396,1.4586514204392433,2.3693909645080566,5.0,0.5,0.0,-4.431621607490428,4.607620064693458,0.48559217824297873
17.342608213424683,1.483662456181537,2.369849920272827,5.0,0.5,0.0,-4.155910757498019,4.4715755244885615,0.48730691029638334
17.406994581222534,1.5100412829409877,2.3702592849731445,5.0,0.5,0.0,-3.6077089275661294,4.330817772524693,0.4904044767266282
17.4707248210907,1.535833913550228,2.3705859184265137,5.0,0.5,0.0,-3.3086692023288737,4.193314684212904,0.49191687973342
17.53466510772705,1.5616265441594686,2.37080979347229,5.0,0.5,0.0,-3.106973192170315,4.055298177879379,0.4928654822192672
17.59891104698181,1.587419174768709,2.3710548877716064,5.0,0.5,0.0,-2.9376604218911586,3.9210165654914038,0.4936170284118242
17.663512229919434,1.6134072040946863,2.3712117671966553,5.0,0.5,0.0,-2.775692556143525,3.7846810736735255,0.49429755628740135
17.728514671325684,1.6397860308541365,2.371356248855591,5.0,0.5,0.0,-2.613555333473404,3.6480945614602076,0.4949410118269232
17.792320489883423,1.6655786614633772,2.371483564376831,5.0,0.5,0.0,-2.726845345858605,3.515561464005229,0.49449539662323166
17.854663848876953,1.6907850959224076,2.3715925216674805,5.0,0.5,0.0,-2.3224989620707106,3.386399867935132,0.49600078200478126
17.918686866760254,1.717163922681858,2.3717052936553955,5.0,0.5,0.0,-2.3525062034473176,3.252838171444951,0.4958972005878682
17.98264503479004,1.742761154574362,2.371814489364624,5.0,0.5,0.0,-2.4884438618238782,3.1237741994877988,0.49541159241593236
18.046785831451416,1.7691399813338122,2.3719115257263184,5.0,0.5,0.0,-2.3267632733623773,2.990894344957312,0.49598614185345513
18.112149477005005,1.7957142068099994,2.372011423110962,5.0,0.5,0.0,-2.0720477619464197,2.857537081345294,0.49681419686551204
18.174616813659668,1.8211160399857669,2.3720855712890625,5.0,0.5,0.0,-1.8109063793646993,2.7293699012980137,0.49756477599716675
18.238715171813965,1.8471040693117438,2.37215256690979,5.0,0.5,0.0,-1.5755818524057803,2.5985385459278056,0.49815546750357875
18.30308437347412,1.8732874973544575,2.3727667331695557,5.0,0.5,0.0,-1.0983366711721816,2.4859109699044426,0.4991028032243096
18.366711616516113,1.8984939318134881,2.36836838722229,5.0,0.5,0.0,-0.8967279433209817,2.203743367416956,0.4994017700606481
18.430643320083618,1.9246773598562017,2.3445472717285156,5.0,0.5,0.0,-0.5353807167521627,1.8530740888607715,0.49978667612544625
18.494615077972412,1.9510561866156522,2.2877018451690674,5.0,0.5,0.0,-0.46086745772196697,1.001892395984716,0.499841915349356
18.558592796325684,1.9766534185081563,2.183629274368286,5.0,0.5,0.0,-0.4873418459623011,-0.37427397011574826,0.5000133648727296
18.62257742881775,2.0020552516839234,1.9960815906524658,5.0,0.5,0.0,-1.6396094594212873,-2.6937778719841665,1.490891295326757
18.686615228652954,2.0126067823877034,1.7920446395874023,5.0,0.5,0.0,-5.0,-4.79895702005381,0.4817915622713815
18.751356840133667,1.9875957466454097,1.5873514413833618,5.0,0.5,0.0,-5.0,-6.42280225008021,0.48173206212394765
18.8146014213562,1.962584710903116,1.3984743356704712,5.0,0.5,0.0,-5.0,-7.609543601067872,0.4817320621239355
18.87920069694519,1.9358150867101922,1.1940544843673706,5.0,0.5,0.0,-5.0,-8.891812065913761,0.4817320621239355
18.94262719154358,1.910413253534425,0.9896553754806519,5.0,0.5,0.0,-5.0,-9.988918120659138,0.4817320621239355
19.00678300857544,1.8842298254917114,0.7854311466217041,5.0,0.5,0.0,-5.0,-9.999889181206592,0.4817320621239355
19.07153868675232,1.8580463974489976,0.5967095494270325,5.0,0.5,0.0,-1.0048275620871605,-9.999998891812066,0.4992489594663826
19.13486886024475,1.8318629694062836,0.3920493721961975,5.0,0.5,0.0,4.2631028933985355,-9.999999988918121,0.48665261822258854
19.198818683624268,1.8062657375137796,0.25014182925224304,5.0,0.5,0.0,5.0,-9.999999999889182,0.4817320621239355
19.262700080871582,1.7798869107543291,0.17459291219711304,5.0,0.5,0.0,5.0,-9.999999999998892,0.4817320621239355
19.32677698135376,1.7540942801450887,0.13726778328418732,5.0,0.5,0.0,5.0,-9.99999999999999,0.4817320621239355
19.391749620437622,1.727324655952165,0.11603410542011261,5.0,0.5,0.0,5.0,-10.0,0.4817320621239355
19.456109046936035,1.701336626626188,0.1044122725725174,5.0,0.5,0.0,5.0,-5.05,0.4817320621239355
19.518700122833252,1.6757393947336838,0.09734082221984863,5.0,0.5,0.0,5.0,-5.000500000000001,0.4817320621239355
19.582656383514404,1.650337561557917,0.09198404848575592,5.0,0.5,0.0,5.0,-5.000005,0.4817320621239355
19.646751165390015,1.6237633360817296,0.08813866227865219,5.0,0.5,0.0,5.0,-5.000000050000001,0.4817320621239355
19.71068549156189,1.5981661041892261,0.0852886289358139,5.0,0.5,0.0,5.0,-5.0000000005,0.4817320621239355
19.77453589439392,1.5719826761465123,0.08327846229076385,5.0,0.5,0.0,5.0,-5.0000000000050004,0.4817320621239355
19.838550806045532,1.545994646820535,0.08157384395599365,5.0,0.5,0.0,5.0,-5.00000000000005,0.4817320621239355
19.902737379074097,1.5196158200610843,0.08022837340831757,5.0,0.5,0.0,5.0,-5.000000000000001,0.4817320621239355
19.96673274040222,1.4942139868853175,0.07914510369300842,5.0,0.5,0.0,5.0,-5.0,0.4817320621239355
20.03128409385681,1.467835160125867,0.07826386392116547,5.0,0.5,0.0,5.0,-5.0,0.4817320621239355
20.096566438674927,1.4418471307998897,0.07753865420818329,5.0,0.5,0.0,5.0,-5.0,0.4817320621239355
20.15939950942993,1.416249898907386,0.07693065702915192,5.0,0.5,0.0,5.0,-6.854894107697875,0.4817320621239355
20.22257423400879,1.3904572682981455,0.07644940912723541,5.0,0.5,0.0,5.0,-6.704422782141582,0.4817320621239355
20.2875497341156,1.3640784415386948,0.07599923014640808,5.0,0.5,0.0,5.0,-6.539362057332534,0.4817320621239355
20.35157608985901,1.3376996147792444,0.07560083270072937,5.0,0.5,0.0,5.0,-6.381759740859825,0.4817320621239355
20.41469669342041,1.3122977816034775,0.07527127861976624,5.0,0.5,0.0,5.0,-6.234349809223065,0.4817320621239355
20.47942090034485,1.2855281574105535,0.07493441551923752,5.0,0.5,0.0,5.0,-6.086766392196499,0.4817320621239355
20.5426926612854,1.2601263242347864,0.07467398047447205,5.0,0.5,0.0,4.738579614548181,-5.947664353588769,0.48356142812123076
20.606643676757812,1.2339428961920726,0.0744161605834961,5.0,0.5,0.0,4.497123533597515,-5.808612557594622,0.4851695448685571
20.67055869102478,1.2081502655828322,0.07417051494121552,5.0,0.5,0.0,4.25400713167368,-5.6738656825950855,0.4867087504289371
20.736018419265747,1.1815760401066449,0.07393710315227509,5.0,0.5,0.0,3.7294617775032615,-5.536794740728206,0.4897526831334963
20.79872441291809,1.1565650043643512,0.07372908294200897,5.0,0.5,0.0,3.445244736350408,-5.408187577763931,0.4912417944323307
20.862537145614624,1.129990778888164,0.07351957261562347,5.0,0.5,0.0,3.5271100726508307,-5.27347282638418,0.49082451498809737
20.92653250694275,1.1041981482789236,0.07334312796592712,5.0,0.5,0.0,3.3929358400435765,-5.142275734026004,0.4915034703445201
20.991464853286743,1.077819321519473,0.07316406071186066,5.0,0.5,0.0,3.173974740362923,-5.009206948096501,0.49255678049020585
21.055656671524048,1.051831292193496,0.07297798991203308,5.0,0.5,0.0,3.2072655412183124,-4.879053850662578,0.4924010213155907
21.118666172027588,1.0260386615842554,0.07281969487667084,5.0,0.5,0.0,3.000930655710404,-4.749233955342594,0.4933409781270893
21.182603120803833,1.0000506322582783,0.07265440374612808,5.0,0.5,0.0,2.7206287595715097,-4.619165610171505,0.49452032861717654
21.247379541397095,0.9734764067820911,0.07250949740409851,5.0,0.5,0.0,2.437119301161065,-4.485762809067088,0.4955980867747676
21.31248426437378,0.9469021813059041,0.0723542720079422,5.0,0.5,0.0,2.4532367328617806,-4.353205885609764,0.4955399331047729
21.375577211380005,0.9213049494134001,0.07221837341785431,5.0,0.5,0.0,2.257294510682133,-4.224927656351853,0.4962213480804997
21.43854594230652,0.8957077175208964,0.07209712266921997,5.0,0.5,0.0,1.727172208360455,-4.0963025244326134,0.4977842849710551
21.5024893283844,0.8695242894781825,0.07199032604694366,5.0,0.5,0.0,1.445479450852317,-3.964662737046211,0.49844705808891443
21.5666663646698,0.8439270575856788,0.07120765745639801,5.0,0.5,0.0,1.003918517611831,-3.8595665324118382,0.4992503167312378
21.63058614730835,0.817743629542965,0.08634506165981293,5.0,0.5,0.0,1.134806306247361,-3.3565008533647513,0.4990422902780347
21.694629192352295,0.7917556002169878,0.1411280632019043,5.0,0.5,0.0,0.8594595084537073,-2.6651168083106103,0.4994504354197105
21.758716106414795,0.7659629696077473,0.21944361925125122,5.0,0.5,0.0,0.7713459109879968,-1.6183779610996765,0.49955729675635446
21.822501182556152,0.7401703389985068,0.3431943356990814,5.0,0.5,0.0,0.7510068366145051,-0.09570448566968323,0.49958032593602814
21.886585474014282,0.7141823096725297,0.5186049342155457,5.0,0.5,0.0,1.0233818604469778,1.9170671707275502,0.4996969846401738
21.950560808181763,0.6922976533980226,0.7098120450973511,5.0,0.5,0.0,5.0,3.8321641575715573,1.4222253346777152
22.015450716018677,0.7098835379043231,0.9293999075889587,5.0,0.5,0.0,5.0,5.6846076928711815,0.4817972988925679
22.07849931716919,0.7352853710800901,1.1178785562515259,5.0,0.5,0.0,5.0,6.815823239729711,0.4817320621241286
22.142584800720215,0.7614687991228039,1.3218625783920288,5.0,0.5,0.0,5.0,8.060450268288792,0.4817320621239355
22.20836591720581,0.7876522271655179,1.5258008241653442,5.0,0.5,0.0,5.0,9.200289372193952,0.4817320621239355
22.27056908607483,0.8126632629078115,1.7140308618545532,5.0,0.5,0.0,5.0,9.99200289372194,0.4817320621239355
22.334526777267456,0.838455893517052,1.9176485538482666,5.0,0.5,0.0,2.9452934207599624,9.99992002893722,0.493584029248696
22.398605823516846,0.8646393215597659,2.1164515018463135,5.0,0.5,0.0,-2.0735448007633672,9.999999200289373,0.4968096064886673
22.46260666847229,0.890627350885743,2.2345800399780273,5.0,0.5,0.0,-5.0,9.999999992002895,0.4817320621239355
22.52675700187683,0.9170061776451935,2.282245397567749,5.0,0.5,0.0,-5.0,9.999999999920028,0.4817320621239355
22.592523097991943,0.9431896056879073,2.311131715774536,5.0,0.5,0.0,-5.0,9.89975406684677,0.4817320621239355
22.655295610427856,0.9691776350138844,2.324201822280884,5.0,0.5,0.0,-5.0,9.039375303945874,0.4817320621239355
22.720479011535645,0.9955564617733349,2.334993600845337,5.0,0.5,0.0,-5.0,8.376512342292838,0.4817320621239355
22.78253698348999,1.0207628962323652,2.341749429702759,5.0,0.5,0.0,-5.0,5.033765123422929,0.4817320621239355
22.84645700454712,1.0467509255583425,2.3462882041931152,5.0,0.5,0.0,-5.0,5.000337651234229,0.4817320621239355
22.910988569259644,1.0733251510345296,2.350236654281616,5.0,0.5,0.0,-5.0,5.000003376512343,0.4817320621239355
22.974451780319214,1.0983361867768233,2.3528268337249756,5.0,0.5,0.0,-5.0,6.73689792613037,0.4817320621239355
23.03862714767456,1.124519614819537,2.3552157878875732,5.0,0.5,0.0,-5.0,6.511236185995028,0.4817320621239355
23.102460384368896,1.150703042862251,2.356743812561035,5.0,0.5,0.0,-5.0,6.291548637320506,0.4817320621239355
23.167715549468994,1.1770818696217016,2.3583414554595947,5.0,0.5,0.0,-5.0,6.100543323219991,0.4817320621239355
23.23048496246338,1.2024837027974689,2.359466075897217,5.0,0.5,0.0,-5.0,6.027559016019391,0.4817320621239355
23.294488191604614,1.2280809346899724,2.3604819774627686,5.0,0.5,0.0,-5.0,5.913921689537137,0.4817320621239355
23.35849356651306,1.2540689640159497,2.361276865005493,5.0,0.5,0.0,-5.0,5.752466398369413,0.4817320621239355
23.422866106033325,1.2802523920586635,2.3619892597198486,5.0,0.5,0.0,-5.0,5.581475526236446,0.4817320621239355
23.48754072189331,1.306435820101377,2.362711191177368,5.0,0.5,0.0,-5.0,5.417202884406904,0.4817320621239355
23.550442218780518,1.3318376532771445,2.3632194995880127,5.0,0.5,0.0,-5.0,5.258533393280205,0.4817320621239355
23.615161180496216,1.358216480036595,2.363708972930908,5.0,0.5,0.0,-5.0,5.103387428307216,0.4817320621239355
23.678462743759155,1.3838137119290987,2.364180088043213,5.0,0.5,0.0,-5.0,4.958442863643146,0.4817320621239355
23.742477893829346,1.4096063425383392,2.3645520210266113,5.0,0.5,0.0,-5.0,4.81475927464898,0.4817320621239355
23.806652545928955,1.435789770581053,2.364936590194702,5.0,0.5,0.0,-5.0,4.674385329531133,0.4817320621239355
23.87083625793457,1.4615824011902934,2.365278720855713,5.0,0.5,0.0,-4.835196726328342,4.537846085581402,0.48289596093470516
23.935444355010986,1.4877658292330072,2.365673065185547,5.0,0.5,0.0,-4.5688220292530906,4.403931357915052,0.4847002527858941
23.998443126678467,1.5131676624087744,2.3660035133361816,5.0,0.5,0.0,-3.989488302256478,4.273028932469339,0.48829137885176144
24.06243658065796,1.5393510904514882,2.366318702697754,5.0,0.5,0.0,-3.6476196758061796,4.139420803123838,0.490193106192932
24.126522064208984,1.5651437210607286,2.3666608333587646,5.0,0.5,0.0,-3.403398414647696,4.0099374828707735,0.49145144037524335
24.191153049468994,1.5911317503867057,2.366945505142212,5.0,0.5,0.0,-3.1961808637574114,3.8781978023018846,0.49245305869326284
24.254629135131836,1.6169243809959462,2.367182493209839,5.0,0.5,0.0,-3.001895671877648,3.7467184462521854,0.4933367233936485
24.31845188140869,1.6429124103219235,2.367417812347412,5.0,0.5,0.0,-2.8126661379938858,3.615315122714922,0.49414552459262007
24.382530450820923,1.6683142434976903,2.3676483631134033,5.0,0.5,0.0,-2.9033045034455003,3.487575073453242,0.4937645235966061
24.44786310195923,1.6950838676906144,2.367870330810547,5.0,0.5,0.0,-2.479922669648553,3.3531816749433894,0.49544281943368307
24.511250734329224,1.720876498299855,2.3680851459503174,5.0,0.5,0.0,-2.7698248871152553,3.224120057881456,0.49432150285866855
24.57477378845215,1.7464737301923585,2.3682777881622314,5.0,0.5,0.0,-2.6490085297674093,3.0955930177757955,0.494803549854538
24.638418197631836,1.7726571582350723,2.368481397628784,5.0,0.5,0.0,-2.38710779686822,2.964969909663638,0.49577613676536886
24.702434062957764,1.7986451875610496,2.3686869144439697,5.0,0.5,0.0,-2.100893740729906,2.835568046459711,0.4967251703592031
24.76694083213806,1.8250240143205,2.368880033493042,5.0,0.5,0.0,-1.8360207402860942,2.703949630052464,0.497496932862711
24.830422401428223,1.8506212462130038,2.3690884113311768,5.0,0.5,0.0,-1.6063131809768532,2.5769153021811784,0.4980829509517834
24.894412517547607,1.8768046742557176,2.3693180084228516,5.0,0.5,0.0,-1.1362592121313182,2.4476299176922094,0.49903983873172864
24.959450483322144,1.902792703581695,2.369520425796509,5.0,0.5,0.0,-0.9405272026287754,2.3182378329812603,0.4993419430956161
25.022510290145874,1.9285853341909356,2.3697457313537598,5.0,0.5,0.0,-0.5829912597299611,2.190615058874301,0.49974705803474684
25.087117195129395,1.9549641609503858,2.369962692260742,5.0,0.5,0.0,-0.5103287439902318,2.059785585208126,0.49980616930945265
25.15155529975891,1.980952190276363,2.3702166080474854,5.0,0.5,0.0,-0.5370774048584206,1.932172708817231,0.499785322173993
25.214405059814453,2.0061586247353933,2.3704159259796143,5.0,0.5,0.0,-0.5843092901710516,1.8062534815642353,0.49974591333017504
25.278433799743652,2.0319512553446337,2.3706586360931396,5.0,0.5,0.0,-0.6221510040634507,1.6792153555086295,0.4997119466074982
25.342389822006226,2.057939284670611,2.3708767890930176,5.0,0.5,0.0,-0.9183517047488083,1.5502840806787848,0.4993725921240252
25.406723499298096,2.0837319152798512,2.371086597442627,5.0,0.5,0.0,-0.678368926236901,1.4218723177118855,0.4996576230795401
25.472429990768433,2.1108923369062484,2.371271848678589,5.0,0.5,0.0,-0.8552680875833274,1.2861471343234894,0.4994570714513392
25.534640312194824,2.1359033726485426,2.371466636657715,5.0,0.5,0.0,-0.84649081617863,1.1615719729635412,0.4994820290884968
25.599419832229614,2.1622821994079926,2.3716533184051514,5.0,0.5,0.0,-0.7694355252008227,1.030159431069226,0.49971523678082097
25.662490129470825,2.187879431300497,2.371809244155884,5.0,0.5,0.0,-0.675801990903821,0.9016305290104852,0.5008123956812964
25.72694706916809,2.2140628593432106,2.372004747390747,5.0,0.5,0.0,-0.5865110098836467,0.7719823914928349,0.5065555969966751
25.790660619735718,2.239855489952451,2.372191905975342,5.0,0.5,0.0,-0.5085454852938498,0.6438836661002191,0.5299269332099872
25.85508632659912,2.2656481205616914,2.3723840713500977,5.0,0.5,0.0,-0.44293766152307,0.5159899105527989,0.6022904281175284
25.91871213912964,2.2916361498876685,2.372591972351074,5.0,0.5,0.0,-0.3884592519942714,0.3876433361657268,0.7695003163741978
25.98275327682495,2.3172333817801722,2.3727760314941406,5.0,0.5,0.0,-0.06721554095925833,0.2600945000125025,1.0395588484863059
26.046833992004395,2.3434168098228865,2.372971296310425,5.0,0.5,0.0,0.0036585188770116017,0.13020987938821485,1.33971431500745
26.110517024993896,2.368818642998653,2.3731677532196045,5.0,0.5,0.0,-0.019596422568179617,0.004216624612500666,1.4962239085411877
26.17436385154724,2.393438881307474,2.3733513355255127,5.0,0.5,0.0,-2.000775824231405,-0.11733410936049794,1.419497588774722
26.24064874649048,2.4102431709468273,2.3735604286193848,5.0,0.5,0.0,-5.0,-0.1941169062429024,1.2457800221120605
26.30243945121765,2.417277524749348,2.373730421066284,5.0,0.5,0.0,-5.0,-0.2196570795557039,1.1660928396866739
26.36689829826355,2.4161051324489278,2.3738996982574463,5.0,0.5,0.0,-5.0,-0.20287086840812904,1.182022768688039
26.430352687835693,2.408289183779461,2.374040365219116,5.0,0.5,0.0,-5.0,-0.1543848461652636,1.2726221181223578
26.495845794677734,2.3961744633417874,2.3741753101348877,5.0,0.5,0.0,-5.0,-0.08594377836221047,1.389476361765548
26.558375597000122,2.38191035702001,2.374300479888916,5.0,0.5,0.0,-5.0,-0.009020349052466313,1.4702168298333076
26.622382164001465,2.36784164941497,2.374406337738037,5.0,0.5,0.0,-5.0,0.06364313281599275,1.4731500728925726
26.68670964241028,2.3561177264107696,2.3745243549346924,5.0,0.5,0.0,-0.5073244290250223,0.12239065320106662,1.4342924246688278
26.75037384033203,2.3496695687584594,2.3746273517608643,5.0,0.5,0.0,5.0,0.1504282466917757,1.3646012923551565
26.814414262771606,2.34908337260825,2.374748468399048,5.0,0.5,0.0,5.0,0.14782460603128314,1.3583014365404522
26.87837815284729,2.352991346942983,2.3748514652252197,5.0,0.5,0.0,5.0,0.12223768720068304,1.3905841167274204
26.94233989715576,2.360416498178977,2.374962568283081,5.0,0.5,0.0,5.0,0.07998026804890136,1.4402973242031718
27.006468296051025,2.36901404171539,2.37506365776062,5.0,0.5,0.0,5.0,0.0329927347980559,1.474439214084168
27.070566177368164,2.3783931801187506,2.375168561935425,5.0,0.5,0.0,5.0,-0.016033211491756242,1.4796545905756813
27.136054277420044,2.3865999262216904,2.375271797180176,5.0,0.5,0.0,5.0,-0.05704778351278209,1.4563933147899455
27.19870948791504,2.3901171031229502,2.3753697872161865,5.0,0.5,0.0,0.7915899464346099,-0.07164778802091115,1.4569695120911572
27.26237201690674,2.389726305689477,2.3754494190216064,5.0,0.5,0.0,-5.0,-0.06585133787837168,1.441785915731825
27.326401710510254,2.3869907236551637,2.3755524158477783,5.0,0.5,0.0,-5.0,-0.04753918436457439,1.4559044736678106
27.390385389328003,2.3824965531702205,2.3756253719329834,5.0,0.5,0.0,-5.0,-0.022507151469648608,1.4723338774090222
27.45510983467102,2.3776115852518034,2.375701904296875,5.0,0.5,0.0,-5.0,0.0038030936544663435,1.4810029517842254
27.518552780151367,2.3729220160501234,2.377143621444702,5.0,0.5,0.0,-3.7126593386046878,0.07523674037438156,1.4862858225220188
27.58242392539978,2.3713588263162304,2.368360757827759,5.0,0.5,0.0,2.4521333310033624,-0.21486204803272427,1.4937478582504324
27.64647603034973,2.37194502246644,2.338977336883545,5.0,0.5,0.0,5.0,-0.47423142741036534,1.2863613186584368
27.71148157119751,2.368037048131707,2.2594339847564697,5.0,0.5,0.0,1.228485137469818,-1.466532622535122,0.5933996023667031
27.77436137199402,2.352405150792773,2.147489547729492,5.0,0.5,0.0,-5.0,-2.6702150884394253,0.48195736141080997
27.839118003845215,2.326417121466796,1.9444001913070679,5.0,0.5,0.0,-5.0,-4.871299219433826,0.4817320621241464
27.902435541152954,2.300819889574292,1.803025722503662,5.0,0.5,0.0,-5.0,-5.835793949295106,0.4817320621239355
27.966386079788208,2.2752226576817884,1.598361849784851,5.0,0.5,0.0,-5.0,-7.554724921920658,0.4817320621239355
28.03125810623169,2.249039229639074,1.3465787172317505,5.0,0.5,0.0,-4.7567798688491125,-9.684683275714315,0.4834370278517844
28.09456729888916,2.2236373964633076,1.1421213150024414,5.0,0.5,0.0,-1.588674417386986,-9.996846832757143,0.4981247430218035
28.161022424697876,2.1962815761201737,0.9377870559692383,5.0,0.5,0.0,1.9383681644461725,-9.999968468327571,0.4972108935260362
28.222559690475464,2.171661337811353,0.764971911907196,5.0,0.5,0.0,4.887589993737175,-9.999999684683276,0.48252986760967415
28.287463665008545,2.1446963149016924,0.5447674989700317,5.0,0.5,0.0,5.0,-9.999999996846833,0.4817320621239355
28.351630926132202,2.118903684292452,0.34271547198295593,5.0,0.5,0.0,5.0,-9.999999999968468,0.4817320621239355
28.415361166000366,2.0927202562497382,0.21941325068473816,5.0,0.5,0.0,5.0,-9.999999999999686,0.4817320621239355
28.47846293449402,2.0679046192241812,0.1641446202993393,5.0,0.5,0.0,5.0,-9.999999999999996,0.4817320621239355
28.543304681777954,2.0411349950312574,0.1338067203760147,5.0,0.5,0.0,5.0,-10.0,0.4817320621239355
28.606588125228882,2.0155377631387537,0.11693738400936127,5.0,0.5,0.0,5.0,-5.05,0.4817320621239355
28.67164397239685,1.9889635376625665,0.10654418170452118,5.0,0.5,0.0,5.0,-5.000500000000001,0.4817320621239355
28.734392404556274,1.964343299353746,0.100113146007061,5.0,0.5,0.0,5.0,-5.000005,0.4817320621239355
28.79826831817627,1.9377690738775588,0.09518572688102722,5.0,0.5,0.0,5.0,-5.000000050000001,0.4817320621239355
28.862547636032104,1.9119764432683182,0.09185940027236938,5.0,0.5,0.0,5.0,-5.0000000005,0.4817320621239355
28.926647424697876,1.885988413942341,0.08913780748844147,5.0,0.5,0.0,5.0,-5.0000000000050004,0.4817320621239355
28.990283250808716,1.860000384616364,0.08704621344804764,5.0,0.5,0.0,5.0,-5.00000000000005,0.4817320621239355
29.05438256263733,1.8332307604234404,0.08541038632392883,5.0,0.5,0.0,5.0,-5.000000000000001,0.4817320621239355
29.11832594871521,1.8080243259644098,0.08410730957984924,5.0,0.5,0.0,5.0,-5.0,0.4817320621239355
29.18233323097229,1.781645499204959,0.08304591476917267,5.0,0.5,0.0,5.0,-5.0,0.4817320621239355
29.24633479118347,1.7558528685957189,0.08214922249317169,5.0,0.5,0.0,4.853190308637965,-5.0,0.4827706459512257
29.310591220855713,1.729669440553005,0.08137941360473633,5.0,0.5,0.0,4.257012713212062,-5.0,0.4866902147852185
29.375005960464478,1.7036814112270278,0.08075548708438873,5.0,0.5,0.0,4.130404962607294,-5.0,0.4874602688165017
29.438337802886963,1.677497983184314,0.08021152019500732,5.0,0.5,0.0,3.8534509554198992,-5.0,0.48906762186737646
29.503432750701904,1.651509953858337,0.0796605795621872,5.0,0.5,0.0,2.9823885841560775,-5.0,0.49342247109911247
29.566336154937744,1.6257173232490965,0.0792197585105896,5.0,0.5,0.0,2.6018132265472316,-5.0,0.49498613929279767
29.632079601287842,1.599338496489646,0.07886885106563568,5.0,0.5,0.0,2.42026224656247,-5.0,0.49565850621200774
29.694353103637695,1.573741264597142,0.07854212820529938,5.0,0.5,0.0,2.0322102957323365,-5.0,0.49693514798605326
29.758238792419434,1.5481440327046383,0.07828252762556076,5.0,0.5,0.0,2.1790850987562655,-5.0,0.49647774453268434
29.822411060333252,1.5217652059451876,0.07800151407718658,5.0,0.5,0.0,2.1681127230829285,-5.0,0.49651300287980005
29.88626980781555,1.4963633727694208,0.07782268524169922,5.0,0.5,0.0,2.0823809545699508,-5.0,0.4967824454839328
29.95163106918335,1.4697891472932336,0.07760739326477051,5.0,0.5,0.0,1.9638771261253016,-6.937145870638991,0.49713721304167174
