t_s,q_rad,q_des_rad,K,B,Kff,jerk,tau_Nm,reward
0.00595855712890625,-0.014264106321776927,[0.00128869],9.825212432529046,0.9781515540661307,1.9737818648793566,0.0,9.9,1.4527736419002852
0.016116619110107422,-0.014264106321776927,[0.00622787],9.650424865058092,0.9563031081322615,1.9475637297587132,0.0,9.999,1.4194457991358975
0.02454519271850586,-0.014264106321776927,[0.01547876],9.475637297587138,0.9344546621983922,1.92134559463807,0.0,9.99999,1.3378404346679318
0.03337550163269043,-0.014264106321776927,[0.028256],9.300849730116184,0.9126062162645229,1.8951274595174268,0.0,9.9999999,1.1965665383156692
0.04280352592468262,-0.014264106321776927,[0.04384977],9.12606216264523,0.8907577703306536,1.8689093243967834,0.0,9.999999999,1.008930134498657
0.05302071571350098,-0.014264106321776927,[0.06162331],8.951274595174274,0.8689093243967844,1.84269118927614,0.0,6.210288121863642,0.8160736778216198
0.062308549880981445,-0.014264106321776927,[0.08100992],8.77648702770332,0.847060878462915,1.8164730541554968,0.0,-9.837897118781363,0.6627682375811157
0.07151675224304199,-0.011919321720936885,[0.10150947],8.601699460232366,0.8252124325290457,1.7902549190348536,0.8281150790360429,-9.998378971187813,0.5757793911862443
0.08171272277832031,-0.008597543536413491,[0.12268463],8.426911892761412,0.8033639865951765,1.7640367839142101,3.687872485307177,-9.999983789711878,0.5218186246013681
0.09272885322570801,-0.005861961502100107,[0.14415678],8.252124325290458,0.7815155406613071,1.7378186487935667,5.0,-9.99999983789712,0.49282856984345375
0.10106563568115234,-0.004103373051470075,[0.16560195],8.077336757819502,0.7596670947274378,1.7116005136729235,5.0,-9.999999998378971,0.4848832398325354
0.10875177383422852,-0.002540183317576713,[0.18674647],7.902549190348549,0.7378186487935685,1.6853823785522803,5.0,-9.99999999998379,0.4825045552260083
0.11714482307434082,-0.0011723923004200215,[0.20736285],7.727761622877595,0.7159702028596993,1.659164243431637,5.0,-9.999999999999838,0.48189908332852066
0.12610316276550293,0.00039079743347334047,[0.22726554],7.55297405540664,0.6941217569258299,1.6329461083109935,5.0,-9.999999999999998,0.4817658830908694
0.1347367763519287,0.0015631897338933619,[0.24630685],7.378186487935686,0.6722733109919605,1.6067279731903503,5.0,-10.0,0.4817383311339956
0.14457201957702637,0.002540183317576713,[0.26437309],7.203398920464732,0.6504248650580913,1.5805098380697071,4.173436519227711,-10.0,0.4872021240478999
0.15363168716430664,0.0035171769012600643,[0.28138072],7.028611352993777,0.6285764191242219,1.5542917029490637,1.1852582585818994,-5.05,0.4989555280311406
0.1637117862701416,0.004103373051470075,[0.29727283],6.853823785522822,0.6067279731903527,1.5280735678284203,-2.221467550442158,-5.000500000000001,0.49633994062219455
0.1723470687866211,0.004689569201680086,[0.31201572],6.679036218051868,0.5848795272564833,1.501855432707777,-5.0,-5.000005,0.4817320683790094
0.18114519119262695,0.004884967918416756,[0.3255958],6.504248650580913,0.563031081322614,1.475637297587134,-5.0,-5.000000050000001,0.4817320632883039
0.18871092796325684,0.005080366635153426,[0.33801662],6.329461083109958,0.5411826353887447,1.4494191624664907,-5.0,-5.0000000005,0.4817320623594357
0.19770455360412598,0.005275765351890096,[0.34929621],6.154673515639004,0.5193341894548753,1.4232010273458477,-5.0,-5.0000000000050004,0.4817320621764457
0.20570921897888184,0.005275765351890096,[0.3594646],5.97988594816805,0.5,1.3969828922252046,-5.0,-5.00000000000005,0.4817320621366288
0.21388721466064453,0.005275765351890096,[0.3685616],5.805098380697095,0.5,1.3707647571045614,-5.0,-5.000000000000001,0.4817320621273763
0.22237849235534668,0.005275765351890096,[0.37663473],5.63031081322614,0.5,1.3445466219839184,-5.0,-4.851556262488211,0.48173206212498626
0.2317061424255371,0.005275765351890096,[0.38373745],5.455523245755186,0.5,1.3183284868632752,-5.0,-2.9684131502484563,0.48173206212429764
0.2427513599395752,0.005080366635153426,[0.38992753],5.280735678284231,0.5,1.292110351742632,-5.0,-1.5928688749511932,0.4817320621240721
0.25283098220825195,0.005080366635153426,[0.39526566],5.105948110813277,0.5,1.2658922166219888,-5.0,-0.6124514217325797,0.4817320621239952
0.26160168647766113,0.005080366635153426,[0.39981418],5.0,0.5,1.2396740815013456,-4.633633990895714,0.10716017620062218,0.4842700472156151
0.2696993350982666,0.005080366635153426,[0.40363605],5.0,0.5,1.2134559463807026,-3.590751879351223,0.6581200736866877,0.4904936060191669
0.27970337867736816,0.005080366635153426,[0.40679392],5.0,0.5,1.1872378112600595,-2.209051801783543,1.054958459491007,0.4963805564359621
0.2877182960510254,0.005275765351890096,[0.40934937],5.0,0.5,1.1610196761394163,-0.9542667322728557,1.3423437833365042,0.499322589567275
0.29677891731262207,0.006057360218836778,[0.41136229],5.0,0.5,1.1348015410187733,0.032693742223733446,1.544499888330801,0.49999920432521583
0.306215763092041,0.0076205499527301395,[0.41289033],5.0,0.5,1.10858340589813,1.8496533207794572,1.6842945020490534,0.4974597189074013
0.3137197494506836,0.009574537120096843,[0.41398856],5.0,0.5,1.082365270777487,3.8424928107459664,1.7790496464918046,0.4891290308302541
0.32342076301574707,0.012896315304620235,[0.41470909],5.0,0.5,1.0561471356568437,5.0,1.8366486028928608,0.481732062123945
0.3312342166900635,0.01621809348914363,[0.41510089],5.0,0.5,1.0299290005362005,5.0,1.8685213304793982,0.48173206212395064
0.3397831916809082,0.019344472956930356,[0.41520962],5.0,0.5,1.0037108654155575,5.0,1.8859888862377738,0.48173206212395997
0.35103940963745117,0.024034042158610443,[0.41507757],5.0,0.5,0.9774927302949143,5.0,1.8822883861777395,0.4817320621239877
0.3611283302307129,0.027942016493343845,[0.41474362],5.0,0.5,0.9512745951742712,5.0,1.8737985973293707,0.4817320621240365
0.369276762008667,0.03106839596113057,[0.41424324],5.0,0.5,0.9250564600536281,5.0,1.8627339676335128,0.4817320621241121
0.3771483898162842,0.033999376712180625,[0.41360863],5.0,0.5,0.898838324932985,5.0,1.8492429583323757,0.4817320621242398
0.38764262199401855,0.03790735104691403,[0.4128687],5.0,0.5,0.8726201898123418,5.0,1.8284806364749466,0.4817320621245492
0.3967559337615967,0.04161992666491077,[0.41204932],5.0,0.5,0.8464020546916986,5.0,1.8073618749795786,0.48173206212514164
0.4057352542877197,0.04533250228290749,[0.41117335],5.0,0.5,0.8201839195710555,5.0,1.7856180459508566,0.48173206212630604
0.4158895015716553,0.0492404766176409,[0.41026088],5.0,0.5,0.7939657844504124,3.2318601259517,1.763360263340031,0.49228493773491117
0.42374467849731445,0.05236685608542762,[0.40932936],5.0,0.5,0.7677476493297692,0.8568393294659682,1.7442389615164169,0.49945377933679413
0.4337289333343506,0.05627483042016103,[0.4083938],5.0,0.5,0.741529514209126,-1.548663604344589,1.7210499451949142,0.49821784397697827
0.4427464008331299,0.0597920073214211,[0.40746695],5.0,0.5,0.715311379088483,-3.4883522656976185,1.6995792859993148,0.4910232463394059
0.45085597038269043,0.06330918422268116,[0.40655946],5.0,0.5,0.6890932439678399,-4.591609298795154,1.6778905662949306,0.48454964394029465
0.45972323417663574,0.06682636112394122,[0.4056801],5.0,0.5,0.6628751088471967,-5.0,1.6562602562371431,0.4817320622302763
0.46878767013549805,0.07073433545867464,[0.40483593],5.0,0.5,0.6366569737265535,-5.0,1.6329065627992019,0.4817320623255275
0.4777505397796631,0.07405611364319802,[0.40403245],5.0,0.5,0.6104388386059104,-5.0,1.612500510157705,0.48173206247261224
0.4877355098724365,0.07796408797793142,[0.40327377],5.0,0.5,0.5842207034852673,-5.0,1.5892649099411384,0.4817320627666771
0.4958076477050781,0.08128586616245481,[0.40256282],5.0,0.5,0.5580025683646241,-5.0,1.5690098569147573,0.4817320632066693
0.5057663917541504,0.08519384049718824,[0.40190143],5.0,0.5,0.531784433243981,-5.0,1.5459048582818138,0.48173206406362096
0.5147385597229004,0.08871101739844828,[0.40129056],5.0,0.5,0.5055662981233379,-5.0,1.5307014219803001,0.48173206538505836
0.5247349739074707,0.09222819429970835,[0.40073448],5.0,0.5,0.4793481630026947,-5.0,1.9792463003165162,0.4817320675328035
0.53377366065979,0.0959407699177051,[0.4002449],5.0,0.5,0.4531300278820516,-4.867856640916177,2.6093488316912903,0.4826681922566544
0.5416977405548096,0.09906714938549181,[0.39983918],5.0,0.5,0.42691189276140845,-4.633397301067781,3.5126463368003864,0.48427164250899274
0.5502760410308838,0.10258432628675188,[0.39954113],5.0,0.5,0.4006937576407653,-4.354938722371633,4.712227923457861,0.4860795530254565
0.557671308517456,0.10571070575453859,[0.3994049],5.0,0.5,0.3744756225201221,-4.0629602540502665,7.945336128364116,0.4878615045541754
0.5677669048309326,0.10981407880600867,[0.39958878],5.0,0.5,0.3482574873994789,-3.7733487672020494,9.97945336128364,0.48951270329330526
0.5789690017700195,0.11450364800768877,[0.40036902],5.0,0.5,0.3220393522788358,-3.4942454456828385,9.999794533612837,0.49099324511139314
0.5868635177612305,0.11763002747547549,[0.40199457],5.0,0.5,0.2958212171581926,-3.2296244391401645,9.999997945336128,0.49229562011065425
0.5958957672119141,0.12095180565999888,[0.40467005],5.0,0.5,0.2696030820375494,-2.9811892359932304,9.999999979453362,0.4934278272477806
0.6050937175750732,0.12446898256125893,[0.4086526],5.0,0.5,0.24338494691690624,-2.7493942793058497,9.999999999794534,0.49440459253631464
0.6143436431884766,0.12837695689599235,[0.41415362],5.0,0.5,0.21716681179626307,-2.534005792397245,9.999999999997947,0.49524292194158837
0.6250793933868408,0.13287112738093576,[0.42127379],5.0,0.5,0.19094867667561988,-2.0583775720827218,9.99999999999998,0.49685602204268375
0.6348171234130859,0.1365837029989325,[0.43006771],5.0,0.5,0.16473054155497668,-1.8406593482848892,10.0,0.497484334073516
0.6458005905151367,0.14068707605040257,[0.44061692],5.0,0.5,0.13851240643433352,-1.7252666937075398,10.0,0.497789175819827
0.6540658473968506,0.14361805680145262,[0.45296968],5.0,0.5,0.11229427131369034,-1.9200826361430852,5.05,0.49726312846685283
0.6617252826690674,0.1465490375525027,[0.46704268],5.0,0.5,0.08607613619304716,-1.8786913664416698,5.000500000000001,0.4973795443546512
0.6727182865142822,0.15123860675418274,[0.48274345],5.0,0.5,0.05985800107240398,-1.4705230595995373,4.993712030537392,0.49839286865423194
0.6807761192321777,0.15456038493870616,[0.4999727],5.0,0.5,0.0336398659517608,-1.2801966080614913,3.146942145880397,0.498781486703785
0.6897127628326416,0.15807756183996624,[0.51857593],5.0,0.5,0.0074217308311176206,-1.1808149004268524,2.5884994831083774,0.4989631411686127
0.6996941566467285,0.16218093489143628,[0.53850652],5.0,0.5,0.0,-1.3914685056531901,2.870054829701545,0.49856077849285235
0.7092559337615967,0.1660889092261697,[0.55970794],5.0,0.5,0.0,-1.0931549552026063,2.958449501754479,0.4991112413069133
0.7186768054962158,0.16999688356090312,[0.58196353],5.0,0.5,0.0,-0.9505540554259964,3.0322522797684415,0.49932784685132786
0.7267217636108398,0.17292786431195314,[0.60517825],5.0,0.5,0.0,-0.8737801514587036,3.2608302449759536,0.49943197922432425
0.7354636192321777,0.17644504121321322,[0.62936105],5.0,0.5,0.0,-0.8223042200784121,3.174774614762439,0.4994969013767317
0.7436771392822266,0.1799622181144733,[0.65440529],5.0,0.5,0.0,-0.7788870121924,3.287080803536763,0.4995486021500107
0.7524082660675049,0.18328399629899667,[0.68020971],5.0,0.5,0.0,-0.7369673386236014,3.404041163085934,0.49959586395773975
0.7606499195098877,0.1866057744835201,[0.70667883],5.0,0.5,0.0,-0.6946510010194649,3.383038252610826,0.4996409259529576
0.7696771621704102,0.19031835010151682,[0.73367234],5.0,0.5,0.0,-0.651911229728602,3.5422008402361,0.49968373858263593
0.7800798416137695,0.19403092571951355,[0.7611665],5.0,0.5,0.0,-0.6093327345790633,3.832324546270895,0.499723690594838
0.7880153656005859,0.19735270390403695,[0.78913471],5.0,0.5,0.0,-0.5675840916105057,3.9572255541060772,0.49976024760166404
0.796522855758667,0.20067448208856034,[0.81739573],5.0,0.5,0.0,-0.527223894108913,4.061490515571605,0.49979312548905286
0.8088889122009277,0.20536405129024043,[0.84589408],5.0,0.5,0.0,-0.48865252684372895,4.305764123872836,0.499822282669935
0.8181262016296387,0.20907662690823717,[0.87473217],5.0,0.5,0.0,-0.4521218923729153,4.38050331674564,0.49984785710860635
0.8256771564483643,0.21181220894255054,[0.90389048],5.0,0.5,0.0,-0.41776373170286873,4.3358123687461045,0.49987009923108505
0.8346884250640869,0.21572018327728396,[0.93324673],5.0,0.5,0.0,-0.3856199933435033,4.4776631203074,0.4998893178242253
0.8446285724639893,0.219823556328754,[0.96274565],5.0,0.5,0.0,-0.3556691693363845,4.616238851153025,0.4999058417840855
0.8528764247894287,0.22314533451327742,[0.99233869],5.0,0.5,0.0,-0.3278470902799253,4.615921349809403,0.49991999546698
0.8626935482025146,0.22685791013127415,[1.02197887],5.0,0.5,0.0,-0.3020624970350332,4.918687323399219,0.4999320842040775
0.8710765838623047,0.23017968831579752,[1.05162118],5.0,0.5,0.0,-0.27820829697353844,5.052001633257579,0.4999423868251056
0.8797028064727783,0.23350146650032094,[1.08109603],5.0,0.5,0.0,-0.2561694819650989,5.082844056137677,0.4999511527363232
0.8881666660308838,0.2368232446848443,[1.11014899],5.0,0.5,0.0,-0.2358285620117223,4.866849123382999,0.4999586017958939
0.8960058689117432,0.24014502286936773,[1.13842871],5.0,0.5,0.0,-0.21706919631316324,4.721030831487123,0.499964925794759
0.9047141075134277,0.2434668010538911,[1.16543105],5.0,0.5,0.0,0.07625981946713273,4.379513433162064,0.4999956709127296
0.9148058891296387,0.2473747753886245,[1.19047716],5.0,0.5,0.0,0.12531427206315932,3.987401063070285,0.49998831031872953
0.9234764575958252,0.2506965535731479,[1.21286499],5.0,0.5,0.0,0.08488819805585182,3.927439173351061,0.4999946358739418
0.9326870441436768,0.25460452790788135,[1.23214529],5.0,0.5,0.0,0.0223116901670289,3.983618389652408,0.49999962942897797
0.9434418678283691,0.25870790095935137,[1.24816342],5.0,0.5,0.0,-0.035775461214790034,4.17184919020046,0.49999904725485517
0.9530963897705078,0.2626158752940848,[1.26091477],5.0,0.5,0.0,-0.08095117550428049,4.167952100672078,0.49999512189801215
0.9626407623291016,0.2667192483455549,[1.27038676],5.0,0.5,0.0,-0.1124146072289299,4.156581821411869,0.4999905930662646
0.972658634185791,0.27101802011376164,[1.27650683],5.0,0.5,0.0,-0.1321356566533101,3.997827402977181,0.49998700306085775
0.9826664924621582,0.274925994448495,[1.27920425],5.0,0.5,0.0,-0.14274303170648156,4.013030094203267,0.49998483264257937
0.9913768768310547,0.2780523739162818,[1.27856501],5.0,0.5,0.0,-0.14668748597162667,4.150580899330045,0.4999839828276075
1.0007057189941406,0.28176494953427844,[1.27480699],5.0,0.5,0.0,-0.14597678360087385,4.084234281298137,0.49998413765589067
1.0099384784698486,0.2852821264355385,[1.26815489],5.0,0.5,0.0,-0.1421504328406509,4.15175496179724,0.49998495831409656
1.022552728652954,0.29036249307069195,[1.25873452],5.0,0.5,0.0,-0.13634204474944978,3.7436893113099017,0.49998616241595933
1.0333878993988037,0.2944658661221621,[1.24653558],5.0,0.5,0.0,-0.1293629298379319,3.7031251007183053,0.4999875427852536
1.0422203540802002,0.29759224558994873,[1.23168713],5.0,0.5,0.0,-0.1217805175654019,3.7845624787637036,0.4999889602938991
1.050710678100586,0.3011094224912088,[1.21443441],5.0,0.5,0.0,-0.11398313566364847,3.522156286606011,0.49999032872626886
1.059934139251709,0.3048219981092056,[1.19496497],5.0,0.5,0.0,-0.10623023847463789,3.572499847079203,0.499991599612115
1.0676610469818115,0.30814377629372897,[1.17351705],5.0,0.5,0.0,-0.09868995296732685,3.4277224705095417,0.49999274980962133
1.0777366161346436,0.31205175062846235,[1.15031763],5.0,0.5,0.0,-0.09146650323228757,3.276149203968391,0.4999937722936951
1.0866568088531494,0.31556892752972243,[1.1255813],5.0,0.5,0.0,-0.08461993202684642,3.263639586925077,0.4999946697239084
1.0968737602233887,0.3194769018644558,[1.09956083],5.0,0.5,0.0,-0.07818012505261424,3.067067469250496,0.4999954501464183
1.107668161392212,0.3237756736326626,[1.0723892],5.0,0.5,0.0,-0.07215669798537075,2.7444797111990007,0.49999612422734785
1.1186516284942627,0.328269844117606,[1.04410356],5.0,0.5,0.0,-0.06654591601507275,2.6159263400403696,0.49999670353811326
1.1266531944274902,0.3315916223021294,[1.0148632],5.0,0.5,0.0,-0.06133550334810704,2.617876576630756,0.4999971995403059
1.1356651782989502,0.3353041979201261,[0.98493946],5.0,0.5,0.0,-0.05650796196346707,2.4788454305470036,0.4999976230232632
1.1451048851013184,0.3388213748213862,[0.95457751],5.0,0.5,0.0,-0.05204284245121603,2.384643355282197,0.4999979838268956
1.15462327003479,0.34253395043938295,[0.92402434],5.0,0.5,0.0,-0.047918281379754,2.3362270593258194,0.49999829073893565
1.1653721332550049,0.3462465260573797,[0.89359063],5.0,0.5,0.0,-0.044112027353266775,2.330455931988902,0.4999985514947207
1.1746573448181152,0.34995910167537636,[0.86364966],5.0,0.5,0.0,-0.04060211213210808,2.360602747637182,0.49999877283377175
1.1841628551483154,0.3540624747268465,[0.83462873],5.0,0.5,0.0,-0.037367276552643436,2.4499099069778136,0.4999989605846734
1.191657304763794,0.35718885419463325,[0.80694866],5.0,0.5,0.0,-0.034387228059287483,2.50472121409411,0.4999991197609506
1.201653003692627,0.36129222724610327,[0.7810686],5.0,0.5,0.0,-0.031642783484668036,2.6439347463737697,0.49999925465780065
1.2125434875488281,0.3655909990143101,[0.7575723],5.0,0.5,0.0,-0.029115934439256773,2.755614015447559,0.49999936894409364
1.2244582176208496,0.3698897707825168,[0.73698389],5.0,0.5,0.0,-0.3028282209382973,2.721831528339898,0.4999317394620985
1.2326898574829102,0.3732115489670402,[0.71955967],5.0,0.5,0.0,-0.33381187631788434,2.4886588409707895,0.4999170580923122
1.2417006492614746,0.3769241245850368,[0.70540437],5.0,0.5,0.0,-0.2767442754390812,2.580418127078839,0.4999429919779212
1.2507140636444092,0.3804413014862969,[0.69459487],5.0,0.5,0.0,-0.19884608290676997,2.367264362575188,0.49997057012161
1.2614281177520752,0.3845446745377671,[0.68710631],5.0,0.5,0.0,-0.12665494344828715,2.3477342935938847,0.4999880700450972
1.271256685256958,0.38864804758923716,[0.6828782],5.0,0.5,0.0,-0.0684979322553459,2.3346070565184482,0.49999653754435214
1.279707908630371,0.3917744270570238,[0.68186843],5.0,0.5,0.0,-0.025087767303410533,2.33407699863466,0.49999958050388743
1.288466453552246,0.3950962052415472,[0.68400003],5.0,0.5,0.0,0.281665394704284,2.3422171437868924,0.499941002448797
1.2977266311645508,0.39880878085954397,[0.68916733],5.0,0.5,0.0,0.3355135565673898,2.359401156732553,0.49991625788353056
1.3068690299987793,0.40232595776080404,[0.69724175],5.0,0.5,0.0,0.29366899495112264,2.3891485939210635,0.49993583380672235
1.315401554107666,0.4056477359453274,[0.7080261],5.0,0.5,0.0,0.22543781514221461,2.291302116530676,0.49996218078773746
1.3247175216674805,0.4095557102800608,[0.72126763],5.0,0.5,0.0,0.15896881465715892,2.3819124958304987,0.4999811921797056
1.334714412689209,0.41365908333153095,[0.73677161],5.0,0.5,0.0,0.10378872023074495,2.4709980982073287,0.49999198216311525
1.3440537452697754,0.4173716589495276,[0.75439491],5.0,0.5,0.0,0.061482406853469986,2.5629262898816405,0.4999971862458176
1.3516905307769775,0.420693437134051,[0.77393812],5.0,0.5,0.0,-0.2454164980452647,2.5197657472612027,0.4999551673332092
1.3598291873931885,0.42381981660183776,[0.79505513],5.0,0.5,0.0,-0.30022006782792016,2.6084089618867026,0.4999329101273484
1.3695693016052246,0.4275323922198345,[0.81743283],5.0,0.5,0.0,-0.2598336206305852,2.894283626197246,0.49994974543262727
1.378812313079834,0.4312449678378312,[0.84104418],5.0,0.5,0.0,-0.1933514094856233,3.1302895708508562,0.49997217153356893
1.389143466949463,0.434957543455828,[0.86595192],5.0,0.5,0.0,-0.1287777655531475,3.1919867991272577,0.4999876552276754
1.396636962890625,0.437888524206878,[0.89198897],5.0,0.5,0.0,-0.0755423394236749,3.3069801230726408,0.49999575198843277
1.4067378044128418,0.44218729597508477,[0.91889774],5.0,0.5,0.0,-0.035166042318301574,3.5278536512495897,0.4999990794375322
1.4169180393218994,0.44609527030981816,[0.9466523],5.0,0.5,0.0,-0.006179888700886271,3.7235933788005187,0.4999999715705819
1.4283740520477295,0.45058944079476154,[0.9753214],5.0,0.5,0.0,0.013705428190524995,3.758265402262884,0.4999998601727451
1.436927318572998,0.4537158202625483,[1.00479891],5.0,0.5,0.0,0.026717600308498488,3.68849289571908,0.4999994686247262
1.445645809173584,0.4572329971638084,[1.03488304],5.0,0.5,0.0,-0.2413146637753217,3.8186551206998587,0.49995665337628736
1.4537434577941895,0.46035937663159504,[1.06534447],5.0,0.5,0.0,-0.26998297049629,3.955286602506517,0.49994574299042976
1.4641754627227783,0.4648535471165385,[1.09598437],5.0,0.5,0.0,0.06314905065515602,4.225363815342573,0.49999703148643265
1.4752771854400635,0.4695431163182186,[1.1268238],5.0,0.5,0.0,0.17268954507630957,4.422749356386272,0.4999778012190773
1.483656406402588,0.472864894502742,[1.15792533],5.0,0.5,0.0,0.18734859940935078,4.383347618431755,0.4999738725978727
1.4916110038757324,0.4761866726872654,[1.18911963],5.0,0.5,0.0,0.16642242651781974,4.2750128493852335,0.4999793831922441
1.499640941619873,0.4791176534383154,[1.22007606],5.0,0.5,0.0,0.1360167141911236,4.194034209881275,0.4999862283729587
1.5096747875213623,0.4832210264897855,[1.25035024],5.0,0.5,0.0,0.10670347493813631,4.06300308220984,0.4999915246016298
1.5191121101379395,0.4869336021077822,[1.27941308],5.0,0.5,0.0,0.08203108577369324,3.6834176595114054,0.4999949908801853
1.5276610851287842,0.49025538029230564,[1.30679874],5.0,0.5,0.0,0.06255643124970128,3.8091898789936502,0.4999970869406023
1.5376312732696533,0.49435875334377566,[1.33195973],5.0,0.5,0.0,0.04770495446447666,3.2959137371018055,0.49999830592391786
1.5477862358093262,0.4982667276785091,[1.35422725],5.0,0.5,0.0,0.036591462046744086,3.3444119053959476,0.4999990032969954
1.5562593936920166,0.5015885058630325,[1.3732376],5.0,0.5,0.0,0.0283540666102055,3.5584045553623516,0.4999994015372471
1.5646419525146484,0.5051056827642926,[1.38888611],5.0,0.5,0.0,0.022267630735214594,3.438002471834632,0.4999996308910834
1.5765111446380615,0.5094044545324993,[1.40103443],5.0,0.5,0.0,0.017763015086444425,3.4844196102319285,0.49999976512329664
1.585996389389038,0.5133124288672327,[1.40965996],5.0,0.5,0.0,0.0144104663427863,3.6538093460098144,0.4999998454166627
1.593733310699463,0.5166342070517561,[1.41488931],5.0,0.5,0.0,0.01189294180771256,3.626783076586772,0.49999989471046263
1.6028516292572021,0.5201513839530162,[1.41692427],5.0,0.5,0.0,0.009979909427737816,3.6191758757456243,0.4999999258587604
1.6132099628448486,0.5242547570044862,[1.41597686],5.0,0.5,0.0,0.008505240760863887,3.4271216852143476,0.49999994615072313
1.6226768493652344,0.5281627313392196,[1.41211209],5.0,0.5,0.0,0.007349849367117482,3.4100457754851345,0.49999995978727213
1.6338744163513184,0.5328523005408997,[1.40537187],5.0,0.5,0.0,0.00642859142773454,3.369648929459722,0.4999999692363181
1.6419150829315186,0.5359786800086865,[1.39587987],5.0,0.5,0.0,0.0056806203720532085,3.3183446850347065,0.4999999759786064
1.6513879299163818,0.5396912556266832,[1.38377644],5.0,0.5,0.0,0.005062394749041941,3.2476380840689902,0.49999998092262216
1.6618094444274902,0.5435992299614166,[1.36921415],5.0,0.5,0.0,0.004542661286617498,3.1612136988009394,0.49999998463872086
1.6720013618469238,0.5475072042961501,[1.35230306],5.0,0.5,0.0,0.004098879722459805,2.9214342652540153,0.4999999874934645
1.6802341938018799,0.5510243811974102,[1.33316679],5.0,0.5,0.0,0.0037146866100144877,2.991802485928761,0.4999999897280941
1.6887049674987793,0.5543461593819334,[1.31204055],5.0,0.5,0.0,0.0033781014310716537,2.8609204995918676,0.49999999150522184
1.6975853443145752,0.5576679375664568,[1.28914906],5.0,0.5,0.0,0.0030802599734762845,2.722587996154339,0.4999999929371266
1.7064905166625977,0.5611851144677169,[1.26470527],5.0,0.5,0.0,0.002814520751506132,2.7175822581797937,0.49999999410321105
1.714700698852539,0.564702291368977,[1.23896045],5.0,0.5,0.0,0.002575834652476956,2.52768604105037,0.49999999506095893
1.7235682010650635,0.5678286708367637,[1.21209806],5.0,0.5,0.0,0.0023603000021305085,2.35844350664882,0.49999999585293264
1.734255075454712,0.5723228413217071,[1.18425423],5.0,0.5,0.0,0.002164848101720223,2.205484047138289,0.4999999965113168
1.7426445484161377,0.5754492207894939,[1.15558329],5.0,0.5,0.0,0.001987020530650023,2.0689028025898963,0.49999999706092013
1.7536633014678955,0.5797479925577007,[1.12624837],5.0,0.5,0.0,0.0018248109857828521,1.922642011454283,0.4999999975211945
1.7627317905426025,0.5834605681756972,[1.09644629],5.0,0.5,0.0,0.0016765525270784004,1.8805096545861621,0.49999999790761784
1.7706305980682373,0.5867823463602206,[1.0663875],5.0,0.5,0.0,0.0015408367948506598,1.6808803102843586,0.4999999982326606
1.7804059982299805,0.5904949219782174,[1.03619723],5.0,0.5,0.0,0.2774548154469098,1.4660550531626764,0.49994269845631273
1.7901129722595215,0.5940120988794776,[1.00591258],5.0,0.5,0.0,0.3104653222827555,1.2351876018692118,0.4999282533362706
1.8009467124938965,0.5985062693644211,[0.9755245],5.0,0.5,0.0,0.25526333102761,0.983635219182801,0.49995149768469116
1.808668613433838,0.6018280475489444,[0.94499903],5.0,0.5,0.0,0.17908213375324505,0.7809986261527884,0.49997612739817254
1.8166565895080566,0.604954427016731,[0.91437075],5.0,0.5,0.0,0.10847107401778847,0.7499013797643128,0.4999912463129886
1.8263497352600098,0.6086670026347278,[0.8837452],5.0,0.5,0.0,0.051768047031430245,0.5398458090307443,0.49999827270749053
1.8376097679138184,0.6131611731196712,[0.85311813],5.0,0.5,0.0,-0.26634259452546705,0.19081715789839074,0.4999571668418121
1.846825361251831,0.616873748737668,[0.82238097],5.0,0.5,0.0,-0.3289509952652254,0.033826208668411656,0.5001340753702392
1.8567781448364258,0.6207817230724014,[0.79154187],5.0,0.5,0.0,-0.2934446663781116,0.012067524872875286,0.5028686811862477
1.8667967319488525,0.6244942986903982,[0.76070982],5.0,0.5,0.0,-0.22957026104315925,-0.19352573010716498,0.524415449262972
1.8756628036499023,0.6274252794414481,[0.72988016],5.0,0.5,0.0,-0.4419809886517624,-0.5115250306255813,0.6223844772962996
1.883927583694458,0.6301608614757614,[0.69900929],5.0,0.5,0.0,-0.6976937189588179,-0.5039293366245402,0.8871448568777522
1.8926875591278076,0.6325056460766015,[0.6682226],5.0,0.5,0.0,-1.4624686701062881,-0.5365792073974059,1.2732183185910682
1.9012031555175781,0.6344596332439683,[0.63766299],5.0,0.5,0.0,-2.2283047916050376,-0.797046647759147,1.4942672328501543
1.9117536544799805,0.6362182216945983,[0.6073609],5.0,0.5,0.0,-3.926387528087619,-0.8929399016389284,1.3352360039051738
1.92014479637146,0.636999816561545,[0.57740137],5.0,0.5,0.0,-5.0,-0.9057448118764745,0.9731821419874269
1.9291598796844482,0.6373906139950184,[0.54794528],5.0,0.5,0.0,-5.0,-1.0211480151643293,0.6836096910358453
1.939237356185913,0.6368044178448083,[0.5191141],5.0,0.5,0.0,-5.0,-1.1230911339223102,0.544381406522993
1.9471468925476074,0.6358274242611249,[0.49101538],5.0,0.5,0.0,-5.0,-1.1604933613540964,0.49681629046520004
1.956207036972046,0.6338734370937583,[0.46374961],5.0,0.5,0.0,-5.0,-1.3206430089003218,0.4847948700455486
1.9647154808044434,0.6315286524929183,[0.43738262],5.0,0.5,0.0,-5.0,-1.3506143681633713,0.48226423795684303
1.973660945892334,0.6284022730251315,[0.41199044],5.0,0.5,0.0,-5.0,-1.433375689672905,0.4818175773515278
1.983691692352295,0.6246896974071348,[0.38747967],5.0,0.5,0.0,-5.0,-1.957849662673187,0.48174502113787393
1.9940299987792969,0.6205863243556646,[0.36359368],5.0,0.5,0.0,-5.0,-1.8944473235340382,0.4817338960631852
2.0017547607421875,0.617459944887878,[0.3402868],5.0,0.5,0.0,-5.0,-1.8626891189554124,0.4817322744822718
2.011709213256836,0.6133565718364078,[0.31768844],5.0,0.5,0.0,-5.0,-1.8672104644400398,0.48173208764073344
2.022719144821167,0.6088624013514644,[0.29595537],5.0,0.5,0.0,-5.0,-1.7499349888606086,0.4817320652541581
2.03121018409729,0.6053452244502044,[0.27531797],5.0,0.5,0.0,-5.0,-1.7212744056917166,0.48173206247027633
2.038702964782715,0.6024142436991544,[0.25608548],5.0,0.5,0.0,-4.898100142320603,-1.4477346501604627,0.48245598746913
2.048323392868042,0.5985062693644211,[0.23868377],5.0,0.5,0.0,-1.9811408388654739,-1.196764511057509,0.4970868079900333
2.0556135177612305,0.595575288613371,[0.22352676],5.0,0.5,0.0,1.3118190285393827,-1.2236708747506773,0.498720623679773
2.064018726348877,0.5920581117121109,[0.21089593],5.0,0.5,0.0,4.912561953422677,-1.0783955154204836,0.4823540885287072
2.0729053020477295,0.5885409348108508,[0.20098763],5.0,0.5,0.0,5.0,-1.1481124228472344,0.4817320621240254
2.082033395767212,0.584828359192854,[0.19383862],5.0,0.5,0.0,5.0,-1.2752446615701503,0.48173206212398817
2.0926403999328613,0.5805295874246473,[0.18942671],5.0,0.5,0.0,5.0,-1.0652987900989812,0.4817320621239872
2.102651834487915,0.5762308156564405,[0.18782898],5.0,0.5,0.0,5.0,-1.035495042070189,0.4817320621240143
2.110827684402466,0.5731044361886538,[0.1890319],5.0,0.5,0.0,5.0,-1.1404737816763044,0.4817320621240894
2.1207029819488525,0.5691964618539204,[0.19289053],5.0,0.5,0.0,5.0,-1.0517836568384904,0.481732062124437
2.131673812866211,0.5648976900857137,[0.19934988],5.0,0.5,0.0,5.0,-0.824584704305512,0.48173206212640984
2.141204833984375,0.5607943170342435,[0.20837604],5.0,0.5,0.0,5.0,-0.9230489212712372,0.48173206214023756
2.151263475418091,0.5566909439827735,[0.21978434],5.0,0.5,0.0,5.0,-0.8644016447625741,0.4817320622622885
2.160111427307129,0.5533691657982501,[0.23334262],5.0,0.5,0.0,5.0,-0.8272953428272226,0.48173206339501656
2.1677584648132324,0.5502427863304634,[0.24879594],5.0,0.5,0.0,5.0,-0.8813874081489176,0.4817320749211201
2.1789321899414062,0.5455532171287834,[0.2658399],5.0,0.5,0.0,5.0,-0.7916123259304643,0.48173222215343015
2.1876964569091797,0.5418406415107866,[0.28417502],5.0,0.5,0.0,5.0,-0.8097355608923327,0.4817337733258103
2.1956100463867188,0.5391050594764732,[0.30346294],5.0,0.5,0.0,5.0,-0.8316483831502374,0.4817470924402955
2.2036707401275635,0.5359786800086865,[0.32332984],5.0,0.5,0.0,5.0,-0.8188004643757557,0.4818501707851964
2.214693784713745,0.5310937120902697,[0.34341707],5.0,0.5,0.0,5.0,-0.6336084081559853,0.48260425098483745
2.2257447242736816,0.5264041428885896,[0.36338827],5.0,0.5,0.0,5.0,-0.6248029068722893,0.4866501518619774
2.2350025177001953,0.5224961685538563,[0.38296015],5.0,0.5,0.0,5.0,-0.5573554729079158,0.5020945669854802
2.243732213973999,0.5189789916525962,[0.40193279],5.0,0.5,0.0,4.9946603174994415,-0.411807363094289,0.546343102809808
2.25364351272583,0.5150710173178628,[0.42018959],5.0,0.5,0.0,5.0,-0.19183228078004014,0.6469487780999845
2.262587308883667,0.511358441699866,[0.43767473],5.0,0.5,0.0,4.8286403619506455,-0.06482380424892047,0.8205535907715746
2.2717015743255615,0.5076458660818692,[0.45438941],5.0,0.5,0.0,4.512619704268857,-0.03470387885695482,1.052151477041122
2.280618906021118,0.5041286891806092,[0.4704747],5.0,0.5,0.0,4.155910686773735,0.32667009361686006,1.2846117808719395
2.2891478538513184,0.5010023097128224,[0.4861627],5.0,0.5,0.0,3.8040038025015352,0.4250332498448672,1.4462563780333857
2.2966701984405518,0.4982667276785091,[0.50159793],5.0,0.5,0.0,3.7508958271874047,0.5366136115799339,1.4874188732850326
2.3049116134643555,0.495335746927459,[0.51693368],5.0,0.5,0.0,3.759080865941274,0.8631047375826227,1.4005165147990615
2.312680721282959,0.4931863610433557,[0.53239049],5.0,0.5,0.0,4.016376487149185,0.9038560401631209,1.2234966884266942
2.3214023113250732,0.4910369751592523,[0.54811866],5.0,0.5,0.0,4.808879749389392,1.0701989129193077,1.0042563756589042
2.329921007156372,0.48966918414209565,[0.56424167],5.0,0.5,0.0,5.0,1.201332591543436,0.8105631775393727
2.3389763832092285,0.4888875892751489,[0.58084253],5.0,0.5,0.0,5.0,1.1834135717478014,0.6660409109549816
2.3496527671813965,0.4890829879918856,[0.5979849],5.0,0.5,0.0,5.0,1.4729265675129675,0.5750329683534071
2.3596112728118896,0.49025538029230564,[0.61576864],5.0,0.5,0.0,5.0,1.4225333508624445,0.5245535403709484
2.370006561279297,0.4926001648931457,[0.63427064],5.0,0.5,0.0,5.0,1.68635295429451,0.49979118202520717
2.380605697631836,0.49611734179440575,[0.65359792],5.0,0.5,0.0,5.0,1.7555685723423005,0.48874480461253944
2.3896005153656006,0.49943911997892915,[0.67383041],5.0,0.5,0.0,5.0,1.8311978056377298,0.48401460634091636
2.399212121963501,0.5033470943136626,[0.69497324],5.0,0.5,0.0,5.0,1.9105661761869368,0.4823784464910598
2.406599521636963,0.5062780750647126,[0.71696814],5.0,0.5,0.0,5.0,1.8606455270460904,0.4818714763699562
2.415682554244995,0.5097952519659726,[0.73970391],5.0,0.5,0.0,5.0,1.993146696169756,0.4817576959485698
2.4242162704467773,0.5135078275839694,[0.76312772],5.0,0.5,0.0,5.0,2.11793268174843,0.4817359330440682
2.432673454284668,0.5166342070517561,[0.78718597],5.0,0.5,0.0,5.0,2.100856021099301,0.48173250073567053
2.4425854682922363,0.5205421813864896,[0.81182503],5.0,0.5,0.0,5.0,2.397483697600147,0.48173210482080825
2.4508512020111084,0.5240593582877495,[0.83704286],5.0,0.5,0.0,4.876288236836022,2.363939535817491,0.4826091509329786
2.4598686695098877,0.5277719339057463,[0.86277928],5.0,0.5,0.0,2.010907016209189,2.5116364753716276,0.4969988756879455
2.468440055847168,0.5312891108070064,[0.88897659],5.0,0.5,0.0,-1.4930385816747749,2.6526570144936765,0.498343359519527
2.4776594638824463,0.5351970851417398,[0.91557997],5.0,0.5,0.0,-4.518935782457488,2.6456406038638667,0.48502751364472285
2.4870455265045166,0.5389096607597365,[0.94248695],5.0,0.5,0.0,-5.0,2.8156518239542567,0.4817320621239426
2.4947762489318848,0.5418406415107866,[0.9696576],5.0,0.5,0.0,-5.0,2.97565986436737,0.4817320621239356
2.502946138381958,0.5449670209785733,[0.9970996],5.0,0.5,0.0,-5.0,3.1089732139725057,0.4817320621239355
2.5125911235809326,0.5488749953133067,[1.0247918],5.0,0.5,0.0,-5.0,3.2009680355746375,0.4817320621239355
2.523010730743408,0.5531737670815134,[1.05266774],5.0,0.5,0.0,-5.0,3.260474482381513,0.4817320621239355
2.5311572551727295,0.5563001465493002,[1.08058776],5.0,0.5,0.0,-5.0,3.2333353305394277,0.4817320621239355
2.5415399074554443,0.5604035196007703,[1.1083568],5.0,0.5,0.0,-5.0,3.293503596050998,0.4817320621239355
2.5525906085968018,0.5648976900857137,[1.13580172],5.0,0.5,0.0,-5.0,3.3527743377383152,0.4817320621239355
2.561204195022583,0.5682194682702371,[1.16275206],5.0,0.5,0.0,-5.0,3.3360217544998707,0.4817320621239355
2.5708537101745605,0.5721274426049705,[1.1889909],5.0,0.5,0.0,-5.0,3.3414886446219327,0.4817320621239355
2.5785858631134033,0.5750584233560204,[1.21428911],5.0,0.5,0.0,-5.0,3.4258131891374974,0.4817320621239355
2.587967872619629,0.5787709989740173,[1.23843756],5.0,0.5,0.0,-5.0,3.510332382512312,0.4817320621239355
2.5955874919891357,0.581897378441804,[1.26126123],5.0,0.5,0.0,-5.0,3.4543441684990035,0.4817320621239355
2.604656934738159,0.5856099540598008,[1.2826057],5.0,0.5,0.0,-5.0,3.253333724231214,0.4817320621239355
2.613391637802124,0.5891271309610607,[1.30230774],5.0,0.5,0.0,-5.0,3.3032166578924715,0.4817320621239355
2.623612403869629,0.5930351052957942,[1.32019747],5.0,0.5,0.0,-5.0,3.3606128153572987,0.4817320621239355
2.6345930099487305,0.5975292757807376,[1.3360659],5.0,0.5,0.0,-5.0,3.2004302413769654,0.4817320621239355
2.6435956954956055,0.6010464526819976,[1.34970788],5.0,0.5,0.0,-5.0,3.2742028722303487,0.4817320621239355
2.6544346809387207,0.605540623166941,[1.36100154],5.0,0.5,0.0,-5.0,3.1811347192850223,0.4817320621239355
2.6656785011291504,0.6100347936518845,[1.3698217],5.0,0.5,0.0,-4.836747061669941,3.0809728900908846,0.48288518078461706
2.674558639526367,0.6135519705531445,[1.37601116],5.0,0.5,0.0,-4.576657975141495,2.987313528027238,0.48464854157801096
2.683248281478882,0.6170691474544047,[1.37944232],5.0,0.5,0.0,-4.279884679631859,2.9070526852397482,0.48654875606346953
2.6915273666381836,0.620390925638928,[1.38004202],5.0,0.5,0.0,-3.9763273788215687,2.8658161391013564,0.4883675983765236
2.7021658420562744,0.6246896974071348,[1.3778172],5.0,0.5,0.0,-3.680545586912586,2.8508729167206672,0.4900170469120901
2.7122905254364014,0.6285976717418682,[1.37286877],5.0,0.5,0.0,-3.399299502289501,2.878576664678246,0.49147184253369686
2.719534158706665,0.6311378550594449,[1.36541935],5.0,0.5,0.0,-3.1353790774634276,3.0050812920583496,0.49273538609682976
2.729367733001709,0.6350458293941783,[1.35580931],5.0,0.5,0.0,-2.8895578468793275,3.0815263829059023,0.49382306627533146
2.740170955657959,0.6395399998791217,[1.34441588],5.0,0.5,0.0,-2.66159589648965,3.108320939892271,0.4947543088725289
2.7490241527557373,0.6432525754971185,[1.33161864],5.0,0.5,0.0,-2.4507582541386856,3.173630509091609,0.49554890025552156
2.7565722465515137,0.6461835562481684,[1.3178165],5.0,0.5,0.0,-2.2560846919732302,3.061060610596594,0.4962253820814869
2.77164363861084,0.6522409164670053,[1.30348854],5.0,0.5,0.0,-2.076530924135311,3.440938993397277,0.4968004403501192
2.7822883129119873,0.656539688235212,[1.28924186],5.0,0.5,0.0,-1.9110425748703457,3.601156075304054,0.4972887644104484
2.7946293354034424,0.661229257436892,[1.27568816],5.0,0.5,0.0,-1.758593565847812,3.6782810781832684,0.49770312056975885
2.8033366203308105,0.6649418330548889,[1.26325649],5.0,0.5,0.0,-1.618205413307499,3.5003071641137575,0.4980545158870573
2.8135926723480225,0.6692406048230957,[1.25215274],5.0,0.5,0.0,-1.4889561405773435,3.3991454433553723,0.4983523917645246
2.8235039710998535,0.6733439778745656,[1.24246456],5.0,0.5,0.0,-1.3699834752778832,3.245923789990858,0.49860481850442234
2.832416534423828,0.6766657560590891,[1.23418402],5.0,0.5,0.0,-1.2604848822747496,3.042327700055031,0.49881867767790083
2.8409152030944824,0.6799875342436125,[1.22718968],5.0,0.5,0.0,-1.159715854634285,2.992087996557315,0.49899982698660933
2.8493540287017822,0.6829185149946625,[1.22126395],5.0,0.5,0.0,-1.0669872720366405,2.4195492869792443,0.4991532462031238
2.857544422149658,0.6862402931791859,[1.21611998],5.0,0.5,0.0,-0.9816622961719397,2.4394824978805123,0.4992831646840541
2.8688559532165527,0.690929862380866,[1.21132311],5.0,0.5,0.0,-0.9031530795354099,1.8563078084888502,0.4993931718288918
2.879218101501465,0.6950332354323361,[1.20624954],5.0,0.5,0.0,-0.8309174515769042,1.6111194020318995,0.49948631220295225
2.887507438659668,0.6983550136168594,[1.20038491],5.0,0.5,0.0,-0.7644556790659445,1.550694607735712,0.49956516711189897
2.896599531173706,0.7020675892348561,[1.19351661],5.0,0.5,0.0,-0.7033073566373931,1.6444653815330936,0.49963192434513487
2.905919075012207,0.7059755635695895,[1.18553531],5.0,0.5,0.0,-0.6470484581170796,1.413140624881314,0.49968843766952303
2.9140353202819824,0.7091019430373763,[1.17626686],5.0,0.5,0.0,-0.3192502036380769,1.3603682624867086,0.4999241359381123
2.9241912364959717,0.7132053160888464,[1.16557608],5.0,0.5,0.0,-0.23850530212643958,1.2931241925745587,0.49995765673314696
2.931858539581299,0.7161362968398964,[1.15346529],5.0,0.5,0.0,-0.24979104793192108,1.3626003632648251,0.4999535548634933
2.9405999183654785,0.7194580750244197,[1.14005621],5.0,0.5,0.0,-0.5616072375739003,1.381744926027679,0.49976526918582204
2.952530860900879,0.7243430429428366,[1.12541775],5.0,0.5,0.0,-0.35213314789108235,1.076164433655402,0.4999077045254762
2.9616363048553467,0.7278602198440967,[1.10947143],5.0,0.5,0.0,-0.2864164272094756,0.9702956255670111,0.49993893730060573
2.9716014862060547,0.7321589916123035,[1.09216777],5.0,0.5,0.0,-0.2760387591491569,0.8577436381183365,0.4999432818401232
2.9811086654663086,0.7358715672303001,[1.0735333],5.0,0.5,0.0,-0.5581779175332234,0.7427557084205856,0.4997681265506829
2.9899492263793945,0.7393887441315602,[1.05360761],5.0,0.5,0.0,-0.5981645592503507,0.6232069465222069,0.49973372644760616
2.9988369941711426,0.7429059210328203,[1.03249171],5.0,0.5,0.0,-0.5454026539634488,0.6385206922746088,0.49977866862594716
3.009669542312622,0.7470092940842904,[1.01028629],5.0,0.5,0.0,-0.466255646698246,0.3248176220942091,0.499839151395111
3.0176541805267334,0.7503310722688137,[0.98703955],5.0,0.5,0.0,-0.38805550021604995,0.3420970463526118,0.49990150540977263
3.0285730361938477,0.7550206414704939,[0.96285674],5.0,0.5,0.0,-0.3203616047349199,0.16562978976728462,0.5001006408193432
3.0375683307647705,0.7589286158052272,[0.93789002],5.0,0.5,0.0,-0.2650682229607955,0.1373803087608763,0.5016002480344259
3.048880100250244,0.763227387573434,[0.91222721],5.0,0.5,0.0,-0.2210927304618911,-0.21007080560772795,0.5117573181622025
3.05755352973938,0.7663537670412206,[0.88590061],5.0,0.5,0.0,-0.18646382911887666,-0.2180592507565498,0.5573409073179063
3.0666348934173584,0.7694801465090074,[0.8589972],5.0,0.5,0.0,-0.43522481511247135,-0.4080275530785809,0.7012190925825159
3.075690746307373,0.7724111272600575,[0.8315979],5.0,0.5,0.0,-0.9987884193869714,-0.5891808055624451,0.9955380333083723
3.084975481033325,0.7751467092943709,[0.80367528],5.0,0.5,0.0,-1.820694280581844,-0.9036714947867528,1.3473201120895544
3.093520164489746,0.7772960951784743,[0.77516158],5.0,0.5,0.0,-2.547775903511032,-1.0307070845680824,1.494280436276107
3.102123498916626,0.7786638861956309,[0.74611012],5.0,0.5,0.0,-4.7318354605921,-1.0197680396407205,1.2926129382554725
3.112391948699951,0.7790546836291042,[0.7166827],5.0,0.5,0.0,-5.0,-1.1771968639593626,0.9410315552197064
3.1221344470977783,0.7788592849123676,[0.68699229],5.0,0.5,0.0,-5.0,-1.3049614771557652,0.6666377959887193
3.1310555934906006,0.7780776900454209,[0.65712257],5.0,0.5,0.0,-5.0,-1.4064093963988789,0.5353416134216469
3.1395819187164307,0.7765145003115275,[0.62721887],5.0,0.5,0.0,-5.0,-1.4030795611621238,0.4933194594649092
3.1475510597229004,0.7739743169939507,[0.59747028],5.0,0.5,0.0,-5.0,-1.5109763379228254,0.4837000675883923
3.1565840244293213,0.7706525388094273,[0.56803419],5.0,0.5,0.0,-5.0,-1.5866683343287566,0.4820037548183589
3.16621994972229,0.7671353619081673,[0.53903872],5.0,0.5,0.0,-5.0,-1.6723815369224688,0.48176232419254783
3.1745591163635254,0.763813583723644,[0.51042885],5.0,0.5,0.0,-5.0,-2.2424225035376177,0.4817347126185774
3.184117078781128,0.7601010081056472,[0.48204632],5.0,0.5,0.0,-5.0,-2.0294552611797214,0.4817322546793486
3.191565990447998,0.7567792299211239,[0.45399745],5.0,0.5,0.0,-5.0,-2.0702896102280004,0.4817320730145852
3.201554775238037,0.7524804581529171,[0.42648027],5.0,0.5,0.0,-5.0,-2.1521325914094946,0.4817320627113889
3.211984872817993,0.7479862876679737,[0.39957864],5.0,0.5,0.0,-5.0,-2.2468483782939437,0.48173206215253656
3.221210479736328,0.7444691107667136,[0.37338354],5.0,0.5,0.0,-5.0,-2.235075678861039,0.4817320621250298
3.2295753955841064,0.7411473325821902,[0.34804532],5.0,0.5,0.0,-3.5396640726711537,-2.248514378592999,0.4907596907273724
3.240539789199829,0.7366531620972468,[0.32373796],5.0,0.5,0.0,-0.3776932082771345,-2.2492514789484908,0.4998938209319852
3.2527287006378174,0.73176819417883,[0.30066253],5.0,0.5,0.0,3.288038679473707,-2.152290358428012,0.4920165601587105
3.2617297172546387,0.7280556185608333,[0.27908484],5.0,0.5,0.0,5.0,-1.9942603201255347,0.4817320621239355
3.2719311714172363,0.7237568467926265,[0.25930652],5.0,0.5,0.0,5.0,-1.9632662254364304,0.4817320621239355
3.2835874557495117,0.7190672775909466,[0.24162952],5.0,0.5,0.0,5.0,-1.8707143112676672,0.4817320621239355
3.29358172416687,0.7149639045394763,[0.22632761],5.0,0.5,0.0,5.0,-1.8091905391146708,0.4817320621239355
3.304589033126831,0.7106651327712696,[0.21361846],5.0,0.5,0.0,5.0,-1.76549940316552,0.4817320621239355
3.313599109649658,0.7071479558700097,[0.20365968],5.0,0.5,0.0,5.0,-1.7314670947997892,0.4817320621239355
3.3246283531188965,0.7024583866683295,[0.19655504],5.0,0.5,0.0,5.0,-1.696197247440727,0.4817320621239355
3.3336246013641357,0.6987458110503327,[0.19235682],5.0,0.5,0.0,5.0,-1.6696733818902496,0.4817320621239355
3.3433151245117188,0.6948378367155994,[0.19106504],5.0,0.5,0.0,5.0,-1.646994883815211,0.4817320621239355
3.3535213470458984,0.6905390649473927,[0.1926265],5.0,0.5,0.0,5.0,-1.6286358325223622,0.4817320621239355
3.3626699447631836,0.6870218880461326,[0.19689134],5.0,0.5,0.0,5.0,-1.738832834560902,0.4817320621239355
3.3736913204193115,0.6825277175611891,[0.20364581],5.0,0.5,0.0,5.0,-1.6315116161503678,0.4817320621239355
3.3834636211395264,0.6788151419431923,[0.21270548],5.0,0.5,0.0,5.0,-1.6242825188671528,0.4817320621239355
3.3922808170318604,0.6752979650419323,[0.22385215],5.0,0.5,0.0,5.0,-1.649707489975268,0.4817320621239355
3.400170087814331,0.6723669842908824,[0.23677935],5.0,0.5,0.0,5.0,-1.6909193521922055,0.48173206212393554
3.407623529434204,0.6690452061063589,[0.25112975],5.0,0.5,0.0,5.0,-1.7343996607860117,0.48173206212393616
3.418571710586548,0.6643556369046788,[0.26652225],5.0,0.5,0.0,5.0,-1.7485539523530849,0.48173206212395336
3.429810047149658,0.6596660677029987,[0.28256055],5.0,0.5,0.0,5.0,-1.6381161969372338,0.48173206212438
3.439702033996582,0.6557580933682653,[0.29885298],5.0,0.5,0.0,5.0,-1.7316567507220102,0.48173206213256137
3.4494316577911377,0.651850119033532,[0.31504245],5.0,0.5,0.0,5.0,-1.9303329247289611,0.4817320622641453
3.459507942199707,0.6477467459820617,[0.33078323],5.0,0.5,0.0,4.910420046181871,-1.797876671837582,0.4823692000228419
3.4705920219421387,0.6432525754971185,[0.34573442],5.0,0.5,0.0,4.633821509598708,-1.8013660361963126,0.4842688147681184
3.4829647541046143,0.6379768101452282,[0.3595465],5.0,0.5,0.0,4.293950853200746,-1.8970319364065296,0.4864615882688593
3.493612766265869,0.633482639660285,[0.37183764],5.0,0.5,0.0,3.946754588699636,-1.9623626130580711,0.48853912089910684
3.501507043838501,0.6305516589092349,[0.38232573],5.0,0.5,0.0,3.6158057135800754,-1.7937377845777556,0.4903662234449369
3.51082181930542,0.6270344820079748,[0.39094259],5.0,0.5,0.0,3.309579115551177,-1.6533056766906769,0.4919268752710208
3.5186212062835693,0.6241035012569247,[0.39773765],5.0,0.5,0.0,3.0297811949842997,-1.5401400168119632,0.49324861953868426
3.5275139808654785,0.620390925638928,[0.40275963],5.0,0.5,0.0,2.775297539128158,-1.5208924447360914,0.4943760951896295
3.535515785217285,0.6172645461711412,[0.40604555],5.0,0.5,0.0,2.544013400652001,-1.4504855245605477,0.4953387018642252
3.544060230255127,0.6135519705531445,[0.40766126],5.0,0.5,0.0,2.333615332274766,-1.4058051837638097,0.49617051555762126
3.553219795227051,0.6100347936518845,[0.40772243],5.0,0.5,0.0,2.141914827473816,-1.307207935728364,0.49687498612602177
3.560596466064453,0.6071038129008345,[0.40640264],5.0,0.5,0.0,1.9669550561269737,-1.2157429337530445,0.4974453904799062
3.5704901218414307,0.6030004398493644,[0.40391847],5.0,0.5,0.0,1.8070246968346404,-1.2472950824126174,0.49793614546933773
3.580540180206299,0.5988970667978942,[0.40050468],5.0,0.5,0.0,1.9366746398061498,-1.129817208809519,0.49759705753418276
3.5884897708892822,0.595575288613371,[0.39641123],5.0,0.5,0.0,1.5596191359068954,-0.8568793210298075,0.49855119975811035
3.596562147140503,0.5924489091455841,[0.39189813],5.0,0.5,0.0,1.3483679539039453,-0.6976082899664986,0.49896942119070603
3.606703519821167,0.5883455360941141,[0.38725972],5.0,0.5,0.0,1.4905014323640566,-0.7011264404052235,0.4986564554650887
3.617523670196533,0.5838513656091707,[0.38282716],5.0,0.5,0.0,1.4254950337187564,-0.6051401403238846,0.49879864420721093
3.6263022422790527,0.5805295874246473,[0.37891257],5.0,0.5,0.0,1.2890348699835306,-0.5065227908038625,0.49905922680528825
3.6345348358154297,0.5770124105233871,[0.37579888],5.0,0.5,0.0,1.1400256065592331,-0.4058262639877586,0.499337805388809
3.6425395011901855,0.5736906323388637,[0.37370549],5.0,0.5,0.0,1.0016069858069672,-0.44469397515250997,0.4995896242051415
3.652575969696045,0.5697826580041304,[0.37278191],5.0,0.5,0.0,0.8808788061082449,-0.3238106266995211,0.4998483823052329
3.66153621673584,0.5662654811028704,[0.37315094],5.0,0.5,0.0,0.7782147568982958,-0.3600355299880303,0.5001258170566376
3.673156499862671,0.5615759119011904,[0.37495412],5.0,0.5,0.0,0.6915349499728959,-0.09439456329063638,0.5005879936293858
3.680532932281494,0.5584495324334036,[0.37834332],5.0,0.5,0.0,0.6181728129791719,-0.17205741528653423,0.5012377400699772
3.6891822814941406,0.5553231529656169,[0.38332384],5.0,0.5,0.0,0.5556196979765384,-0.21463286440349985,0.5024641808218613
3.6975154876708984,0.5520013747810935,[0.38977544],5.0,0.5,0.0,0.5017647435298844,-0.22794718562119903,0.5049900280125461
3.705557346343994,0.5486795965965701,[0.39761365],5.0,0.5,0.0,0.4549218612046517,-0.10500669213349109,0.5102643415317957
3.7136712074279785,0.54516241969531,[0.40681835],5.0,0.5,0.0,0.413777951409935,-0.020187391909298632,0.5216296357107237
3.7257325649261475,0.5406682492103666,[0.41736432],5.0,0.5,0.0,0.37732111821404796,0.038636693270435465,0.5476920197224829
3.734774112701416,0.5373464710258432,[0.42916885],5.0,0.5,0.0,0.6208108282503839,0.07009941866076858,0.5959946445409973
3.742504596710205,0.5342200915580564,[0.44207974],5.0,0.5,0.0,0.9007305503615706,0.033335613317096016,0.6824514039896946
3.7525312900543213,0.5307029146567964,[0.45589451],5.0,0.5,0.0,1.1283872225554348,0.0773003139750052,0.8255746064711802
3.762056350708008,0.5275765351890096,[0.47041916],5.0,0.5,0.0,1.5584581379670084,0.1110759214471347,1.0184727508604299
3.771862268447876,0.5244501557212229,[0.48546992],5.0,0.5,0.0,2.2293298277896243,0.1442617902440027,1.2342548056415201
3.780526638031006,0.5219099724036462,[0.50084899],5.0,0.5,0.0,3.0995601476514496,0.15867588080556091,1.4080074267505693
3.7910149097442627,0.5191743903693328,[0.51636356],5.0,0.5,0.0,4.107483823519106,0.22634622224321893,1.4860184120780562
3.8005292415618896,0.5172204032019662,[0.53184721],5.0,0.5,0.0,5.0,0.26808009868615634,1.4398458840554444
3.80952787399292,0.5152664160345994,[0.54714629],5.0,0.5,0.0,5.0,0.44563983572822524,1.2977938394620345
3.8199210166931152,0.5135078275839694,[0.56211445],5.0,0.5,0.0,5.0,0.5387123695623088,1.1051608577139755
3.8282694816589355,0.5123354352835494,[0.57662459],5.0,0.5,0.0,5.0,0.5876588459624595,0.9192581387858252
3.8397083282470703,0.511358441699866,[0.59057604],5.0,0.5,0.0,5.0,0.6467015173363181,0.7667835465889389
3.850640296936035,0.5109676442663927,[0.60390518],5.0,0.5,0.0,5.0,0.7384056957116116,0.6594643235323113
3.8590540885925293,0.511358441699866,[0.61659526],5.0,0.5,0.0,5.0,0.8158451944805206,0.5908902037649048
3.868648052215576,0.5121400365668127,[0.62868049],5.0,0.5,0.0,5.0,0.7832242770473289,0.5478486585327373
3.876887321472168,0.513117030150496,[0.6402414],5.0,0.5,0.0,5.0,0.9040965565876959,0.5212057546044758
3.8853631019592285,0.5146802198843894,[0.65139206],5.0,0.5,0.0,5.0,1.0205388544007656,0.5055331138730099
3.8935506343841553,0.5166342070517561,[0.6622337],5.0,0.5,0.0,5.0,1.0431106420872818,0.4961419217462586
3.9031386375427246,0.5193697890860695,[0.67284158],5.0,0.5,0.0,5.0,1.1460034820544647,0.490730373325607
3.912113904953003,0.5226915672705928,[0.68331307],5.0,0.5,0.0,5.0,1.2208141169451707,0.4874746042675314
3.9207122325897217,0.5262087441718529,[0.69375201],5.0,0.5,0.0,5.0,1.2679294645312755,0.485377973227283
3.9295005798339844,0.5299213197898497,[0.70422668],5.0,0.5,0.0,5.0,1.2890143579336628,0.48402832625172376
3.9394140243530273,0.5338292941245831,[0.71476484],5.0,0.5,0.0,5.0,1.2875498103591427,0.48316570847654494
3.9488096237182617,0.5377372684593165,[0.72535378],5.0,0.5,0.0,5.0,1.2701763852127161,0.48260819676753364
3.9564883708953857,0.5408636479271033,[0.73593868],5.0,0.5,0.0,5.0,1.2289668246640488,0.48222711125476764
3.9669759273529053,0.5449670209785733,[0.74643693],5.0,0.5,0.0,5.0,1.2163191202906536,0.48203017914329127
3.9754910469055176,0.5484841978798334,[0.75675905],5.0,0.5,0.0,4.031216577657735,1.2883528311712624,0.48821881659301775
3.986631393432617,0.5529783683647768,[0.76678985],5.0,0.5,0.0,1.3429469352389911,1.1951600718288777,0.49876622810986865
3.996508836746216,0.5568863426995102,[0.77638969],5.0,0.5,0.0,-1.6803797608863669,1.0495519807981053,0.4979677773918657
4.0055153369903564,0.5604035196007703,[0.78541082],5.0,0.5,0.0,-4.769074918268164,0.8219954523370714,0.48339277742480113
4.01458740234375,0.5641160952187669,[0.79366531],5.0,0.5,0.0,-5.0,0.8783930270156634,0.48175855675066487
4.022515296936035,0.5670470759698171,[0.80095754],5.0,0.5,0.0,-5.0,0.8676429815766818,0.48174974664138076
4.032511234283447,0.5711504490212871,[0.80710391],5.0,0.5,0.0,-5.0,0.7013809358399307,0.48174665748247225
4.041180610656738,0.5746676259225473,[0.81185819],5.0,0.5,0.0,-5.0,0.5346021762907419,0.4817450450860993
4.049555063247681,0.5779894041070706,[0.81499188],5.0,0.5,0.0,-5.0,0.5557048535362232,0.48174527875790624
4.0579118728637695,0.581311182291594,[0.81635601],5.0,0.5,0.0,-5.0,0.3875971807349944,0.481747961767265
4.066925525665283,0.5850237579095907,[0.8157821],5.0,0.5,0.0,-5.0,0.2805299241703394,0.48175576574350903
4.074498176574707,0.5881501373773773,[0.81317327],5.0,0.5,0.0,-5.0,0.3699069885975135,0.48177204408651925
4.084862470626831,0.5920581117121109,[0.80852073],5.0,0.5,0.0,-5.0,0.15790728217991112,0.4818172021747654
4.0949132442474365,0.5963568834803176,[0.80178407],5.0,0.5,0.0,-5.0,0.14789723284679285,0.48194809802805894
4.102972030639648,0.5994832629481043,[0.79300021],5.0,0.5,0.0,-5.0,0.1644577319492599,0.4822908380020599
4.113579034805298,0.6037820347163111,[0.78233312],5.0,0.5,0.0,-5.0,0.18380245858043115,0.48343381230917665
4.122804641723633,0.6074946103343077,[0.77000459],5.0,0.5,0.0,-5.0,0.20785778682462025,0.48681483282220833
4.131818056106567,0.6110117872355679,[0.75627791],5.0,0.5,0.0,-5.0,0.22785658903844497,0.496424102109487
4.140117645263672,0.6143335654200912,[0.74144813],5.0,0.5,0.0,-5.0,0.2575888998657193,0.5212254288304743
4.150073051452637,0.6184369384715612,[0.72582107],5.0,0.5,0.0,-5.0,0.23500276986784205,0.5813642365181315
4.1575095653533936,0.6213679192226114,[0.7096846],5.0,0.5,0.0,-5.0,0.216596739417502,0.6918750524259009
4.167499303817749,0.6252758935573448,[0.69330301],5.0,0.5,0.0,-4.959931866939996,0.07466391514785946,0.8783366442975423
4.179016590118408,0.6295746653255516,[0.67691692],5.0,0.5,0.0,-4.733265022381346,-0.0626509779169414,1.122337647302468
4.188485622406006,0.6332872409435483,[0.66074338],5.0,0.5,0.0,-4.432780912917689,-0.08791936678863645,1.3456320041735699
4.197928428649902,0.6366090191280717,[0.64498324],5.0,0.5,0.0,-4.112426253997695,-0.0192124952347085,1.4736402028401154
4.206284999847412,0.639930797312595,[0.62981462],5.0,0.5,0.0,-4.073229907978325,-0.04274371910947014,1.4675414214245475
4.217587232589722,0.6436433729305918,[0.61538711],5.0,0.5,0.0,-4.359173445239497,0.007315828447540218,1.33846656568635
4.2277069091796875,0.6467697523983785,[0.60184232],5.0,0.5,0.0,-4.91921103117328,0.026662550500041817,1.1501550934515903
4.236515283584595,0.6495053344326919,[0.58930793],5.0,0.5,0.0,-5.0,-0.04263708544072751,0.9661798997797586
4.245657205581665,0.6520455177502685,[0.57789611],5.0,0.5,0.0,-5.0,-0.16589906639918717,0.8147273220786908
4.25449538230896,0.654194903634372,[0.56774659],5.0,0.5,0.0,-5.0,-0.1292767478335145,0.7060564007420944
4.264179706573486,0.656539688235212,[0.55903168],5.0,0.5,0.0,-5.0,-0.07404122042638253,0.6310671878298264
4.272923231124878,0.6582982766858421,[0.55193615],5.0,0.5,0.0,-5.0,-0.0020828127583829175,0.5858136263924644
4.282513380050659,0.6600568651364721,[0.54665149],5.0,0.5,0.0,-5.0,0.08229054033906427,0.558102805126564
4.290484189987183,0.661229257436892,[0.54331235],5.0,0.5,0.0,-5.0,0.01967623769740891,0.543716046512439
4.299889802932739,0.662987845887522,[0.54199846],5.0,0.5,0.0,-5.0,0.16145718012516488,0.5352527782716603
4.3095550537109375,0.6645510356214154,[0.54282934],5.0,0.5,0.0,-5.0,0.2370415323021424,0.5333836599406994
4.321632385253906,0.6667004215055189,[0.54596104],5.0,0.5,0.0,-5.0,0.40413822484245016,0.5359036060201746
4.331993103027344,0.6684590099561489,[0.551512],5.0,0.5,0.0,-5.0,0.40157330547960685,0.5466052539380767
4.339533805847168,0.6700221996900422,[0.55944047],5.0,0.5,0.0,-4.741239698637315,0.2782599634122147,0.5702118721996413
4.348303556442261,0.671976186857409,[0.56958099],5.0,0.5,0.0,-3.3458836628392294,0.3492937434555393,0.6145653871401009
4.356450080871582,0.673734775308039,[0.58176557],5.0,0.5,0.0,-1.5334724837217522,0.2839560075148134,0.6824647785083112
4.365455150604248,0.6756887624754058,[0.59582578],5.0,0.5,0.0,0.6393507166742372,0.4005432583826763,0.7789538305112244
4.374476909637451,0.6780335470762457,[0.61164577],5.0,0.5,0.0,2.5077179712465876,0.508684085206558,0.9095152376860505
4.383002281188965,0.6803783316770857,[0.62915573],5.0,0.5,0.0,4.169006376918691,0.6129243382261554,1.0789304825549118
4.392479419708252,0.6829185149946625,[0.64827487],5.0,0.5,0.0,5.0,0.7155790528409885,1.2683312473794608
4.400439977645874,0.6854586983122393,[0.66886321],5.0,0.5,0.0,5.0,0.6796283190064712,1.4281395825698975
4.409413814544678,0.6887804764967627,[0.69073255],5.0,0.5,0.0,5.0,0.8223723986253993,1.4809702364756174
4.417492389678955,0.6919068559645494,[0.71375797],5.0,0.5,0.0,5.0,0.9580283080004157,1.3906556999706325
4.426093339920044,0.6954240328658093,[0.73786964],5.0,0.5,0.0,5.0,1.085954279971893,1.179181060784643
4.4334516525268555,0.6983550136168594,[0.76294248],5.0,0.5,0.0,5.0,1.0713596877055416,0.9159067938422218
4.442936658859253,0.7022629879515929,[0.78879548],5.0,0.5,0.0,5.0,1.2043321645411933,0.7054040783074429
4.451953411102295,0.7059755635695895,[0.81527784],5.0,0.5,0.0,5.0,1.2869276629269168,0.5734169586906394
4.459506273269653,0.7091019430373763,[0.84221516],5.0,0.5,0.0,5.0,1.2612383424614373,0.5106346086772364
4.469470024108887,0.7130099173721096,[0.86935927],5.0,0.5,0.0,5.0,1.3069198960988067,0.4892608289728654
4.478596210479736,0.7165270942733698,[0.8964521],5.0,0.5,0.0,5.0,1.3084697593844328,0.4832741753623879
4.486932992935181,0.7196534737411566,[0.92321229],5.0,0.5,0.0,4.232834762997115,1.2714470202177484,0.48709067961645014
4.495024919509888,0.7231706506424166,[0.94929973],5.0,0.5,0.0,2.8911927700938245,1.3185041232233818,0.49385230260657453
4.503708362579346,0.7266878275436768,[0.97435947],5.0,0.5,0.0,1.5847869272010895,1.0932201277661782,0.49813859077039657
4.5116307735443115,0.7300096057282001,[0.99803789],5.0,0.5,0.0,0.5189267916349838,1.0670983651588803,0.4998001598802005
4.519741773605347,0.7333313839127235,[1.01998462],5.0,0.5,0.0,-0.5492296815926856,1.0874785797968005,0.49977557249233323
4.529616594314575,0.7372393582474569,[1.03985866],5.0,0.5,0.0,-1.4085850894549985,0.9089778900480465,0.498525216416789
4.539753198623657,0.7411473325821902,[1.05725905],5.0,0.5,0.0,-2.0205260057024628,0.7388521963362027,0.49697018509772267
4.548887729644775,0.7446645094834503,[1.07179668],5.0,0.5,0.0,-2.412284369494417,0.7183574217470484,0.4956869575585406
4.5576112270355225,0.748377085101447,[1.08329233],5.0,0.5,0.0,-2.629762449841264,0.8878185409480629,0.4948783975576453
4.565481662750244,0.7515034645692338,[1.09175127],5.0,0.5,0.0,-2.7182442942548057,0.8744435437622915,0.4945298769807515
4.5746681690216064,0.7556068376207038,[1.09718493],5.0,0.5,0.0,-2.715758868728254,0.8469591964393759,0.4945398208081079
4.583021640777588,0.7589286158052272,[1.09958919],5.0,0.5,0.0,-2.65186510670622,0.8156921948439843,0.49479239523605406
4.592572450637817,0.7630319888566973,[1.09899568],5.0,0.5,0.0,-2.548515293836468,0.7725589498229877,0.49518847106648817
4.601452827453613,0.7661583683244839,[1.09551909],5.0,0.5,0.0,-2.4215149135128957,0.8656667761220037,0.495654030923951
4.61048698425293,0.7696755452257441,[1.08934422],5.0,0.5,0.0,-2.281970943768516,0.7669773567788768,0.49613860400958265
4.620608806610107,0.7737789182772141,[1.08061137],5.0,0.5,0.0,-2.137517641156794,0.6663034606611268,0.4966103959118296
4.628976821899414,0.7771006964617375,[1.06942138],5.0,0.5,0.0,-1.9932794491642216,0.5680305397629657,0.49705114352018004
4.637457370758057,0.7804224746462608,[1.05594218],5.0,0.5,0.0,-1.8525964258796095,0.6060942033604798,0.49745190405559087
4.646505355834961,0.783939651547521,[1.04039623],5.0,0.5,0.0,-1.9935951439110917,0.4576196166463513,0.4970521120176644
4.6574811935424805,0.7884338220324644,[1.02294745],5.0,0.5,0.0,-1.8985441248147672,0.3091895595823631,0.4973407302270022
4.666091680526733,0.7921463976504612,[1.003708],5.0,0.5,0.0,-1.7227622544938779,0.16719007093141483,0.4979250819155457
4.67536997795105,0.7958589732684579,[0.98279593],5.0,0.5,0.0,-1.5337104583857102,0.02526869760653128,0.4991739227889942
4.687100887298584,0.800548542470138,[0.96028181],5.0,0.5,0.0,-1.3579010619339171,-0.2642532624041847,0.5047081144284737
4.695794582366943,0.804065719371398,[0.93619513],5.0,0.5,0.0,-1.2034646907541895,-0.37075899643211935,0.5293740282098379
4.70348858833313,0.8068013014057114,[0.91068319],5.0,0.5,0.0,-1.0708117679471014,-0.3484441300070238,0.61466975914108
4.711491346359253,0.8093414847232882,[0.88399086],5.0,0.5,0.0,-1.5096041489914378,-0.5189171856049803,0.8263838046732748
4.720388650894165,0.8118816680408648,[0.8562894],5.0,0.5,0.0,-2.0309161156895517,-0.6885848549371145,1.1710171254768384
4.7318198680877686,0.814812648791915,[0.82768546],5.0,0.5,0.0,-3.283494200943218,-0.8593086418757427,1.459439772009927
4.741667985916138,0.8167666359592817,[0.79828058],5.0,0.5,0.0,-5.0,-1.025145806307008,1.4156685282716939
4.749460935592651,0.8173528321094915,[0.76822257],5.0,0.5,0.0,-5.0,-1.0419322507312436,1.0988121003899094
4.759317398071289,0.8175482308262284,[0.7377026],5.0,0.5,0.0,-5.0,-1.22403227688838,0.7611449022520513
4.769607067108154,0.8169620346760184,[0.70685969],5.0,0.5,0.0,-5.0,-1.3653935568751827,0.5702539818524675
4.779500484466553,0.8152034462253882,[0.675812],5.0,0.5,0.0,-5.0,-1.4493330740081223,0.5022594533109681
4.787512302398682,0.8132494590580216,[0.64467116],5.0,0.5,0.0,-5.0,-1.6653233546747284,0.48513291729367514
4.797469615936279,0.8095368834400247,[0.61350923],5.0,0.5,0.0,-5.0,-1.7416846644030433,0.4821915637895091
4.8065690994262695,0.8056289091052914,[0.58245468],5.0,0.5,0.0,-5.0,-1.7540705478565464,0.48177925123995935
4.8154730796813965,0.8025025296375047,[0.55173376],5.0,0.5,0.0,-5.0,-1.7454386243699287,0.4817355126110506
4.823877573013306,0.7991807514529814,[0.52160418],5.0,0.5,0.0,-5.0,-1.7778641285471717,0.4817322651866511
4.832465648651123,0.7956635745517212,[0.49231386],5.0,0.5,0.0,-5.0,-1.786167264140685,0.48173207229000825
4.840455055236816,0.7925371950839345,[0.46410278],5.0,0.5,0.0,-5.0,-1.8499911467108459,0.4817320625511082
4.849424600601196,0.7884338220324644,[0.43720869],5.0,0.5,0.0,-5.0,-1.8940425758999773,0.48173206214321806
4.859425783157349,0.784525847697731,[0.41187129],5.0,0.5,0.0,-5.0,-1.6329795577814157,0.481732062124802
4.867777109146118,0.7810086707964708,[0.38832602],5.0,0.5,0.0,-3.856761429962483,-1.7523902008709467,0.4890490372371722
4.877277374267578,0.7774914938952109,[0.36678745],5.0,0.5,0.0,-1.102277714297799,-1.7667642295836494,0.49909635887591774
4.8864216804504395,0.7737789182772141,[0.3474101],5.0,0.5,0.0,2.489017443890188,-1.8452787073908956,0.49540948667291435
4.896450757980347,0.7696755452257441,[0.33028677],5.0,0.5,0.0,5.0,-1.8209129829236446,0.4817320621239355
4.904961824417114,0.7663537670412206,[0.31550989],5.0,0.5,0.0,5.0,-1.8074437019438443,0.4817320621239355
4.913954496383667,0.7630319888566973,[0.30316534],5.0,0.5,0.0,5.0,-1.8027243666177972,0.4817320621239355
4.922552108764648,0.7595148119554372,[0.29326368],5.0,0.5,0.0,5.0,-1.8917262012587037,0.4817320621239355
4.933703660964966,0.7544344453202838,[0.28575884],5.0,0.5,0.0,5.0,-1.8255177971810979,0.4817320621239355
4.942444801330566,0.7509172684190237,[0.28056656],5.0,0.5,0.0,5.0,-1.9637343926816877,0.4817320621239355
4.951469898223877,0.7470092940842904,[0.2775213],5.0,0.5,0.0,5.0,-1.9766384259627976,0.4817320621239355
4.961451053619385,0.7432967184662935,[0.27644081],5.0,0.5,0.0,5.0,-1.9797960783219168,0.4817320621239355
4.970357894897461,0.7393887441315602,[0.27715527],5.0,0.5,0.0,5.0,-2.007037278380519,0.4817320621239355
4.979052543640137,0.7360669659470368,[0.27946176],5.0,0.5,0.0,5.0,-2.0310394779480005,0.4817320621239355
4.987922430038452,0.7325497890457766,[0.28313939],5.0,0.5,0.0,5.0,-2.038713819987599,0.4817320621239355
4.995589971542358,0.7294234095779901,[0.28797414],5.0,0.5,0.0,5.0,-1.9695582161030374,0.4817320621239355
5.003506183624268,0.7261016313934666,[0.29375877],5.0,0.5,0.0,5.0,-1.9237895314605158,0.48173206212393554
5.0115272998809814,0.7225844544922065,[0.3003009],5.0,0.5,0.0,5.0,-1.8645519047934798,0.4817320621239358
5.021841287612915,0.7186764801574732,[0.30745437],5.0,0.5,0.0,5.0,-1.8329499242184697,0.48173206212393754
5.031731128692627,0.7145731071060031,[0.31511589],5.0,0.5,0.0,5.0,-1.7949651734789869,0.4817320621239493
5.040548801422119,0.7112513289214797,[0.32319151],5.0,0.5,0.0,5.0,-1.7054308851941782,0.48173206212401865
5.04841160774231,0.7079295507369562,[0.33159259],5.0,0.5,0.0,5.0,-1.672351782088486,0.48173206212443465
5.058173418045044,0.7038261776854862,[0.34025769],5.0,0.5,0.0,5.0,-1.591055880700932,0.48173206212723774
5.0684943199157715,0.6997228046340161,[0.34914425],5.0,0.5,0.0,4.744792138688373,-1.5167580286289015,0.4835190150302177
5.078174352645874,0.6956194315825459,[0.35820986],5.0,0.5,0.0,4.523039863883328,-1.446963083536142,0.48500071775017867
5.087412357330322,0.6921022546812859,[0.36741316],5.0,0.5,0.0,4.299916741779819,-1.3809256546252107,0.48642427366742036
5.0964531898498535,0.6883896790632892,[0.37671645],5.0,0.5,0.0,4.343184958823154,-1.313622712054477,0.4861535258920518
5.107190370559692,0.6837001098616091,[0.3860874],5.0,0.5,0.0,3.8598152869703166,-1.240231499789827,0.4890318999633798
5.1158623695373535,0.6803783316770857,[0.39550023],5.0,0.5,0.0,3.5284290287799323,-1.1712146970286461,0.49081780412138953
5.124410152435303,0.6772519522092991,[0.40493727],5.0,0.5,0.0,3.2666036704997232,-1.099551697004684,0.49211985058807806
5.13347053527832,0.6739301740247756,[0.41439108],5.0,0.5,0.0,3.3137628556964893,-1.0211967071502868,0.49189358563337005
5.142445087432861,0.6700221996900422,[0.42384859],5.0,0.5,0.0,3.1356513047584134,-0.9839432592527073,0.49273958161293985
5.152467727661133,0.6655280292050988,[0.43331914],5.0,0.5,0.0,2.88121595580611,-0.8077211820238993,0.4938791841815981
5.161056280136108,0.6624016497373121,[0.44285023],5.0,0.5,0.0,2.6159724687244896,-0.7744669688934777,0.4949967338196511
5.169978857040405,0.6586890741193153,[0.4524838],5.0,0.5,0.0,2.366253354085933,-0.638518767474263,0.49605194141639986
5.178548574447632,0.6553672959347919,[0.46229199],5.0,0.5,0.0,2.1405846789064658,-0.49584266132521165,0.4971788743882492
5.188420534133911,0.6514593216000585,[0.47239651],5.0,0.5,0.0,1.939850277369998,-0.34504285798669343,0.49884723055234187
5.1987526416778564,0.6471605498318519,[0.48298031],5.0,0.5,0.0,1.7620060449099946,-0.0638893311715313,0.5022514947678439
5.209437370300293,0.6426663793469085,[0.49427304],5.0,0.5,0.0,1.6041787785211759,0.05793909534902114,0.5103149354575894
5.218013525009155,0.6393446011623851,[0.50639229],5.0,0.5,0.0,1.4635340104788674,0.03536238509873816,0.527559156989632
5.227853536605835,0.6352412281109149,[0.51934428],5.0,0.5,0.0,1.613620464385178,0.18336403498066495,0.5661898505566081
5.235446453094482,0.6328964435100749,[0.53312447],5.0,0.5,0.0,1.809442499944032,0.1728178312504446,0.6341426371980428
5.245399713516235,0.6293792666088148,[0.54771253],5.0,0.5,0.0,2.237110255718248,0.3210177878375774,0.7597385256549771
5.255502939224243,0.6266436845745015,[0.56311509],5.0,0.5,0.0,2.907368496414703,0.43802364006693273,0.9398630885642556
5.2648515701293945,0.6244942986903982,[0.57935476],5.0,0.5,0.0,3.769541745245536,0.5313215686010754,1.1548347096308889
5.2733025550842285,0.6225403115230315,[0.59641632],5.0,0.5,0.0,5.0,0.6110549128189582,1.3541448124182456
5.283440351486206,0.6207817230724014,[0.61425447],5.0,0.5,0.0,5.0,0.6866159184367219,1.473247260863721
5.292914867401123,0.6194139320552446,[0.63283869],5.0,0.5,0.0,5.0,0.8576567383996264,1.4463291290240277
5.3020100593566895,0.6188277359050346,[0.65212391],5.0,0.5,0.0,5.0,0.8177094502557479,1.2828660831278706
5.312392711639404,0.6188277359050346,[0.67199104],5.0,0.5,0.0,5.0,0.9113887265034704,1.0499402286128467
5.322772741317749,0.6196093307719813,[0.69233362],5.0,0.5,0.0,5.0,1.0118299212091733,0.8289632785926253
5.331390380859375,0.6207817230724014,[0.71309905],5.0,0.5,0.0,5.0,1.125004347017756,0.6635957291667924
5.33975076675415,0.6225403115230315,[0.7342582],5.0,0.5,0.0,5.0,1.256186345033167,0.5641314295515499
5.348388910293579,0.6244942986903982,[0.75576618],5.0,0.5,0.0,5.0,1.2746300488236213,0.5135902276093193
5.358999967575073,0.6280114755916582,[0.77757292],5.0,0.5,0.0,5.0,1.4702234007345023,0.49313681141267707
5.3663904666900635,0.6307470576259715,[0.79966634],5.0,0.5,0.0,5.0,1.515339477129363,0.48505553679562463
5.374399185180664,0.6336780383770215,[0.82205864],5.0,0.5,0.0,5.0,1.7367103003270055,0.4825592736449011
5.383592844009399,0.6373906139950184,[0.84481366],5.0,0.5,0.0,5.0,1.879388155356151,0.48191527456262573
5.3924078941345215,0.6412985883297517,[0.86800771],5.0,0.5,0.0,5.0,2.0017821302935297,0.4817663950778362
5.4009833335876465,0.6448157652310118,[0.89162951],5.0,0.5,0.0,5.0,1.9808147061352053,0.4817371767550511
5.410067319869995,0.6485283408490086,[0.91561126],5.0,0.5,0.0,5.0,2.1353536085671445,0.4817326990214377
5.418422698974609,0.651850119033532,[0.93989126],5.0,0.5,0.0,5.0,2.1389785174963682,0.48173212428481976
5.427438497543335,0.6555626946515287,[0.96441368],5.0,0.5,0.0,3.4136121236928973,2.310546140612023,0.49140050400097635
5.437428712844849,0.6594706689862622,[0.98917904],5.0,0.5,0.0,0.4841219893759452,2.4634406269507076,0.4998255625914602
5.447485685348511,0.6635740420377321,[1.01423544],5.0,0.5,0.0,-2.879130129729827,2.6022748188616602,0.4938672939378011
5.4564385414123535,0.6674820163724656,[1.03961977],5.0,0.5,0.0,-5.0,2.7335418764898125,0.48173206212487135
5.467594385147095,0.671976186857409,[1.06535901],5.0,0.5,0.0,-5.0,2.856537247336643,0.4817320621239717
5.475389003753662,0.6751025663251957,[1.09142061],5.0,0.5,0.0,-5.0,2.8430396158660645,0.4817320621239364
5.483515739440918,0.6782289457929824,[1.11772202],5.0,0.5,0.0,-5.0,3.0076768883354923,0.4817320621239355
5.493716239929199,0.6821369201277159,[1.14429197],5.0,0.5,0.0,-5.0,3.2963095564075107,0.4817320621239355
5.502624988555908,0.6854586983122393,[1.17125286],5.0,0.5,0.0,-5.0,3.398795249209136,0.4817320621239355
5.511749744415283,0.6893666726469726,[1.19865234],5.0,0.5,0.0,-5.0,3.503905467831811,0.4817320621239355
5.519550800323486,0.6924930521147594,[1.22642336],5.0,0.5,0.0,-5.0,3.4785513002413855,0.4817320621239355
5.527441501617432,0.6956194315825459,[1.2544028],5.0,0.5,0.0,-5.0,3.4975500842489,0.4817320621239355
5.537444829940796,0.6997228046340161,[1.28245005],5.0,0.5,0.0,-5.0,3.6832989054632663,0.4817320621239355
5.5467541217803955,0.7036307789687495,[1.3105469],5.0,0.5,0.0,-5.0,3.8518383864404586,0.4817320621239355
5.555696249008179,0.7073433545867464,[1.33872811],5.0,0.5,0.0,-5.0,4.00760428951415,0.4817320621239355
5.563422679901123,0.710469734054533,[1.36697123],5.0,0.5,0.0,-5.0,4.016715434490576,0.4817320621239355
5.573434352874756,0.7141823096725297,[1.39520571],5.0,0.5,0.0,-5.0,4.196326525431132,0.4817320621239355
5.5834290981292725,0.7182856827239998,[1.42341899],5.0,0.5,0.0,-5.0,4.34755249095548,0.4817320621239355
5.592424392700195,0.7218028596252599,[1.45163324],5.0,0.5,0.0,-5.0,4.4632511680391405,0.4817320621239355
5.600388526916504,0.7251246378097833,[1.47979429],5.0,0.5,0.0,-5.0,4.449900046824609,0.4817320621239355
5.609434604644775,0.7286418147110434,[1.50778024],5.0,0.5,0.0,-5.0,4.5562665070779484,0.4817320621239355
5.6184446811676025,0.7325497890457766,[1.53548671],5.0,0.5,0.0,-5.0,4.623589018589437,0.4817320621239355
5.63000226020813,0.7372393582474569,[1.56282086],5.0,0.5,0.0,-4.851025945370772,4.678901828631784,0.48278574240486216
5.638415336608887,0.7405611364319802,[1.58963669],5.0,0.5,0.0,-4.5915805042812305,4.640519314213472,0.48454983463798235
5.64642333984375,0.7438829146165036,[1.61571134],5.0,0.5,0.0,-4.290758944507113,4.60361526821281,0.48648124946084725
5.659311056137085,0.7487678825349204,[1.64073721],5.0,0.5,0.0,-3.982281263539603,4.391551293151774,0.48833314706458514
5.668400764465332,0.7526758568696538,[1.66432366],5.0,0.5,0.0,-3.682161695769164,4.3122838405471215,0.4900083662638513
5.678610563278198,0.7569746286378605,[1.68604275],5.0,0.5,0.0,-3.397570217975251,4.158698546965676,0.4914804428507092
5.686437606811523,0.7602964068223839,[1.70545248],5.0,0.5,0.0,-3.1312803233189426,3.9874898652206285,0.49275422895100884
5.69468879699707,0.7636181850069071,[1.72218791],5.0,0.5,0.0,-2.8839032545378593,4.066287690260466,0.4938470687567346
5.703380107879639,0.7669399631914308,[1.73610047],5.0,0.5,0.0,-2.931049279381261,4.179174861898498,0.49364554243471576
5.712561845779419,0.7704571400926907,[1.74715978],5.0,0.5,0.0,-2.7528630446201294,4.132664775402857,0.4943904474160088
5.722689151763916,0.7747559118608975,[1.75525205],5.0,0.5,0.0,-2.5029408503356194,3.9512306880168944,0.49535822474104724
5.730487585067749,0.7776868926119475,[1.76027294],5.0,0.5,0.0,-2.2473696037945716,4.099077143899171,0.4962543786014934
5.738424777984619,0.7808132720797343,[1.76232591],5.0,0.5,0.0,-2.0115694640241335,4.192692104224325,0.4969969038295023
5.748085021972656,0.7847212464144676,[1.7615364],5.0,0.5,0.0,-1.8027988136219841,3.958178010894475,0.4975864799566251
5.757413864135742,0.7884338220324644,[1.75794536],5.0,0.5,0.0,-1.8968028562879744,4.051654511246603,0.49732891052923955
5.766399621963501,0.7923417963671978,[1.75167476],5.0,0.5,0.0,-1.4956012283827205,3.9543752111681423,0.49833767719838296
5.7764739990234375,0.7964451694186679,[1.74286253],5.0,0.5,0.0,-1.2692628287934535,3.8561388471185416,0.49880218685449684
5.785436630249023,0.799962346319928,[1.73160747],5.0,0.5,0.0,-1.1270035306984583,3.7588453483133604,0.4990554027607895
5.794429540634155,0.8034795232211881,[1.71797405],5.0,0.5,0.0,-1.0253229275542284,3.516765676848458,0.49921803342825555
5.802997350692749,0.8069967001224482,[1.70209862],5.0,0.5,0.0,-0.9437241036509216,3.418350182179078,0.4993374649234528
5.812268972396851,0.8109046744571815,[1.68427834],5.0,0.5,0.0,-0.872770699961026,3.340555229256804,0.49943329015667143
5.821904420852661,0.814812648791915,[1.66473979],5.0,0.5,0.0,-0.8082530198813527,3.2480484257016253,0.4995139396801173
5.830488920211792,0.8183298256931749,[1.64364852],5.0,0.5,0.0,-1.0244053254594063,3.283965187004096,0.49921943133508917
5.839862108230591,0.822433198744645,[1.62122196],5.0,0.5,0.0,-1.0015332047752716,3.1357578423809698,0.499253872341275
5.850472927093506,0.8265365717961152,[1.59762396],5.0,0.5,0.0,-0.8940225233074183,2.9974747649046445,0.499405372179896
5.859896183013916,0.8302491474141118,[1.57297646],5.0,0.5,0.0,-0.7689569844663202,2.8718844638848817,0.49956003348722594
5.86890172958374,0.8335709255986353,[1.54741928],5.0,0.5,0.0,-0.6527737501172772,2.758327118221034,0.4996829014263241
5.877122163772583,0.8366973050664219,[1.52111044],5.0,0.5,0.0,-0.8297305070183962,2.65537522667683,0.4994877779833498
5.886400938034058,0.8406052794011555,[1.49422566],5.0,0.5,0.0,-0.7814614315278043,2.55756742789044,0.4995456146081369
5.894423723220825,0.8439270575856788,[1.46698155],5.0,0.5,0.0,-0.6604632251720305,2.5385223037926496,0.4996753892168484
5.902433156967163,0.8472488357702022,[1.43962318],5.0,0.5,0.0,-0.5311103391831706,2.4237257336358464,0.49979006492834716
5.911583423614502,0.8507660126714622,[1.41236068],5.0,0.5,0.0,-0.4172709706201257,2.317884801353584,0.49987040545202727
5.920334339141846,0.8542831895727223,[1.38538793],5.0,0.5,0.0,-0.3250491830477669,2.2600532811936636,0.4999213550798592
5.929484844207764,0.8578003664739824,[1.35890239],5.0,0.5,0.0,-0.25340980599661733,2.136180736470547,0.4999521994660521
5.937441349029541,0.8611221446585058,[1.33307401],5.0,0.5,0.0,-0.19896852910097285,2.054493084877137,0.4999705311861329
5.94675612449646,0.8652255177099757,[1.30802264],5.0,0.5,0.0,-0.15802126071638506,1.8600143674518792,0.49998141212910774
5.954390287399292,0.8683518971777625,[1.2838186],5.0,0.5,0.0,-0.12730278893689595,1.772500440862204,0.4999879363904452
5.963833332061768,0.8722598715124958,[1.26051203],5.0,0.5,0.0,-0.1041868658350355,1.6018293146348699,0.49999191966978623
5.97238826751709,0.8755816496970192,[1.23813221],5.0,0.5,0.0,-0.08666074640674783,1.4996472034973698,0.49999440952383006
5.980386734008789,0.8789034278815427,[1.21667031],5.0,0.5,0.0,-0.07322457749579432,1.3026061036556884,0.4999960087834985
5.988497257232666,0.8820298073493293,[1.19604957],5.0,0.5,0.0,-0.06277954981457401,1.106634743361841,0.4999970688463124
5.996416330337524,0.8853515855338528,[1.17613533],5.0,0.5,0.0,0.22150948940771498,0.9164674271211014,0.4999635214908154
6.005569696426392,0.8888687624351129,[1.15677589],5.0,0.5,0.0,-0.014773450336352245,0.7356829436440135,0.5000004206670247
6.015414237976074,0.8925813380531097,[1.13781408],5.0,0.5,0.0,-0.09757116767338074,0.5645019089281702,0.4999988888972671
6.0234291553497314,0.8959031162376331,[1.11913961],5.0,0.5,0.0,-0.11404422308932344,0.5271228638034631,0.5000372458702835
6.032489538192749,0.8996156918556298,[1.10068763],5.0,0.5,0.0,-0.10466232616052552,0.34148600404937646,0.50029966901472
6.040370464324951,0.9029374700401532,[1.08239331],5.0,0.5,0.0,0.18855661259943665,0.3005313560835197,0.5015685377331892
6.049817323684692,0.9068454443748867,[1.06414609],5.0,0.5,0.0,0.23915844143476117,-0.024581869578541977,0.5070500564021709
6.0588624477386475,0.9105580199928834,[1.04579839],5.0,0.5,0.0,-0.07688504758030609,-0.030358538606978378,0.5257798494950243
6.068117380142212,0.9140751968941434,[1.02726996],5.0,0.5,0.0,-0.17397908578069993,-0.19754065126803197,0.5770806335279888
6.075415134429932,0.9168107789284567,[1.00854069],5.0,0.5,0.0,-0.1800357845312358,-0.21302609303012185,0.685814732373071
6.083378314971924,0.9195463609627701,[0.98959817],5.0,0.5,0.0,-0.4295056174807238,-0.38363276321868767,0.8746295653148495
6.091362237930298,0.9218911455636103,[0.97039194],5.0,0.5,0.0,-1.2568778633294058,-0.5308936004701562,1.12353685166091
6.100837469100952,0.9244313288811868,[0.95084137],5.0,0.5,0.0,-2.0980514250605022,-0.6652241063139637,1.3665286848375402
6.111385822296143,0.926776113482027,[0.93088828],5.0,0.5,0.0,-3.862822855390691,-0.7902964684376295,1.4856387027393279
6.119763135910034,0.9281439044991837,[0.91049335],5.0,0.5,0.0,-5.0,-0.9048584342158568,1.421325123667499
6.128782510757446,0.9293162967996036,[0.88963371],5.0,0.5,0.0,-5.0,-1.015945704564255,1.2115636021090554
6.136413335800171,0.9295116955163404,[0.86834331],5.0,0.5,0.0,-5.0,-1.002708385486548,0.9548955107561659
6.1463847160339355,0.929120898082867,[0.84670111],5.0,0.5,0.0,-5.0,-1.1445741924382449,0.7387513104954829
6.154353380203247,0.9281439044991837,[0.82473202],5.0,0.5,0.0,-5.0,-1.280312701438978,0.5995277716058414
6.165816783905029,0.9257991198983436,[0.80236106],5.0,0.5,0.0,-5.0,-1.5452816471652386,0.5292147123711985
6.173377990722656,0.9234543352975034,[0.77951558],5.0,0.5,0.0,-5.0,-1.5110890185994064,0.49759653738001
6.182429552078247,0.9203279558297169,[0.75621643],5.0,0.5,0.0,-5.0,-1.6659543553396043,0.4863099439723163
6.190356969833374,0.9173969750786667,[0.73251781],5.0,0.5,0.0,-5.0,-1.6714311827421215,0.4828063887318342
6.1984922885894775,0.9138797981774068,[0.70846048],5.0,0.5,0.0,-5.0,-1.8531562216052755,0.4819482377330984
6.206460952758789,0.91075341870962,[0.68408548],5.0,0.5,0.0,-5.0,-1.847967334006994,0.4817665235066458
6.215366363525391,0.9070408430916233,[0.65945561],5.0,0.5,0.0,-5.0,-1.9919998935332097,0.48173680109917244
6.2253899574279785,0.9029374700401532,[0.63460725],5.0,0.5,0.0,-5.0,-2.1076906382407676,0.48173261939096396
6.234367847442627,0.8990294957054198,[0.60955324],5.0,0.5,0.0,-5.0,-2.191893152630889,0.48173211478967415
6.244185209274292,0.8951215213706863,[0.58434414],5.0,0.5,0.0,-5.0,-2.2565284800109078,0.4817320662066008
6.256347179412842,0.8904319521690063,[0.55906215],5.0,0.5,0.0,-3.6275528278920977,-2.309160603383107,0.49029966140668024
6.266911745071411,0.8861331804007996,[0.53379254],5.0,0.5,0.0,-0.3271000135336921,-2.4055096331020667,0.4999203596573316
6.275521993637085,0.8828114022162762,[0.50864376],5.0,0.5,0.0,3.247048142742368,-2.3753358530837856,0.49221282294685686
6.284894227981567,0.8790988265982794,[0.48360015],5.0,0.5,0.0,5.0,-2.9146900570180914,0.4817320621239614
6.294442415237427,0.8751908522635461,[0.45853323],5.0,0.5,0.0,5.0,-2.7126705847582655,0.4817320621239363
6.303727149963379,0.8716736753622859,[0.43351185],5.0,0.5,0.0,5.0,-2.811699429224235,0.4817320621239355
6.3133392333984375,0.8675703023108159,[0.40869374],5.0,0.5,0.0,5.0,-2.82591117116397,0.4817320621239355
6.324249744415283,0.8628807331091358,[0.38420144],5.0,0.5,0.0,5.0,-2.8421486857090854,0.4817320621239355
6.333395719528198,0.8589727587744024,[0.36020995],5.0,0.5,0.0,5.0,-2.8008174490141355,0.4817320621239355
6.341682195663452,0.8558463793066157,[0.33693486],5.0,0.5,0.0,5.0,-2.784121158285988,0.4817320621239355
6.34937858581543,0.8527199998388288,[0.31459712],5.0,0.5,0.0,5.0,-2.929703112298916,0.4817320621239355
6.357353687286377,0.8495936203710422,[0.29341484],5.0,0.5,0.0,5.0,-2.6252808346631653,0.4817320621239355
6.365945100784302,0.8460764434697822,[0.27363348],5.0,0.5,0.0,5.0,-2.6668632934042753,0.4817320621239355
6.374360084533691,0.8427546652852588,[0.25551281],5.0,0.5,0.0,5.0,-2.6118860321614314,0.4817320621239355
6.384174585342407,0.838455893517052,[0.23925553],5.0,0.5,0.0,5.0,-2.668520353001166,0.4817320621239355
6.394397258758545,0.8345479191823186,[0.22498817],5.0,0.5,0.0,5.0,-2.6276377532332873,0.4817320621239355
6.404343128204346,0.8306399448475852,[0.21282244],5.0,0.5,0.0,5.0,-2.613786529382038,0.4817320621239355
6.413476467132568,0.8271227679463251,[0.20284563],5.0,0.5,0.0,5.0,-2.6227511937874177,0.4817320621239355
6.424264192581177,0.8228239961781183,[0.19504039],5.0,0.5,0.0,5.0,-2.7560399737053096,0.4817320621239355
6.434534311294556,0.8185252244099116,[0.18919459],5.0,0.5,0.0,5.0,-2.8528589591299798,0.4817320621239355
6.447601079940796,0.8132494590580216,[0.18504976],5.0,0.5,0.0,5.0,-2.8579978133565156,0.4817320621239355
6.455510377883911,0.8097322821567615,[0.18248989],5.0,0.5,0.0,5.0,-2.92060366070468,0.4817320621239355
6.465777397155762,0.8056289091052914,[0.181397],5.0,0.5,0.0,4.885566713466497,-2.891235347197764,0.4825440731636072
6.474197626113892,0.802307130920768,[0.18158406],5.0,0.5,0.0,4.35006699041929,-2.7991047858872498,0.48611022206089755
6.482494592666626,0.7987899540195079,[0.18284808],5.0,0.5,0.0,4.004566377987213,-2.8801097926009747,0.4882037615659974
6.492968559265137,0.794686580968038,[0.18495115],5.0,0.5,0.0,3.7378357989995172,-3.1771158257531438,0.48970709090616543
6.500800609588623,0.7911694040667778,[0.18764714],5.0,0.5,0.0,3.5022939512005413,-3.208858622502743,0.49095200369767417
6.510448217391968,0.787456828448781,[0.19071697],5.0,0.5,0.0,3.279520298511801,-3.2356919472636054,0.49205754238228827
6.521780729293823,0.7829626579638376,[0.19395075],5.0,0.5,0.0,3.0638307550771624,-3.13002080283517,0.49306087007537824
6.532021760940552,0.7788592849123676,[0.19714622],5.0,0.5,0.0,2.5785989793354664,-3.1295810445240746,0.49507477067272115
6.539369344711304,0.7759283041613175,[0.20014784],5.0,0.5,0.0,2.343863814108343,-3.077447189983547,0.4959271671956389
6.548108816146851,0.7724111272600575,[0.20284614],5.0,0.5,0.0,2.206261873090873,-3.0731299201581646,0.4963896599712551
6.556400537490845,0.7690893490755342,[0.20515585],5.0,0.5,0.0,2.0996060565850696,-3.017617188540289,0.4967291704044455
6.567569255828857,0.7645951785905907,[0.20700025],5.0,0.5,0.0,1.997984224629113,-3.0428605757376057,0.4970372099773018
6.577865362167358,0.7604918055391207,[0.20829895],5.0,0.5,0.0,1.6172773133955463,-3.009165164668834,0.4980567425185182
6.585902452468872,0.7569746286378605,[0.20900004],5.0,0.5,0.0,1.4756703516870293,-2.9759912090993104,0.49838161600844033
6.593339204788208,0.7540436478868106,[0.20910243],5.0,0.5,0.0,1.4202508522298534,-2.916855679539438,0.49850071275852836
6.602737903594971,0.7501356735520771,[0.20863251],5.0,0.5,0.0,1.3860704102877843,-2.8925738935986582,0.49857190759974657
6.6148858070373535,0.744859908200187,[0.20761065],5.0,0.5,0.0,1.3485903839110744,-2.87979938248489,0.4986479929358496
6.622357368469238,0.741928927449137,[0.20606721],5.0,0.5,0.0,1.3009860117510428,-2.872801920142072,0.498741640139089
6.632316589355469,0.7380209531144034,[0.20384312],5.0,0.5,0.0,1.2435545988182026,-3.4508743760678056,0.49885016229999324
6.640329837799072,0.7348945736466168,[0.2006299],5.0,0.5,0.0,1.1789481920279288,-3.1425887354252375,0.4989664134509063
6.6533472537994385,0.7296188082947267,[0.19641583],5.0,0.5,0.0,1.1101592762014083,-3.0667174263353325,0.4990834020496005
6.664435148239136,0.7249292390930466,[0.1914005],5.0,0.5,0.0,1.0397715751577918,-2.899293419194843,0.4991958573666465
6.675361633300781,0.7202396698913666,[0.18583722],5.0,0.5,0.0,0.9697654695707009,-2.6588036283392102,0.49930042205802705
6.683708190917969,0.7173086891403164,[0.1802128],5.0,0.5,0.0,0.9015462121473494,-2.137520979985546,0.499395327909994
6.6923508644104,0.7135961135223197,[0.17515336],5.0,0.5,0.0,0.8360454241973275,-2.046370867380167,0.4994799555408778
6.70035719871521,0.710469734054533,[0.17118073],5.0,0.5,0.0,0.7738325880378578,-1.7911051490424037,0.4995544390422508
6.7092132568359375,0.7071479558700097,[0.16862433],5.0,0.5,0.0,0.7152129201687936,-1.9727241697651925,0.49961936211062774
6.719807147979736,0.7026537853850661,[0.1676386],5.0,0.5,0.0,0.6603054343423362,-1.8356369706720064,0.4996755442530832
6.728309392929077,0.6993320072005428,[0.16831323],5.0,0.5,0.0,0.6091020282284749,-1.9232427301253128,0.49972389973070985
6.738582134246826,0.6950332354323361,[0.17070331],5.0,0.5,0.0,0.5615107586050544,-1.8305258344439335,0.4997653498091674
6.747313499450684,0.691516058531076,[0.1748627],5.0,0.5,0.0,0.5173868090566949,-1.747498571039448,0.4998007717861588
6.755355596542358,0.6881942803465526,[0.18081513],5.0,0.5,0.0,0.4765542452779732,-1.8069700249759084,0.4998309722763855
6.764348030090332,0.6842863060118193,[0.18850927],5.0,0.5,0.0,0.43882104389176263,-1.6846394409202912,0.49985667586958504
6.775379419326782,0.6801829329603492,[0.19793126],5.0,0.5,0.0,0.403989292932573,-1.5698262704613097,0.4998785231216024
6.785600423812866,0.6760795599088789,[0.20914944],5.0,0.5,0.0,0.3718619701780161,-1.3198416848738974,0.4998970739033185
6.794368028640747,0.6727577817243556,[0.22219881],5.0,0.5,0.0,0.3422473209865072,-1.3952806965514837,0.4999128135644791
6.805473566055298,0.6682636112394121,[0.23703423],5.0,0.5,0.0,0.3149615681768681,-1.1322917604411,0.49992616033232057
6.815304279327393,0.6641602381879422,[0.2535941],5.0,0.5,0.0,0.28983047421791364,-1.1890997715496199,0.4999374729968935
6.824416160583496,0.6604476625699455,[0.2717531],5.0,0.5,0.0,0.2666901225704427,-1.0552141952175271,0.49994705834136466
6.833855628967285,0.656539688235212,[0.29133355],5.0,0.5,0.0,0.24538717528944015,-1.0589930167032617,0.4999551780335436
6.841843366622925,0.6534133087674253,[0.31211527],5.0,0.5,0.0,0.2257787860944111,-1.0273868364519638,0.49996205490975415
6.8514485359191895,0.6495053344326919,[0.33388918],5.0,0.5,0.0,0.20773229311688807,-0.8375218663865144,0.4999678803615867
6.860334873199463,0.6459881575314318,[0.35654539],5.0,0.5,0.0,0.1911247768698186,-0.6874230476113712,0.49997286164066473
6.869324684143066,0.6418847844799619,[0.37999668],5.0,0.5,0.0,0.17584254189439064,-0.5623958928063281,0.499978086661313
6.877956390380859,0.6385630062954383,[0.40412156],5.0,0.5,0.0,0.16178056163109977,-0.46029850534705324,0.49999734367233467
6.886570453643799,0.6350458293941783,[0.42877101],5.0,0.5,0.0,0.1488419128955193,-0.36981165303806834,0.5001849808182601
6.896322727203369,0.6313332537761815,[0.45377552],5.0,0.5,0.0,0.1369372172168888,-0.28575544379883205,0.501812548428766
6.905336141586304,0.6278160768749216,[0.47895207],5.0,0.5,0.0,0.12598409999493676,-0.207204033766716,0.5118776974745647
6.914220571517944,0.6242988999736614,[0.50410991],5.0,0.5,0.0,0.11590667410830005,-0.13225150465329313,0.5556174479713313
6.923348665237427,0.6207817230724014,[0.52904381],5.0,0.5,0.0,0.10663505166078967,-0.09115469875290348,0.6857758100246311
6.931328296661377,0.6172645461711412,[0.55354269],5.0,0.5,0.0,0.09810488556572208,-0.004709668329178545,0.943919867573406
6.94259238243103,0.6129657744029345,[0.57742024],5.0,0.5,0.0,0.36629530102615504,0.07932379175889258,1.2766032789342128
6.951799631118774,0.6094485975016745,[0.60050413],5.0,0.5,0.0,0.3921996615189699,0.20924656720053458,1.484012155013366
6.962332487106323,0.604954427016731,[0.62261359],5.0,0.5,0.0,0.6064980475589659,0.35964960719162564,1.4392622098176222
6.972056150436401,0.6024142436991544,[0.6435696],5.0,0.5,0.0,1.1095029995856003,0.27190778130579785,1.2117431941758536
6.9795989990234375,0.6000694590983143,[0.66320461],5.0,0.5,0.0,1.5965864889798542,0.14658216402996294,0.9486906049505912
6.989926099777222,0.597333877064001,[0.68136125],5.0,0.5,0.0,2.7949534455897815,0.1698610570466077,0.7378448958413725
6.9973766803741455,0.5953798898966343,[0.69791298],5.0,0.5,0.0,3.6850861558615886,0.28457719758795225,0.6121302613981496
7.0069420337677,0.5932305040125309,[0.71276176],5.0,0.5,0.0,4.8146979093478475,0.348022461932566,0.5404477695160371
7.014306545257568,0.5918627129953741,[0.72582129],5.0,0.5,0.0,5.0,0.4121042886714765,0.5093585498379558
7.022365570068359,0.5904949219782174,[0.73701399],5.0,0.5,0.0,5.0,0.3581077506264303,0.4953881845694392
7.032567739486694,0.5891271309610607,[0.74622596],5.0,0.5,0.0,5.0,0.29148104166512717,0.4889152779798396
7.041711330413818,0.5881501373773773,[0.75330688],5.0,0.5,0.0,5.0,0.21207066809595826,0.4860054445685435
7.050658464431763,0.5873685425104307,[0.75810606],5.0,0.5,0.0,5.0,0.12208198858706092,0.48466937588033643
7.059701442718506,0.5869777450769574,[0.7605386],5.0,0.5,0.0,5.0,0.19143124150660212,0.48415040223086026
7.068841218948364,0.5865869476434841,[0.76058674],5.0,0.5,0.0,5.0,0.05485703032600746,0.4840777288522875
7.076871395111084,0.5863915489267474,[0.75820593],5.0,0.5,0.0,5.0,-0.002440398332461788,0.4844604717819245
7.084384441375732,0.5863915489267474,[0.75342035],5.0,0.5,0.0,5.0,0.09831184561614847,0.48550566925179817
7.096298694610596,0.5861961502100108,[0.74636425],5.0,0.5,0.0,5.0,0.013698215441728157,0.48764410210820636
7.105313777923584,0.5861961502100108,[0.7371338],5.0,0.5,0.0,5.0,-0.07689354748711448,0.49223148967850366
7.117053031921387,0.586000751493274,[0.72573057],5.0,0.5,0.0,4.552829104544873,-0.3065549204930477,0.5049488214779355
7.12535548210144,0.586000751493274,[0.71212884],5.0,0.5,0.0,3.5611486740283294,-0.35705386349073637,0.5321649636797805
7.133281946182251,0.5858053527765374,[0.69643787],5.0,0.5,0.0,1.987744951574446,-0.2774977816324981,0.5835414793282628
7.145321607589722,0.585414555343064,[0.67888827],5.0,0.5,0.0,-0.04995662239329235,-0.37338068901848154,0.6742127854333313
7.154374837875366,0.5846329604761173,[0.65967295],5.0,0.5,0.0,-2.1254376857045587,-0.4462322159458361,0.8209115847405022
7.166861057281494,0.5832651694589607,[0.63893001],5.0,0.5,0.0,-4.621352169362865,-0.5909035676116053,1.022449866353501
7.174325466156006,0.5822881758752773,[0.61683638],5.0,0.5,0.0,-5.0,-0.5234127567751825,1.2693708007485598
7.186843395233154,0.580138789991174,[0.5936352],5.0,0.5,0.0,-5.0,-0.648436522395628,1.4459570517730187
7.195314884185791,0.5783802015405439,[0.56955279],5.0,0.5,0.0,-5.0,-0.6780936690347601,1.4662682486929643
7.203487157821655,0.5762308156564405,[0.54483621],5.0,0.5,0.0,-5.0,-0.6614220276376358,1.3028206781672704
7.211893796920776,0.5736906323388637,[0.51977047],5.0,0.5,0.0,-5.0,-0.7345793740386751,1.0408042421310388
7.220212697982788,0.5711504490212871,[0.49461105],5.0,0.5,0.0,-5.0,-0.7596324696552638,0.7915854462390151
7.230712175369263,0.5670470759698171,[0.46957013],5.0,0.5,0.0,-5.0,-0.8847128470565863,0.6312481738439422
7.240319728851318,0.5635298990685569,[0.44482238],5.0,0.5,0.0,-5.0,-0.9093635917242445,0.5414397140548906
7.2506773471832275,0.5592311273003503,[0.42052834],5.0,0.5,0.0,-5.0,-1.0147714851422691,0.5030609604763394
7.258716583251953,0.5561047478325636,[0.396833],5.0,0.5,0.0,-5.0,-1.0490783825190553,0.4879925451821124
7.268716096878052,0.55219677349783,[0.3738721],5.0,0.5,0.0,-5.0,-1.1197728378092706,0.48346153576321493
7.278073787689209,0.5482887991630967,[0.35176205],5.0,0.5,0.0,-5.0,-1.1871246884212177,0.48217390649566993
7.287346363067627,0.5445762235450999,[0.33058816],5.0,0.5,0.0,-5.0,-1.2521567050627282,0.4818374167706435
7.2953479290008545,0.5414498440773132,[0.31042512],5.0,0.5,0.0,-5.0,-1.39545778910732,0.4817551897146967
7.306427001953125,0.5369556735923698,[0.29132995],5.0,0.5,0.0,-4.554265956979739,-1.4594236111979701,0.4848018405338188
7.314294338226318,0.5338292941245831,[0.27333505],5.0,0.5,0.0,-2.776294646651327,-1.5584898218713532,0.49429637271329263
7.325524091720581,0.529139724922903,[0.25645885],5.0,0.5,0.0,-1.1498803091309762,-1.619515251348079,0.4990170513833941
7.333313941955566,0.5260133454551164,[0.24062504],5.0,0.5,0.0,0.40855088240449755,-1.7471490131600895,0.4998758489630296
7.343841314315796,0.5215191749701729,[0.22561218],5.0,0.5,0.0,1.9201253236310092,-1.9139904422548468,0.4972630270395036
7.351951360702515,0.5181973967856495,[0.21123265],5.0,0.5,0.0,3.1063712435413855,-1.8765353436841756,0.49286823318191764
7.36031436920166,0.5148756186011261,[0.19745071],5.0,0.5,0.0,3.9251981998824688,-1.8745146084585216,0.48866142863330486
7.371018171310425,0.5105768468329194,[0.18425352],5.0,0.5,0.0,4.423036749850882,-1.9607958038599445,0.48564713768142076
7.380230665206909,0.5068642712149226,[0.17158716],5.0,0.5,0.0,4.669851267475094,-1.96160832641064,0.48402717574191717
7.39029335975647,0.5027608981634525,[0.15943801],5.0,0.5,0.0,4.732903073126162,-1.9318093299777537,0.48360013678091984
7.3995490074157715,0.49904832254545584,[0.14786326],5.0,0.5,0.0,4.668008605570657,-2.008532766225134,0.4840395751123736
7.408992528915405,0.4951403482107224,[0.13698486],5.0,0.5,0.0,4.518229283611328,-1.6701487562664816,0.4850321241596872
7.417418479919434,0.4916231713094623,[0.12696098],5.0,0.5,0.0,4.3153563583029335,-1.525118890185236,0.4863279534188583
7.428389072418213,0.4873243995412556,[0.1179328],5.0,0.5,0.0,4.0821488722250905,-1.6475997297543683,0.4877479651897463
7.439017057418823,0.48302562777304886,[0.11008692],5.0,0.5,0.0,3.834497293467585,-1.4168694399660524,0.4891737318581633
7.450486898422241,0.4783360585713688,[0.10374891],5.0,0.5,0.0,3.583234549309499,-1.1562703961624043,0.4905329892763908
7.459858655929565,0.4748188816701087,[0.09931988],5.0,0.5,0.0,3.335550116690796,-0.94892751281447,0.491786094517919
7.467343091964722,0.47169250220232195,[0.09705213],5.0,0.5,0.0,3.0960513411850226,-1.1044568540342057,0.492915197137368
7.475344896316528,0.46837072401779856,[0.09690387],5.0,0.5,0.0,2.8675404985214943,-1.2346176385543293,0.49391626665666866
7.484346389770508,0.4642673509663285,[0.09873618],5.0,0.5,0.0,2.6515743443569586,-1.146623487707776,0.4947935310968561
7.494307279586792,0.46016397791485847,[0.10252464],5.0,0.5,0.0,2.4488622570480665,-1.0289582764329164,0.49555575398239915
7.503553867340088,0.45645140229686165,[0.10830737],5.0,0.5,0.0,2.2595469287707814,-0.9274691058670193,0.49621383200795277
7.513091564178467,0.45273882667886495,[0.11610318],5.0,0.5,0.0,2.359439065807842,-0.8316878943105099,0.4958730833260461
7.523375511169434,0.44883085234413156,[0.12590249],5.0,0.5,0.0,2.2291248721706847,-0.7347467670937947,0.49631472470840343
7.53427529335022,0.4443366818591881,[0.13767301],5.0,0.5,0.0,2.022694438381413,-0.6325317511204217,0.49696370288636565
7.546379804611206,0.4392563152240347,[0.15136356],5.0,0.5,0.0,1.8067040244225652,-0.5232914922578368,0.4975761009759323
7.554323196411133,0.4361299357562479,[0.16690695],5.0,0.5,0.0,1.6069930272082424,-0.41896869005228193,0.4980818372724053
7.56360650062561,0.4322219614215146,[0.18422261],5.0,0.5,0.0,1.4311851753299007,-0.30566388255864485,0.49848212197720015
7.573890447616577,0.4283139870867812,[0.20321915],5.0,0.5,0.0,1.2793034060026292,-0.18623292856875437,0.4988229090337147
7.587291240692139,0.42323362045162777,[0.22384802],5.0,0.5,0.0,1.1486317305570313,0.08517904746722837,0.49937117201910497
7.597447156906128,0.41873944996668433,[0.24614744],5.0,0.5,0.0,1.0358337429092317,0.3180135348472988,0.5017880418583919
7.607270002365112,0.41483147563195094,[0.27011992],5.0,0.5,0.0,0.9377926954704874,0.36973508602554545,0.5145180170966547
7.6171488761901855,0.41131429873069086,[0.29565799],5.0,0.5,0.0,1.1279160291254944,0.5264272235052134,0.5679416767255191
7.627609491348267,0.4079925205461675,[0.32261826],5.0,0.5,0.0,1.637208227427392,0.6057669601587273,0.7307673342689408
7.635297775268555,0.40603853337880075,[0.35076134],5.0,0.5,0.0,2.408899143417819,0.5177080182253444,1.038445174620152
7.644973516464233,0.4038891474946974,[0.37971989],5.0,0.5,0.0,3.6416311021021768,0.5476477878755428,1.3799608793841995
7.655300140380859,0.40232595776080404,[0.40912889],5.0,0.5,0.0,5.0,0.5945223210914784,1.4725187961491752
7.665342807769775,0.401153565460384,[0.438672],5.0,0.5,0.0,5.0,0.6637493487459863,1.2363628778456084
7.6742613315582275,0.40076276802691063,[0.46806724],5.0,0.5,0.0,5.0,0.754516508827919,0.8858783858016315
7.687323570251465,0.40095816674364737,[0.4970959],5.0,0.5,0.0,5.0,0.9120658244145116,0.6392063997699021
7.695293664932251,0.4013489641771207,[0.52558636],5.0,0.5,0.0,5.0,0.9750506917766747,0.5273713683360595
7.704618215560913,0.40271675519427735,[0.55339785],5.0,0.5,0.0,5.0,1.1642765322538076,0.49239524583174205
7.712697982788086,0.404084546211434,[0.58043233],5.0,0.5,0.0,5.0,1.2290142666988688,0.483721887992889
7.7202794551849365,0.40603853337880075,[0.6065827],5.0,0.5,0.0,5.0,1.3058646171842445,0.48205321515713323
7.729391574859619,0.4089695141298508,[0.63175668],5.0,0.5,0.0,5.0,1.4501818691953052,0.48178090879020874
7.738816738128662,0.4128774884645843,[0.65593743],5.0,0.5,0.0,5.0,1.577863495811896,0.48173945031947596
7.749283075332642,0.41717626023279103,[0.67914863],5.0,0.5,0.0,5.0,1.6886574249172663,0.4817331558672287
7.760285377502441,0.4220612281512078,[0.70142187],5.0,0.5,0.0,5.0,1.7834997150940894,0.48173222859013537
7.770276069641113,0.42557840505246775,[0.72279384],5.0,0.5,0.0,5.0,1.8791772606953485,0.48173208336344114
7.779285430908203,0.4292909806704645,[0.74331118],5.0,0.5,0.0,5.0,1.97857879215619,0.481732064846377
7.789628267288208,0.4333943537219346,[0.76307301],5.0,0.5,0.0,5.0,2.177804332859619,0.48173206248657807
7.7981061935424805,0.43671613190645797,[0.78220276],5.0,0.5,0.0,4.855741514075693,2.192884075693861,0.4827528432724417
7.809316396713257,0.4414057011081381,[0.80078742],5.0,0.5,0.0,2.0727671667810132,2.334826267919036,0.4968119913657815
7.819305658340454,0.4453136754428715,[0.81890442],5.0,0.5,0.0,-1.3320201275689703,2.361132003552438,0.49868096970162623
7.830503940582275,0.45000324464455155,[0.83669759],5.0,0.5,0.0,-4.550175723092133,2.667969623681708,0.4848229698082482
7.838308095932007,0.4529342253956016,[0.85436497],5.0,0.5,0.0,-5.0,2.6613328288525464,0.48173206212394554
7.848259925842285,0.45684219973033496,[0.87204469],5.0,0.5,0.0,-5.0,2.8166969820293586,0.48173206212393654
7.85634970664978,0.45996857919812173,[0.88981521],5.0,0.5,0.0,-5.0,2.808456594323407,0.4817320621239356
7.8671534061431885,0.4648535471165385,[0.90778235],5.0,0.5,0.0,-5.0,3.068973141088635,0.4817320621239355
7.877473831176758,0.4689569201680086,[0.92610052],5.0,0.5,0.0,-5.0,3.101177970816757,0.4817320621239355
7.887300491333008,0.4730602932194786,[0.94483872],5.0,0.5,0.0,-5.0,3.0907696468391035,0.4817320621239355
7.895303726196289,0.476382071404002,[0.96392096],5.0,0.5,0.0,-5.0,3.0430784094860486,0.4817320621239355
7.90326714515686,0.47970384958852547,[0.98318096],5.0,0.5,0.0,-5.0,2.954495818871897,0.4817320621239355
7.912314414978027,0.4832210264897855,[1.00233395],5.0,0.5,0.0,-5.0,2.8222330591316402,0.4817320621239355
7.923348665237427,0.4877151969747289,[1.02096357],5.0,0.5,0.0,-5.0,2.3658217531197687,0.4817320621239355
7.931369066238403,0.49084157644251564,[1.03869015],5.0,0.5,0.0,-5.0,2.433529709090756,0.4817320621239355
7.940709352493286,0.494749550777249,[1.05521926],5.0,0.5,0.0,-5.0,2.3729686987090495,0.4817320621239355
7.951282262802124,0.49904832254545584,[1.07011821],5.0,0.5,0.0,-5.0,2.108693578938543,0.4817320621239355
7.960265159606934,0.5025654994467159,[1.08286867],5.0,0.5,0.0,-5.0,1.9991925433496303,0.4817320621239355
7.971703290939331,0.507255068648396,[1.09305605],5.0,0.5,0.0,-5.0,1.8756044529622076,0.4817320621239355
7.979231357574463,0.5103814481161826,[1.100458],5.0,0.5,0.0,-5.0,2.0692286469225136,0.4817320621239355
7.989678621292114,0.5148756186011261,[1.10500777],5.0,0.5,0.0,-5.0,1.9135054039821524,0.4817320621239355
7.997556924819946,0.5178065993521761,[1.10668417],5.0,0.5,0.0,-5.0,2.070978572075017,0.4817320621239355
8.007298946380615,0.5215191749701729,[1.1055545],5.0,0.5,0.0,-4.9535260710767055,2.024251278407428,0.4820639398657657
8.016705751419067,0.5254271493049063,[1.10171048],5.0,0.5,0.0,-4.745691602622958,1.9683505460844655,0.483512870041847
8.025613784790039,0.5293351236396396,[1.09521388],5.0,0.5,0.0,-4.4684392902151835,1.9042676402417509,0.48535533998835445
8.033238410949707,0.532656901824163,[1.08620215],5.0,0.5,0.0,-4.167891099929073,1.9741924214507476,0.48723456705436774
8.042718648910522,0.5363694774421598,[1.07487495],5.0,0.5,0.0,-3.866931099921395,1.8524408838079398,0.4889918504731931
8.053351163864136,0.5406682492103666,[1.06138018],5.0,0.5,0.0,-3.5766177239857533,1.7297481838854183,0.49056758910364123
8.061253547668457,0.5437946286781532,[1.0458726],5.0,0.5,0.0,-3.301972689741234,1.7569737036803617,0.4919493013771217
8.07023549079895,0.5475072042961501,[1.02857644],5.0,0.5,0.0,-3.0449317457508007,1.6345137517897919,0.4931456253651395
8.081269264221191,0.5518059760643568,[1.00967987],5.0,0.5,0.0,-2.8058579172314246,1.5000378037530742,0.4941736669049238
8.09194827079773,0.5561047478325636,[0.98938179],5.0,0.5,0.0,-2.5843232323056298,1.5302500886421126,0.4950529879425677
8.100247621536255,0.5594265260170869,[0.96801147],5.0,0.5,0.0,-2.3795158629651842,1.5817124872994355,0.4958028482035695
8.11057424545288,0.5637252977852937,[0.94600108],5.0,0.5,0.0,-2.1904538990622973,1.6597585209382022,0.4964410272399479
8.11824345588684,0.5666562785363436,[0.92380636],5.0,0.5,0.0,-2.0160982820630973,1.4878146580784626,0.49698340728167234
8.129271030426025,0.5709550503045504,[0.90191738],5.0,0.5,0.0,-1.8554124966119798,1.851123008067455,0.4974439160527007
8.139259815216064,0.5750584233560204,[0.88084328],5.0,0.5,0.0,-1.7073937461957718,1.7913866245835457,0.49783463843748793
8.149039506912231,0.5789663976907539,[0.86102742],5.0,0.5,0.0,-1.5710886186854727,1.87614716210536,0.4981660765879218
8.158675193786621,0.5828743720254873,[0.84289981],5.0,0.5,0.0,-1.4456001885535943,1.9450778519054281,0.4984481393154968
8.167969703674316,0.5867823463602206,[0.82689254],5.0,0.5,0.0,-1.330090334440037,1.9894587372998722,0.49869460884562405
8.178089141845703,0.5908857194116909,[0.81336386],5.0,0.5,0.0,-1.223779370072604,1.9863398485830805,0.49893661055475275
8.187038660049438,0.5945982950296876,[0.80256534],5.0,0.5,0.0,-1.1259441789924125,1.933608158924926,0.49923229265851327
8.196452617645264,0.5983108706476843,[0.79463488],5.0,0.5,0.0,-1.035915543068019,1.8749932215222116,0.49965074489925565
8.207263708114624,0.6026096424158911,[0.78961411],5.0,0.5,0.0,-0.9530750722126611,1.7910652910583187,0.5002415256088184
8.21524977684021,0.6059314206004144,[0.78741974],5.0,0.5,0.0,-0.8768519791054661,1.6022098012854944,0.500805319427685
8.224251508712769,0.6096439962184113,[0.78785311],5.0,0.5,0.0,-0.8067198455743069,1.5257670025219043,0.5012595659025051
8.234264135360718,0.6135519705531445,[0.79068087],5.0,0.5,0.0,-0.7421934682506433,1.4190264637184298,0.5014730383277703
8.244142532348633,0.6176553436046146,[0.79562932],5.0,0.5,0.0,-0.6828258344982081,1.2922955093863027,0.5014262827763918
8.255282402038574,0.6223449128062948,[0.8023553],5.0,0.5,0.0,-0.35216689689611635,1.157128033423612,0.5014403505060944
8.264854192733765,0.6260574884242914,[0.81046996],5.0,0.5,0.0,-0.2687897145147193,1.176159258946419,0.5010582247687797
8.274813652038574,0.6297700640422882,[0.81956444],5.0,0.5,0.0,-0.27765344539266423,0.8749512740145168,0.5006859384989331
8.28324294090271,0.6330918422268116,[0.82923268],5.0,0.5,0.0,-0.31120280012856616,0.6770896105070385,0.5003833524925929
8.291755199432373,0.6364136204113349,[0.8390892],5.0,0.5,0.0,-0.3425921147453964,0.7732048568349766,0.5001830730404176
8.302135705947876,0.641103189613015,[0.84878444],5.0,0.5,0.0,-0.363210821289776,0.7276180105023741,0.5000811335565563
8.31165885925293,0.6450111639477484,[0.85802196],5.0,0.5,0.0,-0.3720853079358604,0.7175816224440057,0.5000114749999367
8.319952964782715,0.6481375434155352,[0.86659268],5.0,0.5,0.0,-0.37102697961673414,0.7928963338761077,0.4999691274223318
8.329275369644165,0.6520455177502685,[0.87438034],5.0,0.5,0.0,-0.36251904350411623,0.8282564416962143,0.4999530342790963
8.338847637176514,0.6559534920850019,[0.88132966],5.0,0.5,0.0,-0.34887861302120915,0.9083901624411153,0.49994813303960733
8.347381114959717,0.6592752702695254,[0.88746035],5.0,0.5,0.0,-0.33199065778666303,0.8518073805048836,0.4999479793497284
8.355270385742188,0.6625970484540489,[0.89286642],5.0,0.5,0.0,-0.3132818231831596,1.0557260163965134,0.49995174255337416
8.365346670150757,0.6667004215055189,[0.89770008],5.0,0.5,0.0,-0.2937819621193666,1.40089357555147,0.4999589377297576
8.377358436584473,0.6715853894239355,[0.90225478],5.0,0.5,0.0,-0.27420698059199533,1.62004190515274,0.4999679310567215
8.388240814208984,0.6760795599088789,[0.906966],5.0,0.5,0.0,-0.2550365729985049,1.81755317990034,0.4999750087428215
8.398674726486206,0.6799875342436125,[0.91227105],5.0,0.5,0.0,-0.23657837677846213,2.0146162699798835,0.4999789194576381
8.406212568283081,0.6829185149946625,[0.91847638],5.0,0.5,0.0,-0.4950559890599189,1.9446019950723044,0.49983274540419864
8.415328025817871,0.6864356918959225,[0.92573211],5.0,0.5,0.0,-0.5116171537978331,2.0205643954023365,0.499815811847132
8.424979448318481,0.690343666230656,[0.9341545],5.0,0.5,0.0,-0.1649568356022993,2.0724794615335798,0.4999866119716784
8.433944702148438,0.6940562418486528,[0.9438622],5.0,0.5,0.0,-0.04126353801087862,2.124185559037464,0.5000025321675869
8.442275285720825,0.6975734187499129,[0.95488506],5.0,0.5,0.0,-0.012372185140131775,2.037965588396844,0.5000016607949339
8.452084064483643,0.7016767918013829,[0.96723242],5.0,0.5,0.0,-0.01934794929324222,2.270932525653588,0.5000004707647617
8.464534521102905,0.7067571584365363,[0.9809971],5.0,0.5,0.0,-0.036315354547431566,2.3116006011125645,0.4999993117465032
8.47290849685669,0.7100789366210597,[0.99623927],5.0,0.5,0.0,-0.05284047698329978,2.367736054171164,0.4999979986990913
8.48195505142212,0.7135961135223197,[1.01293988],5.0,0.5,0.0,0.21058903431360565,2.43116784742819,0.4999670050838693
8.490662336349487,0.7173086891403164,[1.03106386],5.0,0.5,0.0,0.2355469024356361,2.5015301522978644,0.4999587034344102
8.499332427978516,0.7204350686081032,[1.05051234],5.0,0.5,0.0,0.17614834368291632,2.4421100119365255,0.499976903439912
8.507402896881104,0.7239522455093631,[1.07113377],5.0,0.5,0.0,0.0987589615154122,2.5673590987721973,0.4999927397007382
8.51587963104248,0.7272740236938866,[1.0928356],5.0,0.5,0.0,0.029095409281961755,2.6883893464284463,0.4999993698359243
8.523267030715942,0.7305958018784101,[1.11552559],5.0,0.5,0.0,-0.02519349569978471,2.6658571610512336,0.4999995275202392
8.532326698303223,0.7341129787796701,[1.1390621],5.0,0.5,0.0,-0.06391455037155332,2.8207778545066162,0.49999695908115477
8.542469501495361,0.7382163518311402,[1.16336521],5.0,0.5,0.0,-0.3655371419301074,2.961590621250286,0.4999005450272554
8.550312519073486,0.7413427312989268,[1.18835739],5.0,0.5,0.0,-0.41408093058820666,2.958943115313851,0.4998723791285772
8.558337450027466,0.7444691107667136,[1.21386257],5.0,0.5,0.0,-0.36694105370028224,2.9910866595825274,0.4998997796871617
8.566787958145142,0.7477908889512369,[1.23972515],5.0,0.5,0.0,-0.2935443204708371,3.1876497667935375,0.4999358604095621
8.574243307113647,0.7511126671357603,[1.26585971],5.0,0.5,0.0,-0.22211572696734017,3.2221359521277693,0.4999632760535182
8.584104537963867,0.7558022363374406,[1.29223527],5.0,0.5,0.0,-0.16222691849766488,3.5363274637990596,0.4999804095683662
8.595266580581665,0.7601010081056472,[1.31889718],5.0,0.5,0.0,-0.11548607139616981,3.614333761911728,0.4999900720043275
8.604269981384277,0.7634227862901706,[1.3458257],5.0,0.5,0.0,-0.08047379594768553,3.655188787159735,0.4999951792616913
8.613241195678711,0.7671353619081673,[1.37287682],5.0,0.5,0.0,-0.0549247673553871,3.660391428230299,0.499997754349572
8.62394380569458,0.7710433362429008,[1.39984631],5.0,0.5,0.0,-0.31265648215374564,3.640362630979255,0.4999272371088107
8.634246349334717,0.7753421080111076,[1.42648108],5.0,0.5,0.0,-0.33284533304762626,3.6032069235536475,0.4999175376316434
8.643386840820312,0.7788592849123676,[1.45249388],5.0,0.5,0.0,-0.26871535609786623,3.561346346782977,0.49994625125818243
8.654313802719116,0.783353455397311,[1.47757736],5.0,0.5,0.0,-0.18639482792977374,3.5896868915163243,0.4999741379374247
8.665343999862671,0.7878476258822544,[1.50141572],5.0,0.5,0.0,-0.11162110468612199,3.2729202092541674,0.4999907253980391
8.673335552215576,0.7909740053500411,[1.52369433],5.0,0.5,0.0,-0.052145006788220455,3.3986920621739127,0.499997975903318
8.683254480361938,0.7954681758349845,[1.5441087],5.0,0.5,0.0,-0.008269462770806459,3.339641349091557,0.49999994909490575
8.691851377487183,0.7987899540195079,[1.56237202],5.0,0.5,0.0,0.29838394276583785,3.2820559574460146,0.49993372819659343
8.700314044952393,0.802307130920768,[1.57827256],5.0,0.5,0.0,0.3517687056676955,3.362781691164527,0.49990789545247954
8.709258317947388,0.8060197065387646,[1.59167258],5.0,0.5,0.0,0.3092366362218466,3.2652123161477555,0.4999288200560851
8.72074270248413,0.8107092757404448,[1.60233831],5.0,0.5,0.0,0.24018960032010528,2.988540828172694,0.4999570566002692
8.728264093399048,0.8138356552082315,[1.61002812],5.0,0.5,0.0,0.1728414068370029,3.1423862229096815,0.49997776215992945
8.737406730651855,0.817743629542965,[1.61470744],5.0,0.5,0.0,0.11676230049249428,3.1100000399368066,0.49998985136685387
8.745804071426392,0.821260806444225,[1.61646887],5.0,0.5,0.0,0.07356572280608295,3.2177928345370734,0.49999597138339413
8.754311561584473,0.8245825846287484,[1.61548478],5.0,0.5,0.0,-0.234196479244289,3.2793223985691577,0.4999591727933052
8.762360334396362,0.8277089640965352,[1.61193762],5.0,0.5,0.0,-0.2898252765207443,3.1640308338776526,0.4999374752393965
8.771014928817749,0.8312261409977952,[1.60591294],5.0,0.5,0.0,-0.25021974265918645,3.057441454629873,0.4999533953146055
8.781057119369507,0.8347433178990552,[1.59746409],5.0,0.5,0.0,-0.1844711686929241,2.9562838846775117,0.4999746689803169
8.790480375289917,0.8386512922337885,[1.58666844],5.0,0.5,0.0,-0.3966214705208382,2.856724708735755,0.4998829131126032
8.798404932022095,0.8421684691350487,[1.57367665],5.0,0.5,0.0,-0.3771488356823502,2.90134255110059,0.4998941267527046
8.808217525482178,0.8460764434697822,[1.55871215],5.0,0.5,0.0,-0.28226762982839165,2.7897980003007454,0.4999406933940407
8.817219018936157,0.8497890190877789,[1.54197879],5.0,0.5,0.0,-0.1777450816618265,2.7153124256464043,0.49997648247327336
8.825215339660645,0.8529153985555658,[1.52367981],5.0,0.5,0.0,-0.08784436444219768,2.675740798573472,0.49999425576775247
8.836321830749512,0.8570187716070357,[1.50407558],5.0,0.5,0.0,-0.29471724036469504,2.6565550784230307,0.4999353468514885
8.844621419906616,0.8607313472250324,[1.48347629],5.0,0.5,0.0,-0.2782704002905432,2.6553718543116847,0.49994236110220386
8.855246782302856,0.8650301189932391,[1.46222832],5.0,0.5,0.0,-0.18970026647609262,2.656144024987054,0.49997321257775956
8.865146398544312,0.8693288907614459,[1.4406949],5.0,0.5,0.0,-0.09245835430429146,2.6498780135218234,0.4999936364973434
8.873998165130615,0.8728460676627059,[1.41923325],5.0,0.5,0.0,-0.009790592562437743,2.4522377618450233,0.4999999286449689
8.883231163024902,0.8767540419974394,[1.39817171],5.0,0.5,0.0,0.0525949051207434,2.527095600543566,0.4999979408255873
8.89421033859253,0.881052813765646,[1.37779016],5.0,0.5,0.0,0.09596513035583867,2.558328882679447,0.49999314463452077
8.906412124633789,0.8859377816840628,[1.35830828],5.0,0.5,0.0,0.39985887318239843,2.499554933803903,0.49988099410846515
8.914203405380249,0.8890641611518495,[1.33987726],5.0,0.5,0.0,0.4490647113794882,2.3417064574700213,0.4998499073796327
8.923744678497314,0.8927767367698464,[1.32257754],5.0,0.5,0.0,0.40152315849182785,2.1386068552831694,0.4998800015176666
8.93395471572876,0.8966847111045797,[1.30642999],5.0,0.5,0.0,0.32704356282169134,1.8991644658370437,0.49992038712485737
8.942212343215942,0.9003972867225765,[1.29141987],5.0,0.5,0.0,0.25411651779903655,1.7566088331031489,0.49995193249395675
8.951194286346436,0.9041098623405732,[1.27750799],5.0,0.5,0.0,0.19249613442560684,1.57279401253805,0.49997241717720914
8.961009740829468,0.9082132353920432,[1.26462116],5.0,0.5,0.0,0.14391441533103863,1.4914730282595565,0.49998458270032653
8.97170352935791,0.9127074058769867,[1.25265132],5.0,0.5,0.0,0.10703469977830932,1.4763115967485214,0.4999914719941093
8.981980800628662,0.9168107789284567,[1.24148427],5.0,0.5,0.0,0.07964575892373096,1.4038166657041624,0.4999952786551923
8.991231203079224,0.9205233545464535,[1.23104324],5.0,0.5,0.0,0.05956099717721235,1.3553469932210347,0.49999736345226986
9.002225399017334,0.9248221263146603,[1.22129771],5.0,0.5,0.0,0.04492955386912438,1.1848949875326145,0.49999852049686694
9.010253190994263,0.9279485057824469,[1.21225024],5.0,0.5,0.0,0.034294898680404896,1.1483192661636246,0.4999992198521228
9.021910905838013,0.9330288724176004,[1.20393889],5.0,0.5,0.0,0.026556254967850534,1.3303706425232509,0.4999998969442835
9.032241582870483,0.9371322454690706,[1.19645518],5.0,0.5,0.0,0.020901794196305865,1.5504363265878873,0.5000011164973966
9.042214155197144,0.9410402198038039,[1.18995964],5.0,0.5,0.0,0.016741966348067426,1.5337501911591906,0.5000039422911111
9.054349660873413,0.9455343902887473,[1.1847464],5.0,0.5,0.0,0.013652873996062131,1.855168175641865,0.5000105696950345
9.069216012954712,0.9517871492243207,[1.18130124],5.0,0.5,0.0,0.01133165153283212,2.1829596369333304,0.5000264846303611
9.078798294067383,0.9558905222757909,[1.18008509],5.0,0.5,0.0,0.009562735623410801,2.1400973396723724,0.5000430037816866
9.08828330039978,0.9597984966105241,[1.18129105],5.0,0.5,0.0,0.008193003619598358,2.0981173461086384,0.5000547516656044
9.097229719161987,0.963511072228521,[1.18488832],5.0,0.5,0.0,0.0071137418706711565,1.9389503253220224,0.5000553265525899
9.106187343597412,0.9670282491297811,[1.19076482],5.0,0.5,0.0,0.006247706373705093,1.9781465101274853,0.5000448467837899
9.117528200149536,0.9715224196147245,[1.19889856],5.0,0.5,0.0,0.00553990399774965,2.157105446718966,0.5000322920554594
9.128591299057007,0.9762119888164045,[1.20939442],5.0,0.5,0.0,0.004951056290254807,2.3000601886747156,0.5000189108657014
9.136874198913574,0.979533767000928,[1.22225987],5.0,0.5,0.0,0.0044529803749485675,2.1478813207142085,0.5000076169984163
9.146566390991211,0.9834417413356613,[1.2373181],5.0,0.5,0.0,0.004025331636105885,2.2006616754256054,0.5000025094779329
9.155288934707642,0.9871543169536582,[1.25434036],5.0,0.5,0.0,0.00365330972884796,2.126767519704491,0.5000006199825433
9.165267944335938,0.9910622912883915,[1.27310779],5.0,0.5,0.0,0.0033260441069864963,2.241039578957928,0.5000001149064639
9.174288034439087,0.9943840694729149,[1.29346345],5.0,0.5,0.0,0.003035457947949154,2.3555749988720684,0.5000000101471558
9.184671640396118,0.9984874425243848,[1.31530409],5.0,0.5,0.0,0.0027754684507096117,2.462628994951635,0.4999999961787827
9.193795919418335,1.0023954168591185,[1.33850971],5.0,0.5,0.0,0.2785797831402924,2.5393875974924685,0.499942233025681
9.202272891998291,1.0057171950436417,[1.36288496],5.0,0.5,0.0,0.311492666910668,2.488032218612123,0.49992777776702074
9.213721513748169,1.0102113655285851,[1.38817384],5.0,0.5,0.0,0.25620315000580274,2.5902502355861916,0.49995113989662554
9.223274946212769,1.0143147385800553,[1.41411809],5.0,0.5,0.0,0.1799430304953947,2.5409386171446404,0.49997589726821867
9.231730461120605,1.0178319154813154,[1.44038859],5.0,0.5,0.0,0.10926048328695481,2.468230874772309,0.49999111353468095
9.240237474441528,1.021544491099312,[1.46658517],5.0,0.5,0.0,0.052492472529918566,2.431987115979785,0.49999794883855886
9.25053071975708,1.0254524654340456,[1.49226291],5.0,0.5,0.0,0.01036095488379557,2.083802371481143,0.4999999200890662
9.25956654548645,1.028774243618569,[1.51695117],5.0,0.5,0.0,-0.019176955086555484,2.186635516731016,0.4999997262426056
9.267937660217285,1.0320960218030921,[1.54021811],5.0,0.5,0.0,-0.038817397029882544,2.1316087545536724,0.4999988783457468
9.276751279830933,1.035808597421089,[1.56160907],5.0,0.5,0.0,-0.05107336153486062,1.9827050660395176,0.4999980582437208
9.286264657974243,1.0397165717558223,[1.58063439],5.0,0.5,0.0,-0.05801001071036939,1.8514147615977876,0.4999974949783785
9.295276165008545,1.043429147373819,[1.59694261],5.0,0.5,0.0,-0.061219756877914616,2.010800216960447,0.4999972100998206
9.304777383804321,1.0471417229918158,[1.61033571],5.0,0.5,0.0,-0.06188495142246713,1.8615764036351565,0.49999714914226157
9.313204050064087,1.0504635011763392,[1.62067892],5.0,0.5,0.0,-0.06086179396396129,2.0353318474583353,0.49999724263044043
9.323480129241943,1.0545668742278094,[1.6279528],5.0,0.5,0.0,-0.05875904555000262,2.0107596519269464,0.4999974298703927
9.33365249633789,1.058865645996016,[1.63218023],5.0,0.5,0.0,-0.05600308250044353,1.9807326764669442,0.49999766530837575
9.342570066452026,1.0623828228972763,[1.63336907],5.0,0.5,0.0,-0.05288838032761874,1.9484944373480837,0.4999979177814772
9.351814031600952,1.0664861959487462,[1.63156549],5.0,0.5,0.0,-0.049615297005977686,1.9046766322080635,0.49999816752916854
9.360228061676025,1.0700033728500062,[1.6268983],5.0,0.5,0.0,-0.04631771722151777,1.9938852171972243,0.4999984030170639
9.368512153625488,1.0735205497512663,[1.61956449],5.0,0.5,0.0,-0.04308297712833947,1.892054913588801,0.4999986182881317
9.377501726150513,1.0768423279357897,[1.60971428],5.0,0.5,0.0,0.23607228337069217,1.791530190040107,0.49995851618776105
9.386420965194702,1.0805549035537865,[1.59745637],5.0,0.5,0.0,0.2721632248664945,1.6873427666186924,0.49994486319288906
9.396231174468994,1.084267479171783,[1.58286282],5.0,0.5,0.0,-0.05617414161807649,1.438665954913819,0.49999765102418775
9.406235218048096,1.0881754535065165,[1.56602476],5.0,0.5,0.0,-0.1627608742620692,1.5038401950230789,0.4999802803982856
9.414257526397705,1.09149723169104,[1.54720114],5.0,0.5,0.0,0.10029906656277082,1.5140421192905575,0.49999251145910845
9.422603845596313,1.0946236111588266,[1.52668753],5.0,0.5,0.0,0.1551618990103525,1.3403880159297261,0.4999820787183759
9.430552244186401,1.0975545919098768,[1.50465392],5.0,0.5,0.0,0.1306993816073021,1.1754378123956761,0.49998728406737325
9.439602851867676,1.1010717688111367,[1.48126377],5.0,0.5,0.0,0.08377358727973352,1.1529943810449896,0.49999477581426477
9.448506593704224,1.105175141862607,[1.45672391],5.0,0.5,0.0,0.03752523565727127,0.9496006796541474,0.4999989517968927
9.457241535186768,1.1088877174806036,[1.43122414],5.0,0.5,0.0,-0.00016809543381285028,0.9000904000949503,0.5000000009236657
9.466259717941284,1.1124048943818636,[1.40493747],5.0,0.5,0.0,-0.027942959861171457,0.6800139766066764,0.49999945566543036
9.4766685962677,1.1165082674333338,[1.37791863],5.0,0.5,0.0,-0.046911538263361544,0.33340891550599566,0.49999952182347823
9.485185861587524,1.1200254443345938,[1.3501217],5.0,0.5,0.0,-0.058877524209857555,0.18176309300845975,0.5000226146833542
9.493187665939331,1.1229564250856439,[1.32161978],5.0,0.5,0.0,-0.06560860776519434,0.16942494332825503,0.5003699845542813
9.502623081207275,1.1270597981371138,[1.29258565],5.0,0.5,0.0,-0.06858784358196804,-0.033324471716400864,0.5041668232600848
9.511679410934448,1.1307723737551107,[1.26312145],5.0,0.5,0.0,-0.06896987549869393,-0.22656451701468888,0.530095691726975
9.519354104995728,1.1338987532228972,[1.23331919],5.0,0.5,0.0,-0.06761538318949212,-0.27041789471441713,0.6384966183539236
9.52826976776123,1.1372205314074209,[1.20331191],5.0,0.5,0.0,-0.3411860586986625,-0.49108730369363146,0.9173535115396338
9.536194801330566,1.1397607147249975,[1.1732147],5.0,0.5,0.0,-0.647209977194239,-0.5535078364862489,1.2991362230178831
