t_s,q_rad,q_des_rad,K,B,Kff,jerk,tau_Nm,reward
0.005521059036254883,-0.05197605865195429,[0.00760067],9.825212432529046,0.9790254919034855,1.9737818648793566,0.0,9.998999999999999,0.9917044849526346
0.014349937438964844,-0.05197605865195429,[0.03673172],9.650424865058092,0.9580509838069711,1.9475637297587132,0.0,10.098989999999999,0.7072532411626319
0.023842573165893555,-0.05217145736869095,[0.09129314],9.475637297587138,0.9370764757104565,1.92134559463807,0.0,10.099989899999999,0.5163028037978445
0.03130769729614258,-0.05197605865195429,[0.16665285],9.300849730116184,0.9161019676139419,1.8951274595174268,0.0,10.099999898999998,0.5000705125304614
0.04067516326904297,-0.05217145736869095,[0.2586243],9.12606216264523,0.8951274595174274,1.8689093243967834,0.0,10.099999998989999,0.5000000040733458
0.050348758697509766,-0.05197605865195429,[0.36345198],8.951274595174274,0.8741529514209129,1.84269118927614,0.0,10.0999999999899,0.500000000000001
0.058440446853637695,-0.05197605865195429,[0.47779351],8.77648702770332,0.8531784433243983,1.8164730541554968,0.0,-9.8980000000001,0.5
0.06822800636291504,-0.05197605865195429,[0.59869917],8.601699460232366,0.8322039352278838,1.7902549190348536,0.0,-10.09798,0.5
0.0782160758972168,-0.05197605865195429,[0.7235895],8.426911892761412,0.8112294271313693,1.7640367839142101,0.0,-10.099979799999998,0.5
0.08721566200256348,-0.05197605865195429,[0.8502316],8.252124325290458,0.7902549190348547,1.7378186487935667,0.0,-10.099999797999999,0.5
0.0952157974243164,-0.05197605865195429,[0.97671453],8.077336757819502,0.7692804109383402,1.7116005136729235,0.0,-5.100499997979999,0.5
0.10673403739929199,-0.05197605865195429,[1.10142437],7.902549190348549,0.7483059028418256,1.6853823785522803,0.0,-5.0505049999797995,0.5
0.11427521705627441,-0.05197605865195429,[1.22301929],7.727761622877595,0.727331394745311,1.659164243431637,0.0,-5.050005049999798,0.5
0.12327432632446289,-0.05197605865195429,[1.34040492],7.55297405540664,0.7063568866487966,1.6329461083109935,0.0,-5.050000050499998,0.5
0.1313002109527588,-0.05197605865195429,[1.45271037],7.378186487935686,0.685382378552282,1.6067279731903503,0.0,-5.050000000504999,0.5
0.13919496536254883,-0.05197605865195429,[1.55926497],7.203398920464732,0.6644078704557674,1.5805098380697071,0.0,-5.050000000005049,0.5
0.1506795883178711,-0.05197605865195429,[1.65957609],7.028611352993777,0.643433362359253,1.5542917029490637,0.0,-5.05000000000005,0.5
0.16249752044677734,-0.05197605865195429,[1.75330803],6.853823785522822,0.6224588542627384,1.5280735678284203,0.0,-5.05,0.5
0.17252492904663086,-0.05197605865195429,[1.84026212],6.679036218051868,0.6014843461662238,1.501855432707777,0.0,-5.05,0.5
0.1828017234802246,-0.05197605865195429,[1.92035817],6.504248650580913,0.6,1.475637297587134,0.0,-5.05,0.5
0.19332289695739746,-0.05197605865195429,[1.99361719],6.329461083109958,0.6,1.4494191624664907,0.0,-5.05,0.5
0.20324087142944336,-0.05197605865195429,[2.06014553],6.154673515639004,0.6,1.4232010273458477,0.0,-5.05,0.5
0.21425747871398926,-0.05217145736869095,[2.12012032],5.97988594816805,0.6,1.3969828922252046,0.0,-5.05,0.5
0.22425484657287598,-0.05197605865195429,[2.17377624],5.805098380697095,0.6,1.3707647571045614,0.0,-5.05,0.5
0.23321533203125,-0.05197605865195429,[2.22139362],5.63031081322614,0.6,1.3445466219839184,0.0,-5.05,0.5
0.24121689796447754,-0.05197605865195429,[2.26328775],5.455523245755186,0.6,1.3183284868632752,0.0,-5.05,0.5
0.25020456314086914,-0.05197605865195429,[2.29979936],5.280735678284231,0.6,1.292110351742632,0.0,-5.05,0.5
0.2616243362426758,-0.05197605865195429,[2.33128632],5.105948110813277,0.6,1.2658922166219888,0.0,-5.05,0.5
0.269256591796875,-0.05197605865195429,[2.35811639],5.0,0.6,1.2396740815013456,0.0,-2.9460675580511366,0.5
0.2822303771972656,-0.05197605865195429,[2.38066085],5.0,0.6,1.2134559463807026,0.0,1.3915707269279478,0.5
0.2912719249725342,-0.05197605865195429,[2.39928923],5.0,0.6,1.1872378112600595,0.0,4.56156051299618,0.5
0.29931044578552246,-0.05158526121848094,[2.41436475],5.0,0.6,1.1610196761394163,0.0,6.844213582921736,0.5
0.3081660270690918,-0.04943587533437757,[2.42624056],5.0,0.6,1.1348015410187733,1.104153438714724,8.47439948040572,0.4990932836349796
0.3182182312011719,-0.04572329971638084,[2.43525676],5.0,0.6,1.10858340589813,3.444958728789938,9.630937685074922,0.4912432356918126
0.3293333053588867,-0.04122912923143742,[2.44173798],5.0,0.6,1.082365270777487,5.0,10.095309376850748,0.4817320621239355
0.33801865577697754,-0.03751655361344069,[2.44599161],5.0,0.6,1.0561471356568437,5.0,10.099953093768507,0.4817320621239355
0.3481905460357666,-0.03341318056197061,[2.44830644],5.0,0.6,1.0299290005362005,5.0,10.099999530937684,0.4817320621239355
0.3574984073638916,-0.02989600366071055,[2.44895182],5.0,0.6,1.0037108654155575,5.0,10.099999995309375,0.4817320621239355
0.36909008026123047,-0.025206434459030463,[2.44817714],5.0,0.6,0.9774927302949143,5.0,10.099999999953093,0.4817320621239355
0.3815348148345947,-0.020126067823877037,[2.44621169],5.0,0.6,0.9512745951742712,5.0,10.099999999999529,0.4817320621239355
0.3909337520599365,-0.01660889092261697,[2.44326479],5.0,0.6,0.9250564600536281,5.0,10.099999999999994,0.4817320621239355
0.40111708641052246,-0.012114720437673556,[2.4395262],5.0,0.6,0.898838324932985,5.0,10.099999999999998,0.4817320621239355
0.4093620777130127,-0.009183739686623501,[2.43516661],5.0,0.6,0.8726201898123418,4.026562472693915,5.100499999999999,0.4880753799440742
0.4195237159729004,-0.005080366635153426,[2.43033841],5.0,0.6,0.8464020546916986,1.5036654509347147,5.050504999999999,0.4983197327479282
0.427764892578125,-0.0017585884506300322,[2.42517653],5.0,0.6,0.8201839195710555,-1.056851079315383,5.050005049999999,0.49916924450357447
0.4372115135192871,0.0019539871673667024,[2.41979941],5.0,0.6,0.7939657844504124,-3.406339097278939,5.0500000505,0.4914367886307105
0.44954657554626465,0.007034353802520129,[2.41431],5.0,0.6,0.7677476493297692,-5.0,5.050000000504999,0.4817320621239355
0.45719361305236816,0.009965334553570182,[2.40879678],5.0,0.6,0.741529514209126,-5.0,5.050000000005049,0.4817320621239355
0.4666576385498047,0.013873308888303588,[2.40333491],5.0,0.6,0.715311379088483,-5.0,5.05000000000005,0.4817320621239355
0.4768369197845459,0.017976681939773663,[2.39798727],5.0,0.6,0.6890932439678399,-5.0,5.05,0.4817320621239355
0.48560667037963867,0.021493858841033726,[2.39280557],5.0,0.6,0.6628751088471967,-5.0,5.05,0.4817320621239355
0.4931912422180176,0.02442483959208378,[2.38783136],5.0,0.6,0.6366569737265535,-5.0,5.05,0.4817320621239355
0.5026164054870605,0.028528212643553853,[2.3830971],5.0,0.6,0.6104388386059104,-5.0,5.05,0.4817320621239355
0.5105304718017578,0.03165459211134058,[2.37862711],5.0,0.6,0.5842207034852673,-5.0,5.05,0.4817320621239355
0.5210163593292236,0.035953363879547326,[2.37443858],5.0,0.6,0.5580025683646241,-5.0,5.05,0.4817320621239355
0.530174732208252,0.039470540780807396,[2.37054236],5.0,0.6,0.531784433243981,-5.0,5.05,0.4817320621239355
0.5410494804382324,0.04396471126575081,[2.36694388],5.0,0.6,0.5055662981233379,-5.0,5.05,0.4817320621239355
0.549511194229126,0.04748188816701086,[2.36364384],5.0,0.6,0.4793481630026947,-4.954572941485406,5.05,0.48205649561103653
0.5590202808380127,0.05138986250174427,[2.36063896],5.0,0.6,0.4531300278820516,-4.7520290894819315,5.05,0.4834695427328958
0.5707073211669922,0.05588403298668769,[2.35792265],5.0,0.6,0.42691189276140845,-4.480352612781955,5.05,0.4852783100894552
0.579176664352417,0.05901041245447442,[2.3554856],5.0,0.6,0.4006937576407653,-4.184269730149275,5.05,0.4871353452854692
0.5871868133544922,0.06213679192226114,[2.35331634],5.0,0.6,0.3744756225201221,-3.8863724957446077,5.05,0.48888212592667035
0.5951986312866211,0.06545857010678453,[2.35140166],5.0,0.6,0.3482574873994789,-3.597855044657459,5.05,0.4904563196433527
0.6032273769378662,0.0689757470080446,[2.34972709],5.0,0.6,0.3220393522788358,-3.0479635792903963,5.05,0.4931320630149484
0.6145308017730713,0.07346991749298801,[2.3482773],5.0,0.6,0.2958212171581926,-2.7578518564722208,5.05,0.4943702124293471
0.6250557899475098,0.07796408797793142,[2.34703642],5.0,0.6,0.2696030820375494,-2.573416215812574,5.05,0.4950944520110506
0.6335439682006836,0.0814812648791915,[2.34598833],5.0,0.6,0.24338494691690624,-2.427170050743505,5.05,0.4956337969269626
0.6422393321990967,0.08480304306371489,[2.34511688],5.0,0.6,0.21716681179626307,-2.291881627568823,5.05,0.4961051207232316
0.6507978439331055,0.08812482124823828,[2.34440615],5.0,0.6,0.19094867667561988,-2.1583238181565254,5.05,0.49654431016702744
0.6583280563354492,0.09125120071602501,[2.34384057],5.0,0.6,0.16473054155497668,-2.0247993643461752,5.05,0.4969573926034614
0.666710376739502,0.09476837761728506,[2.3434051],5.0,0.6,0.13851240643433352,-1.8923577048914595,5.05,0.4973413819343871
0.674217939376831,0.09789475708507178,[2.34308532],5.0,0.6,0.11229427131369034,-1.762720328056905,5.05,0.4976923530290597
0.6843156814575195,0.1023889275700152,[2.34286754],5.0,0.6,0.08607613619304716,-1.6374643878880089,5.05,0.49800802511119485
0.6931438446044922,0.10551530703780194,[2.34273888],5.0,0.6,0.05985800107240398,-1.517768326302838,5.05,0.4982881207657601
0.7053930759429932,0.11020487623948202,[2.34268729],5.0,0.6,0.0336398659517608,-1.4043915774071398,5.05,0.4985339606218444
0.7132396697998047,0.11333125570726875,[2.34270158],5.0,0.6,0.0074217308311176206,-1.2977385305588447,5.05,0.4987479065940262
0.7221319675445557,0.1168484326085288,[2.34277143],5.0,0.6,0.0,-1.1979417323041763,5.05,0.4989328776732943
0.7303805351257324,0.12017021079305219,[2.34288741],5.0,0.6,0.0,-1.104938736977487,5.05,0.4990919945952296
0.7405636310577393,0.12446898256125893,[2.34304094],5.0,0.6,0.0,-1.0185346504618975,5.05,0.49922834539758726
0.7515947818756104,0.12896315304620237,[2.34322428],5.0,0.6,0.0,-0.9384497732159286,5.05,0.49934484500411574
0.7612838745117188,0.13287112738093576,[2.3434305],5.0,0.6,0.0,-0.8643544107528531,5.05,0.4994441611851561
0.773298978805542,0.13775609529935254,[2.34365344],5.0,0.6,0.0,-0.7958935379889391,5.05,0.49952868434826014
0.7831404209136963,0.1416640696340859,[2.3438877],5.0,0.6,0.0,-0.7327038142773423,5.05,0.4996005246072903
0.7917039394378662,0.14498584781860932,[2.34412852],5.0,0.6,0.0,-0.6744250022944999,5.05,0.49966152471694475
0.8014934062957764,0.14889382215334274,[2.34437183],5.0,0.6,0.0,-0.6207073781375123,5.05,0.4997132813515966
0.8105912208557129,0.15260639777133944,[2.34461414],5.0,0.6,0.0,-0.571216316512571,5.05,0.4997571699647133
0.8191335201263428,0.15612357467259955,[2.34485249],5.0,0.6,0.0,-0.5256349139336098,5.05,0.4997943703364158
0.8301093578338623,0.1608131438742796,[2.34508445],5.0,0.6,0.0,-0.48366526909025714,5.05,0.4998258911465986
0.8397362232208252,0.16472111820901303,[2.34530808],5.0,0.6,0.0,-0.4450288595288907,5.05,0.4998525926971272
0.8471615314483643,0.1674567002433264,[2.34552183],5.0,0.6,0.0,-0.40946632323062016,5.05,0.4998752073949977
0.8551883697509766,0.17077847842784977,[2.34572449],5.0,0.6,0.0,-0.37673686014101376,5.05,0.4998943579015572
0.8636245727539062,0.1741002566123732,[2.34591519],5.0,0.6,0.0,-0.34661740228991056,5.05,0.4999105730207302
0.873206615447998,0.1780082309471066,[2.34609333],5.0,0.6,0.0,-0.3189016542898456,5.05,0.4999243014881029
0.8824632167816162,0.18211160399857668,[2.34625862],5.0,0.6,0.0,-0.2933990731303762,5.05,0.4999359238630349
0.8918895721435547,0.18601957833331006,[2.34641097],5.0,0.6,0.0,-0.26993383323627307,5.05,0.4999457627372573
0.8991901874542236,0.18895055908436015,[2.34655045],5.0,0.6,0.0,-0.2483438068106688,5.05,0.4999540914680908
0.9072034358978271,0.19207693855214686,[2.3466773],5.0,0.6,0.0,-0.2284795784610015,5.05,0.49996114163024236
0.9151532649993896,0.19520331801993357,[2.3467919],5.0,0.6,0.0,-0.48624186521552015,5.05,0.4998240314970232
0.9253973960876465,0.1993066910714036,[2.34689473],5.0,0.6,0.0,-0.5025517932888257,5.05,0.49981203080449654
0.933180570602417,0.20243307053919038,[2.34698635],5.0,0.6,0.0,-0.43198455401346986,5.05,0.4998611062241006
0.9422557353973389,0.2061456461571871,[2.34706737],5.0,0.6,0.0,-0.3416668276658978,5.05,0.4999131090456989
0.9511711597442627,0.20946742434171048,[2.34713846],5.0,0.6,0.0,-0.2580498105551866,5.05,0.4999504330453617
0.9591422080993652,0.21259380380949724,[2.34720028],5.0,0.6,0.0,-0.18938105734317753,5.05,0.499973302650037
0.9688098430633545,0.21650177814423063,[2.34725353],5.0,0.6,0.0,-0.13630013552861417,5.05,0.49998617092140923
0.9781897068023682,0.2206051511957007,[2.34729892],5.0,0.6,0.0,-0.09668826894247198,5.05,0.49999304092971364
0.9895145893096924,0.22509932168064412,[2.34733717],5.0,0.6,0.0,-0.06777943356400205,5.05,0.49999658019722537
0.9976694583892822,0.2286164985819042,[2.34736898],5.0,0.6,0.0,-0.04699629975347058,5.05,0.4999983558808356
1.0052530765533447,0.2313520806162176,[2.34739501],5.0,0.6,0.0,-0.03221448167475797,5.05,0.4999992274819494
1.01554536819458,0.23565085238442432,[2.34741589],5.0,0.6,0.0,-0.02178705891659263,5.05,0.49999964665110497
1.0252106189727783,0.2397542254358944,[2.34743222],5.0,0.6,0.0,-0.014481517068745774,5.05,0.49999984388856045
1.0342228412628174,0.2434668010538911,[2.34744455],5.0,0.6,0.0,-0.009395495620197496,5.05,0.4999999342877957
1.042341947555542,0.24678857923841455,[2.34745341],5.0,0.6,0.0,-0.0058777578680451305,5.05,0.4999999742824231
1.051565408706665,0.2506965535731479,[2.34745931],5.0,0.6,0.0,-0.0034628445446346513,5.05,0.49999999107367565
1.0614919662475586,0.25460452790788135,[2.34746271],5.0,0.6,0.0,-0.0018203200842280688,5.05,0.4999999975333803
1.0708773136138916,0.25851250224261474,[2.34746406],5.0,0.6,0.0,-0.0007167406440753362,5.05,0.4999999996175887
1.0802597999572754,0.26183428042713813,[2.34746375],5.0,0.6,0.0,-0.2760261403850575,5.05,0.4999432870197819
1.0881896018981934,0.2651560586116615,[2.34746212],5.0,0.6,0.0,-0.3086810601083214,5.05,0.4999290755727052
1.0977880954742432,0.26886863422965823,[2.34745948],5.0,0.6,0.0,-0.2532926297971233,5.05,0.4999522436594682
1.1066806316375732,0.2727766085643917,[2.34745609],5.0,0.6,0.0,-0.177038530976384,5.05,0.49997666906535193
1.1153151988983154,0.276098386748915,[2.34745224],5.0,0.6,0.0,-0.10642950329979285,5.05,0.4999915680682221
1.1245439052581787,0.2798109623669118,[2.34744815],5.0,0.6,0.0,-0.04977674975061226,5.05,0.49999815558372873
1.1336803436279297,0.28352353798490854,[2.34744403],5.0,0.6,0.0,-0.007784618647788202,5.05,0.49999995488911575
1.141225814819336,0.28645451873595856,[2.34744003],5.0,0.6,0.0,0.02160170254152266,5.05,0.4999996526378554
1.1522910594940186,0.2913394866543753,[2.34743632],5.0,0.6,0.0,0.04108633148228148,5.05,0.4999987433889887
1.1621217727661133,0.29544285970584544,[2.34743301],5.0,0.6,0.0,0.053187500042445074,5.05,0.4999978941622034
1.1706225872039795,0.29896003660710546,[2.34743023],5.0,0.6,0.0,0.05997372233310992,5.05,0.4999973225120697
1.17930269241333,0.3024772135083655,[2.34742806],5.0,0.6,0.0,0.06303946502173591,5.05,0.499997041780276
1.1874213218688965,0.3054081942594156,[2.34742653],5.0,0.6,0.0,0.06356824858748886,5.05,0.49999699194438824
1.1982064247131348,0.3100977634610957,[2.34742566],5.0,0.6,0.0,0.062416843455047166,5.05,0.4999970999264034
1.2065117359161377,0.3132241429288824,[2.34742548],5.0,0.6,0.0,0.060194182415546776,5.05,0.4999973027913484
1.2144386768341064,0.3163505223966691,[2.34742601],5.0,0.6,0.0,0.05732655238248202,5.05,0.49999755365749554
1.2232420444488525,0.3198676992979292,[2.34742724],5.0,0.6,0.0,0.05410817341117871,5.05,0.49999782062745596
1.2322196960449219,0.32358027491592595,[2.34742914],5.0,0.6,0.0,0.05073904720537274,5.05,0.4999980835810424
1.2401947975158691,0.32670665438371266,[2.34743171],5.0,0.6,0.0,0.04735264580269558,5.05,0.49999833085352197
1.2491259574890137,0.33041923000170936,[2.34743495],5.0,0.6,0.0,0.044035866303558824,5.05,0.49999855649219166
1.2578215599060059,0.33413180561970607,[2.34743886],5.0,0.6,0.0,0.04084326276650204,5.05,0.4999987582133319
1.2665107250213623,0.3378443812377029,[2.34744341],5.0,0.6,0.0,0.037807119408067816,5.05,0.4999989359711804
1.275787591934204,0.34155695685569953,[2.34744859],5.0,0.6,0.0,0.034944538032342445,5.05,0.49999909099789797
1.2837400436401367,0.34487873504022304,[2.3474544],5.0,0.6,0.0,0.03226239962011228,5.05,0.49999922518205336
1.2930636405944824,0.34839591194148306,[2.34746083],5.0,0.6,0.0,0.029760821344960005,5.05,0.4999993406800537
1.301281452178955,0.3519130888427431,[2.3474679],5.0,0.6,0.0,0.027435553450112872,5.05,0.49999943968289173
1.3091466426849365,0.35503946831052985,[2.34747556],5.0,0.6,0.0,0.025279631756306962,5.05,0.49999952428378425
1.3178534507751465,0.35875204392852655,[2.34748376],5.0,0.6,0.0,0.023284509079973773,5.05,0.4999995964097445
1.3262183666229248,0.36226922082978663,[2.34749246],5.0,0.6,0.0,0.021440822886813725,5.05,0.4999996577925773
1.3399710655212402,0.36734958746494006,[2.34750168],5.0,0.6,0.0,0.29577726942201715,5.05,0.49993488096089
1.3491404056549072,0.37086676436620014,[2.34751146],5.0,0.6,0.0,0.051293747263651226,5.05,0.49999804144992427
1.3585243225097656,0.37457933998419685,[2.34752176],5.0,0.6,0.0,-0.03837510089244855,5.05,0.4999989037609715
1.3671562671661377,0.3782919156021936,[2.34753253],5.0,0.6,0.0,-0.060696041659480254,5.05,0.4999972576289057
1.3767399787902832,0.3823952886536637,[2.34754376],5.0,0.6,0.0,0.2196767346770409,5.05,0.49996407810796906
1.3841490745544434,0.3855216681214504,[2.34755542],5.0,0.6,0.0,0.265571579922266,5.05,0.4999475014789363
1.3921818733215332,0.38884344630597373,[2.34756743],5.0,0.6,0.0,-0.051980707878232585,5.05,0.49999798863827843
1.4012141227722168,0.39255602192397054,[2.34757976],5.0,0.6,0.0,-0.14956590966416758,5.05,0.4999833480661557
1.4091427326202393,0.3958778001084939,[2.34759237],5.0,0.6,0.0,0.12005262918046779,5.05,0.49998927134284477
1.4172320365905762,0.3991995782930173,[2.34760522],5.0,0.6,0.0,0.179204258898854,5.05,0.4999760947688915
1.4251511096954346,0.40232595776080404,[2.34761828],5.0,0.6,0.0,0.15719628312538825,5.05,0.4999816057013793
1.4343891143798828,0.4058431346620641,[2.34763159],5.0,0.6,0.0,0.11135007438292668,5.05,0.4999907703827797
1.4431111812591553,0.4095557102800608,[2.34764511],5.0,0.6,0.0,-0.2108358262856787,5.05,0.49996691119177145
1.4526231288909912,0.41365908333153095,[2.34765882],5.0,0.6,0.0,-0.00618103735477625,5.05,0.49999997156001263
1.4619667530059814,0.41717626023279103,[2.34767269],5.0,0.6,0.0,0.05326785650000694,5.05,0.4999978877943487
1.4713826179504395,0.420693437134051,[2.34768674],5.0,0.6,0.0,0.0540259480297377,5.05,0.49999782724616726
1.4791383743286133,0.42381981660183776,[2.34770096],5.0,0.6,0.0,0.035093252443849046,5.05,0.49999908324451253
1.4886157512664795,0.4277277909365711,[2.34771531],5.0,0.6,0.0,-0.2630421431399227,5.05,0.49994849670964636
1.4961450099945068,0.4310495691210946,[2.34772974],5.0,0.6,0.0,-0.03920185788711096,5.05,0.49999885601724314
1.5046961307525635,0.43437134730561794,[2.34774417],5.0,0.6,0.0,0.03461700501304202,5.05,0.4999991079580675
1.5166513919830322,0.439060916507298,[2.34775855],5.0,0.6,0.0,0.045687981904423275,5.05,0.49999844614692773
1.5267233848571777,0.4433596882755048,[2.34777291],5.0,0.6,0.0,0.03390239810876784,5.05,0.499999144407158
1.5360307693481445,0.4468768651767649,[2.34778733],5.0,0.6,0.0,0.016589433915805925,5.05,0.4999997951340793
1.5451457500457764,0.4509802382282349,[2.34780186],5.0,0.6,0.0,0.000587043224547763,5.05,0.4999999997434649
1.5565102100372314,0.4552790099964417,[2.34781656],5.0,0.6,0.0,-0.011959933086500674,5.05,0.4999998935209595
1.5671591758728027,0.45977318048138505,[2.34783152],5.0,0.6,0.0,-0.020866821271037648,5.05,0.49999967587007627
1.578354835510254,0.4642673509663285,[2.3478468],5.0,0.6,0.0,-0.026658890468500118,5.05,0.4999994709574705
1.5860927104949951,0.46719833171737857,[2.34786243],5.0,0.6,0.0,-0.030027588118948116,5.05,0.4999993288072077
1.5948703289031982,0.4707155086186386,[2.34787836],5.0,0.6,0.0,0.24442278315848148,5.05,0.49995552963118284
1.6036765575408936,0.47423268551989867,[2.34789457],5.0,0.6,0.0,0.2772138910113444,5.05,0.4999427979215811
1.612168312072754,0.47755446370442206,[2.34791105],5.0,0.6,0.0,-0.05340452082140951,5.05,0.49999787694229436
1.621117115020752,0.48146243803915545,[2.34792776],5.0,0.6,0.0,-0.16154408581615212,5.05,0.4999805741350743
1.6311542987823486,0.48537041237388884,[2.34794462],5.0,0.6,0.0,0.10047794392840291,5.05,0.4999924847247644
1.6414153575897217,0.4894737854253589,[2.34796166],5.0,0.6,0.0,0.1546637265217757,5.05,0.4999821936099643
1.6495060920715332,0.492990962326619,[2.34797891],5.0,0.6,0.0,0.12977497412141567,5.05,0.49998746330291155
1.6582283973693848,0.4967035379446158,[2.3479963],5.0,0.6,0.0,0.08259578471971843,5.05,0.49999492167797055
1.667212963104248,0.5006115122793491,[2.34801372],5.0,0.6,0.0,0.036211971173286374,5.05,0.49999902386343026
1.675097942352295,0.5037378917471359,[2.34803115],5.0,0.6,0.0,-0.0015373504279709536,5.05,0.4999999982406493
1.6856882572174072,0.5080366635153426,[2.34804858],5.0,0.6,0.0,-0.02931554631358734,5.05,0.4999993602616566
1.6961629390716553,0.5121400365668127,[2.34806608],5.0,0.6,0.0,-0.04825339594474723,5.05,0.4999982667480835
1.704087495803833,0.5152664160345994,[2.34808374],5.0,0.6,0.0,-0.06016742190069484,5.05,0.4999973051890038
1.7130873203277588,0.5187835929358594,[2.34810155],5.0,0.6,0.0,-0.06683410263872566,5.05,0.499996674924784
1.7232465744018555,0.5228869659873295,[2.34811952],5.0,0.6,0.0,0.2062959000339531,5.05,0.49996832080694803
1.734281301498413,0.5271857377555363,[2.3481377],5.0,0.6,0.0,0.2391118237779674,5.05,0.49995744110969176
1.745126724243164,0.531484509523743,[2.34815615],5.0,0.6,0.0,0.18544224671027337,5.05,0.49997440159425727
1.754049301147461,0.5353924838584764,[2.34817483],5.0,0.6,0.0,0.1118962510635414,5.05,0.49999067961826454
1.7631254196166992,0.5391050594764732,[2.34819366],5.0,0.6,0.0,0.04458103279444561,5.05,0.4999985205295895
1.7715137004852295,0.5424268376609965,[2.34821261],5.0,0.6,0.0,-0.00847295608138323,5.05,0.49999994655875557
1.781874418258667,0.5465302107124667,[2.34823167],5.0,0.6,0.0,-0.3227912554119722,5.05,0.4999224438016245
1.7925786972045898,0.5508289824806734,[2.34825086],5.0,0.6,0.0,-0.38160433109257863,5.05,0.4998916107556425
1.8025038242340088,0.5549323555321435,[2.34827016],5.0,0.6,0.0,-0.06635262872662828,5.05,0.4999967226598502
1.8122947216033936,0.5592311273003503,[2.3482896],5.0,0.6,0.0,0.034207980586719366,5.05,0.4999991289137246
1.8244116306304932,0.5641160952187669,[2.3483092],5.0,0.6,0.0,-0.22991731327814086,5.05,0.4999606510690789
1.834864854812622,0.5682194682702371,[2.34832904],5.0,0.6,0.0,-0.2824902946940731,5.05,0.499940599795485
1.8431696891784668,0.5713458477380239,[2.34834909],5.0,0.6,0.0,-0.2535646814960046,5.05,0.4999521410228567
1.8530933856964111,0.5752538220727572,[2.34836928],5.0,0.6,0.0,-0.20084961116193878,5.05,0.49996997136270177
1.8631117343902588,0.5793571951242272,[2.34838956],5.0,0.6,0.0,-0.14808000365966104,5.05,0.499983677284189
1.873877763748169,0.5838513656091707,[2.34840993],5.0,0.6,0.0,-0.10354210057066593,5.05,0.49999201937044807
1.885138988494873,0.5885409348108508,[2.3484304],5.0,0.6,0.0,-0.06887450268282892,5.05,0.4999964688018056
1.8941688537597656,0.5922535104288476,[2.34845099],5.0,0.6,0.0,-0.043145492636256555,5.05,0.49999861427536496
1.9037165641784668,0.5961614847635809,[2.3484717],5.0,0.6,0.0,-0.024665473871845034,5.05,0.4999995471176393
1.9126832485198975,0.5994832629481043,[2.34849254],5.0,0.6,0.0,-0.011734848179015395,5.05,0.4999998974910981
1.92061448097229,0.6028050411326277,[2.34851352],5.0,0.6,0.0,-0.0029071277587245804,5.05,0.49999999370877946
1.9285967350006104,0.6061268193171511,[2.3485346],5.0,0.6,0.0,0.002957075817094826,5.05,0.49999999349074037
1.9369237422943115,0.6094485975016745,[2.34855572],5.0,0.6,0.0,0.006717343379733656,5.05,0.49999996641063765
1.9467003345489502,0.6133565718364078,[2.34857686],5.0,0.6,0.0,0.009005084588670153,5.05,0.4999999396354118
1.9557197093963623,0.6170691474544047,[2.34859803],5.0,0.6,0.0,0.010275940466965845,5.05,0.49999992139506727
1.964146375656128,0.620390925638928,[2.34861922],5.0,0.6,0.0,0.010854585366332083,5.05,0.49999991229323065
1.9750902652740479,0.6246896974071348,[2.34864039],5.0,0.6,0.0,0.010970140775200796,5.05,0.49999991041587877
1.9834692478179932,0.6284022730251315,[2.34866154],5.0,0.6,0.0,0.010782984151108545,5.05,0.4999999134465125
1.992130994796753,0.6315286524929183,[2.34868267],5.0,0.6,0.0,0.010404518201253675,5.05,0.49999991941567196
2.0006141662597656,0.6348504306774417,[2.34870374],5.0,0.6,0.0,0.009911504960437393,5.05,0.49999992687163747
2.010007619857788,0.6389538037289116,[2.34872476],5.0,0.6,0.0,0.009356341948204686,5.05,0.49999993483433697
2.0186431407928467,0.6424709806301717,[2.34874577],5.0,0.6,0.0,0.008774371578591584,5.05,0.4999999426889066
2.02691912651062,0.6459881575314318,[2.34876684],5.0,0.6,0.0,0.008189051151122107,5.05,0.4999999500800868
2.0350911617279053,0.6495053344326919,[2.34878798],5.0,0.6,0.0,-0.2684227654062811,5.05,0.4999463682368094
2.0430448055267334,0.6526317139004786,[2.34880916],5.0,0.6,0.0,-0.30209943570802134,5.05,0.4999320675935922
2.0513527393341064,0.6559534920850019,[2.34883036],5.0,0.6,0.0,-0.24752722832963775,5.05,0.4999543928613957
2.0591046810150146,0.6588844728360521,[2.3488516],5.0,0.6,0.0,-0.17193727500010497,5.05,0.499977994198204
2.06805419921875,0.6624016497373121,[2.34887284],5.0,0.6,0.0,-0.10187845130701204,5.05,0.4999922737636594
2.0776188373565674,0.6661142253553088,[2.34889412],5.0,0.6,0.0,-0.32172764612141935,5.05,0.49992295402142395
2.086059331893921,0.6696314022565689,[2.34891548],5.0,0.6,0.0,-0.31325678444843097,5.05,0.4999269574506426
2.0951993465423584,0.673734775308039,[2.34893693],5.0,0.6,0.0,-0.22911724689100443,5.05,0.49996092443478046
2.1030869483947754,0.6766657560590891,[2.34895844],5.0,0.6,0.0,-0.13384950087205094,5.05,0.4999866637295073
2.1121666431427,0.6801829329603492,[2.34898005],5.0,0.6,0.0,-0.05149314946155585,5.05,0.49999802619280076
2.121732234954834,0.6838955085783458,[2.34900185],5.0,0.6,0.0,0.011675943910576914,5.05,0.49999989851762294
2.129753351211548,0.6872172867628693,[2.34902383],5.0,0.6,0.0,0.05652450112666822,5.05,0.499997621631641
2.1371426582336426,0.6901482675139192,[2.34904591],5.0,0.6,0.0,0.08627432581594016,5.05,0.4999944592645144
2.1460788249969482,0.6940562418486528,[2.34906802],5.0,0.6,0.0,0.38051295970944315,5.05,0.49989222977918346
2.156390905380249,0.6983550136168594,[2.34909022],5.0,0.6,0.0,0.4234071345318564,5.05,0.49986656644314004
2.1650912761688232,0.7020675892348561,[2.34911261],5.0,0.6,0.0,0.09609925502405821,5.05,0.4999931254586006
2.1743924617767334,0.7057801648528529,[2.34913524],5.0,0.6,0.0,-0.013340020253181956,5.05,0.4999998675293718
2.1830759048461914,0.7092973417541131,[2.34915812],5.0,0.6,0.0,-0.03167206242255863,5.05,0.4999992532778389
2.1911001205444336,0.7124237212218996,[2.34918123],5.0,0.6,0.0,-0.016804422769867534,5.05,0.49999978978980153
2.2000954151153564,0.7161362968398964,[2.34920447],5.0,0.6,0.0,0.006130315968669727,5.05,0.4999999720248527
2.2101573944091797,0.7200442711746298,[2.34922782],5.0,0.6,0.0,0.027231496460986635,5.05,0.49999944798681456
2.221055507659912,0.7245384416595733,[2.34925126],5.0,0.6,0.0,0.043406268946931885,5.05,0.4999985974738086
2.231485605239868,0.72883721342778,[2.34927489],5.0,0.6,0.0,0.054400656055082666,5.05,0.4999977970025575
2.2402753829956055,0.73235439032904,[2.34929883],5.0,0.6,0.0,0.33702357732708377,5.05,0.4999154544948585
2.2483694553375244,0.7356761685135634,[2.34932308],5.0,0.6,0.0,0.09729152927289325,5.05,0.49999295382094716
2.2572178840637207,0.7389979466980869,[2.34934756],5.0,0.6,0.0,0.009781131553373637,5.05,0.49999992878280825
2.265220880508423,0.742515123599347,[2.34937224],5.0,0.6,0.0,-0.012204292770363698,5.05,0.49999988912545207
2.273132801055908,0.7456415030671336,[2.3493971],5.0,0.6,0.0,0.26727136615283165,5.05,0.4999468273323989
2.282711982727051,0.7493540786851303,[2.34942205],5.0,0.6,0.0,0.3114715026135719,5.05,0.4999277875719172
2.290076732635498,0.7522850594361805,[2.34944704],5.0,0.6,0.0,0.2677772368825314,5.05,0.4999466258703781
2.2983527183532715,0.7559976350541772,[2.34947203],5.0,0.6,0.0,0.20086955729198486,5.05,0.49996996539837
2.3094637393951416,0.7606872042558572,[2.34949704],5.0,0.6,0.0,0.13678918287348069,5.05,0.4999860715067933
2.3181772232055664,0.7642043811571174,[2.34952218],5.0,0.6,0.0,0.0841530016653815,5.05,0.49999472838592446
2.327282428741455,0.767916956775114,[2.34954742],5.0,0.6,0.0,0.04419288908052369,5.05,0.499998546179353
2.337942600250244,0.7718249311098475,[2.34957275],5.0,0.6,0.0,0.01537657731456955,5.05,0.4999998239946167
2.3465819358825684,0.7753421080111076,[2.3495982],5.0,0.6,0.0,-0.0045608502799910425,5.05,0.4999999845154603
2.3541266918182373,0.7784684874788942,[2.34962376],5.0,0.6,0.0,-0.017796435724986577,5.05,0.4999997642386369
2.365591049194336,0.783353455397311,[2.3496494],5.0,0.6,0.0,-0.026145709534653096,5.05,0.49999949112944886
2.376561164855957,0.7876522271655179,[2.34967519],5.0,0.6,0.0,-0.031021480459391296,5.05,0.49999928363987356
2.3857638835906982,0.7911694040667778,[2.34970118],5.0,0.6,0.0,-0.03348012921402287,5.05,0.4999991655879565
2.3955955505371094,0.7952727771182478,[2.34972736],5.0,0.6,0.0,-0.03429155981591191,5.05,0.4999991246519357
2.406468152999878,0.7995715488864547,[2.34975374],5.0,0.6,0.0,-0.03400691564051457,5.05,0.49999913912362504
2.415764093399048,0.8030887257877147,[2.34978035],5.0,0.6,0.0,-0.033015334792437075,5.05,0.499999188594898
2.423097610473633,0.8062151052555014,[2.34980716],5.0,0.6,0.0,-0.03158833667932874,5.05,0.49999925722056826
2.4355082511901855,0.8114908706073914,[2.34983413],5.0,0.6,0.0,-0.029913203808269076,5.05,0.49999933391102397
2.444122314453125,0.814812648791915,[2.34986128],5.0,0.6,0.0,-0.028117488344937866,5.05,0.4999994114823836
2.4531161785125732,0.8183298256931749,[2.34988857],5.0,0.6,0.0,-0.026286721364792223,5.05,0.49999948562565993
2.4631612300872803,0.8222378000279084,[2.34991597],5.0,0.6,0.0,-0.024477072866135787,5.05,0.49999955400966933
2.472525119781494,0.8261457743626417,[2.34994347],5.0,0.6,0.0,-0.022724332858790018,5.05,0.4999996155952084
2.4815638065338135,0.8298583499806385,[2.34997107],5.0,0.6,0.0,-0.021050245992846425,5.05,0.4999996701466624
2.4900686740875244,0.8333755268818985,[2.34999877],5.0,0.6,0.0,-0.019466958990976183,5.05,0.4999997179001983
2.499074935913086,0.8370881024998954,[2.35002652],5.0,0.6,0.0,-0.017980130567791217,5.05,0.49999975934646074
2.5088107585906982,0.8409960768346287,[2.35005422],5.0,0.6,0.0,-0.01659109764054121,5.05,0.4999997950929859
2.5185117721557617,0.8449040511693621,[2.35008185],5.0,0.6,0.0,-0.01529837794744661,5.05,0.4999998257802558
2.527245044708252,0.8482258293538855,[2.35010945],5.0,0.6,0.0,-0.01409870732210865,5.05,0.4999998520328867
2.537050724029541,0.8525246011220923,[2.35013703],5.0,0.6,0.0,-0.012987751427547219,5.05,0.499999874433278
2.5472192764282227,0.856237176740089,[2.35016459],5.0,0.6,0.0,-0.011960590279045329,5.05,0.4999998935092573
2.5554375648498535,0.8593635562078759,[2.35019216],5.0,0.6,0.0,-0.011012044573774672,5.05,0.499999909730184
2.56421160697937,0.8628807331091358,[2.35021975],5.0,0.6,0.0,-0.010136892190260649,5.05,0.49999992350795053
2.5720648765563965,0.8660071125769225,[2.35024732],5.0,0.6,0.0,-0.009330008702926818,5.05,0.49999993520063574
2.581552505493164,0.8701104856283925,[2.3502748],5.0,0.6,0.0,0.26745190412032516,5.05,0.4999467554772176
2.5890512466430664,0.8732368650961793,[2.35030211],5.0,0.6,0.0,0.3012614304252744,5.05,0.49993244392609126
2.597439765930176,0.8767540419974394,[2.3503292],5.0,0.6,0.0,-0.02924345857050964,5.05,0.49999936340405493
2.6050808429718018,0.879880421465226,[2.35035603],5.0,0.6,0.0,-0.13787237920238837,5.05,0.49998585004462587
2.6135072708129883,0.8832021996497494,[2.35038256],5.0,0.6,0.0,-0.15276327455052408,5.05,0.4999826285108625
2.623472213745117,0.8871101739844829,[2.35040884],5.0,0.6,0.0,0.14323026333212405,5.05,0.4999847289245145
2.6330647468566895,0.8910181483192163,[2.35043498],5.0,0.6,0.0,0.2053326936786895,5.05,0.4999686159306984
2.6419479846954346,0.8949261226539497,[2.35046096],5.0,0.6,0.0,0.1778587333086079,5.05,0.4999764523897722
2.6500930786132812,0.8982479008384732,[2.35048679],5.0,0.6,0.0,0.12462692279845819,5.05,0.4999884382014573
2.659308671951294,0.9019604764564698,[2.35051254],5.0,0.6,0.0,0.07171960546643691,5.05,0.4999961710402939
2.670987844467163,0.9064546469414132,[2.35053825],5.0,0.6,0.0,0.02810852996532639,5.05,0.4999994118573332
2.679150342941284,0.9095810264092,[2.35056393],5.0,0.6,0.0,-0.004560353680543885,5.05,0.4999999845188321
2.6875264644622803,0.9127074058769867,[2.35058954],5.0,0.6,0.0,-0.02744403941223806,5.05,0.4999994393362202
2.6953766345977783,0.9160291840615101,[2.350615],5.0,0.6,0.0,-0.042499662653542256,5.05,0.49999865544969047
2.704702615737915,0.9197417596795069,[2.35064023],5.0,0.6,0.0,-0.05166408540525391,5.05,0.4999980130666302
2.7142059803009033,0.9236497340142403,[2.35066526],5.0,0.6,0.0,-0.0565703322516751,5.05,0.4999976177732353
2.725111484527588,0.9279485057824469,[2.35069023],5.0,0.6,0.0,-0.05849441556872261,5.05,0.4999974529681158
2.733081817626953,0.931465682683707,[2.35071525],5.0,0.6,0.0,-0.05839073341227481,7.033436581190236,0.49999746198938877
2.7428019046783447,0.9351782583017039,[2.35074033],5.0,0.6,0.0,-0.056953121582109335,7.0351125997885555,0.49999758542504336
2.751535415649414,0.9390862326364372,[2.35076546],5.0,0.6,0.0,-0.054675693185709556,7.0159075803411675,0.4999977746706061
2.762822389602661,0.9431896056879073,[2.35079065],5.0,0.6,0.0,-0.0519044469321364,6.9955953747101445,0.4999979945356788
2.7710838317871094,0.9467067825891673,[2.35081593],5.0,0.6,0.0,-0.048877874753543354,6.978086165606627,0.4999982215955705
2.7816429138183594,0.9508101556406374,[2.35084133],5.0,0.6,0.0,-0.04575760184393408,6.9578037260306385,0.4999984414077641
2.7890470027923584,0.953936535108424,[2.3508668],5.0,0.6,0.0,-0.04265091792967614,6.941685963974982,0.49999864586222864
2.7976574897766113,0.9574537120096842,[2.35089223],5.0,0.6,0.0,-0.03962706860046086,6.9239383305501185,0.4999988310658108
2.806960344314575,0.9613616863444175,[2.35091751],5.0,0.6,0.0,-0.0367288985570147,6.904771896899823,0.4999989957957648
2.81579327583313,0.9648788632456776,[2.35094266],5.0,0.6,0.0,-0.03398110276911681,6.887523937717152,0.4999991404300204
2.8251543045043945,0.9685914388636743,[2.35096772],5.0,0.6,0.0,-0.031396035457920024,6.869148249683356,0.49999926623671315
2.8331165313720703,0.9719132170481978,[2.35099273],5.0,0.6,0.0,-0.028977777079973267,6.852765517878454,0.49999937491865465
2.841115951538086,0.9748441977992479,[2.3510177],5.0,0.6,0.0,-0.026724966945346568,6.837748401320628,0.49999946833166203
2.850102424621582,0.9787521721339812,[2.35104256],5.0,0.6,0.0,-0.024632765467230575,6.818635352972506,0.4999995483179593
2.859264373779297,0.982464747751978,[2.35106733],5.0,0.6,0.0,-0.022694205071842877,6.800362085300253,0.49999961661381553
2.867405891418457,0.985981924653238,[2.35109208],5.0,0.6,0.0,-0.020901113119311948,6.78295307395281,0.4999996748038723
2.8763489723205566,0.9898898989879715,[2.35111685],5.0,0.6,0.0,-0.019244736118896724,6.763625478248926,0.4999997243039927
2.884053945541382,0.9926254810222849,[2.35114162],5.0,0.6,0.0,-0.017716156129731556,6.749534560317211,0.49999976636087456
2.8960678577423096,0.9975104489407016,[2.35116638],5.0,0.6,0.0,-0.01630656310265011,6.72596073466826,0.49999980206095973
2.904057025909424,1.0006368284084883,[2.35119116],5.0,0.6,0.0,-0.29104578747384646,6.7100454390771604,0.49993694755584334
2.914051055908203,1.0047402014599582,[2.35121599],5.0,0.6,0.0,-0.3229735692884783,6.6904461950580965,0.49992235617554565
2.9220502376556396,1.0076711822110085,[2.3512409],5.0,0.6,0.0,-0.2667741052236313,6.675360656414371,0.49994702499438165
2.9319911003112793,1.0115791565457417,[2.35126587],5.0,0.6,0.0,-0.18967427689516952,6.6560097163755705,0.4999732199169959
2.941890239715576,1.0156825295972118,[2.35129084],5.0,0.6,0.0,-0.11821740733354602,6.635723445617044,0.49998959684622263
2.9514496326446533,1.019785902648682,[2.35131586],5.0,0.6,0.0,-0.060735766823583656,6.615482275965762,0.49999725403801276
2.959061622619629,1.0229122821164687,[2.3513409],5.0,0.6,0.0,-0.017946832563249478,6.599462372191231,0.49999976023698384
2.9675698280334473,1.0264294590177288,[2.35136591],5.0,0.6,0.0,0.0121965147661032,6.582199299034616,0.4999998892667315
2.9760468006134033,1.0297512372022521,[2.35139088],5.0,0.6,0.0,0.032394388933826346,6.565827054357745,0.4999992188293453
2.985703468322754,1.0336592115369856,[2.35141585],5.0,0.6,0.0,0.045163491984381535,6.546560053300773,0.499998481618012
2.9929990768432617,1.0365901922880356,[2.35144083],5.0,0.6,0.0,0.052572439251910415,6.5316314057292955,0.49999794258435715
3.0020508766174316,1.0403027679060324,[2.35146575],5.0,0.6,0.0,0.05621684710538818,6.513194835535743,0.4999976474512964
3.0126047134399414,1.0447969383909759,[2.3514906],5.0,0.6,0.0,0.05728203361007271,6.491067899577747,0.49999755745558233
3.021184206008911,1.048118716575499,[2.3515154],5.0,0.6,0.0,0.0566269410012749,6.474661492012044,0.49999761300317214
3.0300559997558594,1.0520266909102327,[2.35154019],5.0,0.6,0.0,-0.22117549685699114,6.455438912318689,0.4999635862938094
3.0380258560180664,1.0551530703780192,[2.35156496],5.0,0.6,0.0,-0.256744451051665,6.439599828319707,0.4999509332269136
3.0465824604034424,1.0584748485625428,[2.35158968],5.0,0.6,0.0,-0.20447518879706414,6.4235781667729395,0.49996887750582064
3.0562522411346436,1.0619920254638027,[2.35161438],5.0,0.6,0.0,-0.13139947840855293,6.406144189811953,0.49998714747740336
3.06703782081604,1.0662907972320095,[2.35163911],5.0,0.6,0.0,-0.06393168295382365,6.384886879118587,0.49999695745067163
3.0750534534454346,1.0698079741332696,[2.35166385],5.0,0.6,0.0,-0.010321337048814959,6.366900574395602,0.49999992069901866
3.0830397605895996,1.073129752317793,[2.35168848],5.0,0.6,0.0,0.028764800423884625,6.3500414653746375,0.49999938407314787
3.0913898944854736,1.0764515305023163,[2.35171292],5.0,0.6,0.0,0.05540259905646436,6.33393709476187,0.49999771510650715
3.099128246307373,1.079577909970103,[2.35173718],5.0,0.6,0.0,0.07230601965366117,6.318512073616717,0.49999610816970047
3.1084163188934326,1.0832904855880998,[2.35176134],5.0,0.6,0.0,0.08199564837413999,6.300325562895624,0.4999949952071048
3.1170828342437744,1.0866122637726232,[2.35178541],5.0,0.6,0.0,-0.18950090080570492,6.2836300830188145,0.4999732688512009
3.1264748573303223,1.0907156368240933,[2.35180942],5.0,0.6,0.0,0.05439567524173472,6.263833292195997,0.4999977974059421
3.1341705322265625,1.09384201629188,[2.35183342],5.0,0.6,0.0,0.1412173803816858,6.247805732370114,0.49998515512550806
3.144179105758667,1.09794538934335,[2.35185741],5.0,0.6,0.0,0.15927024454837113,6.227478583327212,0.4999811171402153
3.1520354747772217,1.1012671675278736,[2.35188138],5.0,0.6,0.0,0.1498382547953443,6.210990666353193,0.49998328736881875
3.1620540618896484,1.105175141862607,[2.35190535],5.0,0.6,0.0,0.13155016107571119,6.191663760915614,0.4999871179835595
3.170020341873169,1.1084969200471304,[2.35192932],5.0,0.6,0.0,0.11230653775266922,6.174750030581373,0.4999906111440613
3.1780056953430176,1.1118186982316538,[2.35195326],5.0,0.6,0.0,0.0950638438757022,6.1588722578392625,0.4999932727975833
3.1880056858062744,1.115726672566387,[2.35197723],5.0,0.6,0.0,0.08060079499043331,6.138975346534521,0.4999951640341437
3.1960556507110596,1.1188530520341737,[2.35200115],5.0,0.6,0.0,0.06881356154078382,6.1231287668037595,0.49999647504792805
3.2053980827331543,1.1225656276521707,[2.35202494],5.0,0.6,0.0,0.059301752278411037,6.104856059730924,0.4999973821751194
3.213036298751831,1.1254966084032205,[2.35204857],5.0,0.6,0.0,0.051618252336837936,6.090001132376008,0.4999980165904196
3.222053289413452,1.129404582737954,[2.35207199],5.0,0.6,0.0,0.04536391395738581,6.07086950481419,0.4999984681118872
3.230020523071289,1.1327263609224774,[2.35209524],5.0,0.6,0.0,0.040213722925550636,6.054445763057443,0.49999879619895743
3.2391316890716553,1.1366343352572106,[2.3521184],5.0,0.6,0.0,0.03591503896064015,6.035781443933954,0.4999990398061011
3.2475011348724365,1.1399561134417342,[2.3521416],5.0,0.6,0.0,0.03227630975704475,6.018774630930603,0.49999922451377454
3.2562530040740967,1.1434732903429943,[2.35216483],5.0,0.6,0.0,0.029154128818208034,6.001356016294299,0.4999993672873211
3.2654099464416504,1.1471858659609908,[2.35218808],5.0,0.6,0.0,0.026441641253147463,5.982901211791467,0.49999947954490237
3.273056983947754,1.1503122454287777,[2.35221133],5.0,0.6,0.0,0.024059147896796515,5.966952233968163,0.4999995691094476
3.283302068710327,1.1542202197635112,[2.35223455],5.0,0.6,0.0,0.021946876638568556,5.94819846051287,0.49999964144815245
3.2913689613342285,1.1579327953815077,[2.35225778],5.0,0.6,0.0,0.02005958591537333,5.929207353943946,0.49999970046300213
3.2990219593048096,1.1610591748492947,[2.35228095],5.0,0.6,0.0,0.0183626091309179,5.913320162732478,0.4999997489990611
3.3079965114593506,1.1645763517505545,[2.35230397],5.0,0.6,0.0,0.016828987714112266,5.896088690924755,0.49999978917477594
3.318385362625122,1.1682889273685515,[2.35232689],5.0,0.6,0.0,0.015437406942373555,5.878293495500245,0.4999998225993104
3.3260464668273926,1.171415306836338,[2.35234979],5.0,0.6,0.0,0.014170714721674915,5.862233001816612,0.49999985051757984
3.336397886276245,1.1753232811710714,[2.35237266],5.0,0.6,0.0,0.013014859559650519,5.842927388102803,0.49999987390856343
3.34407901763916,1.1786450593555948,[2.35239543],5.0,0.6,0.0,0.011958128096641346,5.825971662220798,0.4999998935530967
3.3567404747009277,1.1841162234242217,[2.35241809],5.0,0.6,0.0,0.010990595905453846,5.799489647131107,0.49999991008148686
3.366048812866211,1.1880241977589552,[2.35244072],5.0,0.6,0.0,0.010103729845329711,5.7801127642301555,0.4999999240076118
3.374363422393799,1.1913459759434786,[2.35246338],5.0,0.6,0.0,0.009290098072654308,5.7631116252919625,0.49999993575382967
3.3848752975463867,1.1954493489949485,[2.35248604],5.0,0.6,0.0,0.008543156600453882,5.743122332310907,0.4999999456695395
3.393702745437622,1.199357323329682,[2.35250874],5.0,0.6,0.0,0.007857090405535684,5.72383751689509,0.49999995404527664
3.4010612964630127,1.202288304080732,[2.3525315],5.0,0.6,0.0,0.28326505322066026,5.7085182344160295,0.4999402735458994
3.4092648029327393,1.2054146835485189,[2.35255424],5.0,0.6,0.0,0.039771880446254,5.693077970163762,0.49999882250678174
3.417625665664673,1.2089318604497787,[2.35257693],5.0,0.6,0.0,-0.048982658047505935,5.675891413166506,0.49999821396240374
3.425396680831909,1.2122536386343021,[2.35259957],5.0,0.6,0.0,-0.07046020209260653,5.6590646652921635,0.4999963043329377
3.4350504875183105,1.2161616129690356,[2.35262212],5.0,0.6,0.0,0.21069006154712466,5.639763103537686,0.4999669569274033
3.44398832321167,1.2196787898702957,[2.35264461],5.0,0.6,0.0,0.257301288752694,5.6221095486909345,0.49995072017062475
3.453010082244873,1.223000568054819,[2.35266704],5.0,0.6,0.0,0.2164471975922663,5.605767487496671,0.4999651265058231
3.4620163440704346,1.2267131436728156,[2.35268946],5.0,0.6,0.0,-0.12344417481123836,5.587590480936726,0.4999886566077331
3.470101833343506,1.230034921857339,[2.35271191],5.0,0.6,0.0,-0.21752650124194656,5.571113274291199,0.49996477786094656
3.4803662300109863,1.2341382949088093,[2.35273442],5.0,0.6,0.0,0.06406600484592678,5.550766219874034,0.499996944652352
3.489104747772217,1.2374600730933325,[2.35275702],5.0,0.6,0.0,0.13631607911126656,5.534058508207495,0.49998616768597737
3.5000417232513428,1.2421496422950127,[2.35277971],5.0,0.6,0.0,0.12579458327004406,5.510741854196163,0.49998822053839254
3.5090034008026123,1.245666819196273,[2.35280244],5.0,0.6,0.0,0.08911019106510021,5.492835409632894,0.49999408902860115
3.5174400806427,1.2493793948142695,[2.35282517],5.0,0.6,0.0,0.04990205845720626,5.474556869245605,0.499998146285737
3.526151180267334,1.2528965717155296,[2.3528479],5.0,0.6,0.0,0.016732001933495787,5.457244925458243,0.4999997915977531
3.5350327491760254,1.2564137486167894,[2.35287063],5.0,0.6,0.0,-0.008392267374721254,5.439340516172493,0.4999999475717603
3.5451245307922363,1.260321722951523,[2.35289332],5.0,0.6,0.0,-0.026051474822464872,5.42011054616093,0.4999994947909926
3.5548622608184814,1.2640342985695197,[2.352916],5.0,0.6,0.0,-0.03763906523830511,5.40214580232569,0.4999989454094489
3.5634310245513916,1.2675514754707797,[2.35293872],5.0,0.6,0.0,-0.044618284007929936,5.38428254473824,0.49999851805611556
3.572531223297119,1.2712640510887767,[2.3529615],5.0,0.6,0.0,-0.04825213613316946,5.365917666207705,0.4999982668385865
3.5802853107452393,1.2743904305565632,[2.3529843],5.0,0.6,0.0,-0.049539322661506735,5.350400627583279,0.4999981731368715
3.58945894241333,1.2782984048912969,[2.35300714],5.0,0.6,0.0,-0.04923184555528601,5.331026099419553,0.499998195744139
3.5979838371276855,1.28162018307582,[2.35303],5.0,0.6,0.0,-0.04787852526226607,5.314120147217312,0.4999982935739822
3.6060140132904053,1.2849419612603434,[2.35305277],5.0,0.6,0.0,-0.04587103201569004,5.297268222461599,0.4999984336708973
3.6151483058929443,1.2886545368783402,[2.3530754],5.0,0.6,0.0,-0.043483866410673436,5.2796074957944175,0.49999859245473627
3.6240241527557373,1.2923671124963367,[2.353098],5.0,0.6,0.0,-0.04090620137427406,5.261230630364816,0.4999987543832537
3.6339051723480225,1.296470485547807,[2.3531206],5.0,0.6,0.0,-0.03826607746141402,5.2404081782419905,0.49999890998093366
3.6440253257751465,1.3007692573160137,[2.35314317],5.0,0.6,0.0,-0.035648272404220124,5.2191929951977585,0.49999905401719985
3.6526846885681152,1.304091035500537,[2.35316571],5.0,0.6,0.0,0.24293110196807952,5.202718477301349,0.49995607074513027
3.6621313095092773,1.3079990098352705,[2.35318827],5.0,0.6,0.0,0.2784864876268596,5.18325034525851,0.4999422715551125
3.67148494720459,1.3115161867365306,[2.3532109],5.0,0.6,0.0,0.22569078779317586,5.165682795528989,0.4999620844052084
3.679107904434204,1.3144471674875808,[2.35323356],5.0,0.6,0.0,0.15176893194574392,5.15066757739031,0.4999828539145214
3.689600706100464,1.3187459392557874,[2.35325623],5.0,0.6,0.0,0.08326837928960137,5.130022133772943,0.4999948386339917
3.6973249912261963,1.3216769200068375,[2.35327891],5.0,0.6,0.0,0.02852937071427601,5.115414278822221,0.4999993941141683
3.706141233444214,1.3249986981913608,[2.35330152],5.0,0.6,0.0,-0.011720361486305772,5.09883409878517,0.4999998977440367
3.7155652046203613,1.3289066725260943,[2.353324],5.0,0.6,0.0,-0.03951645323829718,5.079380373330492,0.49999883758264213
3.726365089416504,1.3334008430110378,[2.35334638],5.0,0.6,0.0,-0.057547017894114594,5.057037965514165,0.499997534805153
3.7345354557037354,1.3369180199122979,[2.35336873],5.0,0.6,0.0,-0.0683167113256026,5.0397275247336735,0.4999965257659676
3.742631673812866,1.3402397980968213,[2.35339113],5.0,0.6,0.0,-0.07388236193498329,5.0231757011734315,0.49999593662922753
3.7499845027923584,1.343170778847871,[2.35341358],5.0,0.6,0.0,-0.07582824879661992,5.008146745622292,0.4999957197723403
3.7594001293182373,1.346883354465868,[2.35343604],5.0,0.6,0.0,-0.07532891424225917,4.989880027376816,0.49999577595772193
3.7697134017944336,1.350986727517338,[2.3534585],5.0,0.6,0.0,-0.0732331449863354,4.969491116246189,0.49999600772626074
3.7770159244537354,1.3541131069851247,[2.35348094],5.0,0.6,0.0,-0.07014272217523126,4.9535277869706835,0.49999633756169437
3.7859785556793213,1.3580210813198583,[2.35350329],5.0,0.6,0.0,-0.06647748858743602,4.933823802409531,0.49999671031393683
3.793971061706543,1.3609520620709084,[2.35352546],5.0,0.6,0.0,-0.06252583044820474,4.919673795857066,0.4999970897898662
3.804034948348999,1.365250833839115,[2.35354756],5.0,0.6,0.0,-0.058482448684479875,4.898946715031997,0.49999745401015855
3.8124260902404785,1.3683772133069014,[2.35356969],5.0,0.6,0.0,-0.05447598506449876,4.882804656865394,0.4999977908973317
3.8204944133758545,1.3716989914914248,[2.3535918],5.0,0.6,0.0,-0.05058892535388214,4.86633680544644,0.4999980949044797
3.8291819095611572,1.3748253709592118,[2.3536139],5.0,0.6,0.0,-0.0468717879428015,4.8510542381624076,0.4999983645811264
3.837843894958496,1.378342547860472,[2.35363602],5.0,0.6,0.0,-0.04335316016500652,4.833494185320281,0.4999986009037641
3.8460581302642822,1.381859724761732,[2.35365813],5.0,0.6,0.0,-0.040046753844927084,4.815713886655054,0.4999988061746584
3.8572170734405518,1.3867446926801488,[2.35368024],5.0,0.6,0.0,-0.03695633898890474,4.791999994839391,0.4999989833203798
3.865121603012085,1.3898710721479355,[2.35370242],5.0,0.6,0.0,-0.03407917613908947,4.77644009144179,0.4999991354612292
3.8729538917541504,1.3928020528989855,[2.35372464],5.0,0.6,0.0,-0.03140839126306539,4.761886142894392,0.4999992656590597
3.8809502124786377,1.3959284323667722,[2.35374679],5.0,0.6,0.0,-0.028934608525903183,4.74640478631859,0.4999993767796492
3.889381170272827,1.3992502105512956,[2.35376882],5.0,0.6,0.0,-0.026647063895194494,4.729792831513119,0.49999947142676
3.900306463241577,1.4039397797529758,[2.35379083],5.0,0.6,0.0,-0.024534356647802853,4.7070819120233915,0.499999551919722
3.9079556465148926,1.4070661592207623,[2.35381289],5.0,0.6,0.0,-0.022584949135110048,4.690809168861793,0.4999996202963744
3.9170031547546387,1.410778734838759,[2.35383495],5.0,0.6,0.0,-0.02078749217482055,4.671979421657142,0.4999996783298711
3.924999475479126,1.4141005130232824,[2.35385693],5.0,0.6,0.0,-0.29516938988739855,4.655926589243492,0.49993514833295505
3.9369657039642334,1.4183992847914892,[2.35387885],5.0,0.6,0.0,-0.32676808688199144,4.634762640569255,0.49992052117704217
3.9480643272399902,1.4228934552764325,[2.3539008],5.0,0.6,0.0,-0.27026562377372343,4.612844843706588,0.4999456293305565
3.9570553302764893,1.4266060308944293,[2.35392284],5.0,0.6,0.0,0.08315149206096953,4.593740614051369,0.49999485311418773
3.965963363647461,1.4301232077956894,[2.35394495],5.0,0.6,0.0,0.1879896964816748,4.57628904324888,0.499973693483443
3.9740991592407227,1.4334449859802127,[2.35396712],5.0,0.6,0.0,0.19061035622927197,4.559747945721611,0.49997295494209854
3.982975959777832,1.4371575615982095,[2.35398936],5.0,0.6,0.0,-0.11850664271337283,4.541385166737455,0.4999895458789475
3.993061065673828,1.4414563333664165,[2.35401167],5.0,0.6,0.0,-0.19181049856386279,4.5202809880791905,0.49997261331103043
4.0031819343566895,1.4455597064178862,[2.35403408],5.0,0.6,0.0,-0.172953063744396,4.499925525277131,0.49997773341965007
4.01149320602417,1.4490768833191465,[2.35405661],5.0,0.6,0.0,-0.1259271691799026,4.482404307405489,0.49998819569479114
4.0203094482421875,1.4525940602204066,[2.35407926],5.0,0.6,0.0,-0.07725482451463207,4.464964980574313,0.4999955572081493
4.029253244400024,1.4561112371216667,[2.35410204],5.0,0.6,0.0,-0.036373010509117204,4.447498053708402,0.4999990151621218
4.038053750991821,1.4596284140229265,[2.35412491],5.0,0.6,0.0,-0.005330815910955411,4.429603927292337,0.4999999788459252
4.0462806224823,1.4627547934907135,[2.35414779],5.0,0.6,0.0,-0.25932938562334035,4.414370650655009,0.4999499402823089
4.054014205932617,1.4658811729585002,[2.35417063],5.0,0.6,0.0,-0.27770104089224495,4.398620512458113,0.49994259671327174
4.062422037124634,1.4690075524262869,[2.35419338],5.0,0.6,0.0,-0.21337780271861337,4.383300619179762,0.4999661085278873
4.071739196777344,1.473110925477757,[2.35421603],5.0,0.6,0.0,-0.13208769047673857,4.363088144069013,0.49998701249498395
4.082002639770508,1.4774096972459638,[2.3542386],5.0,0.6,0.0,-0.0591943138251915,4.341761762322241,0.4999973916520584
4.089977979660034,1.4801452792802772,[2.3542611],5.0,0.6,0.0,-0.0021440958316314776,4.32789160544074,0.49999999657788136
4.098994970321655,1.483857854898274,[2.35428348],5.0,0.6,0.0,0.038990812805233116,4.309700393644165,0.4999988683014457
4.106990098953247,1.4867888356493237,[2.35430575],5.0,0.6,0.0,0.06671746943458151,4.294870088642628,0.4999966865198975
4.116332054138184,1.4906968099840574,[2.35432788],5.0,0.6,0.0,0.08405799452480833,4.275600388056595,0.49999474028224705
4.124539136886597,1.494409385602054,[2.35434987],5.0,0.6,0.0,0.09375078955788085,4.257210150820683,0.499993457349795
4.133486270904541,1.497926562503314,[2.35437176],5.0,0.6,0.0,0.09801437498165774,4.2398761157386415,0.4999928487309237
4.140962839126587,1.5012483406878376,[2.35439356],5.0,0.6,0.0,0.09854350118095728,4.222895905470539,0.4999927713114621
4.150012254714966,1.5049609163058342,[2.3544152],5.0,0.6,0.0,0.09658707551787685,4.204652568442344,0.49999305548864126
4.159187078475952,1.5084780932070943,[2.35443673],5.0,0.6,0.0,0.09304297812488405,4.18776330544454,0.4999935557692579
4.168300151824951,1.5123860675418277,[2.35445825],5.0,0.6,0.0,0.0885445132020462,4.167873103740222,0.49999416383650214
4.176212787628174,1.5155124470096146,[2.35447975],5.0,0.6,0.0,0.0835309161115162,4.1523831580198065,0.4999948060363176
4.185121297836304,1.5190296239108745,[2.35450122],5.0,0.6,0.0,0.07830165891681518,4.135183227851029,0.4999954359896601
4.193068027496338,1.5221560033786614,[2.3545227],5.0,0.6,0.0,0.07305689812861577,4.119151567367985,0.4999960269191062
4.201467037200928,1.5254777815631846,[2.35454414],5.0,0.6,0.0,0.06792696695549781,4.102838261219337,0.4999965652935166
4.210105895996094,1.5291903571811813,[2.35456553],5.0,0.6,0.0,0.06299357423787248,4.084455865242339,0.49999704608568085
4.219019889831543,1.5327075340824412,[2.35458688],5.0,0.6,0.0,0.05830488862839346,4.066664168715886,0.49999746944653994
4.227086544036865,1.535833913550228,[2.3546081],5.0,0.6,0.0,0.05388619030997785,4.050826793975881,0.4999978384728357
4.234969139099121,1.5389602930180148,[2.3546291],5.0,0.6,0.0,0.04974734629612382,4.035145537383147,0.4999981577620988
4.244186639785767,1.5428682673527483,[2.35464984],5.0,0.6,0.0,0.04588802757540743,4.01601494246544,0.49999843251001086
4.252522945404053,1.5463854442540081,[2.35467032],5.0,0.6,0.0,0.04230133022508259,3.9986176861435183,0.4999986679695709
4.260956048965454,1.549511823721795,[2.35469063],5.0,0.6,0.0,0.31501463316854106,3.983131197600708,0.4999261354509231
4.269715070724487,1.553029000623055,[2.35471082],5.0,0.6,0.0,0.06902411369203518,3.965864006342076,0.4999964534440744
4.278270483016968,1.556741576241052,[2.35473096],5.0,0.6,0.0,-0.022040767588837704,3.947552156025077,0.4999996383737494
4.2889463901519775,1.5612357467259954,[2.35475112],5.0,0.6,0.0,0.2303855829623183,3.9251401800916,0.4999604906292552
4.298957586288452,1.5651437210607286,[2.35477133],5.0,0.6,0.0,0.2666521168845136,3.9054992504909944,0.49994707342871875
4.309076547622681,1.5694424928289352,[2.3547916],5.0,0.6,0.0,0.2232247230043523,3.8841545417488703,0.49996290843552976
4.317379713058472,1.5723734735799855,[2.35481195],5.0,0.6,0.0,0.15970839253303398,3.8695876882778486,0.4999810131068506
4.325035333633423,1.5754998530477722,[2.35483244],5.0,0.6,0.0,-0.17616333312012597,3.8543313248622764,0.49997689916488747
4.333063125610352,1.5790170299490323,[2.35485307],5.0,0.6,0.0,0.01827281120699921,3.83641019374925,0.4999997514479773
4.3418707847595215,1.5825342068502923,[2.35487379],5.0,0.6,0.0,0.07026758883242862,3.8189080713921992,0.49999632451053855
4.351950645446777,1.5864421811850258,[2.35489459],5.0,0.6,0.0,0.06567402756512464,3.799574688862872,0.4999967893528237
4.361221790313721,1.5901547568030223,[2.35491546],5.0,0.6,0.0,0.04294370948445009,3.781017177963119,0.49999862720657184
4.369748115539551,1.5936719337042826,[2.35493638],5.0,0.6,0.0,0.018176791631278333,3.7631837145593643,0.4999997540532852
4.381281614303589,1.5981661041892261,[2.35495733],5.0,0.6,0.0,-0.0027583184561036193,3.7415685320823657,0.499999994336362
4.38900089263916,1.6012924836570126,[2.35497835],5.0,0.6,0.0,-0.018448815704788783,3.7254128756962683,0.4999997466367914
4.39795446395874,1.6048096605582727,[2.35499942],5.0,0.6,0.0,-0.02924796735369923,3.7080837347063476,0.499999363207738
4.406928300857544,1.6085222361762692,[2.35502043],5.0,0.6,0.0,-0.036069291297974815,3.689636836709858,0.4999990315404787
4.414980888366699,1.6116486156440561,[2.35504127],5.0,0.6,0.0,-0.03988087167632997,3.6741770001510807,0.49999881604431995
4.424277067184448,1.6155565899787896,[2.35506195],5.0,0.6,0.0,-0.0415205438945186,3.6550862683265035,0.49999871668820545
4.434566497802734,1.6196599630302595,[2.3550826],5.0,0.6,0.0,-0.04165107743692356,3.63485756093249,0.49999870860650314
4.442214488983154,1.6227863424980462,[2.3551033],5.0,0.6,0.0,-0.04077105402341612,3.61903684037394,0.49999876260027226
4.449970245361328,1.6257173232490965,[2.35512402],5.0,0.6,0.0,-0.03924358307033705,3.604020662497636,0.49999885358071383
4.460123062133789,1.63021149373404,[2.35514471],5.0,0.6,0.0,-0.0373269304937702,3.5819202128014664,0.49999896282800677
4.470276117324829,1.6341194680687734,[2.35516539],5.0,0.6,0.0,-0.03520120225810939,3.562720041535053,0.4999990775958082
4.478010654449463,1.63724584753656,[2.35518611],5.0,0.6,0.0,-0.03298962559793854,3.546676075347151,0.4999991898580948
4.485949516296387,1.6403722270043464,[2.35520682],5.0,0.6,0.0,-0.030774729803239385,3.5313173141467327,0.49999929499066686
4.4951183795928955,1.64428020133908,[2.35522753],5.0,0.6,0.0,-0.02861029869064936,3.511933556852081,0.4999993906719172
4.50293755531311,1.64721118209013,[2.35524821],5.0,0.6,0.0,-0.026530035532789476,3.496942532592755,0.49999947605933004
4.512011289596558,1.6511191564248633,[2.35526882],5.0,0.6,0.0,-0.024553764029879306,3.4777692756860454,0.4999995512105532
4.520933389663696,1.6544409346093867,[2.35528936],5.0,0.6,0.0,-0.022691824257153916,3.461355810315696,0.4999996166942522
4.53001856803894,1.657958111510647,[2.35530991],5.0,0.6,0.0,-0.020948165967226713,3.4442729375573076,0.4999996733380535
4.537922143936157,1.6610844909784337,[2.35533052],5.0,0.6,0.0,-0.019322511398203353,3.4283382879939497,0.49999972207110616
4.546575546264648,1.6646016678796938,[2.35535118],5.0,0.6,0.0,-0.017811858258706965,3.410869956034147,0.4999997638298346
4.553980588912964,1.6677280473474807,[2.35537181],5.0,0.6,0.0,-0.016411517376894787,3.3949640201518414,0.499999799504762
4.562607049942017,1.6714406229654772,[2.35539238],5.0,0.6,0.0,0.26092253607760457,3.376584202949123,0.49994932335583303
4.571597099304199,1.6751531985834738,[2.35541287],5.0,0.6,0.0,0.29524434471256,3.3580525628696063,0.49993511539426105
4.580188989639282,1.6784749767679974,[2.35543333],5.0,0.6,0.0,-0.03478622494034303,3.341850157586969,0.4999990992155385
4.588194131851196,1.6817967549525208,[2.35545376],5.0,0.6,0.0,-0.14297665778986773,3.3250124637922265,0.4999847829541834
4.597646951675415,1.6855093305705175,[2.35547412],5.0,0.6,0.0,0.11857569522488329,3.3065836711710292,0.4999895336925239
4.606430530548096,1.6890265074717774,[2.35549441],5.0,0.6,0.0,0.17202901019373007,3.2893073326974673,0.4999779707105625
4.614023208618164,1.6919574882228277,[2.35551468],5.0,0.6,0.0,-0.1297844027332332,3.2744174992996036,0.49998746148119727
4.6249799728393555,1.696842456141244,[2.35553489],5.0,0.6,0.0,-0.21105338107512894,3.250488449602403,0.4999668428722259
4.636226177215576,1.7015320253429245,[2.35555507],5.0,0.6,0.0,-0.20333330502276126,3.227510854704314,0.4999692241292872
4.6466522216796875,1.7054399996776577,[2.35557531],5.0,0.6,0.0,0.11005279143362565,3.207900829441752,0.4999909841872097
4.653956890106201,1.7079801829952348,[2.35559563],5.0,0.6,0.0,0.18496099495748997,3.194801501850724,0.4999745342822429
4.661925554275513,1.7111065624630215,[2.35561597],5.0,0.6,0.0,0.16662722634801125,3.1792140793070924,0.49997933241988735
4.6725335121154785,1.7154053342312279,[2.35563632],5.0,0.6,0.0,0.11975343203131077,3.1580260876631194,0.4999893247519112
4.6799235343933105,1.7183363149822781,[2.35565666],5.0,0.6,0.0,0.07115872917255912,3.143087682807321,0.4999962306939189
4.692479372024536,1.7234166816174314,[2.355677],5.0,0.6,0.0,0.03038898255643234,3.118366836383767,0.49999931255383034
4.7002272605896,1.7267384598019548,[2.35569739],5.0,0.6,0.0,-0.00047954408312908883,3.1017291990622495,0.49999999982881577
4.709479570388794,1.730255636703215,[2.35571787],5.0,0.6,0.0,-0.2983274629785519,3.084467973614442,0.4999337532811548
4.7169764041900635,1.7335774148877383,[2.35573843],5.0,0.6,0.0,-0.3459333523556827,3.067636549352597,0.4999109256095674
4.727283477783203,1.7378761866559451,[2.35575899],5.0,0.6,0.0,-0.023726629339340694,3.046297424089091,0.49999958093770724
4.73491907119751,1.7408071674069951,[2.35577952],5.0,0.6,0.0,0.08058683736797025,3.0311548990309207,0.4999951657088769
4.743164539337158,1.7441289455915185,[2.35579993],5.0,0.6,0.0,0.09395207482093511,3.014878368408559,0.49999342922535656
4.7531304359436035,1.7480369199262518,[2.35582025],5.0,0.6,0.0,0.07436516244010938,2.995680769332044,0.49999588334995476
4.763338088989258,1.7521402929777221,[2.35584052],5.0,0.6,0.0,0.04699678921592192,2.9752315029224907,0.4999983558465887
4.773812294006348,1.7564390647459287,[2.35586077],5.0,0.6,0.0,0.021758815042106545,2.9539707677336455,0.49999964756664567
4.7850401401519775,1.7609332352308722,[2.35588106],5.0,0.6,0.0,0.001740938675083948,2.932021960166092,0.49999999774382065
4.7959654331207275,1.7654274057158155,[2.35590148],5.0,0.6,0.0,-0.012813560952544703,2.9095449700850247,0.49999987777886834
4.805424213409424,1.7691399813338122,[2.35592206],5.0,0.6,0.0,-0.022689735609418553,2.8909918229494025,0.499999616764811
4.81325626373291,1.7722663608015992,[2.35594276],5.0,0.6,0.0,-0.02891073961357364,2.874945672358725,0.4999993778074458
4.821396827697754,1.7753927402693859,[2.35596349],5.0,0.6,0.0,-0.0324258590313676,2.859547039090682,0.49999921731084535
4.829029321670532,1.7787145184539093,[2.35598423],5.0,0.6,0.0,-0.034012700614679287,2.8431558248036657,0.4999991388307101
4.839004993438721,1.7828178915053792,[2.35600501],5.0,0.6,0.0,-0.31030734410573546,2.8228898975616254,0.4999283263280679
4.84959864616394,1.7873120619903229,[2.35602582],5.0,0.6,0.0,-0.3427998697398028,2.8007037179798875,0.4999125318417348
4.857829332351685,1.790829238891583,[2.35604663],5.0,0.6,0.0,-0.010462575437836213,2.7827502498988435,0.4999999185138414
4.866009473800659,1.7937602196426328,[2.35606742],5.0,0.6,0.0,0.10029302619261736,2.768242097494456,0.4999925123610482
4.877009868621826,1.7980589914108396,[2.35608816],5.0,0.6,0.0,-0.15858611751985374,2.7470901781144677,0.4999812790070974
4.8850157260894775,1.801185370878626,[2.35610884],5.0,0.6,0.0,-0.20935921883846897,2.7312648138750517,0.49996737303450584
4.894928693771362,1.8052887439300964,[2.35612942],5.0,0.6,0.0,-0.18096297462972072,2.711181892444742,0.49997562326470363
4.904000282287598,1.8088059208313563,[2.35614992],5.0,0.6,0.0,-0.13029793186524036,2.6937461794908795,0.4999873620616727
4.912652015686035,1.8123230977326166,[2.35617037],5.0,0.6,0.0,-0.08052511890867269,2.6762941093619856,0.49999517311081293
4.9228904247283936,1.8162310720673498,[2.35619078],5.0,0.6,0.0,-0.0395301369850433,2.6569301835251036,0.49999883677746054
4.930907964706421,1.8195528502518732,[2.35621117],5.0,0.6,0.0,-0.008676301575782436,2.640397635735969,0.49999994396286424
4.940328359603882,1.8236562233033433,[2.35623155],5.0,0.6,0.0,0.01315397154705489,2.6199891269140916,0.4999998711986498
4.947965383529663,1.82678260277113,[2.35625189],5.0,0.6,0.0,0.027773058061750136,2.604200323032337,0.4999994258123725
4.956483602523804,1.8301043809556534,[2.35627214],5.0,0.6,0.0,0.0369592393541372,2.587382863019043,0.49999898316079394
4.965155363082886,1.8338169565736502,[2.35629221],5.0,0.6,0.0,0.04220713984705783,2.569046311388263,0.49999867389489755
4.973323345184326,1.836943336041437,[2.3563121],5.0,0.6,0.0,0.044683327150737334,2.5536984601291945,0.4999985137323096
4.982417583465576,1.841046709092907,[2.35633186],5.0,0.6,0.0,0.045260347294013195,2.533377922174518,0.49999847509855044
4.990942716598511,1.8443684872774304,[2.35635149],5.0,0.6,0.0,0.04457307761689189,2.516521873691489,0.49999852105754417
4.998916864395142,1.8474948667452171,[2.35637092],5.0,0.6,0.0,-0.2329639487537702,2.500997690690156,0.4999596013764797
5.010059595108032,1.8519890372301604,[2.35639015],5.0,0.6,0.0,-0.2680806347056648,2.4792944030893254,0.49994650486007874
5.018927574157715,1.8555062141314205,[2.35640926],5.0,0.6,0.0,-0.21524883309541173,2.4618439221549897,0.49996551157924146
5.028001308441162,1.8592187897494172,[2.35642829],5.0,0.6,0.0,-0.14155267479899003,2.443137741970529,0.4999850845500851
5.035946607589722,1.8621497705004673,[2.35644722],5.0,0.6,0.0,-0.07344183162829782,2.4286637081057987,0.4999959849410066
5.043951511383057,1.8652761499682542,[2.35646608],5.0,0.6,0.0,-0.29522757782967557,2.4134457391155424,0.4999351227631481
5.052917718887329,1.8687933268695143,[2.35648486],5.0,0.6,0.0,-0.28863964341796544,2.39570715706813,0.49993798572080356
5.063422203063965,1.8732874973544575,[2.35650359],5.0,0.6,0.0,-0.20630341566600363,2.374028613610927,0.49996831849874945
5.071908712387085,1.8768046742557176,[2.35652232],5.0,0.6,0.0,-0.11274447974341165,2.3560753322861467,0.49999053777785585
5.084187746047974,1.8814942434573978,[2.35654107],5.0,0.6,0.0,-0.03199509585826152,2.3332338706539293,0.49999923796805845
5.0935540199279785,1.8850114203586577,[2.35655989],5.0,0.6,0.0,0.02967117048302289,2.3156674723395354,0.4999993446463108
5.1026246547698975,1.888919394693391,[2.35657884],5.0,0.6,0.0,0.07312002832452888,2.296199729165044,0.49999602004970023
5.111818313598633,1.8928273690281245,[2.35659792],5.0,0.6,0.0,0.10157015729924247,2.2767849918816685,0.4999923204532206
5.120922327041626,1.8965399446461213,[2.35661715],5.0,0.6,0.0,0.11856632918617896,2.2583379703150075,0.4999895353458635
5.1303019523620605,1.9002525202641178,[2.35663653],5.0,0.6,0.0,0.12722225828200273,2.2397819995092316,0.49998795164810517
5.13790225982666,1.9033788997319045,[2.35665603],5.0,0.6,0.0,0.13002133557153417,2.2238736871458045,0.4999874156596489
5.146467685699463,1.9067006779164282,[2.35667553],5.0,0.6,0.0,0.1288424258676067,2.2070342631380453,0.49998764282790453
5.155699014663696,1.9106086522511616,[2.35669495],5.0,0.6,0.0,0.12506048808501055,2.1878171126931885,0.4999883576176566
5.165246248245239,1.9143212278691581,[2.35671429],5.0,0.6,0.0,0.11965821758282608,2.1695171035507803,0.499989341720493
5.175552129745483,1.9182292022038918,[2.35673358],5.0,0.6,0.0,-0.16271362694931768,2.1502924905085528,0.4999802918450735
5.1845338344573975,1.9215509803884152,[2.35675284],5.0,0.6,0.0,-0.20262810065589965,2.13384676589049,0.49996943722748466
5.19189977645874,1.9244819611394652,[2.35677204],5.0,0.6,0.0,-0.15445601374455253,2.119096774911607,0.49998224140482306
5.200922012329102,1.9281945367574618,[2.35679118],5.0,0.6,0.0,-0.08521927866252342,2.1008775945857745,0.49999459395028645
5.209663391113281,1.9319071123754588,[2.35681026],5.0,0.6,0.0,-0.021332075191066807,2.0825049360658467,0.49999966125512013
5.219915390014648,1.9360104854269287,[2.35682933],5.0,0.6,0.0,0.02894999534445826,2.062183387001314,0.4999993761166427
5.2309653759002686,1.940504655911872,[2.35684843],5.0,0.6,0.0,0.06495021972870997,2.0401721849813157,0.499996859733106
5.2399115562438965,1.944217231529869,[2.35686766],5.0,0.6,0.0,0.08873224438247941,2.021595472907842,0.49999413906286466
5.247898817062378,1.9473436109976556,[2.356887],5.0,0.6,0.0,0.10299663710631085,2.0056034524906763,0.49999210323278853
5.256078243255615,1.9504699904654423,[2.35690639],5.0,0.6,0.0,0.11025015808580865,1.9901307669894137,0.4999909518209245
5.263896226882935,1.9535963699332293,[2.35692572],5.0,0.6,0.0,0.11254500748062014,1.974596352891585,0.49999057122984975
5.273222923278809,1.9573089455512258,[2.35694494],5.0,0.6,0.0,0.11145660315030753,1.9566220197099844,0.4999907527145342
5.281806945800781,1.9610215211692226,[2.35696409],5.0,0.6,0.0,0.10814810870543078,1.9380759855673348,0.4999912935572073
5.290893077850342,1.9645386980704826,[2.35698319],5.0,0.6,0.0,0.10345558188374908,1.9201339198000729,0.4999920327018714
5.300742864608765,1.9682512736884794,[2.35700222],5.0,0.6,0.0,0.09796750975020736,1.9017535818570481,0.49999285556802325
5.309660911560059,1.9713776531562661,[2.35702116],5.0,0.6,0.0,0.09209039561470711,1.8862454901254682,0.4999936870463214
5.319424867630005,1.9752856274909993,[2.35704006],5.0,0.6,0.0,0.08609957689289485,1.8668457584827347,0.4999944816874334
5.328255891799927,1.9791936018257328,[2.35705894],5.0,0.6,0.0,0.08017720592870303,1.847396633988722,0.4999952147305592
5.337882995605469,1.9831015761604662,[2.35707782],5.0,0.6,0.0,0.074439999154547,1.8279482294635263,0.49999587506102355
5.349200010299683,1.9879865440788829,[2.35709675],5.0,0.6,0.0,0.06895920454685091,1.8041152995413499,0.49999646011262666
5.358382940292358,1.991503720980143,[2.35711577],5.0,0.6,0.0,0.06377481517759165,1.786050591995474,0.49999697236563373
5.366981744766235,1.9950208978814032,[2.35713487],5.0,0.6,0.0,0.058905604493197164,1.7686220629529987,0.499997417037494
5.37791109085083,1.999124270932873,[2.35715404],5.0,0.6,0.0,0.05435616412134246,1.7485247908127926,0.4999978006118924
5.386287689208984,2.0026414478341334,[2.35717331],5.0,0.6,0.0,0.05012180949140846,1.7305688765298317,0.49999812993570575
5.394004583358765,2.0055724285851833,[2.3571926],5.0,0.6,0.0,0.04619197813615347,1.7156342360663936,0.4999984116942072
5.402525901794434,2.0090896054864436,[2.35721181],5.0,0.6,0.0,0.04255256749519308,1.6984063906601194,0.49999865212990047
5.411712169647217,2.0129975798211768,[2.35723094],5.0,0.6,0.0,0.03918752953607575,1.678911850378488,0.4999988569043385
5.420925617218018,2.0165147567224366,[2.35724999],5.0,0.6,0.0,0.036079946438307905,1.6614439061343986,0.4999990310505596
5.431474447250366,2.0202273323404336,[2.35726894],5.0,0.6,0.0,0.033212745237254086,1.6429902283438762,0.49999917899839413
5.439028978347778,2.0233537118082205,[2.35728778],5.0,0.6,0.0,0.03056916229228205,1.6271629907149772,0.4999993045839312
5.447944402694702,2.0268708887094804,[2.35730646],5.0,0.6,0.0,0.028133035237732376,1.609785357970045,0.4999994111595462
5.456965684890747,2.0303880656107403,[2.35732496],5.0,0.6,0.0,0.02588897669748029,1.5923279165415845,0.4999995015937104
5.466941595077515,2.034296039945474,[2.35734331],5.0,0.6,0.0,0.02382246762108684,1.5728559952500163,0.4999995784073372
5.475032567977905,2.037422419413261,[2.35736149],5.0,0.6,0.0,0.02191989658510426,1.5573896148396318,0.4999996436145632
5.484984397888184,2.041330393747994,[2.35737952],5.0,0.6,0.0,0.02016856333599938,1.5378554876097066,0.4999996993078273
5.492903709411621,2.0446521719325172,[2.35739737],5.0,0.6,0.0,0.01855665921151378,1.5211507723154145,0.49999974686029336
5.50294828414917,2.0489509437007243,[2.35741502],5.0,0.6,0.0,0.017073233138352947,1.4998196694253352,0.49999978844791293
5.511417388916016,2.0522727218852475,[2.35743245],5.0,0.6,0.0,0.015708149153842436,1.4833201107414353,0.4999998244783764
5.518919229507446,2.055008303919561,[2.35744967],5.0,0.6,0.0,0.01445203948916482,1.4694084125691282,0.4999998558722319
5.526867389678955,2.058134683387348,[2.3574666],5.0,0.6,0.0,-0.26274210376077095,1.4539212998821418,0.499948630630963
5.5350306034088135,2.060870265421661,[2.35748322],5.0,0.6,0.0,-0.29693014168390636,1.4405079888506092,0.4999343951816139
5.542967081069946,2.0641920436061842,[2.35749953],5.0,0.6,0.0,-0.24281132478614276,1.4241010155221752,0.49995614774820474
5.552381277084351,2.0679046192241812,[2.35751555],5.0,0.6,0.0,-0.16762653994931764,1.4056504336022522,0.49997913563296237
5.559886693954468,2.070835599975231,[2.35753128],5.0,0.6,0.0,0.1781062556029867,1.3906813895519283,0.499976459362033
5.568665266036987,2.0741573781597546,[2.3575467],5.0,0.6,0.0,-0.008947714973781204,1.374332659119985,0.5000000461824293
5.580899953842163,2.0790423460781713,[2.3575618],5.0,0.6,0.0,-0.055873037576159336,1.350077421108905,0.49999785898536053
5.59104323387146,2.0829503204129045,[2.35757662],5.0,0.6,0.0,-0.04809064778544819,1.3308790221798756,0.49999855969837664
5.598904609680176,2.086272098597428,[2.35759122],5.0,0.6,0.0,0.25244441878762447,1.3139538850815196,0.4999529665672694
5.607921838760376,2.0897892754986884,[2.3576056],5.0,0.6,0.0,0.31107649193170905,1.2963258179225503,0.49992855944040365
5.615905284881592,2.0931110536832116,[2.35761972],5.0,0.6,0.0,0.0009044297124097822,1.2796329594202165,0.5000008367888414
5.6262664794921875,2.097214426734682,[2.35763357],5.0,0.6,0.0,-0.0930623657500747,1.2595635501631832,0.4999948395311735
5.6339216232299805,2.1003408062024684,[2.35764715],5.0,0.6,0.0,-0.09844062579006516,1.2436784792725466,0.4999945621046661
5.642969846725464,2.1040533818204654,[2.35766046],5.0,0.6,0.0,-0.07309022050692028,1.2253484280379334,0.49999861469892926
5.652940034866333,2.1075705587217253,[2.3576735],5.0,0.6,0.0,-0.04178467934736368,1.2077444858473456,0.500002388789433
5.660985469818115,2.110696938189512,[2.35768626],5.0,0.6,0.0,-0.01400822110386974,1.1921783027058688,0.5000048806358052
5.668951034545898,2.113627918940562,[2.35769874],5.0,0.6,0.0,0.00752244402769452,1.1773868778146395,0.5000066531194135
5.677886009216309,2.1169496971250856,[2.35771092],5.0,0.6,0.0,0.02286086807393778,1.160808564333702,0.5000088396566179
5.6868133544921875,2.120271475309609,[2.35772276],5.0,0.6,0.0,0.03301675950492104,1.144173892233218,0.5000118541079009
5.695943593978882,2.1239840509276053,[2.35773425],5.0,0.6,0.0,0.03917805494792129,1.12572128366562,0.5000168090067407
5.70509672164917,2.1271104303953923,[2.35774541],5.0,0.6,0.0,0.042412307689265884,1.1101572163649107,0.5000226359772094
5.713029623031616,2.130236809863179,[2.35775626],5.0,0.6,0.0,0.0435805969674941,1.0946932339364568,0.5000304824999598
5.722450256347656,2.134340182914649,[2.35776683],5.0,0.6,0.0,0.04333870388416884,1.0741207261350432,0.5000447389230044
5.730882167816162,2.1376619610991727,[2.35777711],5.0,0.6,0.0,0.04216862731961513,1.0574206346245332,0.5000605673029365
5.739916801452637,2.140983739283696,[2.35779183],5.0,0.6,0.0,0.04041596669358565,1.0930859487407971,0.5000814130616984
5.748975992202759,2.1445009161849558,[2.35781922],5.0,0.6,0.0,0.03832372791828029,1.055318295120516,0.5001104676333528
5.757972717285156,2.1478226943694794,[2.35785946],5.0,0.6,0.0,-0.239978574067453,1.0141463396023978,0.5001044248006618
5.765949726104736,2.150949073837266,[2.35790725],5.0,0.6,0.0,-0.2754249764621356,1.000728427709102,0.500133942528003
5.774653196334839,2.1544662507385257,[2.35796084],5.0,0.6,0.0,0.053406496662805086,0.9869677581052091,0.5002509050134953
5.78386116027832,2.158178826356523,[2.35802056],5.0,0.6,0.0,0.16037822817256248,0.9684475847567285,0.5003205889502891
5.792363882064819,2.1615006045410463,[2.35808623],5.0,0.6,0.0,-0.10237640452134689,0.9514712993349448,0.5004320017747459
5.799868583679199,2.1642361865753594,[2.35815714],5.0,0.6,0.0,-0.1569926697439984,0.9359965420119836,0.5005232075353235
5.808858633041382,2.1677533634766197,[2.35823233],5.0,0.6,0.0,-0.13232737821176294,0.9183301650888593,0.5006925758248245
5.8171679973602295,2.17068434422767,[2.35831092],5.0,0.6,0.0,-0.08523190225697758,0.9030833602052752,0.5008700653646684
5.824917554855347,2.1738107236954565,[2.35839208],5.0,0.6,0.0,-0.038839264522473216,0.8868649559945188,0.5010971070989572
5.835383176803589,2.177523299313453,[2.35847492],5.0,0.6,0.0,-0.001021470690208845,0.8675802924947686,0.5014319779507757
5.844851970672607,2.1814312736481867,[2.3585585],5.0,0.6,0.0,0.026862100225763096,0.8469840206342085,0.5018826104493992
5.853768587112427,2.1849484505494465,[2.35864181],5.0,0.6,0.0,0.045926627685875146,0.8286132587878373,0.5023946160237303
5.862532138824463,2.188465627450707,[2.35872394],5.0,0.6,0.0,0.05797804340359847,0.8103793616141626,0.5030323927578815
5.869904279708862,2.1913966082017566,[2.35880402],5.0,0.6,0.0,0.06478573163304202,0.7951143609487209,0.5036761195839361
5.880364418029785,2.1951091838197536,[2.35888119],5.0,0.6,0.0,-0.20820430961067107,0.7753615815509294,0.5046486833341703
5.889301061630249,2.198430962004277,[2.35895457],5.0,0.6,0.0,-0.24088430051438386,0.7581224861553595,0.5057355714969203
5.898242473602295,2.201948138905537,[2.35902342],5.0,0.6,0.0,-0.18708464533072852,0.7405727661455271,0.5071677983761094
5.908541202545166,2.2058561132402703,[2.3590872],5.0,0.6,0.0,-0.11341546284790652,0.7205411891636493,0.5091225805673062
5.916308403015137,2.208982492708057,[2.35914544],5.0,0.6,0.0,-0.04598445169229079,0.7041879800016072,0.5109992795157964
5.924268960952759,2.211913473459107,[2.35919773],5.0,0.6,0.0,0.007177789596768243,0.6897933704292958,0.513055663220969
5.93280291557312,2.2152352516436307,[2.35924378],5.0,0.6,0.0,-0.23047983200994931,0.6725046563056666,0.5157613112310684
5.943707466125488,2.218947827261627,[2.3592833],5.0,0.6,0.0,-0.2378223837010984,0.6532607866309668,0.5194292944738436
5.951855182647705,2.2224650041628875,[2.35931607],5.0,0.6,0.0,-0.16675452945371252,0.6364204496198536,0.5235997410949109
5.960458755493164,2.225591383630674,[2.3593421],5.0,0.6,0.0,0.1940979972309625,0.6198041734902134,0.5279076239998294
5.971300363540649,2.229694756682144,[2.35936123],5.0,0.6,0.0,0.3013316727249015,0.5973728551302395,0.5345747362517324
5.979242324829102,2.232625737433194,[2.35937339],5.0,0.6,0.0,0.02687134004036336,0.5828338830270496,0.5402354418468912
5.988300800323486,2.2361429143344544,[2.35937895],5.0,0.6,0.0,-0.04263109646952676,0.5653070156956109,0.5479569219993601
5.996358394622803,2.239269293802241,[2.35937817],5.0,0.6,0.0,-0.03242005431665017,0.5493511262512872,0.5558412610768181
6.003880023956299,2.242395673270028,[2.3593711],5.0,0.6,0.0,0.001907670608417178,0.5334550143662257,0.5647870260228858
6.013154745101929,2.245717451454551,[2.35935795],5.0,0.6,0.0,0.03745580760300621,0.5180441211777318,0.57555861327561
6.020856142044067,2.248648432205601,[2.35933926],5.0,0.6,0.0,-0.20984505811489654,0.5042526253675761,0.5862183891622266
6.030151844024658,2.252361007823598,[2.3593154],5.0,0.6,0.0,-0.22267963784366157,0.4838395806451789,0.6014476706862837
6.0394346714019775,2.255682786008121,[2.35928644],5.0,0.6,0.0,-0.15490534768144493,0.46688101252444286,0.6168462378362671
6.04684591293335,2.258809165475908,[2.35925261],5.0,0.6,0.0,-0.07219325237295952,0.45237623124953724,0.6329467965990041
6.055873394012451,2.261740146226958,[2.35921439],5.0,0.6,0.0,0.00047983711258112877,0.43711215714699136,0.6495318882009855
6.064101696014404,2.2648665256947447,[2.35917215],5.0,0.6,0.0,-0.2199316380032099,0.4212333189117114,0.6688197881363073
6.07201075553894,2.2677975064457945,[2.35912627],5.0,0.6,0.0,-0.21416062331392116,0.4074970540477877,0.6885542525170457
6.08350396156311,2.272291676930738,[2.35907707],5.0,0.6,0.0,-0.1340854122186377,0.3828789104323148,0.7217064320367728
6.092465400695801,2.2758088538319985,[2.35902454],5.0,0.6,0.0,-0.04368951504202431,0.36417145814287505,0.7503298412122252
6.101234436035156,2.278935233299785,[2.35896853],5.0,0.6,0.0,0.033378696769698527,0.3470285528895946,0.7777403587155216
6.108879804611206,2.281475416617362,[2.35890901],5.0,0.6,0.0,0.09111188928836259,0.3348750799329323,0.8014313827148203
6.118271350860596,2.2846017960851484,[2.35884601],5.0,0.6,0.0,-0.1454818033338709,0.3164650135514159,0.8320439284358441
6.126867294311523,2.287728175552935,[2.35877933],5.0,0.6,0.0,-0.43015016973330955,0.3012694593795412,0.8642075621747372
6.135439395904541,2.290854555020722,[2.35870863],5.0,0.6,0.0,-0.6710497894362748,0.2816604206975304,0.8978513143986481
6.1443562507629395,2.293785535771772,[2.35863293],5.0,0.6,0.0,-0.8440323474862469,0.2624335123789906,0.930733099467677
6.152832984924316,2.2965211178060856,[2.35855115],5.0,0.6,0.0,-1.2281888971632424,0.24975084034677678,0.962102203357496
6.161960124969482,2.2994520985571354,[2.35846242],5.0,0.6,0.0,-1.8686538206182113,0.2294657496367068,0.9957619006356062
6.170865535736084,2.302383079308185,[2.35836509],5.0,0.6,0.0,-2.447537859125858,0.20901612564517827,1.0298609225961615
6.179964542388916,2.3047278639090254,[2.35825669],5.0,0.6,0.0,-2.8672344310545337,0.1910729699742766,1.0577111736034868
6.189399242401123,2.3072680472266023,[2.35813446],5.0,0.6,0.0,-3.1215234769056917,0.17174317904439446,1.0888205224974086
6.197082757949829,2.309026635677232,[2.35799538],5.0,0.6,0.0,-3.5128164586039627,0.1558618847427952,1.109936720435803
6.205846309661865,2.311176021561336,[2.35783726],5.0,0.6,0.0,-3.83172524361915,0.1498989050708628,1.136159921508241
6.2142133712768555,2.3129346100119657,[2.35765764],5.0,0.6,0.0,-4.020752945225947,0.11856548742926984,1.15840936668038
6.222839832305908,2.314497799745859,[2.35745296],5.0,0.6,0.0,-4.359832999005986,0.11862571765620798,1.1774538993884343
6.232303619384766,2.316060989479752,[2.35722112],5.0,0.6,0.0,-4.354448344300838,0.10131408389324016,1.1986853014392589
6.24113392829895,2.3172333817801722,[2.35695987],5.0,0.6,0.0,-4.738992477083162,0.08692504930451156,1.212881440056849
6.250151634216309,2.3184057740805923,[2.35666575],5.0,0.6,0.0,-5.0,0.07353278957164122,1.2279294060908355
6.257848024368286,2.3193827676642758,[2.35633719],5.0,0.6,0.0,-5.0,0.07857890329113887,1.2427290395353423
6.265841960906982,2.320164362531223,[2.35597603],5.0,0.6,0.0,-5.0,0.08158346954650245,1.2554908856183027
6.273850679397583,2.320555159964696,[2.35558386],5.0,0.6,0.0,-4.810194719638092,0.06531357972838346,1.2654593845075934
6.282075643539429,2.3209459573981692,[2.35515869],5.0,0.6,0.0,-4.748186365889744,0.05132360426970642,1.274776705306386
6.29180908203125,2.321336754831642,[2.35469696],5.0,0.6,0.0,-5.0,0.03902960809396847,1.282182513233461
6.300839185714722,2.321336754831642,[2.35419729],5.0,0.6,0.0,-5.0,0.050016704041430035,1.2874971695893986
6.310390949249268,2.321141356114906,[2.35366027],5.0,0.6,0.0,-5.0,0.03646811990324546,1.2911046163806414
6.318289041519165,2.321141356114906,[2.35308414],5.0,0.6,0.0,-4.781546369738152,0.023259493208581,1.298673749586957
6.325823545455933,2.3209459573981692,[2.35246736],5.0,0.6,0.0,-4.411609591916886,0.035663273823915716,1.3054997264814014
6.333929777145386,2.3207505586814325,[2.35181056],5.0,0.6,0.0,-4.010243913264532,0.01884660170454677,1.312698216560297
6.344265460968018,2.320359761247959,[2.35111158],5.0,0.6,0.0,-3.350856320850653,0.004356105874105404,1.319386014690819
6.352863073348999,2.320164362531223,[2.35036851],5.0,0.6,0.0,-2.693459038913978,0.017886031493338936,1.327848231154956
6.361241102218628,2.319968963814486,[2.34958198],5.0,0.6,0.0,-1.3011715330159308,-0.0028591055266154767,1.3378742433255635
6.370519161224365,2.3195781663810124,[2.34874941],5.0,0.6,0.0,-0.19720830240543197,-0.020453634163788478,1.3434736126519744
6.379247665405273,2.319187368947539,[2.34786539],5.0,0.6,0.0,0.8825663570540074,-0.03601266084795297,1.3477503566492648
6.387589693069458,2.318991970230803,[2.34692474],5.0,0.6,0.0,2.0148426746995645,-0.05187045566034661,1.3525053553970947
6.3981993198394775,2.318601172797329,[2.34592258],5.0,0.6,0.0,2.924713913831998,-0.06594153476075099,1.3549905498975223
6.406316757202148,2.318014976647119,[2.3448543],5.0,0.6,0.0,3.2789602556033683,-0.07834991259941017,1.3578874674747101
6.414883852005005,2.317428780496909,[2.34371943],5.0,0.6,0.0,3.623679412099362,-0.057146881201117106,1.361210130422658
6.42380166053772,2.3166471856299626,[2.34252118],5.0,0.6,0.0,3.5803116625785862,-0.07635048448435866,1.365232167224609
6.433820486068726,2.3156701920462788,[2.34125863],5.0,0.6,0.0,3.101217702099719,-0.09190340399829246,1.3701501505650986
6.444133758544922,2.314497799745859,[2.33992284],5.0,0.6,0.0,2.8116715014368223,-0.1367994874569985,1.3728717565099215
6.452634572982788,2.313325407445439,[2.33850588],5.0,0.6,0.0,1.776318320507327,-0.10660106475758191,1.3785566076326903
6.461856842041016,2.3119576164282822,[2.33700929],5.0,0.6,0.0,1.2282932958198693,-0.11822328813593093,1.3809186944479728
6.470362424850464,2.3103944266943888,[2.3354389],5.0,0.6,0.0,0.6505348129044399,-0.09183198111993228,1.3817892056685777
6.481498718261719,2.3082450408102857,[2.33379547],5.0,0.6,0.0,-0.3869068689186771,-0.140777540017043,1.3774881043809477
6.489846706390381,2.306681851076392,[2.33207538],5.0,0.6,0.0,-0.8185330194592988,-0.11147884781176146,1.3785051072482835
6.498194694519043,2.3047278639090254,[2.33028041],5.0,0.6,0.0,-1.2392935637693943,-0.12408483862222454,1.3764385684098206
6.507324934005737,2.302773876741659,[2.32841199],5.0,0.6,0.0,-1.8377777163677886,-0.13423830480129048,1.3743042672133405
6.515857219696045,2.300429092140819,[2.32647159],5.0,0.6,0.0,-2.3577235492449193,-0.10449301901955581,1.3690339060510963
6.524817228317261,2.2980843075399786,[2.32446541],5.0,0.6,0.0,-2.1732209329768506,-0.12143883479941273,1.3665571636672647
6.532968044281006,2.2955441242224017,[2.3223935],5.0,0.6,0.0,-1.77086276197922,-0.13298042528129378,1.3634048780325538
6.540838956832886,2.293199339621562,[2.3202506],5.0,0.6,0.0,-1.6295911613831597,-0.14224767693473098,1.3618788072938108
6.551075458526611,2.289877561437039,[2.31803178],5.0,0.6,0.0,-1.5796759466330692,-0.1453425860776309,1.3515415605747483
6.559215307235718,2.2871419794027252,[2.31573217],5.0,0.6,0.0,-1.5497052675682828,-0.15006311891342605,1.3473991037886905
6.5681726932525635,2.2844063973684117,[2.31335315],5.0,0.6,0.0,-1.513254694805656,-0.1219968438740601,1.3440047867332945
6.577856779098511,2.280889220467152,[2.31090782],5.0,0.6,0.0,-1.739522508438241,-0.09397244999259267,1.332836254056106
6.5891783237457275,2.276981246132418,[2.30840065],5.0,0.6,0.0,-1.9865204877986655,-0.14433085213019622,1.3179038394495262
6.599502086639404,2.2730732717976845,[2.30581599],5.0,0.6,0.0,-1.89338735891266,-0.14223754917514905,1.304350178519235
6.607982397079468,2.269556094896425,[2.30314025],5.0,0.6,0.0,-1.685706659352722,-0.14027689303664953,1.2959431475419467
6.615803956985474,2.2664297154286377,[2.30037505],5.0,0.6,0.0,-1.1843341353612404,-0.11856485506419459,1.2931274072091012
6.626053810119629,2.262130943660431,[2.29752112],5.0,0.6,0.0,-0.6694416138368565,-0.13497182179732997,1.2780835059068396
6.635993003845215,2.258418368042435,[2.29456447],5.0,0.6,0.0,-0.5160302925091365,-0.1302483497308161,1.2698454710609752
6.646852493286133,2.2541195962742275,[2.29149348],5.0,0.6,0.0,-0.2259333455082263,-0.12284244757201723,1.2562285343483084
6.6568450927734375,2.249820824506021,[2.28830594],5.0,0.6,0.0,0.05576915317536485,-0.11580358078538723,1.243620938234046
6.66537070274353,2.2459128501712877,[2.28500063],5.0,0.6,0.0,0.556614294591511,-0.111248638399015,1.2364720438552914
6.674267768859863,2.242200274553291,[2.2815774],5.0,0.6,0.0,1.578260137920675,-0.10843193613420576,1.2315143331543168
6.682803153991699,2.238487698935294,[2.27804487],5.0,0.6,0.0,2.2785136156996244,-0.105584616719091,1.2274337779590776
6.692798137664795,2.2339935284503505,[2.27441928],5.0,0.6,0.0,2.9909267872836356,-0.10438798753748138,1.214578138800132
6.7028162479400635,2.229890155398881,[2.27070767],5.0,0.6,0.0,3.536005756224538,-0.10261229062892765,1.207395552250345
6.710802793502808,2.226763775931094,[2.26691709],5.0,0.6,0.0,3.8812060387409257,-0.09718225337883026,1.2132779092645167
6.719215393066406,2.223246599029834,[2.26306226],5.0,0.6,0.0,4.32592121776425,-0.10538911477137561,1.214550791853085
6.728448152542114,2.219143225978364,[2.25914842],5.0,0.6,0.0,4.666273254835196,-0.10622518555500587,1.2101399814331402
6.737065315246582,2.2158214477938407,[2.25517301],5.0,0.6,0.0,4.852358194096007,-0.10919062369305087,1.2164367810127454
6.744814872741699,2.212695068326054,[2.25114289],5.0,0.6,0.0,4.895184691073212,-0.10674571938249708,1.2265265184495402
6.753301382064819,2.209177891424794,[2.24707225],5.0,0.6,0.0,4.825002718916558,-0.11525960329082466,1.2333310767086432
6.7652623653411865,2.2040975247896406,[2.24295796],5.0,0.6,0.0,4.673866561781564,-0.09789639158586408,1.2233184513797795
6.7728800773620605,2.2005803478883803,[2.2387904],5.0,0.6,0.0,4.469292628197849,-0.11465952209641946,1.2321171443801031
6.78182578086853,2.19706317098712,[2.23457775],5.0,0.6,0.0,3.9567109067614723,-0.11843472818778271,1.2431552499766632
6.789818525314331,2.193741392802597,[2.23033532],5.0,0.6,0.0,3.6708990335070792,-0.1145777518798545,1.2551118678213282
6.799866676330566,2.18944262103439,[2.22607646],5.0,0.6,0.0,3.468360518883456,-0.12075713749081528,1.2557209736108277
6.807794094085693,2.1861208428498666,[2.22180495],5.0,0.6,0.0,3.2894980172908257,-0.12739686304074724,1.2671808994044738
6.8163838386535645,2.1820174697983967,[2.21751641],5.0,0.6,0.0,2.836730731310591,-0.1282101335016271,1.2712630385293204
6.823819637298584,2.17889109033061,[2.21320726],5.0,0.6,0.0,2.623789479996762,-0.1332260905273105,1.2850614927862343
6.832794904708862,2.175178514712613,[2.20888233],5.0,0.6,0.0,2.497045575835113,-0.13154266631721284,1.292149829323471
6.84078049659729,2.1720521352448263,[2.20456132],5.0,0.6,0.0,2.3921740123372572,-0.12161852285643038,1.3052332386690833
6.848913192749023,2.168534958343566,[2.20026077],5.0,0.6,0.0,2.2855648514496707,-0.1401269490918613,1.3137891306686549
6.859503269195557,2.1642361865753594,[2.19597856],5.0,0.6,0.0,2.171225146553839,-0.14599559951503535,1.31399382725247
6.870808839797974,2.1595466173736795,[2.19169656],5.0,0.6,0.0,2.0500660486588935,-0.12842365151367913,1.3101254492518377
6.878812789916992,2.1560294404724196,[2.1873993],5.0,0.6,0.0,2.2011689019130873,-0.1487689701404847,1.3177499169181557
6.887810945510864,2.152121466137686,[2.18309735],5.0,0.6,0.0,2.10877817481735,-0.14141014040178065,1.3220891524541012
6.897235870361328,2.148018093086216,[2.17880734],5.0,0.6,0.0,1.930231414899228,-0.15020339510654115,1.324527912559264
6.905969858169556,2.1445009161849558,[2.1745272],5.0,0.6,0.0,1.734703519818076,-0.15579212673788037,1.3327716436149168
6.915814161300659,2.140397543133486,[2.170247],5.0,0.6,0.0,1.550041557041948,-0.15582834350503189,1.3349914358900496
6.927626132965088,2.135512575215069,[2.16595021],5.0,0.6,0.0,1.3853636987110645,-0.1206866603199019,1.329436702061052
6.936367750167847,2.131409202163599,[2.1616231],5.0,0.6,0.0,1.2417851507098128,-0.15380674521859994,1.3319748436438066
6.945385932922363,2.1276966265456023,[2.15727044],5.0,0.6,0.0,1.1173790829464614,-0.1556598250906826,1.3385938382458686
6.952789783477783,2.124570247077816,[2.15290466],5.0,0.6,0.0,0.7333367980207174,-0.16052205741291806,1.3512599046115108
6.96080207824707,2.121443867610029,[2.14853646],5.0,0.6,0.0,0.8819363630857149,-0.17017894089739263,1.3628864721925515
6.969813108444214,2.117926690708769,[2.14416705],5.0,0.6,0.0,0.8871910904495832,-0.17436273274216768,1.3707646274666374
6.979450464248657,2.113627918940562,[2.13978162],5.0,0.6,0.0,0.8346440887892248,-0.1460342892996016,1.3716235182474392
6.988814353942871,2.1101107420393017,[2.13536796],5.0,0.6,0.0,0.7634531316330256,-0.17898686435046487,1.3797844960057932
6.997814178466797,2.1062027677045685,[2.13092422],5.0,0.6,0.0,0.6906236650872811,-0.15359153258609504,1.3845898283058926
7.007460355758667,2.1022947933698353,[2.12644936],5.0,0.6,0.0,0.6228167131807238,-0.184586439291859,1.3895735557339264
7.015871286392212,2.098777616468575,[2.12195887],5.0,0.6,0.0,0.562036531292082,-0.18307416598331466,1.3978646775371883
7.024784326553345,2.0948696421338417,[2.11747389],5.0,0.6,0.0,0.508322765532579,-0.19194300412898613,1.4026653260965065
7.034256219863892,2.0905708703656347,[2.11298883],5.0,0.6,0.0,0.4609901280745534,-0.1788667379488547,1.4042152418516856
7.043553113937378,2.0866628960309015,[2.10849184],5.0,0.6,0.0,0.419173533509677,-0.19643813647306488,1.4089688812638264
7.053830146789551,2.082364124262695,[2.10398906],5.0,0.6,0.0,0.3820481753216687,-0.19777373210592397,1.4106042586419172
7.06319522857666,2.0784561499279612,[2.09948609],5.0,0.6,0.0,0.3489026351988564,-0.20025911990788633,1.4152567681802473
7.071760654449463,2.0747435743099647,[2.09498054],5.0,0.6,0.0,0.31914941749391884,-0.20380320233495453,1.4212818822532758
7.0808141231536865,2.071030998691968,[2.09047113],5.0,0.6,0.0,0.2923118459616615,-0.20761736489627888,1.4271384923332673
7.088776350021362,2.067709220507444,[2.08596487],5.0,0.6,0.0,0.26800450893650596,-0.2081575908140943,1.4354656372968344
7.097795724868774,2.063801246172711,[2.08147572],5.0,0.6,0.0,0.24591424735019868,-0.2149248260253115,1.4393892905582633
7.106820344924927,2.060284069271451,[2.07700871],5.0,0.6,0.0,0.22578406278841331,-0.221188014544563,1.4455553604396367
7.116692066192627,2.0559852975032444,[2.07256129],5.0,0.6,0.0,0.2074003493418255,-0.22250542816741165,1.4464978992720328
7.1257643699646,2.052468120601984,[2.06813196],5.0,0.6,0.0,0.19058310095702438,-0.2271479865980614,1.4520863038158924
7.1349053382873535,2.048560146267251,[2.06372019],5.0,0.6,0.0,0.17517853430381658,-0.22960520685951818,1.4550521755601724
7.144615411758423,2.044261374499044,[2.05932621],5.0,0.6,0.0,0.4370919360992352,-0.22998212360281467,1.4554826666659968
7.152777910232544,2.040744197597784,[2.05496398],5.0,0.6,0.0,0.45725471448216476,-0.2342263048560088,1.4602107563034807
7.161791801452637,2.037031621979787,[2.05065864],5.0,0.6,0.0,0.39025580765969037,-0.23683917324479753,1.4634287014908898
7.172157526016235,2.0325374514948438,[2.04641153],5.0,0.6,0.0,0.30323756080548625,-0.2333018055940996,1.462165187356204
7.1798200607299805,2.029606470743794,[2.04221032],5.0,0.6,0.0,0.22266770263368152,-0.2371665916777442,1.4686911179155655
7.18981409072876,2.025307698975587,[2.0380574],5.0,0.6,0.0,0.15681048623861815,-0.23684934912220165,1.4679935130413795
7.2001118659973145,2.0210089272073803,[2.03395458],5.0,0.6,0.0,0.10632188577588074,-0.23602080428412492,1.4670291022571222
7.208824157714844,2.01749175030612,[2.02989628],5.0,0.6,0.0,0.06909895110195186,-0.23924827060303044,1.4696907098894536
7.217684507369995,2.01397457340486,[2.02587725],5.0,0.6,0.0,0.04239073098691897,-0.24123027769826544,1.4720616072107817
7.227388858795166,2.0098712003533903,[2.02189291],5.0,0.6,0.0,0.02363412200979722,-0.24089340480289081,1.4715090046239405
7.234809398651123,2.0065494221688667,[2.01794519],5.0,0.6,0.0,0.010718078060641734,-0.22225725905427204,1.4743615771840148
7.244781732559204,2.0022506504006596,[2.0140412],5.0,0.6,0.0,0.0020081274640366157,-0.22905367015901193,1.4725795248473457
7.254120588302612,1.9983426760659266,[2.0101731],5.0,0.6,0.0,-0.0037166679891541756,-0.24673999881373856,1.472396353188035
7.262877464294434,1.9948254991646663,[2.00632691],5.0,0.6,0.0,-0.007347932334262713,-0.23393593074544453,1.4738903910350223
7.273763179779053,1.9901359299629864,[2.00250311],5.0,0.6,0.0,-0.009526964248980356,-0.2346788149594193,1.4698736401500954
7.283772706985474,1.9858371581947796,[1.99870123],5.0,0.6,0.0,-0.01071003768632467,-0.2356285141380153,1.4674447659690015
7.292227745056152,1.982124582576783,[1.99491341],5.0,0.6,0.0,-0.011219108088560168,-0.23822838202504865,1.4678183053800882
7.299982786178589,1.978412006958786,[1.9911391],5.0,0.6,0.0,-0.01127979684008977,-0.21962344897139754,1.4681232560791964
7.308225154876709,1.9748948300575262,[1.98738402],5.0,0.6,0.0,-0.011049218275197049,-0.23114323284753005,1.4692855277396404
7.320196151733398,1.9700098621391096,[1.9836384],5.0,0.6,0.0,-0.010636070942426934,-0.23726178121535837,1.4635340176459866
7.327897548675537,1.9670788813880593,[1.9798865],5.0,0.6,0.0,-0.01011500160831417,-0.23428992916077085,1.4677252058235815
7.336862325668335,1.9635617044867992,[1.97612865],5.0,0.6,0.0,-0.009536804543950738,-0.2395901843217397,1.4689079429220528
7.347244501113892,1.959067534001856,[1.97236471],5.0,0.6,0.0,-0.008935628138164873,-0.23816335666073857,1.465254906688466
7.358149766921997,1.9543779648001756,[1.96858723],5.0,0.6,0.0,-0.008334048363895657,-0.2346769974022356,1.4604237625231957
7.367748498916626,1.9502745917487057,[1.96478964],5.0,0.6,0.0,-0.007746630281702541,-0.23355132182804708,1.4587380957197567
7.376786947250366,1.9467574148474456,[1.96096633],5.0,0.6,0.0,-0.0071824221366075195,-0.23515551358651102,1.4604256430570381
7.384791851043701,1.9434356366629222,[1.95711993],5.0,0.6,0.0,-0.006646698073183516,-0.22725213010351117,1.4632406669830003
7.393875598907471,1.939332263611452,[1.95326],5.0,0.6,0.0,-0.006142173079219944,-0.23237684082682455,1.4619465323705527
7.402896165847778,1.9354242892767186,[1.94938012],5.0,0.6,0.0,-0.0056698478574950945,-0.23025466788878762,1.4617958509176188
7.411484241485596,1.9317117136587219,[1.94546773],5.0,0.6,0.0,-0.00522959458024225,-0.23480767577410222,1.4628615624252364
7.419809818267822,1.9281945367574618,[1.94153461],5.0,0.6,0.0,0.2712177982217986,-0.221012028679868,1.464979680509322
7.428762912750244,1.9244819611394652,[1.93759827],5.0,0.6,0.0,0.30472151206107545,-0.23290265512595842,1.4661085622662076
7.436978101730347,1.9207693855214683,[1.93365911],5.0,0.6,0.0,0.24997499750021007,-0.23873986079952117,1.4672704864844184
7.446601152420044,1.9168614111867353,[1.92971053],5.0,0.6,0.0,0.17421404719095754,-0.24102571235866055,1.467496638203667
7.4551002979278564,1.9135396330022116,[1.92574736],5.0,0.6,0.0,0.1039904605632907,-0.24499283007241296,1.4706260620382599
7.464401960372925,1.9098270573842149,[1.92177281],5.0,0.6,0.0,0.047644500973518425,-0.2328714498094538,1.4718615526092858
7.473892450332642,1.9057236843327447,[1.91779721],5.0,0.6,0.0,0.005901135600352665,-0.23941668191410267,1.4712668451890307
7.4832727909088135,1.9016203112812748,[1.91382249],5.0,0.6,0.0,-0.023279768641328535,-0.24220563000423434,1.4706599729596803
7.492386817932129,1.8977123369465414,[1.90984351],5.0,0.6,0.0,-0.04259183136907963,-0.24410610972612398,1.4709945208721906
7.5012664794921875,1.8939997613285446,[1.90585637],5.0,0.6,0.0,-0.054545733234673516,-0.2461906133989579,1.4722735291092128
7.509249687194824,1.8902871857105479,[1.90185824],5.0,0.6,0.0,-0.061204517149367234,-0.24793138591578012,1.4735747052771733
7.517495155334473,1.8867700088092878,[1.89785408],5.0,0.6,0.0,-0.06415864993425358,-0.23525209372044473,1.4757250135380566
7.524855136871338,1.8838390280582376,[1.89385533],5.0,0.6,0.0,-0.06458869602704578,-0.24735610257506851,1.4801315879384318
7.5337560176849365,1.880126452440241,[1.88987175],5.0,0.6,0.0,-0.06334921309501533,-0.22802265337199423,1.4811821076366158
7.543776273727417,1.8760230793887709,[1.88591155],5.0,0.6,0.0,-0.061047453016920925,-0.24013641291165272,1.480630844110816
7.552882432937622,1.8723105037707743,[1.88197478],5.0,0.6,0.0,-0.058108404676478764,-0.24820091242132405,1.4814912313779272
7.5628502368927,1.8678163332858309,[1.87805459],5.0,0.6,0.0,-0.05482526784405027,-0.24898946433442712,1.479251606846126
7.572542905807495,1.8637129602343607,[1.87414531],5.0,0.6,0.0,-0.05139722730126162,-0.24988087390847505,1.4784664281491813
7.582897663116455,1.8598049858996273,[1.87024239],5.0,0.6,0.0,-0.047957088739291706,-0.25077086411472616,1.478446059973793
7.5912182331085205,1.8562878089983674,[1.86634233],5.0,0.6,0.0,-0.04459119587696159,-0.2530312406499565,1.4799828724334385
7.5997960567474365,1.8527706320971074,[1.86244915],5.0,0.6,0.0,-0.04135363542336791,-0.23517853309675948,1.481438406997081
7.60875129699707,1.8488626577623737,[1.85857311],5.0,0.6,0.0,-0.0382762908663998,-0.2422651314101518,1.4813170385654695
7.618170976638794,1.8447592847109036,[1.85471669],5.0,0.6,0.0,-0.03537591580353565,-0.24495992392695795,1.4803643944286584
7.626163959503174,1.8414375065263802,[1.85088211],5.0,0.6,0.0,-0.03265908519015466,-0.223428988295741,1.4823172780455813
7.635684251785278,1.8371387347581736,[1.84707788],5.0,0.6,0.0,-0.03012564468375446,-0.2315625683381232,1.4804359071450213
7.64492130279541,1.833426159140177,[1.84330513],5.0,0.6,0.0,-0.027771101751736464,-0.23761369989309455,1.4806698727299905
7.652828216552734,1.8301043809556534,[1.83956489],5.0,0.6,0.0,-0.025588273774852004,-0.21355002411428103,1.4822585416540117
7.661847114562988,1.82619640662092,[1.8358584],5.0,0.6,0.0,-0.023568416043717122,-0.24826672652237702,1.4815019683755053
7.670897960662842,1.8226792297196601,[1.83218094],5.0,0.6,0.0,-0.021701986708204564,-0.2233418746597991,1.4821051778454002
7.679742097854614,1.8187712553849267,[1.82853465],5.0,0.6,0.0,-0.01997915904929468,-0.2281019260209395,1.481115499844416
7.689840078353882,1.8144724836167199,[1.82492188],5.0,0.6,0.0,-0.018390158476838885,-0.22754702600448132,1.4783985086706914
7.699906587600708,1.81036911056525,[1.82133923],5.0,0.6,0.0,-0.01692547843325251,-0.22603918716543167,1.4762184196099941
7.709765911102295,1.8064611362305163,[1.81778436],5.0,0.6,0.0,-0.01557601306708111,-0.22385358136242106,1.474682732635458
7.719055414199829,1.8023577631790462,[1.81425582],5.0,0.6,0.0,-0.014333133089798257,-0.2196616641850804,1.4720841429665164
7.728127956390381,1.798449788844313,[1.81075301],5.0,0.6,0.0,-0.28922708288498683,-0.2153110283948436,1.4701175686217276
7.736063480377197,1.7953234093765262,[1.80727603],5.0,0.6,0.0,-0.32129815673259565,-0.21419735729606457,1.4717544827097293
7.743739604949951,1.7921970299087393,[1.8038305],5.0,0.6,0.0,-0.265231182613167,-0.18275092498432927,1.473243137436617
7.752879858016968,1.7884844542907428,[1.8004217],5.0,0.6,0.0,-0.18825370793968915,-0.21481675250025944,1.4718763531504335
7.7612996101379395,1.7845764799560093,[1.7970494],5.0,0.6,0.0,-0.11690972778056524,-0.1777862271199842,1.4693541509596602
7.769296169281006,1.7810593030547492,[1.79371847],5.0,0.6,0.0,-0.33557053203050324,-0.17960688859713675,1.4683734744409564
7.778783559799194,1.7771513287200158,[1.79043341],5.0,0.6,0.0,-0.32600211798964845,-0.1770791916987725,1.4652533501080298
7.787676572799683,1.7732433543852826,[1.78719797],5.0,0.6,0.0,-0.2408498689111582,-0.14034906374076855,1.4617592172000546
7.7978808879852295,1.7691399813338122,[1.78401985],5.0,0.6,0.0,0.131390005830191,-0.14404841701235532,1.4566711878594771
7.807777166366577,1.7652320069990788,[1.78090109],5.0,0.6,0.0,0.2477314800855058,-0.14452588289897003,1.4520363662692048
7.81650972366333,1.7615194313810822,[1.77783904],5.0,0.6,0.0,-0.0194423481637815,-0.1424254594751739,1.4481275769470705
7.82572603225708,1.7576114570463488,[1.77483555],5.0,0.6,0.0,0.19296495108295883,-0.105208596263238,1.44236435568875
7.835320472717285,1.753508083994879,[1.77189225],5.0,0.6,0.0,0.24108604743495748,-0.13852699135476226,1.4345952124633812
7.844208717346191,1.749795508376882,[1.76900626],5.0,0.6,0.0,0.2242709455787334,-0.09912250983186455,1.4288101660562798
7.85185432434082,1.7466691289090954,[1.76618267],5.0,0.6,0.0,0.187050005905196,-0.06899856626372175,1.4266458850525816
7.860756158828735,1.742761154574362,[1.76342936],5.0,0.6,0.0,0.1480857649215802,-0.07609094869367011,1.418096540730628
7.869342803955078,1.7394393763898388,[1.76074485],5.0,0.6,0.0,0.11418635752394715,-0.08056725851804715,1.41320468536668
7.878713369369507,1.735531402055105,[1.75812373],5.0,0.6,0.0,0.08698847765631346,-0.07821111863336003,1.4029492490267457
7.887735843658447,1.7318188264371084,[1.7555612],5.0,0.6,0.0,0.06607222509621424,-0.0742796087430598,1.3933796135706857
7.898274660110474,1.727324655952165,[1.75304942],5.0,0.6,0.0,0.05035987781447537,-0.09259663511593988,1.3760300729719412
7.908721446990967,1.7228304854672214,[1.75057817],5.0,0.6,0.0,0.03870421548213522,-0.07361885831592745,1.3572822646620701
7.916808843612671,1.719508707282698,[1.74814561],5.0,0.6,0.0,0.03010493096086045,-0.032988712546112124,1.348729080373174
7.927141427993774,1.7152099355144914,[1.7457569],5.0,0.6,0.0,0.023762404982227304,-0.02620686155928894,1.3297556895571716
7.934860706329346,1.711888157329968,[1.743416],5.0,0.6,0.0,0.01906648633045834,0.00764106154076562,1.319712738521437
7.946043014526367,1.7073939868450245,[1.74112247],5.0,0.6,0.0,0.015564201945856879,-0.020895440933324447,1.2965045927271266
7.9549548625946045,1.7040722086605014,[1.73886891],5.0,0.6,0.0,0.01292493140505066,-0.013243640025374353,1.2849288441843392
7.964348793029785,1.7003596330425044,[1.73665199],5.0,0.6,0.0,0.010909913547785779,0.02589159480227979,1.268413648963699
7.97283148765564,1.696842456141244,[1.73447518],5.0,0.6,0.0,0.2853861991636379,0.025587130837580598,1.2532750163906263
7.98131251335144,1.6931298805232475,[1.73233779],5.0,0.6,0.0,0.31727919616213834,0.028682290713220353,1.2352432539392875
7.991878032684326,1.689221906188514,[1.73023556],5.0,0.6,0.0,0.8132700737995204,0.034450454342768576,1.2138280351671753
8.000954389572144,1.6859001280039907,[1.72816465],5.0,0.6,0.0,1.0786646016873154,0.03883969211579797,1.198726640502351
8.00874400138855,1.6831645459696776,[1.7261247],5.0,0.6,0.0,1.482476529115468,0.07047036338074648,1.1897126012864576
8.018555164337158,1.6796473690684175,[1.72411832],5.0,0.6,0.0,1.836344874634895,0.06825845711940808,1.17081702319543
8.027758121490479,1.6767163883173675,[1.72214421],5.0,0.6,0.0,2.0848602626353445,0.06609488438612997,1.1586108841383893
8.036761045455933,1.6737854075663172,[1.72019775],5.0,0.6,0.0,2.503254111121757,0.06599749806361631,1.1453322117345655
8.046051979064941,1.6706590280985305,[1.71827478],5.0,0.6,0.0,3.1428533030173353,0.06821620111349055,1.128131794814757
8.054068326950073,1.6683142434976903,[1.71637466],5.0,0.6,0.0,3.6944425293943515,0.09673792314191962,1.119989371932594
8.06333875656128,1.6653832627466405,[1.7144997],5.0,0.6,0.0,3.792518923831369,0.09092047613490031,1.106654606061862
8.070738554000854,1.6632338768625372,[1.71265158],5.0,0.6,0.0,3.6804194443547136,0.11435788016772329,1.1036116404004792
8.078757286071777,1.6610844909784337,[1.71083139],5.0,0.6,0.0,3.4777772012460617,0.10113194895933778,1.100677981017288
8.087837934494019,1.6587397063775937,[1.70903661],5.0,0.6,0.0,3.5187872477024227,0.09307728595267155,1.0937964096636654
8.097724199295044,1.6563949217767535,[1.70726172],5.0,0.6,0.0,3.3121976159208346,0.08840382157400012,1.0879166684789445
8.106818914413452,1.6542455358926502,[1.70550189],5.0,0.6,0.0,3.3014249060726995,0.08514079655149376,1.0832455077986292
8.11485767364502,1.6526823461587568,[1.70375602],5.0,0.6,0.0,3.0400966014067423,0.10942230862485358,1.0866756013210241
8.123128652572632,1.6507283589913901,[1.70202619],5.0,0.6,0.0,2.7112606138791313,0.09933874529675987,1.0853484647087361
8.131416320800781,1.64896977054076,[1.70031106],5.0,0.6,0.0,2.666669222412416,0.09187611342120665,1.0849982834451637
8.14084243774414,1.64721118209013,[1.69861243],5.0,0.6,0.0,2.6900769245870735,0.09087491026377072,1.0841791077697889
8.148771286010742,1.6454525936395,[1.69694375],5.0,0.6,0.0,2.4226135887273474,0.09021399830668013,1.084097470012385
8.158814907073975,1.6434986064721333,[1.69531902],5.0,0.6,0.0,2.083236449369184,0.11532163666320061,1.0812374364233928
8.167214393615723,1.64193541673824,[1.69374063],5.0,0.6,0.0,1.7601858843700737,0.10356836039262145,1.0823406694271962
8.174980878829956,1.6407630244378202,[1.69220128],5.0,0.6,0.0,1.4826498530519951,0.09389576709106122,1.0874547821262266
8.184078931808472,1.6391998347039267,[1.69069164],5.0,0.6,0.0,1.2547095492930578,0.08957758569949169,1.087268936822174
8.191759824752808,1.6380274424035066,[1.68920664],5.0,0.6,0.0,0.7949528532521308,0.11235865379478656,1.0917586697178097
8.201738834381104,1.6364642526696132,[1.68774485],5.0,0.6,0.0,0.8904423362625212,0.10335449833795135,1.0904097774517685
8.211742401123047,1.6352918603691935,[1.68630229],5.0,0.6,0.0,0.8598544194416196,0.0961133973544333,1.0937251085785367
8.219741344451904,1.6341194680687734,[1.684873],5.0,0.6,0.0,0.7841630310377437,0.09127669383141018,1.0969330341384433
8.22826623916626,1.6331424744850898,[1.68345474],5.0,0.6,0.0,0.422881372529771,0.11277445259759206,1.1026096683249202
8.237402439117432,1.6321654809014066,[1.68204841],5.0,0.6,0.0,0.5852853050517248,0.10191787359877304,1.1076959101275046
8.248310804367065,1.63079768988425,[1.68064971],5.0,0.6,0.0,0.32635910768819276,0.07169733318904606,1.1082464567676644
8.256222248077393,1.6300160950173033,[1.67925253],5.0,0.6,0.0,0.2530826363870378,0.09620977329020637,1.115744745165994
8.266731023788452,1.6290391014336199,[1.67785946],5.0,0.6,0.0,0.2504709147885593,0.11437130009238558,1.1207910076521928
8.28073000907898,1.6278667091331998,[1.67647271],5.0,0.6,0.0,0.268103818720539,0.07718822935613906,1.1233827500566946
8.290081024169922,1.6268897155495166,[1.67508898],5.0,0.6,0.0,0.009649634822992026,0.09867383764032778,1.1283650345989231
8.299862146377563,1.6263035193993067,[1.67371047],5.0,0.6,0.0,-0.28871409203301135,0.11205749486481381,1.137895386901426
8.309651374816895,1.6255219245323598,[1.67234138],5.0,0.6,0.0,-0.5397750145146519,0.09478565534726147,1.1448429464808645
8.3208646774292,1.6249357283821497,[1.67098251],5.0,0.6,0.0,-0.44538719886338846,0.10604018551478771,1.1542361481391046
8.331538677215576,1.624154133515203,[1.66963419],5.0,0.6,0.0,-0.5283922877993391,0.08656172981086517,1.1610000306823953
8.343743801116943,1.623567937364993,[1.66829359],5.0,0.6,0.0,-0.6464062176609662,0.06986669616034459,1.1699576237749225
8.352872133255005,1.6231771399315198,[1.66695517],5.0,0.6,0.0,-0.4694751133363483,0.054384918182059955,1.1814422171457868
8.362121105194092,1.6227863424980462,[1.66561363],5.0,0.6,0.0,-0.777631635822762,0.04075194338644417,1.1924738111613795
8.37300705909729,1.622395545064573,[1.66426393],5.0,0.6,0.0,-0.8980666955613503,0.02809285948419341,1.2036707809717533
8.381000995635986,1.6222001463478364,[1.66290429],5.0,0.6,0.0,-0.924395982598053,0.043839964212897965,1.2173070288339658
8.38982081413269,1.621809348914363,[1.66153887],5.0,0.6,0.0,-1.1803662541753162,0.05448206855142491,1.2282516478326722
8.401119947433472,1.6214185514808896,[1.66017084],5.0,0.6,0.0,-1.1714438164461507,0.028630435229917754,1.239539994770989
8.411808967590332,1.6210277540474165,[1.65879954],5.0,0.6,0.0,-1.3409022233701835,0.03874203755991341,1.2504207506673337
8.420848369598389,1.6208323553306796,[1.65742404],5.0,0.6,0.0,-1.5195113382765444,0.011024405607131265,1.2633524306889012
8.430514097213745,1.620636956613943,[1.6560398],5.0,0.6,0.0,-1.6488971132616923,-0.01173327000886088,1.276257535875766
8.44293212890625,1.6202461591804695,[1.65464274],5.0,0.6,0.0,-1.994101269864556,0.0026000384097714197,1.2863359738281428
8.451804161071777,1.6198553617469964,[1.6532359],5.0,0.6,0.0,-2.043242580676743,0.011158358484986764,1.2971350885512938
8.465245485305786,1.619464564313523,[1.65182161],5.0,0.6,0.0,-2.239234254800566,-0.019083230880346854,1.3073555955296712
8.476312637329102,1.6192691655967864,[1.65039449],5.0,0.6,0.0,-2.1423641570909293,-0.04418741036163803,1.3204530359459437
8.484803915023804,1.618878368163313,[1.64894976],5.0,0.6,0.0,-2.219927877209331,-0.029854292673520945,1.3308990283605489
8.494096040725708,1.6184875707298394,[1.64748674],5.0,0.6,0.0,-2.3122830453193597,-0.056534210076336716,1.341228701521155
8.505302667617798,1.6179013745796298,[1.64600075],5.0,0.6,0.0,-2.6401445408766273,-0.07707282699188889,1.3487604631390109
8.514448404312134,1.6173151784294195,[1.64448773],5.0,0.6,0.0,-2.9498636552255126,-0.05938542851392724,1.3562804039659617
8.525026798248291,1.616338184845736,[1.64294788],5.0,0.6,0.0,-3.4355342869149776,-0.08230152176069479,1.3592458997149834
8.534094333648682,1.6155565899787896,[1.64137708],5.0,0.6,0.0,-3.8443574757241494,-0.1014592791845232,1.364286475353421
8.542750835418701,1.6143841976783697,[1.63977177],5.0,0.6,0.0,-4.3806654520220905,-0.07981296698710016,1.3649736814523952
8.55422854423523,1.6130164066612127,[1.63812841],5.0,0.6,0.0,-5.0,-0.1351927420788277,1.3632388630416679
8.563826084136963,1.6116486156440561,[1.63643943],5.0,0.6,0.0,-5.0,-0.10799766109695624,1.3660691827583735
8.573722839355469,1.610085425910163,[1.63470258],5.0,0.6,0.0,-5.0,-0.12396300637302765,1.367588112121412
8.583715438842773,1.6083268374595328,[1.63291527],5.0,0.6,0.0,-5.0,-0.13637358169925834,1.3678384802946426
8.597067832946777,1.6055912554252194,[1.63106504],5.0,0.6,0.0,-5.0,-0.1713935890761854,1.3600183167978601
8.607775449752808,1.6034418695411163,[1.62914053],5.0,0.6,0.0,-5.0,-0.14010870706602227,1.3579992036773803
8.61756706237793,1.6012924836570126,[1.62714164],5.0,0.6,0.0,-5.0,-0.15059968924104863,1.3566407275567525
8.62791633605957,1.5989476990561724,[1.62507303],5.0,0.6,0.0,-5.0,-0.12320937958185527,1.354132677584262
8.639805793762207,1.595625920871649,[1.62293835],5.0,0.6,0.0,-5.0,-0.13788128180542977,1.3431342426194082
8.649129867553711,1.5930857375540726,[1.62073413],5.0,0.6,0.0,-5.0,-0.15147040713915014,1.339958984573888
8.661865711212158,1.5887869657858658,[1.61845701],5.0,0.6,0.0,-5.0,-0.11750382449157304,1.3202978073106457
8.675435304641724,1.5848789914511323,[1.61610948],5.0,0.6,0.0,-5.0,-0.1314258538124769,1.3045102565371671
8.687072277069092,1.580971017116399,[1.61369313],5.0,0.6,0.0,-5.0,-0.10299026289840707,1.2889615544946929
8.698134899139404,1.5768676440649287,[1.61121593],5.0,0.6,0.0,-4.984331695015685,-0.07812935140056333,1.271655778830474
8.709909200668335,1.5727642710134586,[1.60869129],5.0,0.6,0.0,-4.82910093714926,-0.058402031183749724,1.255417547752605
8.724494457244873,1.5674885056615686,[1.60612292],5.0,0.6,0.0,-4.876514061882294,-0.08551922563008509,1.2245203404842333
8.736725807189941,1.5626035377431517,[1.60349826],5.0,0.6,0.0,-4.093536775334471,-0.0962017206828773,1.203393659146689
8.749285459518433,1.5575231711079984,[1.60079765],5.0,0.6,0.0,-3.4188553791729075,-0.09353462332338155,1.17898241448481
8.759712934494019,1.5528336019063185,[1.5980113],5.0,0.6,0.0,-2.5901701007576854,-0.07160704844023784,1.1598732826679727
8.770452737808228,1.5485348301381114,[1.59513822],5.0,0.6,0.0,-1.5622253742679462,-0.0757916297602653,1.1458557898931523
8.780985355377197,1.5442360583699049,[1.59216814],5.0,0.6,0.0,-0.3706435393613545,-0.06834106116848268,1.131499059932255
8.791794061660767,1.539546489168225,[1.5890922],5.0,0.6,0.0,0.37563825861688627,-0.05855033321934536,1.111936263332192
8.801870584487915,1.5354431161167548,[1.58591141],5.0,0.6,0.0,1.1082706036636205,-0.05421641812788739,1.0999366294497455
8.812055826187134,1.5313397430652846,[1.58261684],5.0,0.6,0.0,1.6840084320635336,-0.038445053915981034,1.0889354058467373
8.824071407318115,1.5260639777133946,[1.57919108],5.0,0.6,0.0,2.355666297201148,-0.010688884839780465,1.064531826209009
8.833741188049316,1.5221560033786614,[1.57562917],5.0,0.6,0.0,2.9023274242256787,-0.03584482395182587,1.058234194990599
8.848728656768799,1.5153170482928777,[1.57192654],5.0,0.6,0.0,2.994007698673805,0.0731968326947613,1.0201754019111968
8.861799001693726,1.510432080374461,[1.56806925],5.0,0.6,0.0,3.4379135134204315,0.011593668493551547,1.005856475758088
8.873972415924072,1.505547112456044,[1.56405662],5.0,0.6,0.0,4.145677244858925,0.04718282318246312,0.9916238849080392
8.885948181152344,1.5006621445376274,[1.55989934],5.0,0.6,0.0,4.478141629881965,0.0047359092130407855,0.9809803630013675
8.899794578552246,1.4948001830355275,[1.55561855],5.0,0.6,0.0,5.0,-0.001127500852221667,0.9589534824675469
8.911556720733643,1.4905014112673207,[1.55124409],5.0,0.6,0.0,5.0,-0.0029469976363398088,0.9598323759506038
8.925981044769287,1.485030247198694,[1.54680201],5.0,0.6,0.0,5.0,0.0040315227095001965,0.9479275732428953
8.939538955688477,1.4807314754304872,[1.54230317],5.0,0.6,0.0,5.0,0.010702926249124205,0.9502342041594155
8.950722932815552,1.477214298529227,[1.53774537],5.0,0.6,0.0,5.0,-0.004937598435650712,0.9622925984004105
8.96084213256836,1.4740879190614404,[1.53315031],5.0,0.6,0.0,5.0,-0.013010523169673334,0.979474120705347
8.97093915939331,1.4707661408769173,[1.52854797],5.0,0.6,0.0,5.0,0.011776108126175062,0.9945943342074717
8.979118585586548,1.4682259575593402,[1.52393988],5.0,0.6,0.0,5.0,-0.0235094095457271,1.019241866715499
8.988834142684937,1.4650995780915532,[1.51932709],5.0,0.6,0.0,5.0,-0.03937235990134394,1.0370998995497804
8.999053955078125,1.4621685973405036,[1.5147098],5.0,0.6,0.0,5.0,-0.012968712149011,1.0574626140541405
9.011170148849487,1.4586514204392433,[1.51006338],5.0,0.6,0.0,4.939096835875812,0.04207367608046919,1.071573619648076
9.020459651947021,1.4557204396881933,[1.50536681],5.0,0.6,0.0,4.508299573810749,-0.028963802058416734,1.095917212710218
9.031193256378174,1.45239866150367,[1.50061445],5.0,0.6,0.0,3.434071577758025,0.027999729677749097,1.1194629394840532
9.039940357208252,1.4496630794693566,[1.4957891],5.0,0.6,0.0,2.5915917053568442,0.00424276437610778,1.14845387062475
9.048665046691895,1.4469274974350432,[1.49087661],5.0,0.6,0.0,1.6766684443846562,-0.025360951681210116,1.177474960004692
9.058332204818726,1.4438011179672565,[1.48587811],5.0,0.6,0.0,0.892133810544784,-0.010063012265798678,1.2012164753137546
9.067800521850586,1.4408701372162065,[1.48079513],5.0,0.6,0.0,0.2879402893445651,-0.055531990611602744,1.2269584893083918
9.077298164367676,1.4377437577484196,[1.47564251],5.0,0.6,0.0,-0.1468419080297713,-0.10209990158127763,1.2502982266531482
9.089609384536743,1.4336403846969494,[1.47044618],5.0,0.6,0.0,-0.44270293873472927,-0.12251667339488409,1.2625214512198597
9.101816892623901,1.4297324103622162,[1.46522843],5.0,0.6,0.0,-0.6323053226734071,-0.13467968407004735,1.2769522329155532
9.115552186965942,1.425042841160536,[1.4599951],5.0,0.6,0.0,-1.020118665211539,-0.08585793923683299,1.2824534943623065
9.125832796096802,1.421525664259276,[1.45473787],5.0,0.6,0.0,-1.6618683370326446,-0.12569650414112543,1.2999776206413687
9.134805917739868,1.4178130886412792,[1.44946278],5.0,0.6,0.0,-2.5195490088711576,-0.14695246204455711,1.313748610698707
9.145834684371948,1.4139051143065458,[1.44417471],5.0,0.6,0.0,-3.5296039066381066,-0.08737492108278555,1.3233719294781428
9.15552806854248,1.4099971399718125,[1.43885094],5.0,0.6,0.0,-4.07841926802004,-0.08111272503495316,1.334385844468836
9.164832353591919,1.4062845643538158,[1.43347226],5.0,0.6,0.0,-4.325499548807148,-0.10090170423737711,1.3488386760673796
9.174412488937378,1.4021811913023456,[1.42803599],5.0,0.6,0.0,-4.652608245386189,-0.09639155553442424,1.359000611155155
9.186092853546143,1.397296223383929,[1.4225266],5.0,0.6,0.0,-4.887504140555539,-0.11833811873246715,1.362987333605953
9.196897268295288,1.3928020528989855,[1.41691781],5.0,0.6,0.0,-4.989427243902105,-0.137605668538956,1.3720034857573884
9.204652786254883,1.3898710721479355,[1.41120199],5.0,0.6,0.0,-4.417217872361762,-0.11593445526194399,1.39870060069453
9.21473479270935,1.3851815029462553,[1.40538743],5.0,0.6,0.0,-3.683651010032177,-0.14178501724472076,1.4115893819389462
9.22346568107605,1.3814689273282585,[1.39946849],5.0,0.6,0.0,-2.9933009273906257,-0.1674941511765038,1.4306324186897956
9.23271131515503,1.3771701555600517,[1.39344163],5.0,0.6,0.0,-2.4121135523818653,-0.14078625698138048,1.4441129243778996
9.241370916366577,1.3738483773755286,[1.38731907],5.0,0.6,0.0,-1.3954800884966414,-0.1750263350836487,1.4629112189463143
9.249735832214355,1.3703312004742685,[1.38111243],5.0,0.6,0.0,-0.4150475810693661,-0.15769932329105155,1.4768929457018165
9.259343385696411,1.366423226139535,[1.37483271],5.0,0.6,0.0,0.09638825326152034,-0.19266235694215667,1.4859487608428967
9.268696784973145,1.3625152518048016,[1.36849036],5.0,0.6,0.0,0.6345160509719007,-0.1760365219149732,1.4925854241255758
9.279167413711548,1.3584118787533315,[1.36209535],5.0,0.6,0.0,1.0713801867139134,-0.21159715874676213,1.4964363523731912
9.288301467895508,1.3543085057018613,[1.35564366],5.0,0.6,0.0,1.3797766752705596,-0.2399481214941052,1.4982283656473967
9.297245502471924,1.350400531367128,[1.34913309],5.0,0.6,0.0,1.5716539285044844,-0.2197962387076185,1.4978434063952175
9.31069278717041,1.3447339685817647,[1.3425767],5.0,0.6,0.0,1.6706954627079575,-0.2442046800561496,1.496996195780956
9.319647073745728,1.3410213929637678,[1.33598673],5.0,0.6,0.0,1.7009776583324918,-0.23867480851774098,1.492794093101236
9.32778549194336,1.3376996147792444,[1.32940075],5.0,0.6,0.0,1.6829539978659613,-0.2547766207052163,1.484216262957244
9.34080982208252,1.3318376532771445,[1.3228772],5.0,0.6,0.0,1.6326048992524065,-0.3131920816231234,1.4820901081271127
9.352420091629028,1.3271480840754641,[1.31645171],5.0,0.6,0.0,1.5618220795010056,-0.34580325212485746,1.4755648351028336
9.364957571029663,1.3218723187235741,[1.31012744],5.0,0.6,0.0,1.4791664723419937,-0.2881944472189428,1.4711625807987176
9.375664472579956,1.3177689456721042,[1.30389328],5.0,0.6,0.0,1.390642395329841,-0.34635765467199764,1.4607876329747622
9.386809349060059,1.313079376470424,[1.29773954],5.0,0.6,0.0,1.3003605369132725,-0.28890966785366995,1.4527709695368027
9.395782709121704,1.3095621995691638,[1.29165779],5.0,0.6,0.0,1.2110618995407467,-0.3610749964750716,1.4368078836160667
9.403862476348877,1.3062404213846404,[1.28565317],5.0,0.6,0.0,1.124513857650685,-0.3987932018692566,1.4177858998626325
