t_s,q_rad,q_des_rad,jerk
0.005528688430786133,0.0,0.004170797944345748,0.0
0.016821861267089844,0.0,0.02016111755647555,0.0
0.029638290405273438,0.0,0.05012541749736111,0.0
0.04006052017211914,0.0,0.09153713630192753,0.0
0.05489635467529297,0.00039079743347334047,0.14211194457875062,0.0
0.06809878349304199,0.0013677910171566918,0.19980453501322562,0.552076719357362
0.08281397819519043,0.0033217781845233945,0.26279366154641015,2.274556083752331
0.09591007232666016,0.0062527589355734475,0.3294689774405467,4.847454426645381
0.10387754440307617,0.00879294225315016,0.39841561213487114,5.0
0.1238865852355957,0.01680428963935364,0.46840886807065296,5.0
0.1318836212158203,0.020126067823877037,0.538406514459065,5.0
0.15188336372375488,0.028137415210080514,0.6075287012748881,5.0
0.16387438774108887,0.03302238312849727,0.6750522617415093,5.0
0.17582225799560547,0.03790735104691403,0.7403882022959617,5.0
0.189300537109375,0.0433785151155408,0.803061649207076,5.0
0.2048807144165039,0.0498266727678509,0.8627075457569406,5.0
0.22571039199829102,0.05822881758752774,0.9190646845026705,2.381359907470213
0.24313902854919434,0.0650677726733112,0.9719680091148606,-0.3995693708430348
0.2588067054748535,0.07151593032562131,1.0213240832802635,-2.975622731327627
0.26981139183044434,0.0762054995273014,1.0670855914773845,-4.960548435003407
0.2868785858154297,0.08304445461308485,1.1092568269481364,-5.0
0.30358123779296875,0.08988340969886832,1.147905221183794,-5.0
0.31486010551452637,0.0945729789005484,1.183135410837983,-5.0
0.3296473026275635,0.10082573783612185,1.2150717406727805,-5.0
0.34383630752563477,0.10610150318801194,1.2438637848921503,-5.0
0.358828067779541,0.11235426212358537,1.2696880262274315,-5.0
0.36931443214416504,0.11645763517505547,1.2927359049230311,-5.0
0.38088059425354004,0.12095180565999888,1.3131931251836992,-5.0
0.3958730697631836,0.12700916587883565,1.3312469385460277,-5.0
0.4096839427947998,0.13287112738093576,1.3470963801377562,-4.911611344913245
0.42084741592407227,0.13775609529935254,1.360941569820091,-4.778393386812406
0.43259477615356445,0.14225026578429595,1.3729737456554314,-4.598711084538442
0.447782039642334,0.14811222728639603,1.3833789065254039,-4.383022367858279
0.46286892890930176,0.1543649862219695,1.39234222228877,-4.144124173494346
0.47585391998291016,0.15964075157385957,1.4000396191797784,-3.893413694163317
0.49451756477355957,0.1674567002433264,1.4066446026192587,-3.63981368581599
0.5056803226470947,0.17214626944500647,1.4123243718134821,-3.3897894864815257
0.5158340930938721,0.17585884506300323,1.4172124923918652,-3.147743821684956
0.5319485664367676,0.18269780014878667,1.4214243890745872,-2.9164829954606812
0.5417981147766113,0.18699657191699343,1.4250770622185251,-2.6976366482938285
0.5498182773590088,0.18992755266804345,1.42825876971265,-2.4919969295656546
0.5707912445068359,0.19832969748772028,1.4310506284261713,-2.2997773285982657
0.5838851928710938,0.2034100641228737,1.4335651152666995,-2.1208034017905137
0.5988812446594238,0.20946742434171048,1.4359012136156641,-1.6786116276553882
0.6148576736450195,0.2161109807107573,1.4381354726268818,-1.7676135235921402
0.628408670425415,0.2219729422128574,1.4403427088759693,-1.4374613394234694
0.6387853622436523,0.22588091654759082,1.4425707184650136,-1.2938592800585837
0.6597542762756348,0.23428306136726765,1.4448602775230615,-1.2220844407990923
0.674710750579834,0.24073121901957772,1.4472707672738823,-1.1724101725832585
0.689814567565918,0.24698397795515117,1.449841372607194,-0.8491831174549455
0.7013468742370605,0.2514781484400946,1.4525850323670426,-1.041171727362888
0.7161979675292969,0.2575355086589314,1.4555101539326731,-1.0740495251230378
0.7309715747833252,0.2632020714442948,1.4586211626395387,-1.036558265495716
0.7435534000396729,0.2686732355129216,1.4619170990719201,-0.971092809532865
0.7578470706939697,0.2745351970150217,1.4653943663938687,-0.8974049852684668
0.7658462524414062,0.2776615764828084,1.4690338353326309,-1.100339744876818
0.7879409790039062,0.28645451873595856,1.4728168121090524,-1.064546935549226
0.8042111396789551,0.29329347382174203,1.476762666905576,-0.9459099195699959
0.8158588409423828,0.2977876443066855,1.4808852491597384,-0.8117871830501717
0.8256237506866455,0.30189101735815554,1.4851533211832693,-0.6884199182584438
0.8447864055633545,0.3095115673108857,1.4895381645718913,-0.5836946566544039
0.8668229579925537,0.3184999082807725,1.4940610933674563,-0.22182722422305393
0.8748433589935303,0.3216262877485592,1.4987379244775467,-0.11929125793532665
0.8988628387451172,0.33178702101886604,1.5035499128896184,-0.11831036224524671
0.9193212985992432,0.3403845645552796,1.5085081967042986,-0.4248352048005179
0.9356787204742432,0.346637323490853,1.5136357201488941,-0.49100079284895803
0.9487881660461426,0.3519130888427431,1.5189225185858506,-0.4613072297028574
0.9677677154541016,0.35972903751220986,1.5243506334227062,-0.6768914697920758
0.9768378734588623,0.3634416131302067,1.5298995373396518,-0.6463330995899342
0.9987392425537109,0.3718437579498835,1.5355465005872426,-0.5345669020173324
1.0128095149993896,0.37770571945198356,1.5412853777910624,-0.6875109184245719
1.0278706550598145,0.3841538771042937,1.5471028028177871,-0.6123437699163368
1.0429143905639648,0.39040663603986714,1.5529704089231064,-0.4706584592828274
1.0509088039398193,0.3935330155076539,1.5588483944351,-0.0527882482753195
1.0738236904144287,0.40291215391101404,1.564702137089655,0.09921325986184014
1.0904450416564941,0.4095557102800608,1.5705392037459687,0.13553420001038186
1.099792718887329,0.4134636846147942,1.5763652899089953,0.12607860823820782
1.120027780532837,0.4216704307177344,1.5821634808287164,0.10216659232550446
1.1346895694732666,0.4277277909365711,1.5879317627435057,0.07691689175493167
1.1507623195648193,0.43417594858888126,1.5936675861460678,0.05511089713193454
1.163797378540039,0.43945171394077137,1.599354737835647,0.037895584036899625
1.171856164932251,0.4429688908420314,1.604964534673537,0.024974632873399124
1.197683334350586,0.4537158202625483,1.6104783826949258,0.29163011105719006
1.2136120796203613,0.45996857919812173,1.6159153715244896,0.3181067376243992
1.2287909984588623,0.4660259394169585,1.621291703202887,-0.017640425606783278
1.2437481880187988,0.4720832996357954,1.6265995354643168,-0.12998164335317536
1.2589919567108154,0.4781406598546321,1.6318263688264325,-0.1474815355613857
1.2728404998779297,0.48361182392325885,1.636960760744645,-0.1293477630000682
1.2892799377441406,0.49025538029230564,1.6419959898418692,-0.10163319401356227
1.2998466491699219,0.4945541520605124,1.646927122373825,-0.07487977835743571
1.3143665790557861,0.5008069109960859,1.6517469221063734,-0.05262044570807945
1.328810453414917,0.5064734737814492,1.6564502854318968,-0.0354060356417773
1.3493735790252686,0.5146802198843894,1.661045022456059,-0.022661956132131306
1.3647730350494385,0.5211283775366995,1.6655489336025762,0.26253160498381395
1.3787593841552734,0.526794940322063,1.6699684352773942,0.3020783836263258
1.3927624225616455,0.5324615031074265,1.6742995865417252,0.25138806976687555
1.4077482223510742,0.5387142620429999,1.6785400273960551,0.17825591491786663
1.4305551052093506,0.5473118055794133,1.682698739777063,0.10965352571250708
1.4467706680297852,0.5541507606651968,1.6867941940490947,0.05422833268488747
1.462822675704956,0.5607943170342435,1.6908327763215956,0.01292624350952596
1.4771580696105957,0.5668516772530804,1.6948117209947542,-0.016135924204167488
1.4898290634155273,0.5717366451714971,1.6987294418721075,-0.035541394251222
1.5113952159881592,0.5803341887079105,1.7025931186067813,-0.04772387160959045
1.518838882446289,0.583655966892434,1.7064095461016637,-0.05469318816487684
1.5427305698394775,0.5932305040125309,1.7101763461426034,-0.05800337853804792
1.5507309436798096,0.5961614847635809,1.71389222477946,-0.05881035356723541
1.564357042312622,0.601437250115471,1.717548689022728,-0.05795224375724781
1.5856058597564697,0.6102301923686212,1.7211517920047616,-0.05602559056787316
1.606003761291504,0.618632337188298,1.7247340744736197,-0.05344862342953585
1.6167376041412354,0.6235173051067148,1.72831506279331,0.2255278642039109
1.6257483959197998,0.6268390832912382,1.7318829208441429,0.26175477073736125
1.6387393474578857,0.6319194499263915,1.7354181258235488,0.20979214266631208
1.6528191566467285,0.6375860127117551,1.7389149363046692,0.13678787807419776
1.67673659324646,0.6475513472653252,1.7423855312282628,0.06923756225787181
1.6907343864440918,0.653022511333952,1.7458510007184953,0.015447127205347244
1.7037129402160645,0.6582982766858421,1.7493189605633281,-0.023877809107641097
1.7187788486480713,0.6643556369046788,1.7527854625650099,-0.32682494289653585
1.7327916622161865,0.670217598406779,1.7562471152974228,-0.3771382098593141
1.7423286437988281,0.674320971458249,1.7596941655374996,-0.33201819246279
1.7656071186065674,0.683309312428136,1.763123296802975,-0.536795602177103
1.7785873413085938,0.6885850777800259,1.7665510288976904,-0.5006523686705244
1.7917470932006836,0.693860843131916,1.7699883994758192,-0.3877920739890524
1.8040049076080322,0.6989412097670694,1.773431481293077,-0.2670188367108392
1.8210995197296143,0.7059755635695895,1.776877276181935,-0.16344032095878896
1.8368184566497803,0.7126191199386365,1.7803280331451272,0.1929212199991124
1.8508641719818115,0.7180902840072632,1.783782359192232,0.2846167879725409
1.8667352199554443,0.7245384416595733,1.7872339947759333,0.27025235327446373
1.880859136581421,0.7304004031616733,1.790677458622491,0.22122281206946962
1.9040653705596924,0.7401703389985068,1.794117627325837,-0.1083463140254163
1.9118709564208984,0.7432967184662935,1.7975585221946349,-0.18829253704968757
1.9315168857574463,0.7509172684190237,1.8009938337944313,-0.17041089246609992
1.945727825164795,0.7567792299211239,1.804427852037134,-0.12238125627405669
1.96079421043396,0.7630319888566973,1.8078642813388326,-0.07230102258526364
1.9717988967895508,0.767330760624904,1.8112967507141045,-0.30624648831096457
1.984809160232544,0.7724111272600575,1.8147200781347472,-0.3074852732219613
1.9927959442138672,0.7757329054445808,1.8181204217566687,-0.2298673144988237
2.000781297683716,0.7790546836291042,1.8214669940699049,-0.13884648870895497
2.0087945461273193,0.7825718605303643,1.8247247420588768,-0.059137738759113316
2.0303595066070557,0.7915602015002512,1.8278858741114363,0.00249351314484254
2.0653979778289795,0.8052381116718181,1.8310046645732547,0.04656395065852342
2.079803943634033,0.8111000731739182,1.8341559392438664,0.07604765540313074
2.0957980155944824,0.817743629542965,1.8373633402890925,0.09431995642969677
2.1189634799957275,0.8273181666630619,1.840627900658054,0.10437860878681632
2.1267709732055664,0.8306399448475852,1.8439499730201443,0.3846671386978193
2.1446993350982666,0.8378696973668419,1.847312875327194,0.41806050315497534
2.1574108600616455,0.843145462718732,1.8507106387121348,0.36059215905133657
2.1718838214874268,0.8490074242208321,1.8541502088192383,0.2804582242622005
2.1867921352386475,0.8548693857229324,1.8576304727660613,0.2048859181910272
2.202768087387085,0.8609267459417691,1.861143811454098,0.14268256370238505
2.217341899871826,0.8671795048773426,1.8646813955681285,0.09489045821171466
2.227710485458374,0.8714782766455493,1.8682353718800284,0.05968058944303136
2.2408318519592285,0.8769494407141761,1.8717987624453591,0.03449590889153803
2.2551965713500977,0.8828114022162762,1.8753653654975602,0.016910477344178408
2.268674373626709,0.8880871675681662,1.8789296602601515,0.004910310241894774
2.2828569412231445,0.8943399265037396,1.8824848475733913,-0.0030702936824632985
2.2959084510803223,0.899420293138893,1.8860249542332415,-0.008203439993741724
2.3036749362945557,0.9027420713234164,1.8895385430367413,-0.0113459658745207
2.3228323459625244,0.9103626212761465,1.8930158639303987,-0.013114280468893232
2.3377492427825928,0.9164199814949833,1.8964666994056234,-0.01394674789040878
2.352748394012451,0.9222819429970835,1.8998992148839853,0.26188601694119823
2.365816354751587,0.9275577083489737,1.9033101764228098,0.29521576935822136
2.380781888961792,0.9342012647180205,1.906696714177383,0.24058430958633858
2.3937668800354004,0.9394770300699106,1.91005634366018,0.1651223051311299
2.4087741374969482,0.9453389915720106,1.9133869904170282,0.09530917847290955
2.4307501316070557,0.9541319338251608,1.9166961859257294,0.039435774388643215
2.4437358379364014,0.9594076991770509,1.91999953526643,-0.0018063215434164469
2.458773612976074,0.9654650593958877,1.9233009877328031,-0.030479462164873246
2.4727470874786377,0.9713270208979877,1.9265946912050744,-0.04929174891227053
2.48708438873291,0.9769935836833512,1.929875835400406,-0.06076300524329797
2.5027449131011963,0.9834417413356613,1.9331405950898404,-0.06696175501439287
2.5268163681030273,0.9934070758892316,1.9363953484081171,-0.06948145415652882
2.541761636734009,0.9992690373913317,1.9396550882333803,-0.0695039787092824
2.5559425354003906,1.0051309988934318,1.942923039677549,-0.06788408563467702
2.569687843322754,1.0100159668118485,1.9461927556362475,-0.06522850474064422
2.586946487426758,1.0172457193311053,1.949465272386648,-0.061961250681697666
2.604569911956787,1.0246708705670988,1.9527511688508927,0.21766407855201805
2.613917827606201,1.028578844901832,1.9560509796410002,0.25449756681630287
2.632666826248169,1.0360039961378256,1.9593556675294903,0.2030997487163812
2.641254425048828,1.0397165717558223,1.9626594309061596,0.1306198384215369
2.6525075435638428,1.0444061409575025,1.9659492439267878,0.06355523933497599
2.6717305183410645,1.051831292193496,1.9692222860884274,0.010213981411822698
2.6869380474090576,1.0580840511290694,1.9724929656237358,-0.028696089428142862
2.695142984390259,1.0612104305968562,1.9757588241525659,-0.055222051494697263
2.7077362537384033,1.0664861959487462,1.978999896052335,-0.07205773312558178
2.71909499168396,1.0711757651504263,1.9822017880896323,-0.3577480318275119
2.7418198585510254,1.0807503022705232,1.985372284858767,-0.3953970244123487
2.7547237873077393,1.08563527018894,1.9885367377521521,-0.34127864354342097
2.762732982635498,1.0887616496567265,1.9916972116529117,-0.26379831706487633
2.7821173667907715,1.0969683957596668,1.9948425275253752,-0.1903511263262333
2.7897636890411377,1.0998993765107168,1.9979731391807394,-0.12987335802032926
2.8107244968414307,1.1084969200471304,2.001089617223375,-0.08350403941959503
2.824720859527588,1.113968084115757,2.0042023390762735,0.22655259599375654
2.837726593017578,1.119243849467647,2.007320137240194,0.2838487958614727
2.8507676124572754,1.124715013536274,2.0104407164208142,0.24546367195843366
2.865704298019409,1.1307723737551107,2.013562119048197,0.18061677127912784
2.879452705383301,1.1368297339739475,2.016683424206481,-0.1586356713269672
2.891660213470459,1.1415193031756277,2.019803880830971,-0.24384674660383682
2.9036641120910645,1.1464042710940443,2.022921449387227,-0.22814023633879799
2.915621042251587,1.151289239012461,2.026033746734369,-0.1801848176435164
2.929647445678711,1.1567604030810879,2.0291395720370353,-0.4048329218527711
2.9377431869506836,1.160277579982348,2.0322296940883677,-0.39367986589664167
2.9597203731536865,1.1688751235187615,2.035296522434754,-0.3039937586082067
2.9677138328552246,1.1718061042698116,2.0383429864105116,-0.20241244407219033
2.9907305240631104,1.1815760401066449,2.0413718139739983,-0.11387237323542294
3.003673553466797,1.1872426028920084,2.0443913026506677,-0.3210260875286209
3.027660608291626,1.1968171400121053,2.0474182352312438,-0.02810496251042366
3.041651964187622,1.2024837027974689,2.0504744681194444,0.09448414688414732
3.04972243309021,1.2058054809819923,2.0535586069975373,0.13780060670033573
3.0686469078063965,1.2134260309347222,2.05665527015139,0.14570753870674513
3.090757369995117,1.222414371904609,2.0597798586599607,0.13896179521275026
3.106163501739502,1.2286671308401824,2.062954277845172,0.12711203992895792
3.120635747909546,1.2347244910590192,2.0661769790613675,0.11434490187354718
3.1309902667999268,1.2388278641104893,2.069432477872249,0.10233598397377412
3.1466619968414307,1.2452760217627994,2.072707028474646,0.09162487555739132
3.1606361865997314,1.2513333819816361,2.075995430877982,0.08226727388709415
3.1746606826782227,1.2566091473335264,2.0792928756840006,0.07413623841970804
3.189640998840332,1.262666507552363,2.0825925109682735,0.06705541914745605
3.202648878097534,1.2681376716209898,2.0858882690449114,0.06085346012195902
3.224506139755249,1.27693061387414,2.0891826837786245,0.05538262478935131
3.239658832550049,1.2827925753762401,2.092486441977933,0.050522078501510595
3.255695343017578,1.2892407330285505,2.0957997786871028,0.04617528413885971
3.2707157135009766,1.2954934919641234,2.0991134789545165,0.04226570541526402
3.2866227626800537,1.3019416496164338,2.1024190613152784,0.3147709012986572
3.3076529502868652,1.3105391931528474,2.1057174254377893,0.34469005689345245
3.319669246673584,1.3154241610712643,2.109015765225198,0.28667558726950326
3.3336234092712402,1.3210907238566276,2.1123112434556517,0.2079291325064181
3.3497233390808105,1.3277342802256742,2.1155957171736195,0.13497365534353356
3.363555431365967,1.3334008430110378,2.1188620720355344,0.07612472976463937
3.379629135131836,1.3398490006633477,2.122102651948431,0.308124272577384
3.3916594982147217,1.3445385698650278,2.1253109793683516,0.3099612581280998
3.405634641647339,1.3502051326503914,2.128481678157371,-0.04242102179039725
3.417658567428589,1.355090100568808,2.1316103955442425,-0.16536186006524195
3.436903715133667,1.3632968466717486,2.134696802222339,-0.18907945253783714
3.446690797805786,1.3672048210064816,2.1377409197612476,-0.17407186386186754
3.461637496948242,1.3732621812253185,2.1407369309515785,-0.1473573463381519
3.4756014347076416,1.3787333452939452,2.143680334794273,-0.12018066789891013
3.488863229751587,1.3843999080793088,2.14656953203544,-0.09657657453358466
3.50262451171875,1.3898710721479355,2.149403704458889,-0.07744871240697909
3.5246171951293945,1.3982732169676122,2.152192752595557,-0.06246710599448261
3.5326039791107178,1.4017903938688723,2.1549454939063795,-0.05091749386834313
3.5493004322052,1.4088247476713924,2.157658862174463,-0.04205640027999363
3.5636351108551025,1.414491310456756,2.160337866809457,-0.03523994063921236
3.572483777999878,1.4182038860747526,2.1629860445899376,-0.029954101173622582
3.5843164920806885,1.4228934552764325,2.165594377478566,0.2502323779899266
3.595038414001465,1.4273876257613762,2.168157545356906,0.28666028388051223
3.609668731689453,1.433249587263476,2.170676075446594,0.23423670365139626
3.6215779781341553,1.4379391564651562,2.1731516939922257,0.16035258469147823
3.6430740356445312,1.4467320987183063,2.175592322599307,0.09167192384634865
3.65071439743042,1.4498584781860933,2.17800553337598,0.03661603898861267
3.673701047897339,1.4592376165894534,2.1803924388313876,-0.004031442346099468
3.686084508895874,1.4639271857911336,2.1827606402467,-0.3083063786633657
3.698577880859375,1.4693983498597603,2.1851166664114663,-0.3599190813620604
3.7131006717681885,1.475455710078597,2.1874600456904187,-0.31604910234647166
3.7286267280578613,1.4817084690141706,2.1897903682363733,-0.24597640660368114
3.742859125137329,1.4871796330827973,2.1921067467866022,-0.17782853138668764
3.7566189765930176,1.4928461958681607,2.19440839247401,-0.121114602293536
3.779057741165161,1.5018345368380475,2.1967011530580587,-0.07740467515237122
3.7866501808166504,1.5049609163058342,2.198989821175476,-0.04525806669481234
3.808692455291748,1.5141446559924576,2.2012714850066066,-0.022399605659986332
3.8225977420806885,1.5198112187778212,2.2035497851540478,-0.006606240423974057
3.8366799354553223,1.5254777815631846,2.205827505868564,0.0039906994550688935
3.8516767024993896,1.5319259392154947,2.2081001757612744,0.010853083398745323
3.8759076595306396,1.5416958750523284,2.2103697171743244,0.015078850381136957
3.8907418251037598,1.5475578365544282,2.21264335984379,0.017471784770723538
3.910261631011963,1.555373785223895,2.2149234780249096,-0.257428131564523
3.9290544986724854,1.563189733893362,2.217211321379489,-0.2902578644720216
3.9427003860473633,1.568465499245252,2.2195076343145344,-0.5114586143683328
3.950597047805786,1.5717872774297754,2.221801291471214,-0.46911082620364275
3.9716808795928955,1.5803848209661888,2.2240797203502227,-0.34431715862019435
3.986905336380005,1.586832978618499,2.226344241524372,-0.21255490880130876
4.003612756729126,1.5936719337042826,2.2285983687253768,-0.1010329440625348
4.017021894454956,1.599338496489646,2.2308404298332154,0.2600332305874164
4.027582168579102,1.6034418695411163,2.233064201299249,0.35369130919955705
4.050572633743286,1.6126256092277396,2.2352654293338485,0.3392046502408746
4.058587551116943,1.615947387412263,2.2374430643697396,0.2885773951836397
4.0666725635528564,1.619464564313523,2.2395831445154024,0.23246911790129182
4.094534635543823,1.6309930886009865,2.241679756217139,0.1824668947313215
4.108587980270386,1.6364642526696132,2.2437492254844065,0.14174164065107192
4.122604131698608,1.6421308154549765,2.2457995379551488,0.11004046920519357
4.1380369663238525,1.6485789731072868,2.2478278141270707,0.0859477893117641
4.149660110473633,1.6530731435922303,2.2498321163832795,0.0678512794061936
4.16366720199585,1.658544307660857,2.251809456118164,0.05430965776599767
4.178252220153809,1.6644062691629573,2.2537571193927306,0.044155902365607694
4.195156097412109,1.671636021682214,2.2556757423762197,0.03649238259221864
4.203663349151611,1.6751531985834738,2.257566795641287,0.030648878856487878
4.218420028686523,1.681210558802311,2.259429178833789,-0.24990446023017246
4.228573799133301,1.6853139318537809,2.2612618103560376,-0.010533658993441525
4.244054079055786,1.6915666907893543,2.2630640260561874,0.07486030742180064
4.255585670471191,1.696451658707771,2.2648355120220933,0.09355055571653578
4.268554449081421,1.7019228227763976,2.266575934726976,0.08608845293191954
4.278331756591797,1.7058307971111315,2.2682822055099763,0.3466283908723526
4.294658184051514,1.7120835560467045,2.2699529003212318,0.36376449734834126
4.302639007568359,1.7154053342312279,2.2715887487075976,0.29490353589417767
4.32365083694458,1.7238074790509048,2.2731907070227835,0.207896258812046
4.331649303436279,1.7271292572354282,2.2747614547187545,0.12908249563762558
4.356301546096802,1.7378761866559451,2.2763052158300736,0.06633266899693663
4.368821382522583,1.7423703571408884,2.2778314266763253,0.019881904953940203
4.385770797729492,1.7496001096601452,2.2793488153986434,-0.0127334986239305
4.402682781219482,1.756243666029192,2.2808623607747798,-0.03454418746881474
4.4165685176849365,1.761714830097819,2.282374403286456,-0.0483171970394536
4.431655406951904,1.7679675890333926,2.2838835618231,-0.056305395700897265
4.44562840461731,1.7736341518187557,2.2853881196259693,-0.06023746275546844
4.467131614685059,1.782427094071906,2.286890059421413,-0.06139351313924571
4.474599838256836,1.7857488722564294,2.2883909813528147,-0.06069931442434558
4.4944844245910645,1.7939556183593695,2.2898875111853063,-0.05881284148248006
4.512580156326294,1.8009899721618894,2.2913808714012034,-0.05619513200072973
4.527583360671997,1.8068519336639899,2.292874903661006,0.2228733721081194
4.541654586791992,1.8123230977326166,2.2943684366715478,0.2592231761621826
4.556315898895264,1.8181850592347166,2.2958593143149217,0.20740041791432987
4.574878454208374,1.82619640662092,2.297348426359888,0.1345436136575
4.589392185211182,1.8318629694062836,2.298838391730155,0.06714211603060743
4.60563063621521,1.838701924492067,2.3003291742272314,0.013497806295286872
4.620634317398071,1.8449546834276405,2.3018174203017114,-0.025686243764773273
4.633535146713257,1.8500350500627938,2.3032990774545006,-0.3284992454514673
4.648539066314697,1.8560924102816307,2.3047705595257186,-0.37868594861743154
4.662550210952759,1.8615635743502574,2.3062287255362537,-0.33344727867472845
4.670557737350464,1.8644945551013075,2.3076673859545536,-0.2620756185359814
4.693522930145264,1.8744598896548776,2.3090813353052764,-0.19270484355817152
4.7145490646362305,1.882666635757818,2.3104765467999906,-0.13484634272520268
4.728566884994507,1.888528597259918,2.3118613939004438,-0.0900697532123843
4.743603706359863,1.8945859574787545,2.3132360278227315,-0.0569322541136012
4.765112638473511,1.903183501015168,2.314600353451202,-0.033155479907543056
4.778666019439697,1.9088500638005315,2.3159574221039,-0.016512580457189546
4.792935609817505,1.9143212278691581,2.317306549111646,0.27090757107044594
4.806560039520264,1.919987790654522,2.3186437178346413,0.3116189184451437
4.820552587509155,1.9256543534398853,2.31996558774261,0.26141544786014786
4.836535930633545,1.9324933085256688,2.3212698974119093,0.18833907992889481
4.84453558921814,1.9358150867101922,2.3225518503755245,-0.15651627967881146
4.8557658195495605,1.940504655911872,2.32380358134203,-0.24544540124594605
4.877549886703491,1.9489068007315489,2.325024807030166,-0.23212439625133957
4.892629384994507,1.9549641609503858,2.3262231878445037,-0.4616627083765247
4.914632558822632,1.9641479006370093,2.327405322399668,-0.44421112913129945
4.930552959442139,1.9700098621391096,2.3285760373997615,-0.6212524310503958
4.944632530212402,1.9758718236412094,2.329736503728068,-0.5437892044885375
4.95856785774231,1.9819291838600464,2.330884799321384,-0.3925680623487824
4.973640441894531,1.9881819427956196,2.3320193547747414,-0.24161807165124605
4.987624883651733,1.99404390429772,2.3331389133034808,-0.11653647309079454
5.009669303894043,2.00283684655087,2.3342452377821643,0.2538867968306563
5.017577648162842,2.00576782730192,2.3353398749424037,0.3538446624047885
5.037619590759277,2.014169972121597,2.336421366555759,0.34347453737104183
5.0551300048828125,2.021204325924117,2.337491781058062,0.29542742866960064
5.067670583724976,2.0262846925592704,2.338552902995653,0.24083215273636055
5.081600904464722,2.0319512553446337,2.339602369901007,0.1916114835489071
5.095570802688599,2.037422419413261,2.34063823934747,0.1511740270767029
5.115150213241577,2.0458245642329373,2.341662091937716,0.11943379350362399
5.122680425643921,2.0489509437007243,2.3426753379311607,0.09509150456080831
5.1433727741241455,2.056962291086928,2.3436763694264857,0.0766152906333993
5.1586198806762695,2.063410448739238,2.3446664099958787,0.06261905001956812
5.17261528968811,2.0690770115246013,2.345647126834942,0.051973217929145464
5.1875319480896,2.0747435743099647,2.3466174538178777,0.04380524686516099
5.196998357772827,2.0786515486446984,2.347575102733073,0.037461398591607936
5.212488889694214,2.0849043075802713,2.3485182339471202,0.03246071224534636
5.23598051071167,2.0942834459836317,2.3494499738895334,0.028453125898554792
5.2506163120269775,2.1003408062024684,2.350375409192766,0.02518532164673028
5.266309022903442,2.1067889638547785,2.3512955890015816,0.2985127458562642
5.281580686569214,2.113041722790352,2.352208971428488,0.32935111040150244
5.295581102371216,2.1187082855757153,2.353114071619412,0.2722964951464909
5.308529376983643,2.1239840509276053,2.354009642397769,0.19451315935241992
5.325289726257324,2.130823006013389,2.3548948120181823,0.12249985143353281
5.338609457015991,2.136098771365279,2.355768864838031,0.0645570227777278
5.36164402961731,2.145477909768639,2.3566330367262127,0.02137934161599212
5.372919797897339,2.1495812828201095,2.3574904833512687,-0.009096754731418692
5.386066675186157,2.155247845605473,2.3583417641695816,-0.029583321405765188
5.399946928024292,2.1613052058243096,2.3591850206692233,-0.04260581200034999
5.414615631103516,2.166971768609673,2.3600186239140006,-0.05023932714035612
5.430543899536133,2.173419926261983,2.360841302757993,-0.05408435238160591
5.444619417190552,2.179281887764083,2.361651950361734,-0.05532991685115932
5.454038143157959,2.183189862098817,2.362449534232624,-0.05483783870070086
5.461583137512207,2.1863162415666033,2.3632313575029,-0.05322168041086385
5.48355770111084,2.1949137851030165,2.3639951618205686,-0.05091197822621571
5.491575479507446,2.1980401645708034,2.364740992074978,-0.048206854583803554
5.514563798904419,2.207223904257427,2.3654689398410715,-0.04530989646908404
5.52567720413208,2.211913473459107,2.366180290120376,-0.042357870938452606
5.540647029876709,2.217775434961207,2.366876174293234,-0.039440704099396116
5.555536270141602,2.2240281938967805,2.3675568239976545,-0.036615735009311354
5.569553375244141,2.229499357965407,2.3682224758914225,-0.03391780890132994
5.591270446777344,2.2382923002185575,2.368874292401407,-0.0313663828873962
5.602863073348999,2.2429818694202375,2.369514349480156,-0.028970504251657866
5.616657495498657,2.248648432205601,2.3701430195136854,-0.026732282761505497
5.629513502120972,2.2537287988407546,2.37075989585824,-0.024649301562245988
5.642344951629639,2.2591999629093813,2.371364624968496,-0.022716282545679745
5.656641960144043,2.264671126978008,2.371956597109113,-0.02092622957463009
5.67189621925354,2.2713146833470548,2.372535364254595,-0.019271206979770705
5.687664747238159,2.277762840999365,2.3731006255320986,-0.017742863975370577
5.700654983520508,2.2828432076345186,2.37365221214942,-0.29237114228094635
5.720091342926025,2.290659156303985,2.37419078803346,-0.3241956663841172
5.7285637855529785,2.2939809344885087,2.3747169990110026,-0.2679003740579484
5.749502658843994,2.302383079308185,2.375231200865649,-0.19071180189485565
5.764654874801636,2.3088312369604957,2.375734913055815,-0.11917288071242944
5.780333042144775,2.315083995896069,2.376228989692826,0.21442289207673013
5.78857946395874,2.3184057740805923,2.376711911058817,0.290406339869757
5.809488534927368,2.327003317617006,2.3771824600300384,0.2655168878548436
5.824799299240112,2.333451475269316,2.3776420598527848,0.20968915533040888
5.836512327194214,2.3383364431877327,2.3780919810510444,-0.12404806388115047
5.850556135177612,2.3438076072563594,2.3785319300465404,-0.2063351297104774
5.872913837432861,2.3526005495095093,2.378962596843714,-0.18954468208654437
5.887648344039917,2.3586579097283464,2.3793857404280994,-0.41780528367291353
5.902649641036987,2.3647152699471836,2.379802056268038,-0.4005507857208882
5.918527126312256,2.3709680288827566,2.3802111297734143,-0.30271217089965424
5.933411121368408,2.3770253891015938,2.380612647406144,-0.19388226121177363
5.945208311080933,2.382105755736747,2.381006424692208,-0.37590260996176866
5.961411952972412,2.388163115955584,2.3813925301225085,-0.8885204040253658
5.971479892730713,2.391484894140107,2.381770906425144,-1.675569309438195
5.9945573806762695,2.3985192479426276,2.382141514970082,-3.20945398799985
6.002549171447754,2.4006686338267307,2.3825044067974743,-4.1017915293753475
6.019730091094971,2.4047720068782006,2.3828589325996425,-5.0
6.0301194190979,2.4067259940455674,2.383204688656264,-5.0
6.0505712032318115,2.410633968380301,2.3835420632343087,-5.0
6.058613538742065,2.411806360680721,2.383871200924038,-5.0
6.088520526885986,2.4155189362987173,2.384192639199969,-5.0
6.104619979858398,2.4164959298824007,2.3845083902301636,-5.0
6.1174705028533936,2.417082126032611,2.384819465779859,-5.0
6.132565021514893,2.417082126032611,2.385125309371811,-5.0
6.145482540130615,2.417082126032611,2.3854254930749246,-5.0
6.1594672203063965,2.4166913285991374,2.38571970855378,-5.0
6.175343990325928,2.415714335015454,2.386007931198623,-5.0
6.187472581863403,2.414541942715034,2.3862902078911414,-4.214540404164344
6.2092180252075195,2.412783354264404,2.3865669713946325,-4.309121264507758
6.223560333251953,2.411024765813774,2.3868393268485875,-3.7892802540654547
6.2394490242004395,2.409070778646407,2.387107774179226,-2.8488554704867175
6.254527568817139,2.407116791479041,2.387372124004394,-2.469573874549522
6.270649194717407,2.4049674055949377,2.387632527329751,-0.9332172033729758
6.280529260635376,2.403404215861044,2.3878891718405995,0.695008480947571
6.292543888092041,2.4014502286936774,2.3881417737508355,2.035113005708235
6.306566953659058,2.399300842809574,2.388390156895836,3.279439660996248
6.314562797546387,2.397933051792417,2.388633803022873,4.217150501877401
6.322563648223877,2.3965652607752603,2.3888709708045917,5.0
6.343963623046875,2.3930480838740005,2.3891010935914325,4.8636333040164
6.361560106277466,2.3907032992731603,2.3893265514305653,5.0
6.3755574226379395,2.3889447108225306,2.3895498732294316,5.0
6.391838312149048,2.3873815210886367,2.3897720921850243,5.0
6.402457237243652,2.3864045275049537,2.3899935390311353,5.0
6.424589157104492,2.38484133777106,2.3902147440774217,5.0
6.4325244426727295,2.384450540337587,2.3904361614893044,5.0
6.445704698562622,2.3838643441873772,2.390656973244068,5.0
6.466493844985962,2.3832781480371668,2.390877187504416,5.0
6.480536699295044,2.38308274932043,2.3910982576150377,5.0
6.495539903640747,2.3828873506036934,2.3913206812134216,5.0
6.510540723800659,2.3828873506036934,2.391544112430895,5.0
6.525504112243652,2.3828873506036934,2.391768217257851,5.0
6.5385260581970215,2.3828873506036934,2.391992670533316,5.0
6.553520679473877,2.382691951886957,2.392217153143498,4.567775921216697
6.562248468399048,2.382691951886957,2.392440784086942,3.770748369731438
6.589420795440674,2.3828873506036934,2.3926633859516104,2.9624403543815694
6.599568605422974,2.3828873506036934,2.392886183455106,1.9924909086525147
6.615498065948486,2.382691951886957,2.3931095080425675,1.130873426126049
6.627858400344849,2.3828873506036934,2.3933329863849653,0.45427567631733473
6.640048265457153,2.3828873506036934,2.393556074044225,-0.039643455208416695
6.650392293930054,2.3828873506036934,2.393777654699632,-0.38041971519465667
6.669152498245239,2.3828873506036934,2.3939970560863135,-0.6025714445654552
6.6819984912872314,2.3828873506036934,2.394214257202836,-0.7370863891628441
6.695450782775879,2.3828873506036934,2.3944290594504287,-0.8089794129197372
6.70346736907959,2.3828873506036934,2.3946405175900574,-0.8373407506971458
6.725525140762329,2.3828873506036934,2.394847846053007,-0.836248142403084
6.733519792556763,2.3828873506036934,2.395050900466228,-0.8158439813410452
6.755557537078857,2.3828873506036934,2.395249611699047,-0.7833081631134116
6.773234844207764,2.3828873506036934,2.3954446389948343,-0.7436480587843488
6.791464567184448,2.38308274932043,2.3956371180105025,-0.7003055774477323
6.806527376174927,2.3828873506036934,2.3958277643722004,-0.6556087752392684
6.814516544342041,2.3828873506036934,2.396016246448682,-0.6111009688268079
6.835416555404663,2.3828873506036934,2.3962020645136306,-0.5677772906531051
6.846085548400879,2.3828873506036934,2.3963857561239275,-0.5262530731374495
6.859425783157349,2.3828873506036934,2.3965678709178726,-0.48688284640400886
6.871880531311035,2.3828873506036934,2.3967485803565367,-0.44984395362494817
6.888428211212158,2.3828873506036934,2.396928107418772,-0.4151950125637196
6.9025068283081055,2.3828873506036934,2.3971070333595037,-0.38291659460650274
6.920070648193359,2.3828873506036934,2.397286113355255,-0.3529393853653695
6.931442022323608,2.3828873506036934,2.397465747889699,-0.32516356246224676
6.945146560668945,2.3828873506036934,2.3976457934690667,-0.29947202956200936
6.963782548904419,2.3828873506036934,2.397826628593608,-0.2757393649390025
6.9750823974609375,2.3828873506036934,2.398009312946796,-0.2538377898003666
6.991053104400635,2.3828873506036934,2.39819433218348,-0.23364107127443517
7.000103235244751,2.3828873506036934,2.3983813771254074,-0.21502700024242777
7.018080472946167,2.3828873506036934,2.3985698611265285,-0.1978788911966365
7.033440351486206,2.3828873506036934,2.3987597855439926,-0.18208641593474745
7.047506093978882,2.3828873506036934,2.398951282298789,-0.16754598805981696
7.063469171524048,2.3828873506036934,2.3991439634953795,-0.15416084888300585
7.078484535217285,2.3828873506036934,2.3993372954612853,-0.1418409589239875
7.099949359893799,2.3828873506036934,2.3995312001171656,-0.13050276679822384
7.1155760288238525,2.3828873506036934,2.3997259577076036,-0.12006890467708493
7.123584985733032,2.3828873506036934,2.3999207633427124,-0.11046784376432617
7.146572589874268,2.3828873506036934,2.4001143473341915,-0.10163353228891836
7.162542104721069,2.3828873506036934,2.4003064759749746,-0.09350503092519785
7.175569772720337,2.3828873506036934,2.400496875240831,-0.08602615530544516
7.198524713516235,2.3828873506036934,2.4006849673097994,-0.07914513167933789
7.2135703563690186,2.3828873506036934,2.400870486284241,-0.0728142693039927
7.235594987869263,2.3828873506036934,2.4010531325498534,-0.06698965147106073
7.251452445983887,2.3828873506036934,2.401232510929056,-0.06163084595139004
7.266580581665039,2.3828873506036934,2.401407973037666,-0.05670063489391021
7.2805867195129395,2.3828873506036934,2.40157868579398,-0.052164763735450106
7.295688629150391,2.3828873506036934,2.401743933648716,-0.047991708379756304
7.318449974060059,2.3828873506036934,2.40190323673753,-0.044152459729578084
7.333431720733643,2.3828873506036934,2.4020562911162937,-0.04062032456535482
7.347375154495239,2.3828873506036934,2.402202651099058,-0.037370741730027135
7.368030786514282,2.3828873506036934,2.402341782740821,-0.03438111258255584
7.375581979751587,2.3828873506036934,2.4024732092330288,-0.03163064470960317
7.390563011169434,2.3828873506036934,2.4025964647172353,-0.029100207926391206
7.408082485198975,2.3828873506036934,2.402711091735288,-0.026772201647769438
7.419562101364136,2.3828873506036934,2.4028166791653676,-0.024630432764790544
7.42786717414856,2.3828873506036934,2.402913021578823,-0.02266000321779716
7.455826759338379,2.3828873506036934,2.402999700323005,-0.020847206512306243
7.4685211181640625,2.3828873506036934,2.4030757387088824,-0.019179432477674757
7.482494115829468,2.3828873506036934,2.403140323887878,-0.017645079619907945
7.495543479919434,2.3828873506036934,2.403193038095962,-0.01623347446862829
7.5182952880859375,2.3828873506036934,2.4032330423806605,-0.014934797363957145
7.526540994644165,2.3828873506036934,2.4032595911037906,-0.013740014171813902
7.549491882324219,2.3828873506036934,2.4032724025542986,-0.012640813455950166
7.55756139755249,2.3828873506036934,2.4032712136069962,-0.011629548671991107
7.577401399612427,2.38308274932043,2.4032557816248272,-0.010699184982993683
7.591414451599121,2.3828873506036934,2.4032251549592236,-0.009843250327687493
7.612494468688965,2.3828873506036934,2.403177702578665,-0.009055790401805808
7.626285076141357,2.3828873506036934,2.4031118926554016,-0.00833132723989466
7.634414434432983,2.3828873506036934,2.403028128422951,-0.007664821109866416
7.651719808578491,2.38308274932043,2.4029280931765262,-0.00705163545549143
7.668489933013916,2.3828873506036934,2.4028114064120185,-0.0064875046431421435
7.682538986206055,2.3828873506036934,2.4026765613850762,-0.0059685042885537845
7.690535545349121,2.3828873506036934,2.402524358241987,-0.005491023957273597
7.720206022262573,2.3828873506036934,2.402355147366688,-0.00505174204895459
7.733628749847412,2.3828873506036934,2.4021661321395196,-0.004647602690822234
7.748938798904419,2.3828873506036934,2.4019558831308667,-0.004275794479605269
7.762789249420166,2.3828873506036934,2.401725090800716,-0.003933730924071018
7.776527166366577,2.3828873506036934,2.401474599303572,-0.003619032452129252
7.786551237106323,2.3828873506036934,2.40120631681487,-0.0033295098573476534
7.805428504943848,2.3828873506036934,2.400921959054486,-0.0030631490697319635
7.820517539978027,2.3828873506036934,2.400621368201403,-0.0028180971448338895
7.835447072982788,2.3828873506036934,2.4003045005450785,-0.0025926493737235146
7.856518268585205,2.3828873506036934,2.3999707744383336,-0.002385237424159075
7.864936828613281,2.3828873506036934,2.3996195803364855,-0.002194418430459754
7.883786678314209,2.3828873506036934,2.399251949699506,-0.0020188649561863605
7.891528844833374,2.3828873506036934,2.3988693041923175,-0.0018573557598058205
7.899517297744751,2.3828873506036934,2.398476090605001,-0.0017087672991014154
7.907444715499878,2.38308274932043,2.398079034018344,-0.00157206591522934
7.915366888046265,2.3828873506036934,2.3976838712499147,-0.0014463006420502207
7.923445224761963,2.3828873506036934,2.3972954290799358,-0.0013305965907136612
7.931393384933472,2.3828873506036934,2.396917702191635,-0.0012241488634757896
7.939529657363892,2.3828873506036934,2.396553929860468,-0.001126216954411184
7.9475202560424805,2.3828873506036934,2.396206670591871,-0.0010361195980677093
7.955520868301392,2.3828873506036934,2.3958778740573043,-0.0009532300302288861
7.963523864746094,2.3828873506036934,2.395568949813725,-0.0008769716278151895
7.9715256690979,2.3828873506036934,2.3952808324127552,-0.0008068138975932042
7.979526996612549,2.3828873506036934,2.3950140426133695,-0.0007422687857880101
7.9875617027282715,2.3828873506036934,2.394768744506557,-0.0006828872829265521
7.995522737503052,2.3828873506036934,2.3945447984429578,-0.0006282563002935359
8.00354528427124,2.3828873506036934,2.39434180972565,-0.0005779957962708294
8.011538982391357,2.3828873506036934,2.3941591730909733,-0.0005317561325697053
8.019533634185791,2.3828873506036934,2.3939961130513017,-0.0004892156419645088
8.02755093574524,2.3828873506036934,2.3938517202158742,-0.0004500783906076155
8.035392999649048,2.3828873506036934,2.393724983739976,-0.00041407211935919183
8.043434143066406,2.3828873506036934,2.3936148200797147,-0.000380946349810587
8.051364421844482,2.3828873506036934,2.3935200982501432,-0.00035047064182583117
8.059456586837769,2.3828873506036934,2.3934396617992415,-0.0003224329904798284
8.067451000213623,2.3828873506036934,2.3933723477200286,-0.00029663835124148707
8.075460195541382,2.3828873506036934,2.393317002528418,-0.00027290728314219987
8.083433389663696,2.3828873506036934,2.393272495736017,-0.00025107470049084556
8.091431379318237,2.3828873506036934,2.3932377309454465,-0.00023098872445159323
8.099438905715942,2.3828873506036934,2.3932116547914135,-0.00021250962649547653
8.10743761062622,2.3828873506036934,2.3931932639442373,-0.00019550885637584597
8.115432262420654,2.3828873506036934,2.3931816103841657,-0.00017986814786578355
8.123431205749512,2.3828873506036934,2.393175805145068,-0.0001654786960365244
8.131444215774536,2.3828873506036934,2.3931750207152676,-0.0001522404003536052
8.139433145523071,2.3828873506036934,2.393178492271692,-0.0001400611683253187
8.147435426712036,2.3828873506036934,2.393185517911429,-0.00012885627485929437
8.155351638793945,2.3828873506036934,2.393195458032448,-0.00011854777287055151
8.163439273834229,2.382691951886957,2.3932077340028384,-0.00010906395104090793
8.171438694000244,2.382691951886957,2.3932218262456297,-0.00010033883495763592
8.179359912872314,2.382691951886957,2.3932372718542,-9.231172816102543e-05
8.188002586364746,2.382691951886957,2.393253258805673,-8.492678990814353e-05
8.215335845947266,2.382691951886957,2.3932637821774074,-0.2761164923253964
8.23333740234375,2.3824965531702205,2.393256011935346,-0.3092348448751009
8.309818744659424,2.38191035702001,2.393205109264425,-0.5301701973991189
8.376330137252808,2.3809333634363266,2.393067100239052,-0.7632428645665129
8.427311420440674,2.380347167286117,2.39279711967998,-0.6707426662337905
8.465308904647827,2.3797609711359065,2.392367852190421,-0.7589724905771229
8.511800289154053,2.37897937626896,2.3917636495744303,-0.6034876860313052
8.552393198013306,2.3783931801187506,2.3909715976944153,-0.6678653912931921
8.589327335357666,2.37780698396854,2.3899831630214603,-0.5067543163392018
8.608157396316528,2.3772207878183305,2.3888015085642977,-0.2975659066008871
8.665237188339233,2.3764391929513833,2.387430187731861,-0.10907160203308816
8.702857971191406,2.375657598084437,2.3858599852847475,0.038254142026318536
8.714472770690918,2.375266800650963,2.3840952450275275,-0.13216569115226118
8.735437393188477,2.3748760032174903,2.382165332744614,-0.09489548392503343
8.749477863311768,2.374485205784017,2.3801029538204515,0.003308322746791402
8.764447927474976,2.374094408350543,2.3779396218024087,-0.17360403437951438
8.777322053909302,2.37370361091707,2.3757062512971276,-0.40340719998226293
8.801470279693604,2.37311741476686,2.3734265002164014,-0.3256993583714376
8.814950704574585,2.3727266173333863,2.3711180411423247,-0.1598290700434425
8.829995155334473,2.3723358198999134,2.368799514852551,0.004832120185685962
8.840500593185425,2.3721404211831767,2.3664896905935686,0.1377603692412163
8.856472253799438,2.3717496237497033,2.364203701645118,0.23356111948740155
8.872414827346802,2.3713588263162304,2.361952895109293,0.29640193913635693
8.885460615158081,2.3709680288827566,2.3597465261710435,0.3331330821300631
8.89846920967102,2.3705772314492832,2.35759246249266,0.3504803950864141
8.921581745147705,2.369404839148863,2.355492979004375,0.07804600088931725
8.931880950927734,2.3686232442819164,2.353447826912423,-0.7889488394817814
8.950369596481323,2.3668646558312867,2.3514594510486995,-1.6731957377766127
8.965460538864136,2.3653014660973932,2.3495280332502397,-2.926989258550915
8.97945237159729,2.3633474789300264,2.34765284857933,-4.30247051139256
9.002603769302368,2.35963490331203,2.3458309064341987,-5.0
9.014394998550415,2.3574855174279263,2.3440568715132444,-5.0
9.030407905578613,2.354163739243403,2.3423291717676933,-5.0
9.045284748077393,2.351232758492353,2.340645790140255,-5.0
9.060466289520264,2.3479109803078297,2.339004298555481,-5.0
9.077455520629883,2.344003005973096,2.337402906826269,-5.0
9.096975088119507,2.339313436771416,2.3358353911588376,-4.895287769011473
9.104758977890015,2.3373594496040493,2.3342973685569937,-4.265234591558755
9.118375301361084,2.334037671419526,2.3327926765410263,-2.982472198604503
9.137941122055054,2.3295435009345824,2.3313203056398013,-1.4214342668581297
9.151664018630981,2.326417121466796,2.329870747760521,0.5017451119071507
9.167446374893188,2.323290741999009,2.3284377404851675,2.4461473729829
9.18343472480774,2.320359761247959,2.3270194188376383,4.826708283118481
9.197311639785767,2.317819577930382,2.32561462701128,5.0
9.209365367889404,2.3156701920462788,2.3242222059458615,5.0
9.223307132720947,2.3135208061621757,2.322840851376048,5.0
9.236466407775879,2.311566818994809,2.321469151792349,5.0
9.248367547988892,2.309808230544179,2.3201056219248817,5.0
9.264458179473877,2.3076588446600756,2.318748732007332,5.0
9.277400493621826,2.3057048574927084,2.3173969330934185,5.0
9.2913498878479,2.303946269042079,2.316048678707282,5.0
9.309011936187744,2.3019922818747123,2.314700360487993,5.0
9.328442096710205,2.2998428959906088,2.3133440122778346,5.0
9.343451499938965,2.298475104973452,2.3119722054089493,4.878615224142747
9.356167316436768,2.297498111389769,2.3105833348623372,4.6694755095387865
9.369449377059937,2.2965211178060856,2.309178700820403,4.415781544318703
9.377683401107788,2.295934921655875,2.3077639854041383,3.8669152255815296
9.398409605026245,2.2945671306387183,2.306343942361945,4.109000105900981
9.41344141960144,2.2939809344885087,2.3049133595471387,3.68235206474911
9.42832612991333,2.293199339621562,2.3034672159158123,3.0772469259253357
9.442185640335083,2.292613143471352,2.3020054594944077,2.4927216149166123
9.464363813400269,2.2916361498876685,2.300523988874314,1.995970158177039
9.478352546691895,2.291245352454195,2.2990149119888508,1.5979130173944749
9.493003606796265,2.290659156303985,2.2974762627641407,1.0120529872113617
9.511245965957642,2.290072960153775,2.2959089502321346,0.7409275562082108
9.523398399353027,2.289877561437039,2.2943131156969274,0.3377310076784024
9.543834924697876,2.2892913652868283,2.2926889535950847,-0.03543786856643302
9.558437824249268,2.288900567853355,2.291032858450671,-0.6036488531048786
9.572246313095093,2.2883143717031453,2.2893437719276823,-0.8434211635356386
9.585718393325806,2.2881189729864087,2.2876256663822105,-1.197796787638116
9.593226671218872,2.2879235742696715,2.2858883853627776,-1.5073697487117754
9.607220888137817,2.2875327768361986,2.2841437102007847,-1.7256089527016112
9.624213457107544,2.2869465806859886,2.282390093900113,-1.852265930719956
9.634395837783813,2.286751181969252,2.280622999992384,-1.9031414149833707
9.65231204032898,2.286164985819042,2.2788442560222566,-1.8971112192678432
9.666404247283936,2.285969587102305,2.277051818353536,-1.575099437475155
9.680341720581055,2.2855787896688318,2.27524392303267,-1.4696609899352118
9.693343162536621,2.2849925935186217,2.2734218700868736,-1.436356529178012
9.706348419189453,2.2846017960851484,2.271586726046908,-1.6914091410372685
9.721348524093628,2.283624802501465,2.269739788085715,-2.246594184012008
9.734345436096191,2.282257011484308,2.26788208660753,-3.042015941111261
9.74734377861023,2.280889220467152,2.2660144115258243,-4.003197954695092
9.763313293457031,2.278935233299785,2.2641373375977483,-5.0
9.778581619262695,2.276981246132418,2.262250295351043,-5.0
9.790321826934814,2.2752226576817884,2.2603527068013363,-5.0
9.813878774642944,2.2705330884801085,2.2584393256324202,-5.0
9.827384948730469,2.267602107729058,2.2564995528847733,-5.0
9.839351415634155,2.264671126978008,2.25453252587275,-5.0
9.85534119606018,2.260958551360011,2.252543164381617,-5.0
9.871228456497192,2.2574413744587516,2.250530714048887,-5.0
9.88525104522705,2.2539241975574913,2.248495092769,-5.0
9.902783155441284,2.2500162232227576,2.2464361968542796,-4.626114612097945
9.921242952346802,2.2459128501712877,2.244346952265923,-3.170784227996594
9.934534072875977,2.2429818694202375,2.242219581328575,-1.0536151980049764
9.942255735397339,2.2414186796863445,2.2400618544247086,1.1630855023196047
9.962369680404663,2.2373153066348745,2.237884896447443,3.2527436010806206
9.970339059829712,2.2359475156177178,2.235691070086614,4.3133493008032096
9.9913489818573,2.232234939999721,2.2334823427807615,5.0
10.007341623306274,2.229499357965407,2.2312529015851283,5.0
10.01831316947937,2.227936168231514,2.2289978469297727,5.0
10.03230905532837,2.225591383630674,2.2267204084785113,5.0
10.046323537826538,2.223441997746571,2.2244233520042824,5.0
10.060292720794678,2.221488010579204,2.2221090136018082,5.0
10.07331132888794,2.2195340234118373,2.2197793341880345,4.820228379793442
10.085249423980713,2.217970833677944,2.2174358937992755,4.552242787755881
10.099314212799072,2.2160168465105774,2.2150799452724343,3.9761042861441314
10.113691568374634,2.2140628593432106,2.2127124469693364,3.6385319712006603
10.127320528030396,2.2123042708925804,2.2103340942682554,3.3982543245492445
10.143848896026611,2.210350283725214,2.2079438472973254,3.1941792620570317
10.153247356414795,2.209177891424794,2.2055407130182525,2.450128823035569
10.167311429977417,2.2076147016909005,2.2031267539429953,2.19625106966672
10.175318002700806,2.2068331068239537,2.2007118593772406,1.8460523217033642
10.193943500518799,2.20468372093985,2.1983026296307004,1.7852617074119044
10.20130968093872,2.2039021260729035,2.195896160540896,1.255710869031843
10.221256256103516,2.2017527401888004,2.1934896850740944,1.2128420867164387
10.229748725891113,2.200775746605117,2.191079325460023,0.768199170695825
10.242552757263184,2.19940795558796,2.1886682863513487,0.2694487476177153
10.253329753875732,2.198430962004277,2.1862615332516513,0.12084326235918008
10.271043300628662,2.1962815761201737,2.183852108252479,-0.1642689895493195
10.282469511032104,2.1945229876695436,2.1814300080825197,-0.9892705839392424
10.300352334976196,2.191982804351967,2.178988157726291,-1.8194949966668443
10.31540036201477,2.189638019751127,2.176516788625853,-3.023901297878279
10.330214738845825,2.18651164028334,2.174010339017336,-5.0
10.345743894577026,2.183189862098817,2.1714691377322763,-5.0
10.357229709625244,2.1804542800645033,2.1688936229172993,-5.0
10.374838590621948,2.17596010957956,2.1662835819626287,-5.0
10.385397911071777,2.173419926261983,2.163638989383803,-5.0
10.397384881973267,2.17009814807746,2.16096552181999,-5.0
10.41346549987793,2.165603977592516,2.1582684108017296,-5.0
10.426189184188843,2.1620868006912564,2.1555486382224998,-5.0
10.448319435119629,2.155638643038946,2.15279660907679,-4.83637068985002
10.463242053985596,2.1513398712707392,2.149994536964235,-3.87676743390009
10.47146725654602,2.148995086669899,2.147145324373267,-2.5206256171475228
10.490366697311401,2.1443055174682195,2.144261372063238,-0.7121411022364255
10.503507614135742,2.1413745367171693,2.1413383231181395,1.1829697565541608
10.519332647323608,2.1380527585326456,2.1383726931360374,3.2837843171824153
10.539054155349731,2.1335585880477024,2.1353618895363726,5.0
10.55012321472168,2.1310184047301255,2.132300179669416,5.0
10.56025767326355,2.1288690188460224,2.129197088211345,5.0
10.575363159179688,2.125938038094972,2.1260685271178845,5.0
10.588232517242432,2.1235932534941324,2.1229211441035583,5.0
10.601383209228516,2.1210530701765555,2.11975667427358,5.0
10.616544246673584,2.118317488142242,2.116574511483633,5.0
10.636293888092041,2.114995709957719,2.1133632537267486,5.0
10.644912242889404,2.113627918940562,2.1101152686756124,4.71258540501354
10.664448022842407,2.1103061407560384,2.1068349016716272,4.224182829573806
10.678374767303467,2.108352153588672,2.103516923006909,3.713168419806741
10.692385911941528,2.106398166421305,2.100157075679115,3.2474077162043544
10.708255767822266,2.1042487805372017,2.0967608524416907,3.121782706755708
10.721263647079468,2.1024901920865715,2.09333304561693,3.0920887501386956
10.735336542129517,2.100731603635942,2.0898777921277314,2.5097446599316653
10.749303579330444,2.0989730151853117,2.0863986200910194,1.829975667928817
10.764364957809448,2.096628230584472,2.08289849612869,1.2260322580131149
10.780622959136963,2.0938926485501583,2.0793777130835087,0.19446482695998601
10.799904346466064,2.090375471648898,2.0758246796476136,-1.3332100242802363
10.814390897750854,2.087639889614585,2.07222214038891,-2.9904130824723616
10.828216552734375,2.084513510146798,2.0685674264636384,-4.338570685256824
10.846730947494507,2.080410137095328,2.064864133149147,-5.0
10.858391761779785,2.077283757627541,2.061115597310822,-5.0
10.873497247695923,2.0731803845760712,2.0573306810059515,-5.0
10.884367942810059,2.0702494038250214,2.0535170154121927,-5.0
10.898552417755127,2.0659506320568144,2.049680679372424,-5.0
10.914642810821533,2.060870265421661,2.045822604211175,-5.0
10.931070804595947,2.0555945000697706,2.0419342256481263,-5.0
10.944698572158813,2.0511003295848274,2.03800870586147,-5.0
10.954450130462646,2.0475831526835675,2.0340553344057377,-5.0
10.97413444519043,2.0399626027308373,2.0300809255826473,-4.992006169106192
10.98936676979065,2.0344914386622106,2.026073131868665,-4.553719297465371
11.004215955734253,2.0286294771601106,2.022026317703145,-4.005507940746176
11.017214059829712,2.0237445092416935,2.017946777848734,-3.2019566026407364
11.030628204345703,2.01866414260654,2.0138399190343543,-2.1543987058585867
11.045222997665405,2.013583775971387,2.009710326623154,-0.6493771937434623
11.060285806655884,2.0085034093362335,2.0055618316640804,0.7247860415318713
11.08259105682373,2.0014690555337133,2.001384027619283,3.1672162628575053
11.098256826400757,1.9965840876152965,1.9971545170459235,5.0
11.113231897354126,1.99228531584709,1.9928680663854712,5.0
11.127260446548462,1.9883773415123565,1.9885341096861584,5.0
11.144139289855957,1.9836877723106763,1.984156248252553,5.0
11.162845849990845,1.978607405675523,1.9797236907124165,5.0
11.173133850097656,1.9758718236412094,1.9752306991344148,5.0
11.183590173721313,1.9735270390403694,1.970697305970377,5.0
11.196207523345947,1.9707914570060558,1.9661485384687607,5.0
11.217681407928467,1.9662972865211126,1.961584313409136,5.0
11.231652975082397,1.9635617044867992,1.9569836498127011,5.0
11.243938207626343,1.9610215211692226,1.952345976503994,4.856341653468821
11.256201028823853,1.9586767365683826,1.9476890775839042,4.204662559245015
11.270559072494507,1.9559411545340692,1.9430160173463793,3.73880222113446
11.281345129013062,1.953791768649966,1.9383293380716073,3.100385000401147
11.291221380233765,1.9518377814825991,1.93365024083124,2.214460755719081
11.313253402709961,1.9469528135641823,1.9289846225055687,0.8385146073891253
11.326178789138794,1.9440218328131322,1.924308216483789,-0.443851001021405
11.338602781295776,1.9407000546286088,1.9196080035823357,-2.2752230770037345
11.348218441009521,1.938159871311032,1.9148980410419718,-3.908111864183405
11.360785245895386,1.9342518969762987,1.9102025104482652,-5.0
11.37900424003601,1.9285853341909356,1.9055209761075709,-5.0
11.392141103744507,1.9242865624227286,1.900830417673296,-5.0
11.408264875411987,1.918619999637365,1.8961213289478223,-5.0
11.423255443572998,1.9131488355687383,1.8913923250724731,-5.0
11.438262224197388,1.907873070216848,1.8866421583383015,-5.0
11.453173875808716,1.9018157099980113,1.8818725923564268,-5.0
11.467261552810669,1.8963445459293846,1.8770850369768441,-5.0
11.487702369689941,1.8875516036762345,1.8722644944882132,-5.0
11.501507043838501,1.8816896421741343,1.8673822052852496,-4.985324507315267
11.514957904815674,1.8762184781055076,1.8624302459511852,-4.254673294439919
11.531251430511475,1.8691841243029876,1.8574184996074519,-3.381245550576214
11.542922019958496,1.8639083589510974,1.8523624705864155,-2.035143369104107
11.559228897094727,1.8574602012987873,1.8472755185023704,-0.4921393530938447
11.581621646881104,1.8482764616121639,1.8421401969759317,0.5509636031541703
11.595079898834229,1.8424145001100636,1.8369253165637105,1.5043356529124838
11.606028079986572,1.8377249309083836,1.8316340452519415,2.229621633492081
11.61874771118164,1.83264456427323,1.8262932073110447,2.7169041038840973
11.627871990203857,1.8293227860887067,1.8209265549544684,3.554439644731912
11.64329481124878,1.8236562233033433,1.8155524154263751,4.302971645768725
11.65522813796997,1.8191620528184,1.8101798673457967,5.0
11.670746088027954,1.8136908887497734,1.8048118854252895,5.0
11.691298723220825,1.8068519336639899,1.799432070778421,5.0
11.706309080123901,1.8017715670288363,1.7940128979097496,5.0
11.72022533416748,1.7968865991104195,1.7885484272962864,5.0
11.735215187072754,1.7920016311920028,1.783046675056633,5.0
11.75029993057251,1.7875074607070596,1.7775146002802455,4.60134440327265
11.770700693130493,1.7806685056212759,1.7719410974541279,4.160513035673482
11.783840894699097,1.7761743351363324,1.7662991987319212,3.739932873269306
11.79166030883789,1.7736341518187557,1.7605995309929396,3.3609046353155456
11.805679559707642,1.7689445826170758,1.7548838434017549,2.4748639072648406
11.82299017906189,1.7626918236815023,1.7491582313573033,1.0121378094879563
11.838787317276001,1.7570252608961388,1.7433984110775838,-0.3705086724768797
11.852819919586182,1.7519448942609854,1.7375938807025835,-1.4602205825072905
11.867697477340698,1.7462783314756218,1.7317506952719812,-2.507078010157561
11.881171703338623,1.7411979648404683,1.7258775401498363,-3.58718680678471
11.89521861076355,1.7359221994885783,1.719981870343685,-3.8776589118244837
11.909834861755371,1.7298648392697418,1.7140706909608934,-4.364223114631057
11.923180341720581,1.7241982764843784,1.7081498539350535,-4.493072737330943
11.936245918273926,1.7187271124157517,1.7022227937239616,-3.8762632447182153
11.951223134994507,1.7126697521969145,1.6962922278081296,-3.366068521313376
11.964226961135864,1.7073939868450245,1.6903609194765823,-2.946747928784506
11.977200984954834,1.7021182214931343,1.6844309531878117,-2.3249603841541964
11.99011492729187,1.696451658707771,1.6785038151958775,-1.7282185898170743
12.005226850509644,1.690003501055461,1.6725804695298552,-1.2321838449206024
12.028208494186401,1.680428963935364,1.6666423957080634,-0.5719988056567088
12.04239797592163,1.674567002433264,1.6606547781492242,-0.2535669030773621
12.056116104125977,1.668509642214427,1.6546074819117806,0.44943795019379573
12.071127653121948,1.6616706871286435,1.6485114401158545,0.8612727563851272
12.083173751831055,1.6569811179269638,1.6423762919939904,1.090766921163861
12.096213102340698,1.6519007512918102,1.6362104609693295,1.2048543050457288
12.111206293106079,1.6456479923562366,1.6300212364783482,1.2456458508807549
12.126224279403687,1.6391998347039267,1.6238148578997775,1.2401379929453875
12.141198873519897,1.6331424744850898,1.6175965991769083,1.2058865640884477
12.154209852218628,1.6274759116997264,1.611370852929554,1.1544168381084665
12.177202224731445,1.617705975862893,1.6051215534268062,1.0933290663337616
12.19111180305481,1.6116486156440561,1.598815494279589,1.0276310116542764
12.205207109451294,1.605786654141956,1.5924446762652429,0.9605995041288301
12.220177173614502,1.5997292939231191,1.58602257729573,0.8943474171671935
12.23397421836853,1.5940627311377558,1.5795610594476168,0.830202031143771
12.250722885131836,1.5866375799017622,1.573063821468211,0.7689602017932781
12.262203693389893,1.5819480107000823,1.5665342616131595,0.7110617428464698
12.276180505752563,1.5758906504812455,1.5599858104878461,0.6567078154553876
12.28713583946228,1.5712010812795654,1.5534298856668218,0.6059419796441736
12.3011953830719,1.565339119777465,1.5468753458570532,0.5587057143699906
12.314181327819824,1.5600633544255753,1.5403294875407216,0.5148763926384133
12.328121185302734,1.5540059942067386,1.5337952283203151,0.4742931611449138
12.342198848724365,1.5481440327046383,1.527274716221368,0.4367744667580614
12.356194257736206,1.5426728686360116,1.5207694246720824,0.4021298116520077
12.377722024917603,1.533489128949388,1.5142599052316916,0.3701675239246006
12.390443086624146,1.528213363597498,1.5077152762735222,0.34069978287437
12.406020641326904,1.5213744085117145,1.5011299881605373,0.31354575925909145
12.414294242858887,1.5178572316104544,1.4945283922417791,0.2885334680337383
12.43614649772644,1.5088688906405676,1.487931152246396,0.2655007483543631
12.449241876602173,1.503202327855204,1.4813207011937604,0.24429565847158835
12.46429181098938,1.496754170202894,1.474682223176417,0.2247764845594738
12.472238779067993,1.4936277907351074,1.468044443662593,0.20681150081841668
12.494278907775879,1.4844440510484838,1.461431522190015,-0.08575978446530334
12.510447263717651,1.4779958933961739,1.4548131215785725,-0.13409827754949696
12.521265029907227,1.4733063241944937,1.4481635440805671,-0.09300031852892263
12.544190406799316,1.4631455909241868,1.441479572896502,-0.30583479000073144
12.560202360153198,1.456697433271877,1.4347380924771174,-0.004250217674235668
12.568417072296143,1.4531802563706164,1.4279478321717571,0.12968886094677778
12.58994174003601,1.4443873141174666,1.4211273871976569,0.18264139932526544
12.600247144699097,1.439893143632523,1.4142604913305523,0.19726359266181703
12.614087343215942,1.434031182130423,1.4073539335428036,0.19439803504899555
12.627097368240356,1.428755416778533,1.4004300377649004,0.1841131011563571
12.645053386688232,1.4213302655425393,1.3934846800922687,0.17118390832727282
12.661152839660645,1.414491310456756,1.3864936946017983,0.1578056038583483
12.67522931098938,1.4086293489546555,1.3794425509860757,-0.13110746363455889
12.689032554626465,1.4029627861692924,1.3723405421033366,0.09980076692341133
12.705177783966064,1.396123831083509,1.3652038670574993,-0.09905543691260751
12.71916389465332,1.3904572682981455,1.358046627650685,0.1547522747056237
12.734233140945435,1.3843999080793088,1.350880974101247,0.22819891491747227
12.748305797576904,1.3781471491437352,1.3437172535604218,0.22687604151728136
12.771239519119263,1.3685726120236386,1.3365431937435355,0.19900621818173264
12.786028861999512,1.3625152518048016,1.3293275535596107,0.16549546878267546
12.801251649856567,1.3560670941524915,1.3220653878171769,0.13454943795156735
12.81523323059082,1.3498143352169178,1.3147740639151047,0.10869439910182722
12.836698770523071,1.3412167916805044,1.3074476619893265,0.08808678426231295
12.844167709350586,1.3384812096461913,1.3000816266520678,0.07202724536245138
12.865620374679565,1.3292974699595674,1.2926935999933045,0.0596191723618189
12.879148006439209,1.3238263058909407,1.2852778235813478,0.05002897518245655
12.890567302703857,1.3191367366892608,1.277833684082695,0.042567923779482535
12.898451328277588,1.315619559788001,1.2704014288423877,0.03669924199770685
12.912173509597778,1.3097575982859004,1.2630281498069964,0.03201796186846529
12.934174537658691,1.300573858599277,1.2557141267271195,0.02822425275353397
12.946182012557983,1.2954934919641234,1.2484208449794119,0.3011368148826649
12.956622123718262,1.2913901189126538,1.241146530252649,0.0556050484118908
12.965562343597412,1.287677543294657,1.2339297886792415,-0.03484365714089519
12.984046936035156,1.2800569933419268,1.2267839694705107,0.21828612054142743
12.995163202285767,1.2751720254235102,1.2196908284606278,0.25529571894052683
13.011924266815186,1.2685284690544634,1.2126374216199112,0.21261924728732662
13.025854110717773,1.262666507552363,1.205611605448668,0.14984095972401917
13.03928518295288,1.256804546050263,1.1986097734128087,0.09071967055790749
13.05414366722107,1.2511379832648997,1.191638688105988,0.04292034377061251
13.070138454437256,1.2441036294623793,1.1846968057447542,0.007333516833638504
13.087140321731567,1.236678478226386,1.1777763726998334,-0.0176473902355274
13.099067687988281,1.2321843077414425,1.1708744953693835,-0.03425505008134781
13.112077474594116,1.2267131436728156,1.1640008760420493,-0.044600008349515635
13.127159118652344,1.220069587303769,1.157158850568654,-0.05042763453853004
13.138139724731445,1.2157708155355622,1.150344778877199,0.2229500604709846
13.161083698272705,1.2061962784154654,1.1435438967457465,0.25557634645029614
13.171812534332275,1.201702107930522,1.1367360255584045,0.20141476822841303
13.191145658493042,1.1938861592610552,1.1299203862030793,0.1271812203771553
13.20515489578247,1.1880241977589552,1.123091266394226,0.0590626977524954
13.225767850875854,1.1786450593555948,1.116232004104491,0.005146980176425425
13.235129117965698,1.1747370850208614,1.1093419901092956,-0.03401321159672582
13.248142957687378,1.169656718385708,1.1024455029358726,-0.060573529085194366
13.265170812606812,1.162622364583188,1.0955542428064187,-0.0773033443822404
13.276129722595215,1.1583235928149813,1.0886660472681777,-0.08676143293457611
13.292796611785889,1.1508984415789878,1.0817837736225488,-0.09103985145489307
13.301721811294556,1.1473812646777275,1.0749076606988912,-0.09174503848868767
13.315130472183228,1.1423008980425742,1.0680559832832064,-0.09006471898546689
13.32811689376831,1.1370251326906842,1.061248539515037,-0.08685475045519007
13.344055891036987,1.129990778888164,1.0544836618642897,-0.08271987195341494
13.361310005187988,1.1225656276521707,1.0477439174729866,-0.07808016089278358
13.376671552658081,1.116312868716597,1.0410033292541063,-0.07322247691897377
13.391393899917603,1.1102555084977603,1.0342469065121978,-0.06833889589909009
13.40420913696289,1.10497974314587,1.0274780026517856,-0.06355478967335605
13.418091773986816,1.0995085790772434,1.0207079591714814,-0.05894903703821404
13.426644325256348,1.09560060474251,1.0139619988798332,-0.054568418815357796
13.43714427947998,1.09149723169104,1.0072781808442686,-0.05043779030987592
13.455302715301514,1.0836812830215732,1.0006630718898166,-0.32260558410443474
13.4687819480896,1.0782101189529465,0.9940907128632052,-0.35211996237068743
13.486033916473389,1.0707849677169528,0.9875425423459562,-0.5697051290964992
13.494038820266724,1.0674631895324294,0.9810275614116406,-0.5236330868004502
13.511234045028687,1.060038038296436,0.9745626202782927,-0.39513351419404596
13.524857997894287,1.0549576716612825,0.9681318153288322,0.016272766226060803
13.537372589111328,1.0496819063093925,0.9617199977041828,-0.11166417926965276
13.554091930389404,1.042842951223609,0.955329595081693,-0.11158329403624273
13.569190502166748,1.036394793571299,0.9489547254414864,0.20708132370479534
13.582194328308105,1.0309236295026722,0.9425926040249243,0.289260290379285
13.596044540405273,1.0254524654340456,0.9362466915367201,0.27620575025771166
13.609034538269043,1.0199813013654186,0.9299199404800665,0.2316519145677891
13.624046564102173,1.0133377449963719,0.9236148385630967,0.18264071151110325
13.637027502059937,1.0082573783612183,0.9173334513797246,0.13931467620496002
13.651132822036743,1.002590815575855,0.9110774639235775,0.10437943550817258
13.6669602394104,0.996142657923545,0.9048454286791285,0.07753117318197916
13.67910122871399,0.9910622912883915,0.8986360628101914,0.05745771365482675
13.701124429702759,0.9820739503185046,0.8924372107625503,0.042690205375276576
13.71603798866272,0.9756257926661944,0.8862200916222851,0.03192475750610883
13.727843999862671,0.9705454260310411,0.8799754912194555,0.02411031109409951
13.743480443954468,0.9642926670954678,0.8737149932793254,0.018441508236447773
13.759130001068115,0.9578445094431576,0.8674454516509729,0.014319377047482252
13.776763439178467,0.9502239594904275,0.8611676260936368,0.011306646537090743
13.788646221160889,0.945729789005484,0.8548839336449524,0.009087882083769337
13.801373720169067,0.9402586249368571,0.8486062736901696,0.0074372853619436765
13.814146041870117,0.9353736570184404,0.8423476129680583,0.28223236428118625
13.827037334442139,0.929707094233077,0.8361162202909184,0.31440673771212607
13.840116500854492,0.9240405314477135,0.8299176672771558,-0.017467127507314772
13.856345891952515,0.9175923737954035,0.8237512057365866,0.14877783370697625
13.867180109024048,0.91309820331046,0.8176160759016718,0.16600682071906347
13.881190061569214,0.9072362418083599,0.8115194689924721,0.1299870746571224
13.89616584777832,0.9013742803062598,0.8054672603492475,0.08210514340125413
13.909057855606079,0.8959031162376331,0.7994601642745411,0.03851589373070126
13.921082258224487,0.8908227496024795,0.7934984978614558,0.004128654243236666
13.934112071990967,0.8855469842505895,0.787582240267101,-0.020811506313537433
13.953578233718872,0.8773402381476494,0.7817040166920004,-0.037721338873116336
13.970764636993408,0.8703058843451292,0.7758401461959645,-0.048379881564764304
13.98538088798523,0.8632715305426091,0.7699676855385333,-0.05441982722875828
13.999298095703125,0.857995765190719,0.7640850617253399,-0.057171957046963706
14.013664245605469,0.8521338036886189,0.7582016487227485,-0.05765644201280924
14.027839660644531,0.8464672409032555,0.7523256963921576,-0.05662681588851392
14.041186809539795,0.840800678117892,0.7464643987916609,-0.05462575316610719
14.056107997894287,0.8347433178990552,0.7406239655618658,-0.05203658073844919
14.071170091629028,0.8284905589634819,0.7348096949951931,0.2269128189005426
14.085163354873657,0.8226285974613817,0.729026047582392,-0.012949847413774196
14.105694055557251,0.8136402564914949,0.7232602548691028,0.1779360251607822
14.117193460464478,0.8089506872898149,0.7174937115177913,0.19308101948786754
14.130393028259277,0.8036749219379247,0.7117324652003224,0.14644292986323643
14.139075517654419,0.8001577450366647,0.7059976824992514,0.0870146090765038
14.157507181167603,0.7925371950839345,0.7003047660139196,0.03371503949613226
14.174170732498169,0.785698239998151,0.694642571747717,-0.00788873444953049
14.184654712677002,0.7813994682299443,0.6889980105063981,-0.03772708033771691
14.20212459564209,0.7735835195604776,0.6833763351970895,-0.057654947708551244
14.210186004638672,0.7702617413759542,0.6777931794837607,-0.0699134868238204
14.232076168060303,0.7614687991228039,0.6722615972176815,-0.07653441796708053
14.256160736083984,0.7513080658524971,0.666751028356492,-0.0791636494105294
14.269638061523438,0.7460323005006069,0.6612230783170655,-0.07905803578336076
14.284339427947998,0.7399749402817702,0.6556773704443069,-0.07714317220332827
14.29808497428894,0.7343083774964068,0.6501240750214308,-0.07408383615213322
14.321768045425415,0.7241476442261,0.6445570930030312,-0.07034824778118863
14.33471965789795,0.7186764801574732,0.6389645979116975,-0.0662604889803932
14.344086647033691,0.7149639045394763,0.6333675276096153,-0.0620408796055789
14.36517858505249,0.7063663610030629,0.6277891918279991,-0.05783604957187159
14.380167245864868,0.6999182033507527,0.6222194689445641,-0.05374086359751935
14.400531768798828,0.6917114572478126,0.616644194462019,-0.049814177982286115
14.409143447875977,0.6881942803465526,0.6110667682858101,-0.04609004961372282
14.431978702545166,0.6788151419431923,0.6054976632629653,-0.318624008151956
14.447073698043823,0.6727577817243556,0.599931600875213,-0.3484697707754134
14.466297626495361,0.6645510356214154,0.5943624088245707,-0.566355961845241
14.475168943405151,0.660643061286682,0.5887997895577247,-0.5205581633506831
14.485495328903198,0.6563442895184753,0.5832737154987125,-0.39230900397019086
14.503044605255127,0.6493099357159552,0.5778094015985259,-0.25717013861910243
14.516469240188599,0.6436433729305918,0.5724020754226045,0.13363522898005342
14.531172513961792,0.6373906139950184,0.5670473053478707,0.2548702080327039
14.552146911621094,0.6287930704586048,0.5617372430963253,-0.01282792622170631
14.568162202835083,0.6225403115230315,0.5564514166458538,0.1973307770194078
14.584768295288086,0.6155059577205113,0.5511844024343341,-0.03301546036339316
14.603142499923706,0.6080808064845178,0.5459365775311295,-0.08500395832124896
14.61444902420044,0.603195838566101,0.5407059497046858,-0.0686634020724714
14.625402212142944,0.5981154719309476,0.5355072935795027,-0.03260163523155598
14.646137952804565,0.5906903206949541,0.530350736322632,0.003349845343069254
14.654242515563965,0.5873685425104307,0.5252352898366821,0.3084331939653364
14.666412591934204,0.5822881758752773,0.5201768280970345,0.3624716098544697
14.686290979385376,0.5740814297723372,0.5151808353451751,0.321056599066305
14.702052593231201,0.5674378734032904,0.5102314019377616,0.252921757749026
14.718054056167603,0.5607943170342435,0.5053244320992699,0.1860936897586235
14.733000755310059,0.5545415580986702,0.5004662892356425,0.1301506114205616
14.754021167755127,0.54574861584552,0.49564965051827736,0.08677987729780837
14.76688528060913,0.5408636479271033,0.4908598968232785,0.054656518968023995
14.782066345214844,0.5346108889915298,0.4860972310604751,0.031602375498674964
14.798064470291138,0.5277719339057463,0.4813661045130361,0.015469577967604967
14.812053442001343,0.5223007698371195,0.4766702074861985,0.004445050423936219
14.826023817062378,0.5164388083350194,0.4720166373551133,-0.002893294555652779
14.840095043182373,0.510772245549656,0.4674111808774036,-0.007615683668751741
14.860288858413696,0.5025654994467159,0.46284930076283776,-0.010507092857323748
14.876163482666016,0.49572654436093233,0.4583152674662497,-0.01213347365007153
14.891095399856567,0.48966918414209565,0.4538024519847474,-0.012897901265004256
14.905053853988647,0.48400262135673217,0.44931712774000204,-0.013084763894563334
14.921121835708618,0.47735906498768543,0.4448671741586693,-0.01289312953257438
14.934040784835815,0.4720832996357954,0.44045912353325634,-0.012461312113620695
14.94810152053833,0.4664167368504319,0.4360982833931967,0.26415369436402775
14.971274137496948,0.45684219973033496,0.431777767127909,0.29793463247682783
14.987054109573364,0.45058944079476154,0.427480545021693,0.24352940674495951
15.003012657165527,0.44355508699224144,0.423203487219716,0.16814287626326344
15.01702618598938,0.43769312549014133,0.4189551766118297,0.09830609192847593
15.031769514083862,0.43163576527130454,0.4147400404069012,0.042345641773454096
15.044258117675781,0.42655539863615116,0.4105593473952549,0.000977709052516297
15.05702018737793,0.4212796332842611,0.40641959975175085,-0.027843258346335165
15.07901668548584,0.41248669103111085,0.40232035972211766,-0.04681400000547037
15.094967365264893,0.4058431346620641,0.39824789612207084,-0.058446760061228835
15.10901665687561,0.4003719705934373,0.394198808519792,0.21123325516943187
15.12202787399292,0.3952916039582839,0.39018076098665844,0.5177219820864142
15.134916067123413,0.3906020347566038,0.386200143459923,1.0476559519458213
15.150002241134644,0.3855216681214504,0.38226218439589177,2.364395043372022
15.167553186416626,0.3798551053360869,0.3783670145767824,3.9319705757300047
15.185545682907104,0.3743839412674602,0.3745046639662777,5.0
15.19301438331604,0.3724299541000935,0.37067467518485675,5.0
15.214011430740356,0.3675449861816767,0.366886531678641,5.0
15.230000495910645,0.36422320799715335,0.36313436077643735,5.0
15.244027137756348,0.3616830246795766,0.35941303091421845,5.0
15.257956266403198,0.35894744264526324,0.3557278600587542,5.0
15.2709379196167,0.3569934554778965,0.3520831748265185,5.0
15.285998821258545,0.3544532721603198,0.3484824060779302,5.0
15.298909425735474,0.35269468370968976,0.34492818134859315,4.544409148810522
15.314353704452515,0.3509360952590598,0.3414217375449505,4.820519189529842
15.334500789642334,0.34898210809169306,0.33795477585104267,4.393814700396783
15.342130899429321,0.3482005132247464,0.3345214095980875,3.2170752898243737
15.363031148910522,0.34605112734064297,0.3311256768794888,2.8119152981154394
15.37694001197815,0.3446833363234863,0.3277613139439705,1.5942878554131057
15.390033721923828,0.3429247478728562,0.32442290265110857,-0.22481306601799034
15.406045913696289,0.34077536198875297,0.3211147548287335,-2.441338235092948
15.428751468658447,0.33745358380422946,0.31783188517034056,-4.611436530642548
15.437037944793701,0.3362811915038095,0.3145700311435277,-5.0
15.452021598815918,0.3335456094694961,0.31134108129228744,-5.0
15.473043441772461,0.3296376351347627,0.3081466330002456,-5.0
15.487091779708862,0.3269020531004493,0.304974235412086,-5.0
15.500932931900024,0.3239710723493993,0.3018218422935606,-5.0
15.516290664672852,0.32064929416487586,0.29869404859170784,-5.0
15.52888822555542,0.31771831341382584,0.29559482127334274,-5.0
15.54511022567749,0.3140057377958291,0.2925262202934355,-5.0
15.557355403900146,0.31127015576151573,0.2894895583774131,-5.0
15.577927112579346,0.306385187843099,0.2864833852991966,-5.0
15.591660022735596,0.3026726122251022,0.2835010521127738,-5.0
15.60590672492981,0.29915543532384214,0.2805425348998952,-5.0
15.621949434280396,0.29505206227237213,0.27761480074848044,-4.5714325463972685
15.634902477264404,0.29153488537111205,0.2747242967727872,-4.272696892000033
15.648910999298096,0.2874315123196419,0.2718772575056811,-3.7452161288996892
15.666381597518921,0.2825465444012252,0.26907755808947825,-3.1993581922392695
15.676917552947998,0.2798109623669118,0.2663289451178584,-2.4368651556724124
15.689924240112305,0.276098386748915,0.26363879902772586,-1.7202469120153605
15.70292615890503,0.2723858111309183,0.26101372713988286,-1.133914855025858
15.726227760314941,0.26554685604513484,0.25845330270654093,-0.6873310627110495
15.739893674850464,0.26144348299366477,0.25595333131748343,-0.08631079973006878
15.753923416137695,0.2581217048091414,0.25351561867515277,0.4512798864358084
15.761998891830444,0.255972318925038,0.25115029980704917,1.136927019537117
15.782763957977295,0.2514781484400946,0.2488661508487128,2.2784089683853326
15.7990083694458,0.2483517689723079,0.24666355627850517,4.426600688716953
15.818522930145264,0.2450299907877845,0.24454092271486827,5.0
15.827714681625366,0.2436621997706278,0.2425001440351001,5.0
15.838941097259521,0.24209901003673442,0.24054688706024951,5.0
15.854722738265991,0.24014502286936773,0.23868651122406456,5.0
15.86600947380066,0.2391680292856844,0.23692145281373642,5.0
15.889233827590942,0.237018643401581,0.23525266496665,5.0
15.902559280395508,0.23623704853463434,0.23368000018166915,5.0
15.917985916137695,0.23565085238442432,0.232204496513129,5.0
15.931894063949585,0.23506465623421427,0.2308281532590809,5.0
15.943887948989868,0.23486925751747764,0.22955241974479113,4.940025765208665
15.957366943359375,0.23467385880074096,0.22837825102322015,4.349407906807144
15.971004724502563,0.2344784600840043,0.22730616077477336,3.647947299817727
15.985885858535767,0.23467385880074096,0.2263362707999391,3.2763358351918708
15.997907638549805,0.2344784600840043,0.22546835673566956,2.2141108636276234
16.012001752853394,0.2344784600840043,0.22470188982095088,1.104761757062909
16.02697229385376,0.2344784600840043,0.22403607467180098,0.1777578681905857
16.040894508361816,0.23428306136726765,0.22346988312061228,-1.0686099354747018
16.055976390838623,0.23408766265053094,0.22300208426115062,-2.1681797177812188
16.075557708740234,0.23350146650032094,0.22263309494977354,-3.537620841315932
16.087881565093994,0.23291527035011095,0.2223642806674212,-4.691315273158767
16.098931550979614,0.2325244729166376,0.22219331352753707,-5.0
16.11724591255188,0.23154747933295422,0.22211739217740692,-5.0
16.128443002700806,0.23096128318274423,0.22213620332769252,-5.0
16.144613027572632,0.23017968831579752,0.22224896779985678,-5.0
16.15897560119629,0.2292026947321142,0.22245497373971615,-5.0
16.16751790046692,0.22881189729864085,0.22274925338273582,-5.0
16.18811297416687,0.2280303024316942,0.22312580194454693,-4.46865528395077
16.201920986175537,0.22763950499822086,0.2235856483922837,-3.4521840924013416
16.212990760803223,0.22763950499822086,0.2241291583360716,-2.155167133347739
16.22691798210144,0.22744410628148415,0.2247528110956407,-0.7123472940991227
16.23536968231201,0.22744410628148415,0.22544937314337596,0.2357951109655626
16.25349712371826,0.22744410628148415,0.2262120629680468,1.3937515032865018
16.268975734710693,0.22744410628148415,0.22704210792662238,1.8304545475661662
16.28192710876465,0.22744410628148415,0.2279403637836052,1.9299749807926303
16.29690980911255,0.22744410628148415,0.22890327704285615,1.602815671498733
16.308887481689453,0.22744410628148415,0.2299271128789292,0.905153606142457
16.323993682861328,0.22763950499822086,0.23100815966850483,0.20988360247807314
16.337890148162842,0.22744410628148415,0.23214273863350776,-0.3550334598550195
16.35928511619568,0.22763950499822086,0.2333312048108848,-0.7663822317178921
16.367793560028076,0.22744410628148415,0.23457403141643066,-1.040929160614796
16.38363790512085,0.22744410628148415,0.23586470220313807,-1.2067708296588613
16.395342111587524,0.22744410628148415,0.23719683462140778,-1.2916182379560404
16.414727926254272,0.22744410628148415,0.23857026057574068,-1.3187650678607827
16.42625141143799,0.22763950499822086,0.239986420415447,-1.3063492330269306
16.44218158721924,0.22763950499822086,0.2414427462976307,-1.2678770379693622
16.457741022109985,0.2280303024316942,0.24293571557334895,-0.937071527846377
16.472957372665405,0.22842109986516748,0.24446194313744954,-0.01166615950417782
16.495415687561035,0.2292026947321142,0.24602181489368846,0.3774366177562774
16.5099515914917,0.22978889088232424,0.24762041076558822,1.06746791295321
16.519262552261353,0.2303750870325342,0.24925408841648336,1.158405910525473
16.528319835662842,0.23076588446600757,0.25090975069483806,1.5773334951549174
16.54240918159485,0.23154747933295422,0.25257686278298086,1.4512727644379582
16.55289936065674,0.2323290741999009,0.2542504403447673,1.432300421521107
16.57019805908203,0.23389226393379428,0.25592839990129507,1.986304398929199
16.582656860351562,0.23506465623421427,0.2576104005368102,2.319671983308557
16.595858335494995,0.236432447251371,0.25929447638625547,2.4908187443008787
16.609925508499146,0.23799563698526438,0.260977519376683,2.271284330963742
16.63184428215027,0.24073121901957772,0.26266384187540226,2.7685217850910524
16.643621921539307,0.2422944087534711,0.2643620312112578,2.8167856834792797
16.65287685394287,0.24385759848736446,0.26606996009324935,2.677508528024001
16.6711106300354,0.24659318052167786,0.26778334823434685,2.4721757104313307
16.67892575263977,0.24776557282209788,0.26950125223143506,1.7028433770904856
16.701953172683716,0.2514781484400946,0.2712215716035336,1.705757301524447
16.717655897140503,0.2540183317576713,0.2729504028080286,2.2123501473798326
16.73645782470703,0.2575355086589314,0.2746972055292712,1.9302116844157864
16.747967958450317,0.2594894958262981,0.2764658174922001,1.4245455077620832
16.759684085845947,0.26163888171040145,0.2782527617524686,0.9258854347713543
16.770955324172974,0.26359286887776817,0.2800500565703844,0.2370777561323968
16.78434467315674,0.2665238496288182,0.28185001257941,-0.10889056597878694
16.799944400787354,0.26965022909660497,0.2836489447696967,-0.5534623069738484
16.808307647705078,0.27160421626397163,0.2854426985647496,-0.6626358106980743
16.838562726974487,0.2776615764828084,0.28723411522962444,-0.6351164865851182
16.854212522506714,0.2807879559505952,0.28904333165848767,-1.1132660650083888
16.86384677886963,0.2825465444012252,0.29088039989128317,-1.3739950576891173
16.87684202194214,0.2852821264355385,0.29273806426696175,-1.7747265321378254
16.890962839126587,0.2876269110363786,0.29461027571581777,-2.675179826542292
16.904858827590942,0.28977629692048196,0.29649357987152897,-3.8093936227958185
16.919925212860107,0.29153488537111205,0.29838482207234657,-5.0
16.933568239212036,0.2930980751050054,0.3002815669478862,-5.0
16.946866273880005,0.2944658661221621,0.30218160753906437,-5.0
16.96332812309265,0.29563825842258207,0.3040842305687727,-5.0
16.977372407913208,0.2964198532895288,0.30599064804679915,-5.0
16.996938467025757,0.2970060494397388,0.30790371975171027,-5.0
17.01183319091797,0.29759224558994873,0.30982770111735275,-5.0
17.025813817977905,0.29798304302342216,0.31176254250592955,-5.0
17.039931535720825,0.2985692391736321,0.3137043680020354,-5.0
17.05516767501831,0.29915543532384214,0.31565013559231586,-4.399695315890798
17.0741708278656,0.3001324289075255,0.317601041989972,-2.634598446483018
17.090858459472656,0.3011094224912088,0.31956367400533536,-0.5221533575600688
17.104920864105225,0.3020864160748922,0.32154222954663886,1.3070391314421084
17.119906902313232,0.3032588083753122,0.323534675544183,2.681793240782086
17.13480854034424,0.3044312006757322,0.3255371820219225,4.168910111564224
17.151440620422363,0.30618978912636224,0.3275489494046584,5.0
17.162839651107788,0.3075575801435189,0.329569467186424,5.0
17.176838397979736,0.3089253711606756,0.33159388799092043,5.0
17.189928770065308,0.310488560894569,0.3336183858237633,5.0
17.2104332447052,0.3132241429288824,0.33564724887088243,5.0
17.22593092918396,0.31537352881298575,0.3376911117331823,5.0
17.237950086593628,0.3173275159803524,0.33975418490491416,4.6419233634421175
17.252655029296875,0.3194769018644558,0.3418337181304003,4.426950265359425
17.26892352104187,0.32221248389876916,0.34392998149491255,4.2457779921171355
17.282904386520386,0.32475266721634594,0.346043487608361,4.3350013401627585
17.298559188842773,0.32787904668413265,0.34817349851254825,3.890242906695139
17.311830520629883,0.33022383128497274,0.3503197417408687,3.3113635270587407
17.32379412651062,0.3325686158858127,0.35248127621556063,2.759547922562205
17.339242935180664,0.33589039407033616,0.35465802709826183,2.2881772434443057
17.359483003616333,0.33999376712180623,0.35685908210827555,1.904812132409403
17.37121295928955,0.34214315300590964,0.3590977473094708,1.3237280801262448
17.383325815200806,0.34487873504022304,0.3613748547690682,1.0495381214121404
17.39184045791626,0.3464419247741163,0.36367994590513675,0.6376313358472964
17.41299319267273,0.3509360952590598,0.3660102789217579,0.5280288049423416
17.421355485916138,0.35289008242642644,0.3683728026889569,0.25421801957185497
17.430907726287842,0.3548440695937931,0.3707616121173696,-0.023494390751005845
17.450783729553223,0.3595336387954733,0.3731720600468915,-0.24941583365820105
17.46234679222107,0.36226922082978663,0.37561349593868393,-0.41274252090129093
17.480514526367188,0.36617719516452,0.37809515941362015,-0.5199287159935188
17.488555192947388,0.36793578361515006,0.380618755478609,-0.5824331509537268
17.50491762161255,0.37145296051641014,0.3831782176882636,-0.887723378376171
17.516730546951294,0.3741885425507235,0.38577347841462745,-0.9264944475420507
17.527835845947266,0.3769241245850368,0.3884025320492763,-1.13700027091599
17.546875476837158,0.3814182950699803,0.3910649190411954,-1.3491645754528583
17.555877447128296,0.3837630796708204,0.3937665462420298,-1.5053617181567243
17.57605266571045,0.38825725015576373,0.3965132056214589,-1.5957956370187774
17.58985471725464,0.3913836296235505,0.3993211065126864,-1.628721805575752
17.602731943130493,0.3941192116578639,0.4022002072022261,-1.8933682045204592
17.61530351638794,0.39646399625870393,0.40514472793316575,-2.159625283396241
17.63180422782898,0.3995903757264907,0.4081495416669067,-2.625935012501346
17.645907640457153,0.40154436289385737,0.41121613176167643,-4.692781784372474
17.670069217681885,0.40447534364490745,0.4143571794705656,-5.0
17.678719520568848,0.4052569385118541,0.4175840658892435,-5.0
17.69786763191223,0.4076017231126941,0.4208949156728851,-5.0
17.711337327957153,0.40916491284658746,0.42429195422519955,-5.0
17.724821090698242,0.41092350129721755,0.4277760049966521,-4.731481585464444
17.732810020446777,0.4119004948809009,0.43132622619999567,-3.746579807467846
17.7471923828125,0.4138544820482676,0.4349160379538168,-2.1210982472092206
17.759283304214478,0.4154176717821609,0.43853734186744087,-0.8487766742234985
17.77806282043457,0.41815325381647434,0.4422005140304683,0.6303483234411109
17.789575815200806,0.4199118422671044,0.44591920906384713,1.6114277347360544
17.79787039756775,0.42108423456752436,0.4496828108639172,2.5024326059357924
17.81818389892578,0.42460141146878444,0.45347896773755125,3.1651133584256823
17.826061487197876,0.4259692024859411,0.4573108370374962,3.590383041416807
17.84788203239441,0.43026797425414787,0.4611786341822804,4.367397243121395
17.85980200767517,0.43241736013825127,0.46509523217093945,4.781593354931703
17.873489141464233,0.435543739606038,0.4690702996846814,4.942885660292884
17.881964206695557,0.437302328056668,0.47308728051926247,4.932782774035347
17.900790452957153,0.44199189725834814,0.47713203250742486,5.0
17.91478133201599,0.44550907415960816,0.4812153511597273,4.883038013874565
17.92777943611145,0.44922164977760487,0.4853462581800939,4.890886685181035
17.942790508270264,0.4531296241123383,0.489520795164101,4.878742500410155
17.956777572631836,0.4570375984470717,0.4937354330356547,5.0
17.973217964172363,0.46192256636548845,0.49798758582800007,5.0
17.985802173614502,0.4660259394169585,0.502274953580238,4.771455031594233
17.998802661895752,0.47012931246842854,0.5065944222203053,4.178852326709199
18.016363859176636,0.4761866726872654,0.5109476925044661,4.3595863957216014
18.03587555885315,0.4826348303395755,0.5153515839514676,4.150603676710533
18.04979658126831,0.48751979825799224,0.5198262122583246,3.5299932647688346
18.06313920021057,0.492404766176409,0.5243731805530274,2.852394794795175
18.07578730583191,0.4970943353780891,0.5289826973127276,2.2509611418926427
18.09080982208252,0.5027608981634525,0.533645888955019,1.7613134204358085
18.105881929397583,0.5088182583822893,0.5383547281994236,1.379558074936078
18.120884656906128,0.5144848211676527,0.5431019549860238,1.0885228932402158
18.13475203514099,0.5201513839530162,0.547882682130227,0.8689340140925417
18.151907682418823,0.5269903390387995,0.5526990792770666,0.15156880387695804
18.16914701461792,0.5340246928413197,0.5575641637842632,-0.31556146096933135
18.177304983139038,0.5373464710258432,0.5624757926439117,-0.885612945233013
18.193361282348633,0.5435992299614166,0.567411120339476,-1.0938295651175083
18.202829599380493,0.5471164068626767,0.5723547309781806,-1.4088866057910923
18.216824769973755,0.5529783683647768,0.5772915935658449,-1.9576171446399666
18.231556177139282,0.5592311273003503,0.582215172834996,-2.177801982105687
18.24077582359314,0.562943702918347,0.5871279267755042,-2.5002647205008888
18.25473427772522,0.5684148669869737,0.5920207083403534,-2.764389846054338
18.268792867660522,0.5742768284890738,0.596885452592792,-2.926373808264912
18.282805919647217,0.5797479925577007,0.6017204918021752,-2.989574877359928
18.29842972755432,0.5865869476434841,0.6065267207080308,-2.6970463935367053
18.31893563270569,0.5945982950296876,0.6113182239235334,-2.5892272085563404
18.32692289352417,0.5975292757807376,0.6161013258067849,-2.8063376961257362
18.348779439926147,0.6063222180338877,0.6208669247811901,-2.7771101335858104
18.362749814987183,0.6117933821025145,0.6256226431967062,-2.6407896341901473
18.37805485725403,0.6182415397548247,0.6303754419396718,-2.7402349880806574
18.398640155792236,0.6262528871410281,0.6351300347398574,-2.863819509632968
18.40683889389038,0.6289884691753416,0.63988796240813,-2.6612915902832426
18.426660299301147,0.6366090191280717,0.6446370371047105,-2.9123769899135783
18.441872596740723,0.642275581913435,0.6493800895623167,-2.950832768767879
18.456846237182617,0.6479421446987986,0.6541192466078636,-3.430181937882284
18.470825910568237,0.6526317139004786,0.6588433815043446,-3.643221893595334
18.493717432022095,0.6590798715527887,0.6635548155969543,-5.0
18.50967240333557,0.6631832446042588,0.6682676774434637,-5.0
18.524824142456055,0.6668958202222556,0.6729823289726273,-5.0
18.536760807037354,0.6696314022565689,0.6776866836595355,-5.0
18.55086064338684,0.672562383007619,0.6823701757638738,-5.0
18.565852642059326,0.6749071676084589,0.6870241656969495,-5.0
18.57394003868103,0.6762749586256158,0.691632273328631,-5.0
18.592851161956787,0.6788151419431923,0.6961813567545749,-5.0
18.608166694641113,0.681355325260769,0.7006816496298466,-5.0
18.621398448944092,0.6835047111448725,0.7051439953689893,-4.718385026470387
18.633772611618042,0.6854586983122393,0.7095659755597914,-3.1226761548602058
18.64813733100891,0.6879988816298159,0.7139439757790246,-0.8174649004583596
18.659754037857056,0.6899528687971827,0.7182770810161035,1.0119872019928835
18.672738790512085,0.6924930521147594,0.7225657372993438,2.8805818309837647
18.68673014640808,0.6952286341490728,0.7268110632081212,4.372180392040365
18.699754238128662,0.6977688174666494,0.7310151689874677,5.0
18.714104413986206,0.7008951969344361,0.7351804838722306,5.0
18.727824687957764,0.704021576402223,0.7393096457200357,5.0
18.741307973861694,0.7077341520202196,0.7434054070011386,5.0
18.753749132156372,0.7108605314880063,0.7474705583516279,5.0
18.767732620239258,0.7145731071060031,0.7515078701309547,5.0
18.780728101730347,0.7182856827239998,0.7555200516268084,5.0
18.79273271560669,0.7216074609085232,0.759509726820727,5.0
18.808844566345215,0.7264924288269399,0.7634794249626359,5.0
18.82282042503357,0.7313773967453567,0.7674315835595735,5.0
18.84460949897766,0.7386071492646135,0.7713799131060717,5.0
18.85281991958618,0.7413427312989268,0.7753361647064955,5.0
18.874271631240845,0.7485724838181836,0.7793005052346487,5.0
18.88736629486084,0.7532620530198638,0.7832832440753679,4.942538726902635
18.902737855911255,0.7593194132387007,0.7872917427264371,4.759886090836618
18.91826295852661,0.764985976024064,0.7913261793869695,4.514507203657237
18.930733919143677,0.7698709439424808,0.7953867760866347,3.689301646382126
18.94689154624939,0.7759283041613175,0.7994734856389906,2.7899093374619097
18.956753253936768,0.7800316772127877,0.8035864284636721,2.0040345211572967
18.96981954574585,0.7855028412814143,0.8077178931525596,1.103941778640162
18.98282480239868,0.7903878091998312,0.8118616807630162,0.3248411836171867
18.993216276168823,0.7944911822513011,0.8160143471483199,-0.2711689210616982
19.006083011627197,0.7995715488864547,0.8201692551052656,-0.6917279409080739
19.020374059677124,0.8050427129550815,0.824327571490808,-1.243623122055372
19.033977031707764,0.8103184783069715,0.8284986550796235,-1.7180249852588847
19.041747093200684,0.8134448577747583,0.8326737044314648,-1.780682986574077
19.058093309402466,0.820088414143805,0.8368355505383799,-1.9535246079510649
19.075730323791504,0.8269273692295884,0.8409982638113219,-2.105563151630994
19.089740753173828,0.8323985332982152,0.84518775222832,-2.1967490231736457
19.104833841323853,0.8380650960835787,0.8494120245928872,-2.5006923900956695
19.11729407310486,0.8429500640019953,0.8536707504548807,-2.509347762454788
19.129894256591797,0.8478350319204122,0.8579636011836386,-2.6672020663455847
19.143710613250732,0.8527199998388288,0.8622902553162644,-2.5350613239755546
19.15670371055603,0.857409569040509,0.8666504092159001,-2.580266541550813
19.170833349227905,0.8622945369589258,0.8710437893222986,-2.643024968390517
19.18676495552063,0.8685472958944992,0.875470162172286,-2.9438334875718857
19.19970703125,0.8734322638129159,0.8799293388661314,-3.2288145159919424
19.213794708251953,0.878121833014596,0.8844211717141028,-3.4158069227951113
19.228795766830444,0.8826160034995394,0.8889455421567872,-3.7707671127501525
19.243701219558716,0.8869147752677462,0.893504121422117,-4.895236366471742
19.263547897338867,0.8917997431861631,0.8981144067460514,-5.0
19.27546453475952,0.8945353252204764,0.9027993088101586,-5.0
19.286763191223145,0.8968801098213164,0.9075536741602732,-5.0
19.29825448989868,0.8990294957054198,0.9123563048312365,-5.0
19.312561988830566,0.9015696790229966,0.9171953762572626,-5.0
19.32272696495056,0.9033282674736265,0.9220604789702267,-5.0
19.334757089614868,0.9054776533577299,0.9269364581108432,-5.0
19.348705530166626,0.9076270392418332,0.9318163526334358,-4.84902111668484
19.365283489227295,0.91075341870962,0.9367067385624109,-3.450510486119825
19.376805782318115,0.91309820331046,0.9416128381525972,-1.5985671672355408
19.38941788673401,0.9156383866280366,0.946527795896289,0.3427334123849778
19.404523372650146,0.9187647660958235,0.951447660190014,2.215885478564789
19.418124437332153,0.9216957468468735,0.9563768389299385,3.9606425647784023
19.430785179138184,0.9246267275979236,0.9613136788279012,5.0
19.450178861618042,0.929707094233077,0.9662609686814725,5.0
19.45879626274109,0.9318564801171804,0.9712225579234669,5.0
19.47245764732361,0.9359598531686504,0.9761832601262533,5.0
19.49216341972351,0.941626415954014,0.981144010829409,5.0
19.506791353225708,0.9459251877222207,0.9861276415517438,5.0
19.52168917655945,0.9506147569239006,0.9911372366025636,5.0
19.53343367576599,0.9547181299753709,0.996158406738138,5.0
19.542730808258057,0.9578445094431576,1.0011673002406654,5.0
19.561709880828857,0.9648788632456776,1.0061470945563022,5.0
19.577686071395874,0.9709362234645145,1.0111042940806578,5.0
19.59329605102539,0.9769935836833512,1.016042715276074,5.0
19.605727672576904,0.9820739503185046,1.0209543341431448,5.0
19.618680000305176,0.9875451143871313,1.0258299522745113,4.870522664990227
19.632736444473267,0.9932116771724948,1.0306614323219032,4.521782964042435
19.645775318145752,0.9980966450909117,1.0354426164488566,3.5623632095167856
19.658684015274048,1.0033724104428017,1.0401681602971729,2.269807512906076
19.670976877212524,1.0080619796444819,1.044833487472712,1.0883299351451554
19.684701919555664,1.0137285424298452,1.0494347373636488,0.1540402922066728
19.708129405975342,1.0234984782666787,1.0539799558250995,-0.8010266467457934
19.717005491256714,1.0270156551679388,1.0584779702045553,-1.57170883685288
19.735766172409058,1.0344408064039323,1.062924461744258,-2.117729015669184
19.75074315071106,1.0406935653395057,1.067322224944141,-2.462251444686644
19.759408235549927,1.0444061409575025,1.0716665184461456,-2.370846959740703
19.779743194580078,1.0526128870604428,1.0759442519408315,-2.404029056800142
19.7971134185791,1.0596472408629627,1.0801616702756176,-2.4421750861423495
19.81671690940857,1.0674631895324294,1.084333725559656,-2.445365655070777
19.829930782318115,1.073129752317793,1.088468741525703,-2.4073499697888727
19.839260578155518,1.0770377266525264,1.092558225198085,-2.3344006512172326
19.851020574569702,1.0815318971374697,1.096580158080723,-2.236050265440417
19.870498180389404,1.0891524470901999,1.1005262732095973,-2.3974130658144768
19.879369258880615,1.0928650227081966,1.1043994932993482,-2.582975623268246
19.898750066757202,1.1004855726609268,1.1081973589142446,-2.7100779091061757
19.913755893707275,1.1061521354462902,1.111922850446809,-2.761685618265462
19.928763389587402,1.1114279007981802,1.115578750044389,-2.7460383815747327
19.9394474029541,1.1153358751329137,1.1191612468117182,-2.9547939263913365
19.951822757720947,1.119243849467647,1.1226674809189439,-3.436724445900044
19.96513533592224,1.123542621235854,1.126095484759871,-4.149848174880887
19.979376554489136,1.1276459942873238,1.1294441264722888,-5.0
19.992078065872192,1.1307723737551107,1.1327110929804092,-5.0
20.000742197036743,1.132921759639214,1.1358876007798,-5.0
20.022743225097656,1.137806727557631,1.1389710362215968,-5.0
20.038130521774292,1.1403469108752076,1.1419757988869148,-5.0
20.05173420906067,1.1424962967593109,1.1449129965108589,-5.0
20.067760467529297,1.144841081360151,1.1477861634838886,-5.0
20.08608388900757,1.146599669810781,1.1506064296721563,-5.0
20.101284980773926,1.1477720621112009,1.1533883247707952,-5.0
20.11472249031067,1.148944454411621,1.1561380368802658,-5.0
20.129188299179077,1.1497260492785677,1.1588560187264163,-5.0
20.144718647003174,1.1503122454287777,1.1615431807378056,-5.0
20.163519620895386,1.1508984415789878,1.164205330287749,-4.658809599126588
20.173725128173828,1.1510938402957245,1.166848156255093,-3.267041924892721
20.195008039474487,1.152070833879408,1.1694771583743935,-2.0382580833212476
20.209725379943848,1.153047827463091,1.1721061526407148,-0.2428497897297235
20.22530508041382,1.1540248210467743,1.1747433771591564,2.2249132781426724
20.244033098220825,1.1551972133471944,1.177392518229856,4.413600641099997
20.25371241569519,1.1563696056476145,1.1800570469583849,5.0
20.277727127075195,1.1585189915317178,1.1827402022346074,5.0
20.291251182556152,1.1598867825488746,1.1854543343339692,5.0
20.30574679374695,1.1616453709995045,1.1882057750281232,5.0
20.319820404052734,1.1634039594501346,1.1909909788786273,5.0
20.332648277282715,1.1651625479007646,1.1938071375751447,5.0
20.34772753715515,1.1671165350681314,1.1966521190938797,5.0
20.36274480819702,1.169656718385708,1.199524402875558,5.0
20.37752342224121,1.1718061042698116,1.2024237793767416,5.0
20.38970398902893,1.1741508888706513,1.2053503827885168,5.0
20.40176510810852,1.1766910721882282,1.2083030939803578,5.0
20.41372060775757,1.1790358567890682,1.2112812691152748,5.0
20.426772117614746,1.1819668375401182,1.2142854154622469,5.0
20.44070076942444,1.1850932170079052,1.217316196351222,5.0
20.454726457595825,1.1888057926259017,1.220374337580852,4.955345784894616
20.468703508377075,1.192127570810425,1.2234605309088402,4.935509416187623
20.481820821762085,1.1956447477116852,1.2265753409864975,5.0
20.49482798576355,1.1991619246129452,1.2297191228289022,4.424953364793841
20.502792358398438,1.2013113104970485,1.2328806148782938,3.8832793903648897
20.52478528022766,1.2073686707158855,1.2360501313624592,3.960746834520639
20.543701887130737,1.2132306322179853,1.239248741944743,4.175330039056815
20.560715675354004,1.2183109988531389,1.242505059832983,3.7911130297475575
20.574686527252197,1.2226097706213457,1.2458288868352885,3.2415902269919172
20.589690446853638,1.2272993398230259,1.2492161435281977,2.428310848867492
20.607342958450317,1.233161301325126,1.2526606573817165,1.9315235648102524
20.622471809387207,1.237850870526806,1.2561624291380642,1.3318196765570596
20.632703065872192,1.2415634461448029,1.2597148142752288,0.7969385444022612
20.653229236602783,1.2485977999473228,1.2633097373712712,0.09895613260904701
20.660614013671875,1.250747185831426,1.2669426041417609,-0.520115706578369
20.676003217697144,1.2558275524665796,1.270598421431947,-1.26595166314085
20.685718297958374,1.2587585332176296,1.2742642179929864,-1.8957054137935239
20.707845449447632,1.2661836844536232,1.2779416647637445,-2.0696406568750794
20.722718000411987,1.2708732536553033,1.2816432775954034,-2.314957316129369
20.73771381378174,1.2755628228569833,1.2853730107016106,-2.7849074980180664
20.752694368362427,1.2804477907754,1.2891230629809922,-2.9284418899813494
20.76768946647644,1.2849419612603434,1.2928868898080301,-3.1804959201144962
20.78835129737854,1.2908039227624437,1.2966707231954964,-3.6574754166503634
20.80387306213379,1.2949072958139138,1.300491668553888,-4.34840346370498
20.81869101524353,1.2982290739984372,1.30435277871855,-5.0
20.833605766296387,1.3011600547494875,1.3082450997903998,-5.0
20.846685647964478,1.303700238067064,1.3121611284948393,-5.0
20.869306564331055,1.3070220162515873,1.3161069751800414,-5.0
20.884687423706055,1.3087806047022175,1.320100293011842,-5.0
20.900694847106934,1.3107345918695839,1.324143793990293,-5.0
20.914739847183228,1.3122977816034775,1.328227388048648,-5.0
20.928625345230103,1.3138609713373708,1.3323424467915428,-5.0
20.94031858444214,1.3154241610712643,1.3364816758496663,-4.677094632204662
20.95466375350952,1.317182749521894,1.3406389907889846,-3.2911279340174477
20.975079774856567,1.3201137302729442,1.3448181165866524,-1.234618905534086
20.98589324951172,1.3214815212901008,1.3490261852226364,0.6618834647592854
20.99578022956848,1.3230447110239942,1.3532517600646305,2.414623998861194
21.01788306236267,1.3265618879252543,1.3574902710952905,3.7590770322438356
21.025766372680664,1.327929678942411,1.361746677424645,4.947544849343924
21.045161724090576,1.3316422545604079,1.3660167834228898,5.0
21.059074640274048,1.3345732353114577,1.370309831219622,5.0
21.07424759864807,1.3376996147792444,1.3746327782207965,5.0
21.087886810302734,1.3408259942470313,1.378978588692174,5.0
21.103254318237305,1.3441477724315547,1.383340707901043,5.0
21.115679025650024,1.347469550616078,1.3877124628747457,5.0
21.129663705825806,1.3511821262340749,1.392087557054637,5.0
21.142876863479614,1.3552854992855448,1.3964600110443688,5.0
21.1664879322052,1.362710650521538,1.4008359539939699,5.0
21.18167018890381,1.3677910171566916,1.405231901951079,5.0
21.197438716888428,1.3730667825085818,1.4096490909241968,5.0
21.2200825214386,1.3808827311780487,1.4140866719840914,5.0
21.229736328125,1.384790705512782,1.4185454839077127,5.0
21.248616933822632,1.3916296605985656,1.4230134283212712,5.0
21.264777421951294,1.3974916221006655,1.4274847097177141,4.586581784568148
21.27867317199707,1.4027673874525557,1.4319538262472273,3.7406010963972633
21.294663190841675,1.4090201463881293,1.4364071746836184,2.8711844096001284
21.308653593063354,1.414491310456756,1.4408329102500066,1.8489179291429476
21.32999849319458,1.4234796514266428,1.4452311981175598,0.9494774312643737
21.34361171722412,1.428755416778533,1.4496121246904958,0.24908686519782053
21.357658624649048,1.4342265808471597,1.4539729731045317,-0.5331628173336833
21.372642993927002,1.4402839410659962,1.4583002915985557,-1.1867457418778515
21.38664722442627,1.4461459025680965,1.462582179885334,-1.9365146254628613
21.399576425552368,1.4514216679199867,1.4668080905114902,-2.5515611244723466
21.4145724773407,1.4572836294220868,1.4709686408439322,-2.69971108766432
21.43708038330078,1.4662719703919733,1.475062989043486,-3.189052059622036
21.451591730117798,1.4721339318940736,1.479097623315668,-3.657013127014859
21.46668267250061,1.4779958933961739,1.483069563935394,-3.9852931048089437
21.480687141418457,1.483076260031327,1.486966985845042,-4.434437418392333
21.495744943618774,1.4881566266664805,1.4907786205175724,-4.783949379498356
21.510715007781982,1.4928461958681607,1.4944943775783162,-5.0
21.529292821884155,1.497926562503314,1.4981086138976953,-5.0
21.545730113983154,1.5020299355547841,1.5016209509842362,-5.0
21.560649633407593,1.505547112456044,1.5050283256420534,-5.0
21.576573848724365,1.5088688906405676,1.5083220849849275,-5.0
21.58963942527771,1.5110182765246711,1.5114927188955922,-5.0
21.613751888275146,1.514535453425931,1.5145345267512984,-5.0
21.623671770095825,1.515707845726351,1.5174436767375923,-5.0
21.642683029174805,1.517661832893718,1.5202133339403032,-5.0
21.654677867889404,1.518834225194138,1.522836535329553,-5.0
21.66858196258545,1.5198112187778212,1.525307404397922,-5.0
21.67988157272339,1.5203974149280313,1.5276201099868254,-5.0
21.688644647598267,1.5207882123615046,1.529770163449353,-4.201789460034853
21.70783567428589,1.5213744085117145,1.5317540811152146,-4.0208124969868635
21.721648693084717,1.5217652059451876,1.5335688353227743,-3.472643899364133
21.73553490638733,1.5221560033786614,1.5352125678515418,-2.3166431828069474
21.749642610549927,1.5227421995288712,1.5366847345901518,-1.1567609419050515
21.764625310897827,1.5235237943958178,1.5379856082024,0.6259897344034222
21.77658462524414,1.524109990546028,1.5391166120699173,2.2630695416013267
21.789642572402954,1.5248915854129745,1.5400804991769266,3.7910796907574875
21.80461573600769,1.525868578996658,1.5408812734844959,5.0
21.816656589508057,1.5266501738636047,1.5415242447700428,5.0
21.831028699874878,1.5280179648807612,1.542016148237377,5.0
21.84566593170166,1.5291903571811813,1.5423650655241394,5.0
21.860740423202515,1.5303627494816012,1.5425802502607517,5.0
21.882741689682007,1.5325121353657045,1.542671149936886,5.0
21.89765954017639,1.534075325099598,1.5426480213469518,5.0
21.9126296043396,1.5356385148334912,1.5425245364019275,5.0
21.926569938659668,1.537006305850648,1.5423169286553065,5.0
21.939631938934326,1.5379832994343312,1.5420420271756836,4.64497029040192
21.951639413833618,1.5385694955845415,1.5417170530410955,3.6938853087380985
21.96563196182251,1.5391556917347513,1.5413594116689142,2.135173332922985
21.980645418167114,1.539546489168225,1.5409864859253655,0.3753003007223048
21.994646072387695,1.5399372866016983,1.5406154349162438,-1.1194743191250929
22.005350351333618,1.5399372866016983,1.5402624322542513,-2.2314463805942024
22.020217657089233,1.5399372866016983,1.5399431567134385,-2.982103970019261
22.034608125686646,1.5399372866016983,1.5396737680290153,-3.4380081098151374
22.058708429336548,1.5399372866016983,1.5394751544081913,-3.6711237549514326
22.07453942298889,1.5399372866016983,1.5393717777770553,-3.1920793278146453
22.088623762130737,1.5399372866016983,1.5393803093840863,-1.9843561272707866
22.102598190307617,1.5399372866016983,1.5395100094895524,-0.7476534962659265
22.116689443588257,1.5399372866016983,1.53976888586019,0.2723788534116367
22.13961148262024,1.5399372866016983,1.5401719694933633,1.0255686798221253
22.154743432998657,1.5399372866016983,1.540740294562001,1.5374223225647659
22.16860294342041,1.5399372866016983,1.5414833886006671,1.8558644541744813
22.181602954864502,1.5399372866016983,1.5424004618981448,2.0292537007434546
22.202829599380493,1.5399372866016983,1.5434964013893366,2.0986409170722835
22.219727754592896,1.5399372866016983,1.544784382533567,2.0961722175564397
22.22770881652832,1.5399372866016983,1.5462634298833795,2.0458808994359443
22.24060320854187,1.5399372866016983,1.5479110792840256,1.965195477774413
22.254596948623657,1.5399372866016983,1.5497092144769404,1.8664710391550674
22.276609897613525,1.5399372866016983,1.551663007396967,1.7582980279431208
22.290637969970703,1.5399372866016983,1.5537896185265294,1.646535872151309
22.305604696273804,1.540132685318435,1.5560916062510282,1.5350943909394055
22.31960892677307,1.5403280840351714,1.5585588375876036,1.7025472753599051
22.33571434020996,1.5405234827519083,1.5611855615389634,1.9075575301698258
22.355432748794556,1.5413050776188546,1.5639781275517441,2.3388569791478995
22.371596097946167,1.5418912737690649,1.5669449431572757,3.0090467292711844
22.38827133178711,1.5428682673527483,1.5700812126348522,3.8687529027672345
22.401609182357788,1.5440406596531684,1.5733729521666524,4.303675797113176
22.421557188034058,1.5456038493870616,1.5768149512188945,4.743577375760379
22.432318925857544,1.5467762416874815,1.5804079337801844,4.768539502621815
22.450693607330322,1.5487302288548483,1.5841417425314344,5.0
22.46662187576294,1.5508796147389516,1.5880057495986322,5.0
22.480623722076416,1.553029000623055,1.5919884196348306,5.0
22.491533279418945,1.554787589073685,1.5960722494217598,4.7077402387543525
22.504570484161377,1.5573277723912617,1.6002411634610616,4.743211578503297
22.519670724868774,1.560258753142312,1.604480477394922,5.0
22.533669471740723,1.563189733893362,1.6087768533572493,5.0
22.556803941726685,1.568660897961989,1.6131313352979588,5.0
22.57148051261902,1.5725688722967222,1.617555157035451,5.0
22.587615489959717,1.577453840215139,1.6220437733829445,5.0
22.601577281951904,1.5817526119833456,1.6265832456652942,5.0
22.614577770233154,1.5860513837515526,1.6311611135293378,5.0
22.62859320640564,1.5905455542364957,1.6357644171085528,4.41671987468367
22.63905954360962,1.5942581298544924,1.640377057662736,3.534028190694376
22.653550624847412,1.599338496489646,1.644985382369111,2.956267426160749
22.667580366134644,1.604614261841536,1.6495877325261672,2.550993753839263
22.682677745819092,1.610085425910163,1.6541829496501832,2.523689357583777
22.693609714508057,1.6147749951118429,1.6587655010785913,2.0409179118617375
22.701595783233643,1.6179013745796298,1.663317764913268,1.478721635956303
22.721688747406006,1.6263035193993067,1.6678255084909375,0.9800231975223834
22.73568081855774,1.63197008218467,1.6723042795362144,0.3087251280077805
22.749675512313843,1.6374412462532968,1.676767919385891,-0.5703464507218038
22.764533042907715,1.6434986064721333,1.6812153022350365,-1.6184917017300071
22.786205053329468,1.6522915487252834,1.685659834984243,-2.502509177099621
22.80157446861267,1.6583489089441203,1.6901270932648724,-3.4117224379468456
22.816551446914673,1.6644062691629573,1.6946249952018289,-4.115357552901536
22.831575632095337,1.6708544268152674,1.6991463030689098,-4.293683182723919
22.855570793151855,1.6806243626521005,1.7036987791184075,-4.493491450153476
22.870577812194824,1.686877121587674,1.7083027084482933,-4.6083316586790435
22.88457465171814,1.692348285656301,1.712960578227542,-4.618692532713547
22.90765690803528,1.7021182214931343,1.717673625288602,-4.538018184582828
22.91946792602539,1.7066123919780778,1.722449756343358,-4.388902402844719
22.936577320098877,1.7132559483471248,1.7272806068199942,-4.469452008859873
22.95253276824951,1.7193133085659613,1.7321564545028725,-4.278977660803631
22.966562271118164,1.7249798713513247,1.737068177080677,-3.9860759937374515
22.98154354095459,1.7310372315701616,1.7420010912543273,-4.220087854125164
22.996970415115356,1.7368991930722617,1.7469460837499813,-3.976585843272561
23.007478952407837,1.7408071674069951,1.751894890361698,-4.129947437180525
23.030019760131836,1.7490139135099352,1.7568452518545956,-4.056362680054204
23.040562868118286,1.7529218878446686,1.7618015724115332,-4.1510443092667355
23.052358627319336,1.7570252608961388,1.7667515193309387,-3.9560673139401104
23.06906509399414,1.7626918236815023,1.7716826841696687,-4.209469782214138
23.08336329460144,1.7675767915999188,1.7765968459009156,-4.232551971730242
23.09358048439026,1.771093968501179,1.7814835413300276,-4.402333151496048
23.109954595565796,1.776369733853069,1.786325443747111,-4.534264984148852
23.123778343200684,1.7808639043380126,1.7911203879555744,-4.298492739338753
23.131645679473877,1.7834040876555892,1.795859095985432,-3.661496235548828
23.149343729019165,1.7892660491576893,1.800525410603262,-3.248435260939572
23.15863823890686,1.7920016311920028,1.8051166658028905,-2.9469818887709107
23.17703652381897,1.7974727952606295,1.8096374115285174,-2.4273401629562663
23.189401388168335,1.801185370878626,1.814099567721542,-1.9070456332169394
23.20484209060669,1.8058749400803065,1.8185133491094234,-1.4625123136657345
23.213449001312256,1.8082197246811464,1.8228768999800211,-1.1092852867457983
23.226255893707275,1.8119323002991432,1.82717691627696,-0.8392605977270624
23.246721267700195,1.8181850592347166,1.8314150374747085,-0.3612222655746012
23.262660264968872,1.8230700271531333,1.8356131846341013,-0.17873451593384274
23.27765440940857,1.8277595963548137,1.839781601858864,0.15209644757629565
23.289438009262085,1.8310813745393368,1.8439191719826842,0.18997252583582494
23.303591012954712,1.835184747590807,1.8480251084303048,0.4000793655440083
23.31156277656555,1.837529532191647,1.8520870122386035,0.6209232585076006
23.332576990127563,1.8439776898439573,1.8560946549752557,0.5197747041755939
23.353349447250366,1.8500350500627938,1.8600750371429244,0.6039638703660146
23.36787724494934,1.8539430243975272,1.8640623846406754,0.7245882745441191
23.376346111297607,1.856483207715104,1.8680534628367262,0.549292769587205
23.38805079460144,1.8598049858996273,1.8720245976644565,0.5814640462742473
23.400818347930908,1.8633221628008876,1.8759623669317007,0.39131115584609727
23.418802499771118,1.8685979281527776,1.879869753438674,0.43704155859675564
23.426562786102295,1.8707473140368809,1.8837483037305802,0.2687547468465578
23.44956088066101,1.8773908704059277,1.8875959118059227,0.060303829297440575
23.462754011154175,1.8811034460239244,1.891422824831294,-0.12219790193618797
23.476299047470093,1.8846206229251845,1.8952344448360021,0.015836068260084983
23.491502285003662,1.8887239959766546,1.8990241422073346,-0.04537231251827617
23.504826068878174,1.8924365715946512,1.902785856349946,0.11747568946631662
23.515695095062256,1.895562951062438,1.9065116408722917,0.0440806583712048
23.523560285568237,1.897321539513068,1.9101851546779631,0.18406981831077296
23.54394006729126,1.9029881022984314,1.9137975061530808,0.08792354987650236
23.559616565704346,1.9070914753499015,1.917360103787768,-0.06704561809010914
23.575623512268066,1.9111948484013719,1.9208801784635667,0.06533128930329256
23.586708545684814,1.9141258291524215,1.9243544475663403,0.2642980450862356
23.598125219345093,1.9170568099034717,1.927780206099015,0.16769311223212943
23.613626956939697,1.9209647842382052,1.9311553115145956,0.26829507521107016
23.62762975692749,1.9246773598562017,1.9344781619462654,0.13402538510101256
23.64011263847351,1.9281945367574618,1.9377476678794727,-0.051970040803973064
23.653488159179688,1.9315163149419852,1.9409632176136185,0.057379977455326574
23.667469024658203,1.9352288905599822,1.9441246373283072,-0.03567219414186709
23.681508779525757,1.938746067461242,1.9472321469572402,-0.17578989193966643
23.697548389434814,1.9426540417959755,1.9502880917693988,-0.3023308478892588
23.706625938415527,1.944803427680079,1.9532948181610337,-0.12079098147992318
23.717723846435547,1.947148212280919,1.9562493455926901,-0.14913053278969146
23.72685432434082,1.9489068007315489,1.9591446184764458,-0.5139155351413827
23.74558734893799,1.9522285789160723,1.9619801493572286,-1.4636365552173891
23.758981943130493,1.9547687622336491,1.9647658735442421,-2.403696340523582
23.77225971221924,1.9575043442679625,1.967509395431286,-3.133189492939426
23.784732818603516,1.9598491288688025,1.9702113956624652,-3.3426398570116396
23.7974956035614,1.9621939134696424,1.9728705160684323,-3.028690836100688
23.808042526245117,1.9641479006370093,1.9754834802852568,-2.2934748774862865
23.81748938560486,1.9657110903709027,1.978044377957294,-1.258741938859657
23.837740898132324,1.969619064705636,1.98055424580291,-0.3090588877417746
23.852174997329712,1.971963849306476,1.9830249174423007,0.4365070265387687
23.866928577423096,1.9746994313407895,1.985466737823068,0.6934132550471819
23.87676453590393,1.9768488172248928,1.9878835072562433,1.011876281938548
23.89446473121643,1.9803659941261529,1.990277606161585,1.5535484670953268
23.903345108032227,1.982124582576783,1.9926499542082987,1.7694953447499169
23.915541410446167,1.984469367177623,1.994995110016367,1.8182948224974047
23.927533626556396,1.9868141517784632,1.997307481851917,1.782181398832844
23.94483709335327,1.9901359299629864,1.9995920269504182,1.7042013946238348
23.95352268218994,1.9916991196968798,2.0018563282840574,1.6071061355437752
23.967703342437744,1.9944347017311932,2.0040992306678187,1.5030185899939053
23.987916946411133,1.9983426760659266,2.0063272353179413,1.3984199387753296
23.998146295547485,2.0001012645165566,2.008552654534288,1.2967494159976565
24.015015840530396,2.00283684655087,2.0107791586250974,0.9237397972350241
24.022510051727295,2.00400923885129,2.0130046627275893,0.5231459395633231
24.033871173858643,2.0053770298684466,2.0152197250350117,-0.09253332103293571
24.047515869140625,2.0071356183190767,2.017419505421611,-0.9354189816838328
24.061490535736084,2.0090896054864436,2.0196074813243667,-2.232168519205869
24.074442148208618,2.0106527952203366,2.021786656489016,-3.1258554310420217
24.097587823867798,2.0137791746881235,2.023966799530358,-3.130368679628627
24.105854272842407,2.0149515669885436,2.0261573137334037,-2.2580693479045046
24.122178554534912,2.017100952872647,2.028356038835922,-1.242076406173025
24.138909101486206,2.01925033875675,2.030565122668047,-0.3579478640741174
24.14952540397644,2.0208135284906437,2.0327875590905617,0.3200312927131871
24.16552710533142,2.0229629143747467,2.0350194946922957,0.7989739321280174
24.18067693710327,2.0251123002588503,2.037260195434734,1.389278383953262
24.196114778518677,2.0274570848596905,2.039509018063568,1.6105737932417354
24.208454370498657,2.0292156733103206,2.0417633318766764,1.9277136372283292
24.225239038467407,2.0315604579111604,2.044021121456786,2.192326255183523
