t_s,q_rad,q_des_rad,K,B,jerk,tau_Nm,ilc_ff_Nm
0.0055844783782958984,-0.052953052235637635,[0.00194501],0.005,0.1,0.0,9.998999999999999,0
0.017113208770751953,-0.052953052235637635,[0.00940773],0.005,0.1,0.0,10.098989999999999,0
0.02911210060119629,-0.052953052235637635,[0.02340944],0.005,0.1,0.0,10.099989899999999,0
0.03841447830200195,-0.052953052235637635,[0.04278732],0.005,0.1,0.0,10.099999898999998,0
0.047115325927734375,-0.052953052235637635,[0.06647763],0.005,0.1,0.0,10.099999998989999,0
0.058019399642944336,-0.052953052235637635,[0.09352536],0.005,0.1,0.0,7.300009007678728,0
0.07007551193237305,-0.052953052235637635,[0.12309138],0.005,0.1,0.0,4.316111280080808,0
0.07899308204650879,-0.05099906506827094,[0.15443354],0.005,0.1,0.552076719357362,2.4459571827078226,0
0.08869099617004395,-0.0472864894502742,[0.18689239],0.005,0.1,3.1026711627883743,1.4634017574280076,0
0.09801554679870605,-0.04357391383227746,[0.21989562],0.005,0.1,5.0,0.903509526998412,0
0.1090545654296875,-0.03927514206407072,[0.25295769],0.005,0.1,5.0,0.6207985990028402,0
0.11781668663024902,-0.035953363879547326,[0.28566684],0.005,0.1,5.0,0.37882915715301724,0
0.12771010398864746,-0.03165459211134058,[0.31767326],0.005,0.1,5.0,0.271576839980501,0
0.13700246810913086,-0.027942016493343845,[0.34868965],0.005,0.1,5.0,0.21039203078280128,0
0.14496517181396484,-0.024815637025557124,[0.37848548],0.005,0.1,5.0,0.15847921502516002,0
0.15482139587402344,-0.020516865257350376,[0.40687848],0.005,0.1,5.0,0.1492769911947272,0
0.1640164852142334,-0.01680428963935364,[0.43373716],0.005,0.1,5.0,0.16376408304796244,0
0.17289996147155762,-0.013287112738093578,[0.45897221],0.005,0.1,4.809911947405752,0.14978383038820478,0
0.18196725845336914,-0.009769935836833513,[0.48252156],0.005,0.1,3.021236974525059,0.1480386549094785,0
0.19006919860839844,-0.006643556369046789,[0.50435406],0.005,0.1,0.4693336951077898,0.17260341691352965,0
0.1980278491973877,-0.0035171769012600643,[0.52447],0.005,0.1,-2.1251378399449394,0.17350946162983302,0
0.20701336860656738,0.0,[0.54288939],0.005,0.1,-3.9388267478942494,0.1872427604383833,0
0.21906232833862305,0.005080366635153426,[0.55965312],0.005,0.1,-5.0,0.20863833071279383,0
0.22965717315673828,0.009379138403360172,[0.57482146],0.005,0.1,-5.0,0.21637392724429527,0
0.23782968521118164,0.012700916587883566,[0.58846153],0.005,0.1,-5.0,0.21563200323632017,0
0.2470078468322754,0.016022694772406962,[0.60064544],0.005,0.1,-5.0,0.22630492221826692,0
0.25646138191223145,0.019930669107140364,[0.61145511],0.005,0.1,-5.0,0.23472703369261275,0
0.26476073265075684,0.0236432447251371,[0.62097751],0.005,0.1,-5.0,0.23377750736383807,0
0.2749950885772705,0.027942016493343845,[0.62930061],0.005,0.1,-5.0,0.24061280402711077,0
0.28403162956237793,0.03165459211134058,[0.63651631],0.005,0.1,-5.0,0.24630529518566302,0
0.29410552978515625,0.035757965162810657,[0.64271865],0.005,0.1,-5.0,0.2497841104141538,0
0.30373549461364746,0.039470540780807396,[0.6480001],0.005,0.1,-5.0,0.25229244681486773,0
0.3150601387023926,0.04435550869922414,[0.6524507],0.005,0.1,-4.988576141743809,0.25206330169194247,0
0.3269507884979248,0.049045077900904226,[0.6561592],0.005,0.1,-4.809437685991954,0.25980858680516095,0
0.3361961841583252,0.05236685608542762,[0.65921212],0.005,0.1,-4.552618184207505,0.25656743654831626,0
0.34484148025512695,0.05607943170342436,[0.66168701],0.005,0.1,-4.2649496727291085,0.24514596621236096,0
0.358473539352417,0.061550595772051124,[0.6636548],0.005,0.1,-3.970825401237383,0.24960093365021613,0
0.3689732551574707,0.06584936754025787,[0.66518582],0.005,0.1,-3.6828560817899345,0.2444057246413629,0
0.3795137405395508,0.07034353802520128,[0.66634513],0.005,0.1,-3.407388554614342,0.23913173995966786,0
0.3880937099456787,0.07405611364319802,[0.66719057],0.005,0.1,-3.1473967720582214,0.2349115272749257,0
0.3972151279449463,0.07757329054445808,[0.6677752],0.005,0.1,-2.9040178566905115,0.23117561690985697,0
0.4080076217651367,0.08187206231266483,[0.66814749],0.005,0.1,-2.401343704518422,0.22683893428526983,0
0.42047739028930664,0.0867570302310816,[0.66835373],0.005,0.1,-2.433945169911114,0.23157600547912285,0
0.4300563335418701,0.09125120071602501,[0.66843793],0.005,0.1,-2.327465404017513,0.22528821564466361,0
0.43857765197753906,0.0945729789005484,[0.66843518],0.005,0.1,-1.8924646926425694,0.2118829345384043,0
0.44649815559387207,0.09730856093486177,[0.66837246],0.005,0.1,-1.6876591553509188,0.21147389125701319,0
0.45430445671081543,0.10043494040264851,[0.66827372],0.005,0.1,-1.5756376063351665,0.20189309758052387,0
0.46295857429504395,0.1037567185871719,[0.66816003],0.005,0.1,-1.7719073042599156,0.20263621489194059,0
0.47429561614990234,0.10864168650558867,[0.66805479],0.005,0.1,-1.7328542937640345,0.21300738833037902,0
0.4835169315338135,0.11235426212358537,[0.66798054],0.005,0.1,-1.32861483194714,0.1979649477219013,0
0.4934828281402588,0.11645763517505547,[0.66795132],0.005,0.1,-1.1436858122453462,0.1974319388831789,0
0.5039680004119873,0.12095180565999888,[0.66797881],0.005,0.1,-1.0507870389010148,0.196133460729427,0
0.5143964290618896,0.1252505774282056,[0.66807765],0.005,0.1,-0.9925633273524707,0.208688484852169,0
0.5227646827697754,0.12896315304620237,[0.66825955],0.005,0.1,-0.9446567309680403,0.18950954152370855,0
0.5327985286712646,0.1326757286641991,[0.66852814],0.005,0.1,-0.8978386182079499,0.1887024811694755,0
0.5419554710388184,0.13619290556545915,[0.6688855],0.005,0.1,-0.8494923751808556,0.18779994770399952,0
0.5518391132354736,0.14068707605040257,[0.66933507],0.005,0.1,-0.79964595188067,0.18562998798472968,0
0.5599479675292969,0.1438134555181893,[0.66987593],0.005,0.1,-0.7491915395370597,0.17204716924883648,0
0.5709719657897949,0.14830762600313271,[0.6705062],0.005,0.1,-0.6991373945923278,0.18605856873549528,0
0.582977294921875,0.1529971952048128,[0.67122866],0.005,0.1,-0.6503327745543996,0.1818398282560693,0
0.5918107032775879,0.15651437210607286,[0.67204441],0.005,0.1,-0.6033993860489788,0.17885286576427245,0
0.6003873348236084,0.16003154900733293,[0.67294768],0.005,0.1,-0.5587450852805411,0.1632721941736076,0
0.6102626323699951,0.16393952334206632,[0.67393237],0.005,0.1,-0.5166040268860653,0.1771112906279927,0
0.620159387588501,0.16784749767679974,[0.67499762],0.005,0.1,-0.47707978530823275,0.1729173456646715,0
0.6285369396209717,0.17116927586132313,[0.67613885],0.005,0.1,-0.4401828072215054,0.15709806748263772,0
0.6389503479003906,0.17566344634626652,[0.67734566],0.005,0.1,-0.4058600401287473,0.156726782299146,0
0.6502590179443359,0.18054841426468332,[0.67861369],0.005,0.1,-0.37401717424204634,0.1686264515127656,0
0.6609125137329102,0.18484718603289005,[0.67994376],0.005,0.1,-0.3445347749713243,0.16353131568730359,0
0.6707541942596436,0.18855976165088678,[0.68133314],0.005,0.1,-0.31727968451272576,0.1599552150652965,0
0.6799571514129639,0.19207693855214686,[0.68277353],0.005,0.1,-0.2921128984646252,0.14513496074502746,0
0.6909782886505127,0.19657110903709027,[0.68425754],0.005,0.1,-0.26889488100427184,0.15909282544671702,0
0.700648307800293,0.20067448208856034,[0.68578425],0.005,0.1,0.02854930790420407,0.15644309472164883,0
0.7090797424316406,0.20419165898982042,[0.6873499],0.005,0.1,0.08139897675270148,0.14142255056432704,0
0.7200672626495361,0.20829503204129046,[0.68894557],0.005,0.1,0.044470985339688913,0.14351470390653492,0
0.7314348220825195,0.21298460124297056,[0.69056967],0.005,0.1,-0.014882746133140442,0.16056182944583258,0
0.7419283390045166,0.217478771727914,[0.69222687],0.005,0.1,-0.07000176397178229,0.15724112252896463,0
0.7519216537475586,0.22138674606264738,[0.69391813],0.005,0.1,-0.11244456946327237,0.15502495291462576,0
0.7599349021911621,0.22490392296390746,[0.69564115],0.005,0.1,-0.14139216670201385,0.15381607605125258,0
0.7720365524291992,0.22998428959906086,[0.69739393],0.005,0.1,-0.15879755740755525,0.15174691554940628,0
0.7823629379272461,0.2344784600840043,[0.69917469],0.005,0.1,-0.16727376268642274,0.15037170246736625,0
0.7899625301361084,0.23721404211831768,[0.70097853],0.005,0.1,-0.16925700610272257,0.13396102378366379,0
0.800952672958374,0.24151281388652443,[0.70280117],0.005,0.1,-0.1667416154770125,0.15437831768483767,0
0.8107120990753174,0.2456161869379945,[0.70464524],0.005,0.1,-0.16125468952288624,0.1514516771996611,0
0.8199520111083984,0.24913336383925455,[0.70650943],0.005,0.1,-0.15391838885000925,0.13233261788030656,0
0.8296337127685547,0.253041338173988,[0.70838581],0.005,0.1,0.13050489369939872,0.1343826164943428,0
0.8391213417053223,0.2563631163585114,[0.71027364],0.005,0.1,0.17250534232550627,0.15296673954083703,0
0.8503892421722412,0.26144348299366477,[0.71217822],0.005,0.1,-0.1496428705972086,0.1464570020465428,0
0.8595128059387207,0.2651560586116615,[0.71409718],0.005,0.1,-0.2500047179574887,0.12632884678274295,0
0.8706398010253906,0.2700410265300783,[0.71602181],0.005,0.1,0.019155811685968,0.12606842801096174,0
0.8782305717468262,0.2729720072811283,[0.71794748],0.005,0.1,0.07989381667348959,0.12646874970774305,0
0.8862309455871582,0.276098386748915,[0.71987304],0.005,0.1,0.061020821974062604,0.1260941122736701,0
0.8950057029724121,0.27942016493343846,[0.72179728],0.005,0.1,0.019366704504580546,0.12537519107122677,0
0.9069602489471436,0.2843051328518552,[0.72371902],0.005,0.1,-0.02194105263166584,0.12311256014835616,0
0.9166738986968994,0.28860390462006197,[0.72563715],0.005,0.1,-0.05502551525313369,0.12153563502704919,0
0.9246242046356201,0.29192568280458536,[0.72754788],0.005,0.1,-0.07851572295971637,0.10830134307395903,0
0.9329347610473633,0.2952474609891087,[0.72944536],0.005,0.1,-0.09351125244396521,0.11123211232397674,0
0.9447298049926758,0.2999370301907889,[0.73133118],0.005,0.1,-0.10180020990929126,0.12759153660961808,0
0.9539690017700195,0.30345420709204884,[0.73321019],0.005,0.1,-0.10513314674715732,0.11080536062351616,0
0.96295166015625,0.3069713839933089,[0.73508066],0.005,0.1,-0.1049753891828741,0.11279504191134507,0
0.9724748134613037,0.31087935832804237,[0.73694139],0.005,0.1,-0.10246389728805819,0.11399364062433173,0
0.9819912910461426,0.31498273137951244,[0.73879475],0.005,0.1,-0.37448047931013867,0.11489266284238589,0
0.9910926818847656,0.3186953069975092,[0.74063998],0.005,0.1,-0.4026798251188233,0.10199915743017103,0
1.002976894378662,0.32358027491592595,[0.74247708],0.005,0.1,-0.3421799872616684,0.1213671904305474,0
1.013944387435913,0.32768364796739596,[0.74431324],0.005,0.1,-0.2605078216098426,0.12095244865868131,0
1.0239379405975342,0.33178702101886604,[0.74615506],0.005,0.1,-0.4604481437014246,0.12087138819572048,0
1.0334506034851074,0.3356949953535995,[0.74800526],0.005,0.1,-0.43151528824581326,0.12107378161463456,0
1.0419249534606934,0.3390167735381229,[0.74986651],0.005,0.1,-0.32920432869769845,0.12183593318914465,0
1.0518226623535156,0.34312014658959294,[0.75174137],0.005,0.1,-0.21875425000146723,0.12225916558030886,0
1.0599207878112793,0.3462465260573797,[0.75362864],0.005,0.1,-0.40008219857047533,0.10500918360068612,0
1.0709302425384521,0.3505452978255864,[0.7555276],0.005,0.1,-0.36007101562927346,0.13026678935116212,0
1.0800933837890625,0.3540624747268465,[0.75744533],0.005,0.1,0.02396845476550577,0.12972606145619617,0
1.0891623497009277,0.3577750503448432,[0.75938425],0.005,0.1,0.1694915532095359,0.10864190787422028,0
1.099902629852295,0.36207382211305,[0.76133899],0.005,0.1,-0.06750926713609168,0.11386814156808932,0
1.1099474430084229,0.36617719516452,[0.76331311],0.005,0.1,-0.10580416258203686,0.14236362202407962,0
1.1209766864776611,0.37047596693272683,[0.76531761],0.005,0.1,-0.07157007012458691,0.13900108710392114,0
1.129542589187622,0.37399314383398685,[0.76735382],0.005,0.1,-0.019627280287640804,0.1132725931554904,0
1.1379365921020508,0.37770571945198356,[0.76941465],0.005,0.1,0.028384107399938147,0.11798859934181029,0
1.1476128101348877,0.381613693786717,[0.77149792],0.005,0.1,0.06566681064591506,0.12133332660588277,0
1.1568725109100342,0.38532626940471365,[0.77360559],0.005,0.1,0.0916231621572563,0.12350975350957431,0
1.165994644165039,0.38884344630597373,[0.77573892],0.005,0.1,0.10790124367700941,0.12462534841405974,0
1.1769208908081055,0.39314221807418054,[0.77789851],0.005,0.1,0.11667527184659732,0.12432974535549476,0
1.186802864074707,0.39724559112565055,[0.78008428],0.005,0.1,0.1199658262230545,0.12335229129374004,0
1.194939136505127,0.40056736931017395,[0.78229162],0.005,0.1,0.11942590679191349,0.10150031827216818,0
1.2039482593536377,0.404084546211434,[0.78451597],0.005,0.1,0.1163220486051196,0.12717459080284774,0
1.213923692703247,0.4081879192629041,[0.78675677],0.005,0.1,0.11158647061131485,0.1022270548587977,0
1.2220063209533691,0.4111189000139542,[0.78900538],0.005,0.1,0.10588620101106319,0.08762149626128361,0
1.2312231063842773,0.4150268743486876,[0.79125394],0.005,0.1,0.09968771752547059,0.11157889881320779,0
1.2388980388641357,0.417762456383001,[0.79350305],0.005,0.1,0.09331026842068521,0.0924747861699771,0
1.2488455772399902,0.42225662686794435,[0.79574914],0.005,0.1,0.08696718449551064,0.0950905091751802,0
1.2609524726867676,0.42733699350309784,[0.79798878],0.005,0.1,0.08079674588988794,0.09591247100141569,0
1.2713725566864014,0.4314403665545679,[0.80022587],0.005,0.1,0.07488472146160055,0.11460446335306007,0
1.2807512283325195,0.4353483408893013,[0.80246703],0.005,0.1,-0.2067577852964093,0.10919483638609259,0
1.2891786098480225,0.4386701190738247,[0.80471075],0.005,0.1,-0.24515397797837454,0.08852221426421203,0
1.300957202911377,0.44355508699224144,[0.80695267],0.005,0.1,-0.19498773318246945,0.10931161300582343,0
1.311882734298706,0.44746306132697483,[0.80919696],0.005,0.1,-0.3995344769105422,0.1074510868205859,0
1.3219249248504639,0.4513710356617082,[0.81144798],0.005,0.1,-0.366402148233296,0.1070240511866544,0
1.3299059867858887,0.454497415129495,[0.81370262],0.005,0.1,-0.25863547491139394,0.08798512499761395,0
1.339616060256958,0.4584053894642284,[0.815955],0.005,0.1,-0.14420858484617077,0.09419482611045846,0
1.3504691123962402,0.4627041612324352,[0.81820923],0.005,0.1,-0.3236860707624297,0.12411182072349618,0
1.3595106601715088,0.4658305407002219,[0.82047356],0.005,0.1,-0.2837774508929346,0.09889034112875157,0
1.367913007736206,0.4693477176014819,[0.82274713],0.005,0.1,-0.17740381332480892,0.10512205965686722,0
1.3791141510009766,0.4736464893696886,[0.82503434],0.005,0.1,-0.06771058543585001,0.1381993047430754,0
1.3879330158233643,0.4771636662709487,[0.82734357],0.005,0.1,-0.25301599541590486,0.10728887314358651,0
1.3969686031341553,0.4804854444554721,[0.82966852],0.005,0.1,-0.21902838726996748,0.08878113619842606,0
1.4089617729187012,0.48537041237388884,[0.83200389],0.005,0.1,-0.11825773218782247,0.1237459956727,0
1.4184303283691406,0.4890829879918856,[0.83435869],0.005,0.1,-0.01371026767170238,0.12378812279654636,0
1.42645263671875,0.4926001648931457,[0.8367401],0.005,0.1,0.07235383443621174,0.12283171196509171,0
1.4360556602478027,0.49631274051114244,[0.83914891],0.005,0.1,0.13524586843496886,0.1210484454134606,0
1.443894863128662,0.4992437212621924,[0.84158063],0.005,0.1,0.17710405962157727,0.09505165394832402,0
1.4519095420837402,0.5021747020132425,[0.84402205],0.005,0.1,0.2021110483817593,0.07942894206021327,0
1.4609029293060303,0.5056918789145026,[0.84646152],0.005,0.1,0.21451528951559312,0.08742604595411874,0
1.4701690673828125,0.5092090558157627,[0.84890163],0.005,0.1,0.21793045662422034,0.11578507871788771,0
1.4785456657409668,0.5127262327170228,[0.85134842],0.005,0.1,0.21518709466651462,0.09031117263472414,0
1.4879133701324463,0.5162434096182827,[0.85379823],0.005,0.1,0.20839967998542902,0.09372729234295311,0
1.4959042072296143,0.5193697890860695,[0.85624356],0.005,0.1,0.19909889295697614,0.07702743066705105,0
1.506775140762329,0.5234731621375396,[0.85868204],0.005,0.1,0.18836676285265336,0.10338319872517959,0
1.5159327983856201,0.526794940322063,[0.86111973],0.005,0.1,0.17695244384345654,0.10204725047403651,0
1.527951955795288,0.531484509523743,[0.8635615],0.005,0.1,0.16536375129245967,0.09972695217691883,0
1.5374650955200195,0.5351970851417398,[0.86600708],0.005,0.1,-0.12210196264845666,0.09801501901569709,0
1.5482211112976074,0.5391050594764732,[0.86845594],0.005,0.1,-0.16627800859766176,0.09625903989359309,0
1.5569071769714355,0.5426222363777332,[0.87090349],0.005,0.1,-0.12172599662004827,0.07634982868510001,0
1.5689687728881836,0.54692100814594,[0.87334578],0.005,0.1,-0.3316460799849216,0.09944967169122897,0
1.5772716999053955,0.5502427863304634,[0.87578734],0.005,0.1,-0.3036032495723211,0.09698090625936386,0
1.5858948230743408,0.5533691657982501,[0.87822812],0.005,0.1,-0.47665961938557994,0.07649022713530541,0
1.5969133377075195,0.5574725388497203,[0.88066424],0.005,0.1,-0.3998309462956693,0.09968580761070486,0
1.6063807010650635,0.5611851144677169,[0.88310049],0.005,0.1,-0.25233876592252324,0.0969558603165383,0
1.614912748336792,0.5643114939355037,[0.88553706],0.005,0.1,-0.3831267449627061,0.07618258704431784,0
1.6270039081573486,0.5688056644204471,[0.88797034],0.005,0.1,-0.29803533869809407,0.09990802045635903,0
1.634917974472046,0.5717366451714971,[0.89040153],0.005,0.1,-0.43206007316986966,0.07800846307242724,0
1.645056962966919,0.5756446195062305,[0.89283202],0.005,0.1,-0.329952424852454,0.10329426344022334,0
1.6536214351654053,0.5785756002572806,[0.89526351],0.005,0.1,-0.1672511733590076,0.08045453500194472,0
1.6608762741088867,0.581311182291594,[0.89768952],0.005,0.1,-0.013945005346262793,0.06702234249132111,0
1.6694834232330322,0.584242163042644,[0.90010116],0.005,0.1,-0.16866324575133013,0.07666274054972205,0
1.6778721809387207,0.5873685425104307,[0.90249596],0.005,0.1,-0.11510656136226816,0.0657043194207224,0
1.6868562698364258,0.5902995232614808,[0.90487781],0.005,0.1,-0.003279842487060869,0.10269159366107414,0
1.695868968963623,0.5936213014460042,[0.90725609],0.005,0.1,-0.16993625066239873,0.08328103408636897,0
1.703871726989746,0.5965522821970541,[0.90964071],0.005,0.1,-0.11652191350813988,0.12883349770456737,0
1.7124879360198975,0.5998740603815778,[0.91204198],0.005,0.1,-0.0009952574547694368,0.10144506453556694,0
1.720991611480713,0.6028050411326277,[0.91445885],0.005,0.1,-0.16344491595547056,0.08532858336800525,0
1.7305853366851807,0.6065176167506244,[0.91689257],0.005,0.1,-0.1065378139572446,0.14507484288715147,0
1.7402150630950928,0.6100347936518845,[0.91936347],0.005,0.1,0.011468269309500123,0.1584252619128309,0
1.7483456134796143,0.612770375686198,[0.92188386],0.005,0.1,0.12658944949226889,0.1248528338227825,0
1.7579081058502197,0.6162875525874579,[0.92445284],0.005,0.1,0.2173895932533878,0.1477752174795879,0
1.7659177780151367,0.6194139320552446,[0.92707719],0.005,0.1,0.2804976608531122,0.16937525830308278,0
1.7749111652374268,0.6225403115230315,[0.92976293],0.005,0.1,0.3193323751546257,0.13476224976490728,0
1.785872459411621,0.6268390832912382,[0.93251591],0.005,0.1,0.3391404854750023,0.22339499834111348,0
1.7954800128936768,0.6307470576259715,[0.93534841],0.005,0.1,0.6210271622054874,0.16896448683325885,0
1.805877685546875,0.6344596332439683,[0.93826334],0.005,0.1,0.9262923427948861,0.192732930388981,0
1.8152275085449219,0.6379768101452282,[0.94126316],0.005,0.1,1.1699695092013243,0.21317060846688682,0
1.8251008987426758,0.6414939870464884,[0.94436514],0.005,0.1,1.3334770393132063,0.3098768819423,0
1.8328537940979004,0.6448157652310118,[0.94757555],0.005,0.1,1.4241017913450689,0.3103804992366122,0
1.8443725109100342,0.6497007331494286,[0.95088339],0.005,0.1,1.7329887241317667,0.3932474820851492,0
1.855146884918213,0.6539995049176353,[0.95429463],0.005,0.1,2.032671697202561,0.35948450570888285,0
1.864997386932373,0.6579074792523687,[0.95782931],0.005,0.1,1.9720208103160832,0.43549013159074,0
1.8760745525360107,0.6624016497373121,[0.96149502],0.005,0.1,2.059240198986894,0.2947119067321422,0
1.889345407485962,0.6678728138059389,[0.96529611],0.005,0.1,1.8767528904729787,0.48025825949435774,0
1.8986124992370605,0.6717807881406723,[0.96924206],0.005,0.1,1.619571579397667,0.3192118343746297,0
1.9094908237457275,0.6758841611921423,[0.97332263],0.005,0.1,1.091730029970373,0.3023440388749393,0
1.9178705215454102,0.6792059393766657,[0.97751114],0.005,0.1,0.5639250178253316,0.2164782012976797,0
1.9298551082611084,0.6840909072950825,[0.98179103],0.005,0.1,0.12964762277883635,0.3052401087882284,0
1.9393916130065918,0.6883896790632892,[0.98616211],0.005,0.1,0.08248141370218737,0.29059996349510714,0
1.9503042697906494,0.692688450831496,[0.99062248],0.005,0.1,-0.10810155041064692,0.2785239741622056,0
1.960862159729004,0.6967918238829661,[0.99516108],0.005,0.1,-0.30735672785881657,0.2689401519359259,0
1.9723625183105469,0.7016767918013829,[0.99977412],0.005,0.1,-0.4678575935514663,0.33704853120805417,0
1.9808504581451416,0.7048031712691696,[1.00446375],0.005,0.1,-0.5797701152546377,0.304099974776526,0
1.9889788627624512,0.708124949453693,[1.00921521],0.005,0.1,-0.6478165696865287,0.21206907822132331,0
1.998300313949585,0.712228322505163,[1.01399982],0.005,0.1,-0.6810355252788234,0.21332185044246116,0
2.0085842609405518,0.7167224929901064,[1.01879904],0.005,0.1,-0.688555998378886,0.2122712035072664,0
2.0159924030303955,0.7198488724578932,[1.02360306],0.005,0.1,-0.6781099982468441,0.21069528523704786,0
2.0238990783691406,0.7229752519256799,[1.02839599],0.005,0.1,-0.6557262137802009,0.15545714491520812,0
2.031895875930786,0.7261016313934666,[1.03315066],0.005,0.1,-0.6258826672411126,0.12219575016661886,0
2.040864944458008,0.7296188082947267,[1.03784415],0.005,0.1,-0.5917967591501971,0.1421066552744922,0
2.050872325897217,0.7337221813461967,[1.04247051],0.005,0.1,-0.5557195720671413,0.1561759987640298,0
2.0608739852905273,0.7376301556809302,[1.04703149],0.005,0.1,-0.5191872238295415,0.1655763774799509,0
2.071892499923706,0.741928927449137,[1.05152885],0.005,0.1,-0.7592575728580341,0.1714707919916643,0
2.0817856788635254,0.7460323005006069,[1.05597076],0.005,0.1,-0.7576311735379188,0.22941237818319332,0
2.0908825397491455,0.7501356735520771,[1.0603647],0.005,0.1,-0.6693958630378221,0.16441140118389277,0
2.102485179901123,0.7548252427537571,[1.06471152],0.005,0.1,-0.5620044417763057,0.22430504981735555,0
2.1129512786865234,0.7589286158052272,[1.06901931],0.005,0.1,-0.46210506958805486,0.2152357544357638,0
2.1228673458099365,0.7628365901399606,[1.07329594],0.005,0.1,-0.3780537570820963,0.20981538468163813,0
2.131876230239868,0.766744564474694,[1.0775361],0.005,0.1,-0.3105386240850129,0.15458205381340479,0
2.142184257507324,0.7710433362429008,[1.08173619],0.005,0.1,-0.2574495526700996,0.2227790845413703,0
2.1508948802948,0.774560513144161,[1.08590057],0.005,0.1,-0.21600320202154072,0.16346921334779788,0
2.16188383102417,0.7794454810625776,[1.09002697],0.005,0.1,-0.4596269353373955,0.1746292779427154,0
2.172132968902588,0.783353455397311,[1.09411424],0.005,0.1,-0.46720084345700735,0.18422199915246587,0
2.1828577518463135,0.7878476258822544,[1.09816873],0.005,0.1,-0.39172125519928175,0.19129953426250873,0
2.1929209232330322,0.7915602015002512,[1.10219656],0.005,0.1,-0.2991389078145501,0.19781877560851852,0
2.2052841186523438,0.7966405681354046,[1.10621055],0.005,0.1,-0.21505045110023358,0.26704286786055526,0
2.2153470516204834,0.8009393399036113,[1.11022907],0.005,0.1,-0.14709322854438137,0.2522851964916267,0
2.2246885299682617,0.8046519155216081,[1.11426093],0.005,0.1,-0.0954770169305807,0.24107320427142215,0
2.233948230743408,0.8083644911396048,[1.11829949],0.005,0.1,-0.05778396684359244,0.1741601727429542,0
2.242856740951538,0.8118816680408648,[1.12233168],0.005,0.1,-0.0310424466826491,0.182735025857338,0
2.25083589553833,0.8152034462253882,[1.12635229],0.005,0.1,-0.012535698628329654,0.18667389918003552,0
2.2604167461395264,0.8191114205601217,[1.13036234],0.005,0.1,-4.640093905718557e-05,0.18520464736270673,0
2.2707746028900146,0.8234101923283283,[1.13436667],0.005,0.1,0.008132867982960403,0.2288407969607553,0
2.2798678874969482,0.8273181666630619,[1.13836732],0.005,0.1,0.013272652130949702,0.15883256513902913,0
2.2884790897369385,0.8308353435643218,[1.1423526],0.005,0.1,0.016297891368009215,0.15366425138216203,0
2.3009097576141357,0.8361111089162119,[1.14631107],0.005,0.1,0.017871876992311887,0.1475269314600224,0
2.3098599910736084,0.839628285817472,[1.15023814],0.005,0.1,0.018465039160708338,0.14406107839965263,0
2.3198583126068115,0.8437316588689421,[1.1541303],0.005,0.1,0.018408094894442447,0.14321452529828071,0
2.329066753387451,0.8472488357702022,[1.15798593],0.005,0.1,0.017931738628082484,0.14569523300563988,0
2.33840012550354,0.8509614113881988,[1.16180563],0.005,0.1,-0.25884270115387287,0.1504369069855397,0
2.347454786300659,0.854478588289459,[1.16559193],0.005,0.1,-0.2928535081768654,0.1568813956564472,0
2.355179786682129,0.857409569040509,[1.1693428],0.005,0.1,-0.23871813001894754,0.1215371678973906,0
2.364029884338379,0.861512942091979,[1.17305207],0.005,0.1,-0.16362078452252374,0.1390538443931404,0
2.374859094619751,0.8660071125769225,[1.17672252],0.005,0.1,-0.09407873177316778,0.15530239251952319,0
2.3849542140960693,0.8703058843451292,[1.18036471],0.005,0.1,-0.038409528529444084,0.1704821101081624,0
2.392862319946289,0.8734322638129159,[1.18398951],0.005,0.1,0.00267638289947535,0.1855861991333212,0
2.403489351272583,0.8777310355811228,[1.18760792],0.005,0.1,0.30726639427635577,0.19879882272141988,0
2.4108424186706543,0.8806620163321728,[1.19122347],0.005,0.1,0.3591070672649562,0.15341621246561157,0
2.420868158340454,0.8847653893836429,[1.19483307],0.005,0.1,0.3154034406175437,0.1783092833497328,0
2.4288699626922607,0.8880871675681662,[1.19844237],0.005,0.1,-0.03058496241578021,0.20079247924253454,0
2.4368386268615723,0.8914089457526896,[1.20205677],0.005,0.1,0.14427247203731947,0.15702336868822542,0
2.446474552154541,0.8953169200874231,[1.20568178],0.005,0.1,0.17584972427181103,0.25670690323197043,0
2.455853223800659,0.8990294957054198,[1.20933024],0.005,0.1,0.15318088321608567,0.192401880582976,0
2.4643051624298096,0.9019604764564698,[1.21300558],0.005,0.1,0.11551370932294852,0.21780411669589153,0
2.4760143756866455,0.90665004565815,[1.21671109],0.005,0.1,0.0787876707839988,0.23751440489597014,0
2.4867725372314453,0.9117304122933033,[1.22046555],0.005,0.1,0.048397173102036596,0.33840413141212194,0
2.4969117641448975,0.9158337853447734,[1.2242928],0.005,0.1,0.3012785077371225,0.3261905771029878,0
2.5066051483154297,0.9201325571129801,[1.22820444],0.005,0.1,0.31767221702602305,0.3173086815573823,0
2.5158443450927734,0.9234543352975034,[1.23219333],0.005,0.1,-0.025048320094427978,0.23039560155365443,0
2.528872013092041,0.929120898082867,[1.23625247],0.005,0.1,0.13409055669277814,0.3329632085806535,0
2.5388548374176025,0.9332242711343369,[1.24039118],0.005,0.1,0.14694433180960767,0.32247481353417623,0
2.5484378337860107,0.9369368467523338,[1.24461617],0.005,0.1,0.10848875493472629,0.3144758223623438,0
2.555875778198242,0.9400632262201205,[1.24891571],0.005,0.1,0.059516261265451426,0.2282807880035305,0
2.566005229949951,0.9443619979883273,[1.25327069],0.005,0.1,0.01574789905044209,0.24580701274550074,0
2.574978828430176,0.9482699723230607,[1.25767202],0.005,0.1,-0.018217718804114106,0.2592911001571677,0
2.5849077701568604,0.9517871492243207,[1.26211926],0.005,0.1,-0.042354772956599195,0.2693326697212343,0
2.5948245525360107,0.9554997248423175,[1.26661132],0.005,0.1,-0.33427109171125907,0.27672091140935384,0
2.603813409805298,0.9592123004603142,[1.27114665],0.005,0.1,-0.37689862032513244,0.2821152600758095,0
2.613340139389038,0.9631202747950476,[1.27572332],0.005,0.1,-0.32663314463320836,0.2857987212950829,0
2.6238372325897217,0.9672236478465177,[1.28033906],0.005,0.1,0.023951395478025245,0.28773822777210667,0
2.6332805156707764,0.971131622181251,[1.28499126],0.005,0.1,0.12830183528675268,0.28899572113021094,0
2.6411497592926025,0.9744534003657744,[1.28967704],0.005,0.1,-0.1440396704677825,0.29044841294524826,0
2.648848533630371,0.9777751785502978,[1.29438553],0.005,0.1,-0.20816426087600007,0.21454901358001421,0
2.656816244125366,0.9810969567348212,[1.2990914],0.005,0.1,0.08547699844410304,0.16867736591513532,0
2.6654841899871826,0.9846141336360814,[1.30377321],0.005,0.1,0.16146293844584683,0.20113335196945506,0
2.6739277839660645,0.9881313105373414,[1.3084286],0.005,0.1,0.15098898176539743,0.22654225576506606,0
2.6832125186920166,0.9916484874386016,[1.31306355],0.005,0.1,0.11285312234146234,0.2450843052265066,0
2.6908440589904785,0.9945794681896515,[1.31768312],0.005,0.1,0.07170170605647842,0.25891449515264087,0
2.6998348236083984,0.9982920438076482,[1.32228391],0.005,0.1,0.036537629083755935,0.19604469909980574,0
2.7083241939544678,1.0022000181423816,[1.32685549],0.005,0.1,0.2855825581240703,0.22165572164824768,0
2.7183597087860107,1.006107992477115,[1.33139722],0.005,0.1,0.2993589002067375,0.24225594019924518,0
2.7294299602508545,1.0106021629620585,[1.33592467],0.005,0.1,0.2311689454908448,0.3432185228202136,0
2.738922595977783,1.014510137296792,[1.34045143],0.005,0.1,0.1467679072559018,0.2473575246675459,0
2.7468254566192627,1.0178319154813154,[1.34496583],0.005,0.1,0.07142188250550308,0.1903080056906287,0
2.75856351852417,1.022716883399732,[1.34945843],0.005,0.1,0.012450254209520603,0.2998372650770645,0
2.767951250076294,1.0266248577344654,[1.35394536],0.005,0.1,-0.03019361210229416,0.30377827490154435,0
2.7758195400238037,1.0299466359189888,[1.35843269],0.005,0.1,-0.0591152811108477,0.22592559046023986,0
2.785865068435669,1.034050008970459,[1.36291801],0.005,0.1,-0.077413902102726,0.3375992238507714,0
2.79388165473938,1.0371763884382457,[1.36740755],0.005,0.1,-0.08788619681955523,0.24792925047457562,0
2.802932024002075,1.0408889640562422,[1.37189881],0.005,0.1,-0.09279404411784972,0.2698061055705371,0
2.8118362426757812,1.0442107422407658,[1.37639011],0.005,0.1,-0.0938641198312492,0.2888578586712511,0
2.820876359939575,1.0479233178587624,[1.38088035],0.005,0.1,-0.09236874927073163,0.22050595954366176,0
2.8298158645629883,1.0512450960432858,[1.38536098],0.005,0.1,-0.08922300042534236,0.25508957863450543,0
2.8395681381225586,1.0551530703780192,[1.38983386],0.005,0.1,-0.08507284604767752,0.2845524739348337,0
2.8488519191741943,1.0586702472792793,[1.39430984],0.005,0.1,-0.3564052879465639,0.31023819974296946,0
2.856827974319458,1.0619920254638027,[1.39879038],0.005,0.1,-0.38457473875165615,0.2388972628656322,0
2.8688571453094482,1.067267790815693,[1.40327774],0.005,0.1,-0.04844025422779294,0.38204424238175533,0
2.878737211227417,1.0713711638671628,[1.40779239],0.005,0.1,0.06567746878448033,0.39142298750205334,0
2.891535520553589,1.0762561317855797,[1.41236165],0.005,0.1,0.08583529759224935,0.5311168821103954,0
2.899489402770996,1.0797733086868397,[1.41700029],0.005,0.1,0.07087802942156822,0.3768806454527763,0
2.9068245887756348,1.082508890721153,[1.42170247],0.005,0.1,0.04660504462322339,0.39846279175542143,0
2.91582989692688,1.0864168650558865,[1.42645381],0.005,0.1,0.023385005646997636,0.3005537075602234,0
2.9248368740081787,1.0901294406738833,[1.43124199],0.005,0.1,0.004635202563139897,0.34542785173657325,0
2.9328463077545166,1.0934512188584067,[1.43606607],0.005,0.1,-0.009168344408146746,0.3829183268496037,0
2.9408254623413086,1.0965775983261934,[1.44092509],0.005,0.1,-0.018646502853699946,0.294977506996169,0
2.949425220489502,1.1000947752274535,[1.44580848],0.005,0.1,-0.02470727805514747,0.3464947072620076,0
2.9586381912231445,1.1038073508454502,[1.45071691],0.005,0.1,-0.02821962122702946,0.38821185633622635,0
2.9689393043518066,1.1079107238969204,[1.45566054],0.005,0.1,-0.029905388627982837,0.4197894441549843,0
2.9768171310424805,1.1112325020814438,[1.46063798],0.005,0.1,-0.030323838161060143,0.3199728821672842,0
2.9858407974243164,1.1149450776994405,[1.46563803],0.005,0.1,-0.029890819871400708,0.37025540086828373,0
2.99655818939209,1.1198300456178572,[1.47067057],0.005,0.1,-0.028907212579345205,0.5513263233093503,0
3.0059306621551514,1.123542621235854,[1.47575329],0.005,0.1,-0.027586314463183156,0.3995995915818749,0
3.013786554336548,1.1262782032701673,[1.48088087],0.005,0.1,-0.02607674357006813,0.4313087117660703,0
3.024805784225464,1.1307723737551107,[1.48604796],0.005,0.1,-0.024480317589628618,0.4528383095525235,0
3.0340707302093506,1.1346803480898442,[1.49125885],0.005,0.1,-0.022865481396385133,0.46709128445442505,0
3.0442776679992676,1.1389791198580508,[1.49651593],0.005,0.1,-0.021277150214458536,0.47432952463548034,0
3.053818941116333,1.1424962967593109,[1.50181986],0.005,0.1,-0.2957821704469715,0.4780668623098073,0
3.0654289722442627,1.1473812646777275,[1.50717882],0.005,0.1,-0.32744555026663325,0.6218476335857421,0
3.074345111846924,1.1510938402957245,[1.51259813],0.005,0.1,-0.27096853310441815,0.4351282909808153,0
3.0848426818847656,1.155001814630458,[1.51806222],0.005,0.1,0.08244904070109979,0.4400356250929662,0
3.093900203704834,1.1587143902484545,[1.5235564],0.005,0.1,0.18730438655558657,0.4426273095775872,0
3.1041805744171143,1.1630131620166613,[1.52908488],0.005,0.1,0.18995252665886175,0.5751774770198386,0
3.111832618713379,1.1659441427677113,[1.53464121],0.005,0.1,0.15690736957067158,0.5813396144489573,0
3.1219890117645264,1.1702429145359179,[1.54020125],0.005,0.1,0.11676466219877425,0.6781825229425744,0
3.1338062286376953,1.1753232811710714,[1.54576097],0.005,0.1,-0.195475877588958,0.5926134380342817,0
3.144824266433716,1.179817451656015,[1.55132497],0.005,0.1,-0.2576221466451626,0.5337748610593638,0
3.1535754203796387,1.1835300272740117,[1.55688777],0.005,0.1,-0.2243388036453146,0.4939263728750673,0
3.165191411972046,1.1880241977589552,[1.56244413],0.005,0.1,-0.16395889508972167,0.46452035667192687,0
3.174903631210327,1.192127570810425,[1.56798914],0.005,0.1,-0.10435856830960485,0.443426038219286,0
3.1869821548461914,1.1968171400121053,[1.57352617],0.005,0.1,-0.05508102612975824,0.54723799395059,0
3.1947925090789795,1.199943519479892,[1.57905747],0.005,0.1,-0.2938675409704554,0.3829038061325996,0
3.2053723335266113,1.2044376899648352,[1.58456813],0.005,0.1,-0.024438114503063657,0.3785682877338518,0
3.2138187885284424,1.2079548668660955,[1.5900449],0.005,0.1,0.08170015173219523,0.37531797046288695,0
3.2222912311553955,1.211276645050619,[1.59548413],0.005,0.1,0.11411199196710187,0.3716857035120034,0
3.2325220108032227,1.2153800181020888,[1.60088256],0.005,0.1,0.11525632948166097,0.36727422072749816,0
3.2407946586608887,1.2183109988531389,[1.60622987],0.005,0.1,0.104732031038762,0.2757256197701388,0
3.2492599487304688,1.2222189731878725,[1.61151017],0.005,0.1,0.09119326414928378,0.298428409503607,0
3.25982928276062,1.2265177449560791,[1.61671845],0.005,0.1,0.07816188495917653,0.3160852400216867,0
3.26983380317688,1.230816516724286,[1.62185904],0.005,0.1,-0.20920645564382942,0.329886349532753,0
3.2783985137939453,1.2345290923422825,[1.62693657],0.005,0.1,-0.2517624759607852,0.34044594504326425,0
3.288360595703125,1.2386324653937526,[1.63195582],0.005,0.1,-0.20438213557393178,0.3481867814444769,0
3.2988040447235107,1.2427358384452227,[1.63692159],0.005,0.1,-0.13459196608694035,0.3537005629189833,0
3.3087925910949707,1.2466438127799562,[1.64183857],0.005,0.1,-0.06923086023927606,0.3572364650698134,0
3.3187479972839355,1.2505517871146896,[1.64671108],0.005,0.1,-0.016883752671686653,0.3588278286136214,0
3.3285558223724365,1.2546551601661597,[1.65154302],0.005,0.1,0.021529502043990206,0.358778996100231,0
3.3368046283721924,1.2581723370674196,[1.65633044],0.005,0.1,0.0478991837208082,0.2715666348394532,0
3.345867872238159,1.2616895139686797,[1.66107037],0.005,0.1,0.06480580515592836,0.38823749711610933,0
3.3547887802124023,1.2652066908699398,[1.66576836],0.005,0.1,0.07467539345863125,0.2904556141193021,0
3.365807056427002,1.2697008613548835,[1.67042988],0.005,0.1,0.07950773059364863,0.40727571111195515,0
3.3758175373077393,1.2738042344063532,[1.67506034],0.005,0.1,0.08084583602996745,0.3023723713600675,0
3.3858273029327393,1.2779076074578233,[1.67965747],0.005,0.1,0.07983440879398854,0.3223209175961793,0
3.3969738483428955,1.2824017779427668,[1.6842278],0.005,0.1,0.07730059030685792,0.44188180865149,0
3.404794931411743,1.2857235561272902,[1.6887851],0.005,0.1,0.07383038026574895,0.32517918358937137,0
3.4148404598236084,1.2898269291787603,[1.69332613],0.005,0.1,0.06983202748880735,0.341964855740463,0
3.4236886501312256,1.2939303022302302,[1.6978485],0.005,0.1,0.06558531544880417,0.3553112228816312,0
3.433830499649048,1.2978382765649636,[1.70235814],0.005,0.1,0.33731684290690656,0.3644913024251669,0
3.4447803497314453,1.3019416496164338,[1.70686007],0.005,0.1,0.3661982114727802,0.37010497209994225,0
3.454810380935669,1.306045022667904,[1.71135831],0.005,0.1,0.3069999903102467,0.37230555771279317,0
3.4635536670684814,1.3097575982859004,[1.71585581],0.005,0.1,0.22700380339224469,0.3726281390682625,0
3.4727845191955566,1.313665572620634,[1.72035445],0.005,0.1,0.15278590137474846,0.3703748121761574,0
3.4809417724609375,1.3169873508051573,[1.72484777],0.005,0.1,0.0926965776620358,0.279599231387823,0
3.489777088165283,1.3203091289896807,[1.72932234],0.005,0.1,0.0474612687369244,0.300174796302402,0
3.498816967010498,1.3240217046076777,[1.73377364],0.005,0.1,0.015034126044278708,0.3129512984677261,0
3.508795738220215,1.327929678942411,[1.73820456],0.005,0.1,-0.007288039522368367,0.31909462277827966,0
3.516753911972046,1.3312514571269343,[1.74260997],0.005,0.1,-0.022027734522492598,0.24593202749822105,0
3.526860475540161,1.335159431461668,[1.74698478],0.005,0.1,-0.031260999135919565,0.34309069002995984,0
3.539318323135376,1.3402397980968213,[1.75133773],0.005,0.1,-0.03659174089871111,0.3307199105327241,0
3.548790454864502,1.3441477724315547,[1.75567553],0.005,0.1,-0.039213928477829875,0.3197999015295165,0
3.559434413909912,1.348641942916498,[1.75999629],0.005,0.1,-0.03999517882802613,0.3090872655915495,0
3.568796396255493,1.3523545185344947,[1.76429772],0.005,0.1,-0.039555267678075726,0.29962376278557057,0
3.578772783279419,1.3562624928692282,[1.76857714],0.005,0.1,-0.038331062431361834,0.29011855661545133,0
3.5887367725372314,1.3603658659206983,[1.77283157],0.005,0.1,-0.036626940733265945,0.2807330753226708,0
3.598451614379883,1.3642738402554317,[1.7770578],0.005,0.1,-0.034652545771620843,0.2719113584060251,0
3.605788469314575,1.3674002197232182,[1.78125256],0.005,0.1,-0.03255042731255934,0.26443619530192475,0
3.6142313480377197,1.3707219979077419,[1.78540698],0.005,0.1,-0.03041597926681402,0.20369788010979514,0
3.624495506286621,1.3750207696759482,[1.78950778],0.005,0.1,-0.30435003415035283,0.21284786272694403,0
3.633774757385254,1.3787333452939452,[1.79354967],0.005,0.1,-0.05940175678205159,0.21948809111355796,0
3.644808769226074,1.3832275157788887,[1.79753419],0.005,0.1,0.03076092027406304,0.22187112344518067,0
3.6534762382507324,1.3867446926801488,[1.8014629],0.005,0.1,0.05358259434563978,0.2239800982693478,0
3.662766456604004,1.3902618695814086,[1.80533759],0.005,0.1,0.04974135625053465,0.22510801736784564,0
3.6747655868530273,1.394951438783089,[1.80916033],0.005,0.1,0.03744759940080819,0.22496343604287997,0
3.6847729682922363,1.3992502105512956,[1.81293357],0.005,0.1,0.30035693379938844,0.22503152777288107,0
3.693124294281006,1.4027673874525557,[1.81666009],0.005,0.1,0.3222862471599408,0.22596820736505738,0
3.7024145126342773,1.4066753617872891,[1.82034303],0.005,0.1,0.25858598924181053,0.22677552326923286,0
3.7133264541625977,1.4111695322722326,[1.82398576],0.005,0.1,0.17631302650553757,0.22726627564473237,0
3.7212259769439697,1.414491310456756,[1.8275919],0.005,0.1,0.10157575941955463,0.22895109154105212,0
3.7308104038238525,1.4182038860747526,[1.83116522],0.005,0.1,0.04224615796629071,0.23049053328748517,0
3.739320993423462,1.421525664259276,[1.8347039],0.005,0.1,-0.0013565047726399257,0.1825687863040351,0
3.7468819618225098,1.4246520437270627,[1.8381957],0.005,0.1,-0.031594309267966594,0.15415518618726065,0
3.7547779083251953,1.4281692206283225,[1.84163108],0.005,0.1,-0.05140431484354185,0.176087747492256,0
3.7648088932037354,1.4322725936797929,[1.84501426],0.005,0.1,-0.063475816329422,0.19364463726835537,0
3.773406505584717,1.435789770581053,[1.84835544],0.005,0.1,-0.07000022442013668,0.20763538317805874,0
3.7838592529296875,1.4396977449157864,[1.8516641],0.005,0.1,-0.07265882820736733,0.2182220006909235,0
3.793250560760498,1.4432149218170465,[1.85494897],0.005,0.1,-0.3487339620295169,0.226666625688254,0
3.802572011947632,1.4473182948685164,[1.85821794],0.005,0.1,-0.38017177587362805,0.23265755977346367,0
3.8117594718933105,1.4508354717697765,[1.86147815],0.005,0.1,-0.32230112674391287,0.23763946852134163,0
3.821882963180542,1.4551342435379833,[1.86473591],0.005,0.1,-0.2428009623503612,0.2407225867143783,0
3.830822229385376,1.4584560217225064,[1.8679908],0.005,0.1,-0.1685275137284613,0.18985167909031112,0
3.8407669067382812,1.4627547934907135,[1.87123666],0.005,0.1,-0.10802669265848268,0.2053373126648324,0
3.851228952407837,1.46705356525892,[1.87448022],0.005,0.1,-0.06215949335154025,0.2762138739160927,0
3.8597662448883057,1.4705707421601801,[1.87773309],0.005,0.1,-0.02897317420039943,0.2099915903358713,0
3.8698980808258057,1.474283317778177,[1.88099307],0.005,0.1,-0.0058278210078319004,0.21954928795563103,0
3.8785765171051025,1.4779958933961739,[1.8842581],0.005,0.1,0.00975665789167441,0.22655312188752913,0
3.8886826038360596,1.4820992664476438,[1.88753214],0.005,0.1,0.01982840438322205,0.23070888007805512,0
3.8976387977600098,1.4856164433489039,[1.89081829],0.005,0.1,0.02597347835333433,0.23369551598018246,0
3.907381057739258,1.4903060125505836,[1.89411887],0.005,0.1,0.30541327765570614,0.2342068100455686,0
3.918975830078125,1.494409385602054,[1.89743552],0.005,0.1,0.3400570976371433,0.23428290289763054,0
3.9316725730895996,1.4996851509539442,[1.90077507],0.005,0.1,0.2852136013089841,0.29334540037209056,0
3.942462921142578,1.503788524005414,[1.90414858],0.005,0.1,0.2085528902158906,0.2737569442597106,0
3.951672077178955,1.5076964983401473,[1.90755905],0.005,0.1,0.13692993639351866,0.25970171168604733,0
3.9609534740448,1.5114090739581443,[1.9109969],0.005,0.1,0.07889434240179095,0.1963670855725669,0
3.9722068309783936,1.5164894405932978,[1.91445344],0.005,0.1,0.03531390902525065,0.2578340802199144,0
3.9807496070861816,1.5200066174945577,[1.91792667],0.005,0.1,0.004244552800007063,0.19475257051663433,0
3.9892032146453857,1.5233283956790813,[1.92140869],0.005,0.1,-0.01694399353337607,0.2017453142368693,0
3.99873948097229,1.5272363700138143,[1.92489235],0.005,0.1,-0.030721767355753563,0.20572845793477587,0
4.011650800704956,1.5323167366489678,[1.92838218],0.005,0.1,-0.31516519387382624,0.25848869770530175,0
4.020836353302002,1.5362247109837017,[1.93188669],0.005,0.1,-0.3528983675162999,0.24070544750946285,0
4.030049562454224,1.5393510904514882,[1.93540129],0.005,0.1,-0.29978675633053176,0.18125613577867628,0
4.038744688034058,1.5430636660694848,[1.93891057],0.005,0.1,-0.2239168894794426,0.18418069037945406,0
4.050887584686279,1.5479486339879014,[1.94241122],0.005,0.1,-0.1524471363320271,0.2286634555772419,0
4.060068845748901,1.5520520070393715,[1.94590505],0.005,0.1,-0.09414410725925583,0.1712489152586707,0
4.069820165634155,1.5561553800908419,[1.9493829],0.005,0.1,-0.05002860957518214,0.17185351826328324,0
4.080285310745239,1.5600633544255753,[1.95284123],0.005,0.1,-0.018263098243374205,0.210818561655669,0
4.088872909545898,1.5635805313268354,[1.95628158],0.005,0.1,0.0037094275088611923,0.15909555122927796,0
4.098779916763306,1.5676839043783053,[1.9596953],0.005,0.1,0.01830931888151978,0.15908407831711976,0
4.1087541580200195,1.5719826761465123,[1.96307485],0.005,0.1,0.02754153079652795,0.15826405836011664,0
4.118683576583862,1.576086049197982,[1.96641863],0.005,0.1,0.03296073129272948,0.15730959245032844,0
4.12840461730957,1.5801894222494521,[1.96972551],0.005,0.1,0.03572696524228754,0.1562949986321602,0
4.136740684509277,1.5835112004339755,[1.9729904],0.005,0.1,-0.2393537237481502,0.12604666028083739,0
4.145776033401489,1.5870283773352356,[1.97620494],0.005,0.1,-0.2727251866534891,0.13392319645954523,0
4.154378652572632,1.5905455542364957,[1.97936736],0.005,0.1,-0.2186529985674867,0.14011429915597537,0
4.1627256870269775,1.5936719337042826,[1.9824815],0.005,0.1,-0.14407383461580953,0.14498616659815225,0
4.171737909317017,1.5973845093222792,[1.98554674],0.005,0.1,-0.0753325795708642,0.11913953340288888,0
4.180755615234375,1.6012924836570126,[1.98855865],0.005,0.1,-0.020627978697492368,0.12878779000667662,0
4.1887526512146,1.6044188631247993,[1.99151891],0.005,0.1,0.019410481110998832,0.13685500966925893,0
4.201670408248901,1.6096946284766893,[1.99443906],0.005,0.1,0.046886210359629754,0.17570901220884114,0
4.211735725402832,1.6136026028114228,[1.9973295],0.005,0.1,0.06453371728650353,0.13641430537246985,0
4.221898317337036,1.6179013745796298,[2.0001949],0.005,0.1,0.07488910570216742,0.17576471237336347,0
4.229791879653931,1.6210277540474165,[2.00303965],0.005,0.1,0.08003023888980634,0.13667322587837363,0
4.2418434619903564,1.6263035193993067,[2.00586784],0.005,0.1,0.08155520372176538,0.1752500373481098,0
4.249736070632935,1.6298206963005666,[2.0086832],0.005,0.1,0.08064735658039546,0.1355632707126799,0
4.259747266769409,1.6337286706352998,[2.01148438],0.005,0.1,0.07816086666151917,0.14049903693351548,0
4.270751476287842,1.6380274424035066,[2.01427056],0.005,0.1,0.07470055645295415,0.14425716344144024,0
4.279754877090454,1.6417400180215034,[2.01704623],0.005,0.1,0.07068772837328113,0.14769296282157793,0
4.289369344711304,1.6458433910729737,[2.01981559],0.005,0.1,0.06641117413379664,0.15008065065411555,0
4.29996395111084,1.649751365407707,[2.02258261],0.005,0.1,-0.2139730483918872,0.15244980968595945,0
4.309770584106445,1.6536593397424404,[2.025351],0.005,0.1,-0.2513849015664949,0.15453549639487685,0
4.318740606307983,1.6571765166437002,[2.02812421],0.005,0.1,-0.2004347808881225,0.15638667912722445,0
4.328795671463013,1.6616706871286435,[2.03090533],0.005,0.1,-0.12830741018725067,0.15716268463704533,0
4.337800741195679,1.6651878640299036,[2.03369704],0.005,0.1,-0.06152547649018585,0.15828835198541552,0
4.349781274795532,1.6702682306650571,[2.03650157],0.005,0.1,-0.008415035192833643,0.1577302186865674,0
4.35883641242981,1.6739808062830537,[2.03932059],0.005,0.1,0.030303182127681384,0.15767229956142476,0
4.368812561035156,1.6782795780512607,[2.04215527],0.005,0.1,0.056667003851175,0.15664601198457154,0
4.378738880157471,1.6819921536692575,[2.04500613],0.005,0.1,0.07336358001876966,0.15531501888944954,0
4.390226602554321,1.6866817228709376,[2.04787783],0.005,0.1,0.08289459068521011,0.190260413950548,0
4.401476621627808,1.6913712920726174,[2.05077824],0.005,0.1,0.36335102182415907,0.17411188434351027,0
4.409733772277832,1.6946930702571408,[2.0537034],0.005,0.1,0.39736014449829576,0.1300019627906577,0
4.420495510101318,1.6987964433086111,[2.05663955],0.005,0.1,0.34078317880472736,0.13050070061713057,0
4.429845094680786,1.702509018926608,[2.0595789],0.005,0.1,0.2616977179928659,0.1299255537056491,0
4.439815521240234,1.706416993261341,[2.06251882],0.005,0.1,0.18725038669120003,0.12815164775405682,0
4.44890570640564,1.7103249675960746,[2.06545629],0.005,0.1,0.1261945213989159,0.12535297443615995,0
4.458149194717407,1.7142329419308078,[2.06838807],0.005,0.1,0.07953698831034971,0.1224778079859442,0
4.465717315673828,1.7173593213985947,[2.07130673],0.005,0.1,0.04542620561849741,0.09697617783339411,0
4.47761869430542,1.7224396880337483,[2.07420577],0.005,0.1,0.02129141079843025,0.12417882042406596,0
4.486795902252197,1.7261522636517448,[2.07708792],0.005,0.1,0.0046989981593061805,0.11972704229896558,0
4.494735479354858,1.7294740418362682,[2.07995135],0.005,0.1,-0.006368596994028956,0.09411862386068091,0
4.503973960876465,1.7333820161710016,[2.08278632],0.005,0.1,-0.013477934673908043,0.0974501644089928,0
4.512722969055176,1.7365083956387886,[2.08558887],0.005,0.1,-0.017800204072010398,0.09998484726813969,0
4.522389888763428,1.7408071674069951,[2.08835992],0.005,0.1,-0.020190203848900377,0.10077412358670104,0
4.530730724334717,1.7441289455915185,[2.09109648],0.005,0.1,-0.021261630404027364,0.08214252434448871,0
4.54073166847229,1.748232318642989,[2.09379614],0.005,0.1,-0.021449765771327615,0.1065853444603846,0
4.548708200454712,1.7511632993940385,[2.09646104],0.005,0.1,-0.02106033846718129,0.08526148998560407,0
4.556758403778076,1.7542896788618254,[2.09908559],0.005,0.1,-0.2963445627875673,0.07239625608869646,0
4.566495180130005,1.7580022544798222,[2.10166548],0.005,0.1,-0.32849720587817544,0.09734780149034822,0
4.577946901321411,1.7626918236815023,[2.10420933],0.005,0.1,-0.2723105111549914,0.09694547545961896,0
4.59099268913269,1.767381392883182,[2.10672873],0.005,0.1,-0.47112465519801455,0.11796801742168943,0
4.599562883377075,1.7707031710677057,[2.10922989],0.005,0.1,-0.432582526414556,0.0902943562519481,0
4.609878063201904,1.7750019428359125,[2.1117105],0.005,0.1,-0.595782051611489,0.09109539762084932,0
4.6197121143341064,1.7791053158873826,[2.1141689],0.005,0.1,-0.7857850949833233,0.09170419145557462,0
4.628718852996826,1.7828178915053792,[2.11660785],0.005,0.1,-0.6628505121483577,0.09206592037887341,0
4.638710975646973,1.786530467123376,[2.11902998],0.005,0.1,-0.45455337826771514,0.09222863198590903,0
4.648709297180176,1.7902430427413727,[2.1214378],0.005,0.1,-0.5289296775271548,0.09237725506299439,0
4.65745210647583,1.7931740234924227,[2.12382981],0.005,0.1,-0.3978098095893706,0.0746788850324519,0
4.666759252548218,1.7968865991104195,[2.12620116],0.005,0.1,-0.22065923300719756,0.07962790139896973,0
4.675741195678711,1.8004037760116798,[2.12855629],0.005,0.1,-0.05969746699610791,0.10478810866985498,0
4.684763431549072,1.8037255541962032,[2.13090348],0.005,0.1,-0.209853223605674,0.08205557921125944,0
4.692705392837524,1.8068519336639899,[2.13323804],0.005,0.1,-0.1531026303813387,0.06851422300309422,0
4.705714464187622,1.8117369015824063,[2.13555663],0.005,0.1,-0.31471193333718156,0.09608472993115799,0
4.7137367725372314,1.8146678823334566,[2.13786955],0.005,0.1,-0.2361124524227124,0.09781548485022096,0
4.723714590072632,1.8185758566681898,[2.14018587],0.005,0.1,-0.368304654725409,0.0985357882424813,0
4.731723308563232,1.8213114387025033,[2.14250493],0.005,0.1,-0.2627972450511262,0.07831910453206459,0
4.743074655532837,1.8258056091874466,[2.14482608],0.005,0.1,-0.3736817608963454,0.10547102521694099,0
4.750699281692505,1.8287365899384969,[2.14715287],0.005,0.1,-0.5286922376176639,0.08185746566708037,0
4.760714292526245,1.8324491655564934,[2.14948379],0.005,0.1,-0.38607661663379006,0.08532442089069446,0
4.768708944320679,1.835184747590807,[2.15181709],0.005,0.1,-0.446127800455015,0.08772926312701543,0
4.779603481292725,1.8390927219255402,[2.15415501],0.005,0.1,-0.2786360772132123,0.08813978556317213,0
4.788872480392456,1.8422191013933271,[2.15649885],0.005,0.1,-0.34239369206522163,0.08798423992645399,0
4.799225807189941,1.8459316770113239,[2.15884913],0.005,0.1,-0.1883525629780145,0.08689460143376539,0
4.808743000030518,1.8492534551958473,[2.16120571],0.005,0.1,0.008812177886763889,0.08547296979588866,0
4.81903338432312,1.8527706320971074,[2.16357169],0.005,0.1,-0.09374268483368477,0.1035429703437001,0
4.82672643661499,1.8553108154146838,[2.16594544],0.005,0.1,0.003841435904991662,0.10368657642598332,0
4.835272550582886,1.8584371948824707,[2.16831389],0.005,0.1,-0.12875513053251722,0.09565619114577849,0
4.844690799713135,1.8615635743502574,[2.17066954],0.005,0.1,-0.032693109372381915,0.08982817678567488,0
4.854388475418091,1.8652761499682542,[2.17301361],0.005,0.1,0.11913751028615421,0.08533725581838818,0
4.861770868301392,1.8680117320025675,[2.17534707],0.005,0.1,-0.017390208875999846,0.08244143503507224,0
4.872185468673706,1.871724307620564,[2.17767082],0.005,0.1,0.05541799568749167,0.07993350830250852,0
4.882816553115845,1.8752414845218242,[2.17998564],0.005,0.1,-0.09490456680336853,0.07808810840069452,0
4.8917236328125,1.8781724652728744,[2.1822923],0.005,0.1,-0.011336734932043277,0.07681043328283443,0
4.9017322063446045,1.8816896421741343,[2.18459142],0.005,0.1,-0.14423640299122528,0.07541176555421136,0
4.910146951675415,1.8848160216419212,[2.18687984],0.005,0.1,-0.043818472582170157,0.0597050951270286,0
4.920071363449097,1.8881377998264446,[2.18915119],0.005,0.1,-0.16286422025177794,0.062468988853377844,0
4.9318528175354,1.892045774161178,[2.19140708],0.005,0.1,-0.3280042095624817,0.07865929775129638,0
4.943691968917847,1.896149147212648,[2.19365568],0.005,0.1,-0.4726738961978376,0.07412055446928678,0
4.954468727111816,1.899666324113908,[2.19590316],0.005,0.1,-0.3015544584779142,0.08538367188769715,0
4.963547706604004,1.902206507431485,[2.19815064],0.005,0.1,-0.33368332205932727,0.06355820051026644,0
4.9727160930633545,1.9051374881825347,[2.20039185],0.005,0.1,-0.14511109503585312,0.061709361902429226,0
4.983685255050659,1.9086546650837948,[2.20262087],0.005,0.1,-0.47163722618913306,0.05972659099193215,0
4.995553255081177,1.9125626394185284,[2.20483844],0.005,0.1,-0.6202870573631207,0.06914030623637625,0
5.004356622695923,1.9154936201695782,[2.20704476],0.005,0.1,-0.6759738073324242,0.0528542695026543,0
5.01444149017334,1.9190107970708385,[2.20923366],0.005,0.1,-0.40699591729299,0.05188677082404992,0
5.024685859680176,1.9219417778218884,[2.21139986],0.005,0.1,-0.3557362209494428,0.05117664983371702,0
5.0374977588653564,1.9256543534398853,[2.21354469],0.005,0.1,-0.6560906503084232,0.06022448111209322,0
5.046680450439453,1.9281945367574618,[2.21566938],0.005,0.1,-0.7286860390831713,0.04725105685568005,0
5.056282043457031,1.9313209162252487,[2.21776928],0.005,0.1,-0.7054056604535095,0.04687783315384467,0
5.064469814300537,1.9336657008260885,[2.21984061],0.005,0.1,-0.6472116887337482,0.04741133868109623,0
5.072711706161499,1.9362058841436656,[2.22188071],0.005,0.1,-0.5810658544010486,0.039785601873584805,0
5.083377838134766,1.9391368648947156,[2.22388797],0.005,0.1,-0.5179544385773096,0.05049051929217403,0
5.091707706451416,1.9416770482122923,[2.22586714],0.005,0.1,-0.4615958212571204,0.049878157023571595,0
5.100792407989502,1.9440218328131322,[2.22781975],0.005,0.1,-0.41258059249073503,0.04107155609630141,0
5.109211444854736,1.9463666174139724,[2.22974169],0.005,0.1,-0.37029186119442703,0.042873259632303456,0
5.11744236946106,1.948320604581339,[2.23163256],0.005,0.1,-0.33376041869550277,0.04419854294623678,0
5.129241466522217,1.9518377814825991,[2.23349507],0.005,0.1,-0.5780570319183844,0.04450355922261935,0
5.139419794082642,1.9543779648001756,[2.23533156],0.005,0.1,-0.5833888785097142,0.04464626690300383,0
5.147683620452881,1.9563319519675424,[2.23714403],0.005,0.1,-0.5037603528511365,0.044565954149427794,0
5.158544540405273,1.959067534001856,[2.23893409],0.005,0.1,-0.4058588829690577,0.043989404001113626,0
5.168730974197388,1.961803116036169,[2.24070298],0.005,0.1,-0.5918428574076239,0.0432686531691686,0
5.177767515182495,1.9639525019202726,[2.24244914],0.005,0.1,-0.5507605158065632,0.036119699233849376,0
5.186663866043091,1.9661018878043761,[2.24416863],0.005,0.1,-0.4377593391553103,0.03724801277689138,0
5.199405908584595,1.9692282672721628,[2.24586301],0.005,0.1,-0.3178174091116964,0.04390077247215042,0
5.207689523696899,1.9711822544395294,[2.24753592],0.005,0.1,-0.4906540739533552,0.035916573711403374,0
5.216686010360718,1.9735270390403694,[2.24918547],0.005,0.1,-0.4430002714621124,0.03602087707644411,0
5.224684953689575,1.9756764249244727,[2.25080988],0.005,0.1,-0.3280867577054062,0.03587410577155738,0
5.2335045337677,1.9776304120918395,[2.25240993],0.005,0.1,-0.2094121434425485,0.03561126102793363,0
5.2427167892456055,1.9799751966926797,[2.25398625],0.005,0.1,-0.10956168580536421,0.035179317145405876,0
5.25479531288147,1.9825153800102562,[2.25554163],0.005,0.1,-0.30946781300168996,0.040075844439046236,0
5.266129016876221,1.9848601646110962,[2.25708062],0.005,0.1,-0.2881614229124583,0.0379285263249896,0
5.2742531299591064,1.9866187530617263,[2.25860288],0.005,0.1,-0.4722532389778793,0.03177159160792004,0
5.286664962768555,1.989158936379303,[2.26010398],0.005,0.1,-0.40580043382629905,0.031992645320439564,0
5.298855543136597,1.991503720980143,[2.26158466],0.005,0.1,-0.54246704809442,0.03712332588816618,0
5.3106629848480225,1.9936531068642462,[2.26304996],0.005,0.1,-0.436023494448912,0.03578588357178269,0
5.320765256881714,1.9958024927483498,[2.26450225],0.005,0.1,-0.2662904599945006,0.03472196067671172,0
5.329460382461548,1.99756108119898,[2.26594148],0.005,0.1,-0.10523200374599759,0.03399212245271184,0
5.339169263839722,1.999124270932873,[2.26736767],0.005,0.1,-0.25234344400077163,0.0334743532366537,0
5.349774360656738,2.0012736568169767,[2.26878081],0.005,0.1,-0.19166793627447973,0.032788865212677494,0
5.360168933868408,2.0034230427010797,[2.27018271],0.005,0.1,-0.07331336253097663,0.03664086111302229,0
5.367660284042358,2.0045954350015,[2.27157279],0.005,0.1,0.042006261809151076,0.036824449181303336,0
5.37925910949707,2.0065494221688667,[2.27294641],0.005,0.1,-0.14210453100361783,0.03921340772403485,0
5.390439748764038,2.0085034093362335,[2.27430325],0.005,0.1,-0.1099072534544973,0.03560731626923948,0
5.402881622314453,2.0102619977868637,[2.27564651],0.005,0.1,-0.012857372941645205,0.03731756541241998,0
5.413270711898804,2.0120205862374934,[2.27697854],0.005,0.1,0.08678985690332632,0.03396208412214735,0
5.422616243362427,2.013583775971387,[2.27829944],0.005,0.1,-0.1087393783988384,0.03176291156515679,0
5.431681394577026,2.0149515669885436,[2.2796075],0.005,0.1,-0.08482164855146779,0.03036677421052059,0
5.44368314743042,2.0165147567224366,[2.28090147],0.005,0.1,0.006231495185688829,0.029436970873471798,0
5.454134464263916,2.01807794645633,[2.28218052],0.005,0.1,0.10152736694301936,0.028833603963380423,0
5.46166205406189,2.01925033875675,[2.28344249],0.005,0.1,0.17886485308567118,0.025539342395681005,0
5.472665548324585,2.0210089272073803,[2.28468591],0.005,0.1,0.23357923845625597,0.029343686114759914,0
5.481201648712158,2.022376718224537,[2.28591345],0.005,0.1,0.2678103012962955,0.029057565850531764,0
5.490713834762573,2.023549110524957,[2.28712588],0.005,0.1,0.28572810872640486,0.025755015642416196,0
5.498662710189819,2.0249169015421136,[2.2883207],0.005,0.1,0.29155992719808327,0.02659433915937936,0
5.5112388134002686,2.026480091276007,[2.28949985],0.005,0.1,0.288893292589141,0.031031688226491792,0
5.524650812149048,2.028238679726637,[2.29066917],0.005,0.1,0.004491737474156654,0.030678304776280328,0
5.534677028656006,2.0294110720270573,[2.29183211],0.005,0.1,-0.0406077077429281,0.03061000365577744,0
5.543706655502319,2.030583464327477,[2.29299007],0.005,0.1,0.00040431351126568593,0.030676249570562225,0
5.552696466445923,2.031755856627897,[2.29414446],0.005,0.1,0.06134709116877601,0.030821990540890177,0
5.562805652618408,2.032928248928317,[2.29529666],0.005,0.1,0.1163922795392362,0.031022057385311774,0
5.570805549621582,2.0339052425120006,[2.29644602],0.005,0.1,0.1576831510144102,0.02728541624562557,0
5.578681230545044,2.0346868373789473,[2.29759004],0.005,0.1,0.18480766905681384,0.028588429346826424,0
5.589326858520508,2.035859229679367,[2.29872875],0.005,0.1,0.19999927083713417,0.02955147300697572,0
5.5992372035980225,2.036836223263051,[2.2998642],0.005,0.1,0.20606207799278448,0.030285050934228827,0
5.610727787017822,2.038008615563471,[2.30100014],0.005,0.1,0.4815990946624542,0.03525784714453678,0
5.61869478225708,2.038790210430417,[2.30213965],0.005,0.1,0.5097372248137746,0.02993627322075978,0
5.62906551361084,2.0399626027308373,[2.30328126],0.005,0.1,0.4467498220796907,0.030426219695108617,0
5.637663125991821,2.040744197597784,[2.30442364],0.005,0.1,0.6370649660897016,0.030856442881190257,0
5.646807670593262,2.0415257924647303,[2.30556752],0.005,0.1,0.5891005135176323,0.031184521132108668,0
5.657288074493408,2.0425027860484137,[2.30671343],0.005,0.1,0.46645407067261463,0.031360004067270526,0
5.665647506713867,2.043284380915361,[2.3078598],0.005,0.1,0.33746540225220034,0.02772967254454785,0
5.674626350402832,2.0440659757823076,[2.30900329],0.005,0.1,0.50293115904805,0.02889413803714031,0
5.683716535568237,2.044847570649254,[2.31014304],0.005,0.1,0.44969921338504326,0.02982967693761325,0
5.693085432052612,2.0456291655162007,[2.31128028],0.005,0.1,0.33076428664565294,0.030569239633987735,0
5.703661918640137,2.0464107603831474,[2.31241608],0.005,0.1,0.2093014646404121,0.031133751200838562,0
5.71292519569397,2.047192355250094,[2.31355135],0.005,0.1,0.1075909789648648,0.03156096902542664,0
5.7224647998809814,2.047973950117041,[2.31468682],0.005,0.1,0.030274646118271464,0.03189371111705058,0
5.7306389808654785,2.048560146267251,[2.31582117],0.005,0.1,0.2511783976487043,0.028350692702159692,0
5.740832805633545,2.049146342417461,[2.31695317],0.005,0.1,0.2470848031072737,0.03349450127147966,0
5.749765396118164,2.0499279372844073,[2.31808359],0.005,0.1,0.16835482845629415,0.029352650658181934,0
5.758472681045532,2.0503187347178806,[2.31921112],0.005,0.1,0.07853037665227937,0.030267049335415783,0
5.768340826034546,2.0511003295848274,[2.32033447],0.005,0.1,0.2772961442065744,0.030786380915904094,0
5.781255722045898,2.051881924451774,[2.32145602],0.005,0.1,0.25185655314977395,0.03497561957480824,0
5.7896339893341064,2.052468120601984,[2.32257755],0.005,0.1,0.4320724399618894,0.030228631004702022,0
5.798611402511597,2.053054316752194,[2.32369682],0.005,0.1,0.36304514319526204,0.030525364770438847,0
5.80771803855896,2.0536405129024042,[2.32481],0.005,0.1,0.49855854566228797,0.02761324263173881,0
5.819305419921875,2.0542267090526143,[2.32591543],0.005,0.1,0.39216544458717323,0.03170198258987953,0
5.82767653465271,2.0548129052028243,[2.32701472],0.005,0.1,0.49942551291938153,0.03100202641118507,0
5.836670160293579,2.0552037026362977,[2.32810886],0.005,0.1,0.37307102298392797,0.03074396121181552,0
5.846322536468506,2.0557898987865078,[2.32919537],0.005,0.1,0.46706150577690264,0.027807839224109183,0
5.857689142227173,2.056376094936718,[2.33027234],0.005,0.1,0.33250178030976146,0.03131770754038561,0
5.8656394481658936,2.0567668923701907,[2.33133971],0.005,0.1,0.14592521425790464,0.028275807611619023,0
5.876674175262451,2.0573530885204008,[2.3323974],0.005,0.1,0.2523360301952142,0.03153632939806952,0
5.885604381561279,2.057743885953874,[2.33344673],0.005,0.1,0.42984269574258877,0.03097869086414706,0
5.8946373462677,2.058134683387348,[2.33448721],0.005,0.1,0.3153194863828176,0.028088998827634562,0
5.9026570320129395,2.058525480820821,[2.33551541],0.005,0.1,0.12473823324470901,0.02852400604155976,0
5.913658857345581,2.0589162782542942,[2.33652982],0.005,0.1,0.22041822898596775,0.028790658322834083,0
5.921634912490845,2.059307075687768,[2.33752917],0.005,0.1,0.1114117692490098,0.026879451954767916,0
5.931635618209839,2.059697873121241,[2.338511],0.005,0.1,0.2319089166458028,0.027491779414832267,0
5.9430930614471436,2.0600886705547143,[2.33947583],0.005,0.1,0.12459050085583072,0.029979184112072003,0
5.953443765640259,2.0604794679881877,[2.34042661],0.005,0.1,-0.03718911329044947,0.029536840752805535,0
5.961658477783203,2.0606748667049244,[2.34136319],0.005,0.1,0.09071752241849086,0.027364481037489178,0
5.973110675811768,2.0610656641383978,[2.34228394],0.005,0.1,0.010473899848420794,0.029293177315657268,0
5.984660863876343,2.0612610628551344,[2.34318966],0.005,0.1,-0.12167350439735838,0.028836838526211744,0
5.994658708572388,2.061651860288608,[2.34408086],0.005,0.1,0.03207252219543037,0.028390379627526517,0
6.002636671066284,2.0618472590053445,[2.34495567],0.005,0.1,-0.02775874147943922,0.026754687337000035,0
6.013617515563965,2.062042657722081,[2.34581238],0.005,0.1,-0.14466084762449083,0.028253177805428218,0
6.024658918380737,2.0622380564388174,[2.34665245],0.005,0.1,0.02004592497278973,0.029296922374470413,0
6.033166408538818,2.0624334551555545,[2.34747714],0.005,0.1,-0.03214244104674077,0.027391563976316376,0
6.04178524017334,2.0626288538722912,[2.34828371],0.005,0.1,0.13216881681406917,0.026304029778117115,0
6.0512535572052,2.062824252589028,[2.3490699],0.005,0.1,0.0573494290903466,0.02760079953730475,0
6.061807155609131,2.062824252589028,[2.34983658],0.005,0.1,-0.0809425359931814,0.02754251446837631,0
6.072588682174683,2.0630196513057646,[2.35058455],0.005,0.1,0.063612472489914,0.027433357201320237,0
6.081680059432983,2.0630196513057646,[2.35131284],0.005,0.1,-0.005022954498894991,0.026576915848525368,0
6.093631744384766,2.0630196513057646,[2.35202072],0.005,0.1,-0.1292046951277892,0.02770517245325986,0
6.101712465286255,2.063215050022501,[2.35270853],0.005,0.1,0.02991099799090846,0.02679894222894023,0
6.111812353134155,2.0630196513057646,[2.35337662],0.005,0.1,-0.026380808570792003,0.027844518288420144,0
6.120632171630859,2.063215050022501,[2.35402538],0.005,0.1,-0.14102181708000747,0.027002216205746162,0
6.130988359451294,2.0630196513057646,[2.35465525],0.005,0.1,0.02506114448406961,0.02797916452668646,0
6.138715505599976,2.063215050022501,[2.35526606],0.005,0.1,-0.026357631697922594,0.02812400860771599,0
6.1499762535095215,2.0630196513057646,[2.35585709],0.005,0.1,-0.13772610837918758,0.02890583212392099,0
6.161809921264648,2.063215050022501,[2.35643002],0.005,0.1,0.030452694927449425,0.02937482632566351,0
6.169633865356445,2.063215050022501,[2.35698712],0.005,0.1,0.2563263174228032,0.028188191070345404,0
6.177640199661255,2.063215050022501,[2.3575277],0.005,0.1,0.4547857676137288,0.027548201627721564,0
6.186703205108643,2.063215050022501,[2.3580507],0.005,0.1,0.6012531295749892,0.027752766493367935,0
6.194667816162109,2.0630196513057646,[2.35855672],0.005,0.1,0.6959352027987591,0.027976099941386664,0
6.203574180603027,2.0630196513057646,[2.35904709],0.005,0.1,0.7476015967029545,0.028106311469666172,0
6.21462607383728,2.063215050022501,[2.35952303],0.005,0.1,0.7666291078640143,0.028147736087499577,0
6.2237772941589355,2.0630196513057646,[2.35998499],0.005,0.1,0.7623321223668156,0.02778911557492535,0
6.231632471084595,2.0630196513057646,[2.36043285],0.005,0.1,0.7421930907217246,0.028000724739218212,0
6.2416346073150635,2.0630196513057646,[2.36086772],0.005,0.1,0.7118730191409166,0.028619250638246215,0
6.253631114959717,2.0630196513057646,[2.3612917],0.005,0.1,0.6754929900714716,0.028568883710023397,0
6.262320518493652,2.0630196513057646,[2.36170544],0.005,0.1,0.6359679443330226,0.028131692546031383,0
6.270631790161133,2.0630196513057646,[2.36210836],0.005,0.1,0.5953083465854623,0.02824511718404644,0
6.2816619873046875,2.0630196513057646,[2.36250099],0.005,0.1,0.5548650465039793,0.028685198532833904,0
6.289712905883789,2.0630196513057646,[2.36288428],0.005,0.1,0.5155172407284077,0.02828596309763603,0
6.298027515411377,2.0630196513057646,[2.363258],0.005,0.1,0.477812060327957,0.02835420406696235,0
6.30766749382019,2.0630196513057646,[2.36362193],0.005,0.1,0.44206604485044526,0.028406224893430136,0
6.31765341758728,2.0630196513057646,[2.36397634],0.005,0.1,0.40843783088064267,0.02845119164352766,0
6.325653553009033,2.0630196513057646,[2.36432102],0.005,0.1,0.3769796556800161,0.02826010330375,0
6.333608627319336,2.0630196513057646,[2.36465537],0.005,0.1,0.34767353038302373,0.02836325045252191,0
6.343598365783691,2.0630196513057646,[2.3649793],0.005,0.1,0.32045644659683353,0.028439482501923453,0
6.351599216461182,2.0630196513057646,[2.36529277],0.005,0.1,0.2952378027373358,0.028338873578757733,0
6.3626227378845215,2.0630196513057646,[2.3655957],0.005,0.1,0.27191134523468957,0.02857963027087029,0
6.374650478363037,2.0630196513057646,[2.36588862],0.005,0.1,0.2503632625216364,0.02859166036345571,0
6.383141040802002,2.0630196513057646,[2.3661719],0.005,0.1,0.23047759305605248,0.02859237978987549,0
6.391621351242065,2.0630196513057646,[2.36644517],0.005,0.1,0.21213976673794172,0.028512037295971467,0
6.400661945343018,2.0630196513057646,[2.36670806],0.005,0.1,0.1952388557129032,0.028627945064077134,0
6.40951943397522,2.062824252589028,[2.36696044],0.005,0.1,0.17966893823843638,0.0286288833883167,0
6.419091463088989,2.062824252589028,[2.36720199],0.005,0.1,0.16532985774854125,0.028668218662476132,0
6.43062162399292,2.062824252589028,[2.3674326],0.005,0.1,0.1521275737677757,0.028750004446187295,0
6.43863844871521,2.062824252589028,[2.3676524],0.005,0.1,0.13997424133408198,0.028735604691706898,0
6.446607351303101,2.062824252589028,[2.36786109],0.005,0.1,0.12878811356493822,0.02874683356773686,0
6.455641984939575,2.0626288538722912,[2.36805837],0.005,0.1,0.11849333261113759,0.028856195919544757,0
6.464675426483154,2.062824252589028,[2.36824439],0.005,0.1,0.10901965372176606,0.028851464267975555,0
6.473752737045288,2.062824252589028,[2.36841952],0.005,0.1,0.1003021328414598,0.02889466323895226,0
6.484619855880737,2.0626288538722912,[2.36858413],0.005,0.1,0.09228079821323336,0.02898883133501176,0
6.496094226837158,2.0626288538722912,[2.36873876],0.005,0.1,0.08490031955898085,0.029052927983014967,0
6.50464940071106,2.0626288538722912,[2.36888398],0.005,0.1,0.07810968363794829,0.029063628860459,0
6.514113426208496,2.0626288538722912,[2.36902014],0.005,0.1,0.07186188169835325,0.02909846189469133,0
6.521901845932007,2.0626288538722912,[2.36914764],0.005,0.1,0.066113612088924,0.029132832424340647,0
6.532166957855225,2.0626288538722912,[2.36926699],0.005,0.1,0.06082499977053245,0.029165574862086575,0
6.540056467056274,2.0624334551555545,[2.36937865],0.005,0.1,0.05595933344310329,0.029235480712594422,0
6.550089597702026,2.0624334551555545,[2.36948305],0.005,0.1,0.05148282032565814,0.029282511513168755,0
6.559595584869385,2.0624334551555545,[2.36958076],0.005,0.1,0.047364358190234476,0.02929301975968435,0
6.5685365200042725,2.0624334551555545,[2.3696722],0.005,0.1,0.043575323978469464,0.029319805068023234,0
6.578652620315552,2.0624334551555545,[2.36975782],0.005,0.1,0.04008937817061633,0.02934598643350229,0
6.5885889530181885,2.0624334551555545,[2.36983816],0.005,0.1,0.03688228399426743,0.02936798251120412,0
6.598296165466309,2.0624334551555545,[2.36991371],0.005,0.1,0.033931740528838045,0.029389786245377008,0
6.608741998672485,2.0622380564388174,[2.36998495],0.005,0.1,0.031217228764410257,0.02946523795282254,0
6.619615077972412,2.0622380564388174,[2.37005232],0.005,0.1,0.02871986969777332,0.02948440750693655,0
6.629613637924194,2.0622380564388174,[2.37011626],0.005,0.1,0.02642229358611277,0.02950198898994319,0
6.642375230789185,2.0622380564388174,[2.37017722],0.005,0.1,0.024308519524136776,0.029530269178583774,0
6.651913642883301,2.062042657722081,[2.37023572],0.005,0.1,-0.253674515119036,0.029600193331826247,0
6.6595892906188965,2.062042657722081,[2.37029202],0.005,0.1,-0.2885882212270418,0.029602997756998782,0
6.668620586395264,2.062042657722081,[2.37034613],0.005,0.1,-0.23513694073147845,0.02961052204769345,0
6.681609392166138,2.0618472590053445,[2.37039815],0.005,0.1,-0.1605662345549449,0.029692801921378777,0
6.690751552581787,2.0618472590053445,[2.37044839],0.005,0.1,-0.09143671266802098,0.029704726217020944,0
6.6985979080200195,2.061651860288608,[2.37049708],0.005,0.1,-0.3121349804075317,0.02977400669235924,0
6.708608150482178,2.061456461571871,[2.37054432],0.005,0.1,-0.30444114609267614,0.029839938863467346,0
6.719275951385498,2.061456461571871,[2.37059011],0.005,0.1,-0.2210135896830247,0.02984864151064538,0
6.727601528167725,2.0612610628551344,[2.37063438],0.005,0.1,-0.40243720707916797,0.02991252473635204,0
6.737059831619263,2.060870265421661,[2.37067695],0.005,0.1,-0.3538048089718788,0.030032064463076436,0
6.7471020221710205,2.060870265421661,[2.37071752],0.005,0.1,-0.5121272314838872,0.030039476068793525,0
6.7546210289001465,2.0606748667049244,[2.37075578],0.005,0.1,-0.4248239595015405,0.030104325275182836,0
6.765962600708008,2.0604794679881877,[2.37079007],0.005,0.1,-0.5459573077333193,0.030320108143644737,0
6.776559591293335,2.0600886705547143,[2.37081157],0.005,0.1,-0.7046404238172093,0.03533494868853087,0
6.785594940185547,2.0598932718379777,[2.37080392],0.005,0.1,-0.5607707283290523,0.03932638134136081,0
6.795920372009277,2.0595024744045043,[2.37074658],0.005,0.1,-0.6161233805961794,0.05943275496584265,0
6.8086206912994385,2.059307075687768,[2.37060525],0.005,0.1,-0.44167678466391747,0.12240376731508111,0
6.818619728088379,2.0589162782542942,[2.37033486],0.005,0.1,-0.22107956262261544,0.15582990178323344,0
6.829597473144531,2.0587208795375576,[2.36989833],0.005,0.1,-0.3009207160892604,0.1910570705586002,0
6.838405132293701,2.058525480820821,[2.36926737],0.005,0.1,-0.18268379903905033,0.2268412804149642,0
6.847606897354126,2.058525480820821,[2.36841642],0.005,0.1,-0.020938551933483138,0.2630550843050339,0
6.858576536178589,2.058330082104084,[2.36732274],0.005,0.1,0.400374402801739,0.30128150580639207,0
6.866591215133667,2.058525480820821,[2.36597559],0.005,0.1,0.8204142051603889,0.2421264010357289,0
6.875596284866333,2.058525480820821,[2.36437487],0.005,0.1,1.1503915195437173,0.30174757328814356,0
6.886591911315918,2.0587208795375576,[2.36249965],0.005,0.1,1.6509066845103197,0.496800774570826,0
6.895565748214722,2.0587208795375576,[2.36032235],0.005,0.1,1.8153879161282738,0.3766588567575124,0
6.906574726104736,2.0591116769710314,[2.3578418],0.005,0.1,2.0946684918856935,0.4302273170187954,0
6.916737794876099,2.0595024744045043,[2.35504809],0.005,0.1,2.332715125159484,0.6227861076011207,0
6.925577640533447,2.0600886705547143,[2.35192609],0.005,0.1,2.4842629871296116,0.44569033317225626,0
6.937577962875366,2.0610656641383978,[2.34848093],0.005,0.1,2.82539135479876,0.5937916403187342,0
6.945617437362671,2.0618472590053445,[2.34472418],0.005,0.1,3.1288455591882713,0.4136036185558508,0
6.958399772644043,2.063410448739238,[2.34067362],0.005,0.1,4.153081316493517,0.5178030639736219,0
6.967570781707764,2.0647782397563947,[2.33635202],0.005,0.1,4.8889286044730245,0.3551759179576882,0
6.97558331489563,2.066146030773551,[2.33179394],0.005,0.1,5.0,0.3394327147777504,0
6.983568906784058,2.067513821790708,[2.32703461],0.005,0.1,5.0,0.32283198239659083,0
6.991596460342407,2.0690770115246013,[2.32210744],0.005,0.1,5.0,0.2317584207905591,0
6.999584674835205,2.0706402012584944,[2.31705164],0.005,0.1,5.0,0.24372439613395658,0
7.009777069091797,2.0723987897091245,[2.31189278],0.005,0.1,5.0,0.2555205983794346,0
7.019167184829712,2.0741573781597546,[2.30664312],0.005,0.1,4.602076918494767,0.2692020519791263,0
7.026569604873657,2.0755251691769114,[2.30132059],0.005,0.1,4.091120554455013,0.20468638023928534,0
7.0376574993133545,2.077283757627541,[2.29593709],0.005,0.1,3.039679016595878,0.3311029405528987,0
7.04857611656189,2.0790423460781713,[2.29047928],0.005,0.1,1.7014606370822984,0.3424555422387895,0
7.061355829238892,2.081191731962275,[2.28492091],0.005,0.1,0.5047440790185715,0.4726972079375911,0
7.07342267036438,2.0833411178463783,[2.27923513],0.005,0.1,-0.9771663948117567,0.4486777518986497,0
7.083884954452515,2.0854905037304814,[2.27340853],0.005,0.1,-1.9815819630747686,0.43301248872281667,0
7.093703746795654,2.0874444908978482,[2.26744064],0.005,0.1,-2.6176262302181867,0.41596824477415384,0
7.104590177536011,2.0897892754986884,[2.26133227],0.005,0.1,-2.706756653202601,0.3952810367519146,0
7.117578029632568,2.0929156549664754,[2.25507483],0.005,0.1,-2.01828823880496,0.47675208305679406,0
7.129556655883789,2.0956512370007885,[2.24865275],0.005,0.1,-1.1860225386401992,0.4096821889866461,0
7.1395838260650635,2.098191420318365,[2.24206915],0.005,0.1,-0.4513523250260483,0.3544060165659338,0
7.151610374450684,2.1009270023526785,[2.23533194],0.005,0.1,0.11772102923245176,0.3887843321403975,0
7.159587383270264,2.1028809895200453,[2.22845182],0.005,0.1,0.5239356051184852,0.2497462198879098,0
7.169577598571777,2.1056165715543584,[2.22146337],0.005,0.1,0.5182032980101721,0.2220263141115923,0
7.180898666381836,2.108352153588672,[2.21438753],0.005,0.1,0.6507331530308161,0.25419368122660563,0
7.189606666564941,2.1105015394727755,[2.20723259],0.005,0.1,0.5187555942879909,0.16336536489110734,0
7.198571443557739,2.1126509253568786,[2.20002783],0.005,0.1,0.04441895766435011,0.14881101853804884,0
7.207975149154663,2.114800311240982,[2.19280899],0.005,0.1,-0.7266047282490969,0.09904980085322097,0
7.218678951263428,2.117145095841822,[2.18559472],0.005,0.1,-1.4379478869713218,0.12829226382405948,0
7.229257345199585,2.1190990830091887,[2.17837749],0.005,0.1,-2.253701700815762,0.10927143559546011,0
7.238582372665405,2.120662272743082,[2.17114972],0.005,0.1,-3.4731148199266997,0.09112197221486491,0
7.250150680541992,2.1226162599104486,[2.16390311],0.005,0.1,-5.0,0.0926123141250635,0
7.25956916809082,2.1237886522108687,[2.15662933],0.005,0.1,-5.0,0.051420275756782985,0
7.2696051597595215,2.1249610445112888,[2.14934382],0.005,0.1,-5.0,0.035738849885991866,0
7.282707691192627,2.126133436811709,[2.14204644],0.005,0.1,-5.0,0.02145662543352221,0
7.291957855224609,2.126719632961919,[2.13471258],0.005,0.1,-5.0,-0.0003077094641080848,0
7.300541877746582,2.1269150316786556,[2.12734616],0.005,0.1,-5.0,-0.01205469885704074,0
7.309670686721802,2.127305829112129,[2.11997586],0.005,0.1,-5.0,-0.028200573437779094,0
7.318576335906982,2.127305829112129,[2.11261536],0.005,0.1,-5.0,-0.04354273979503803,0
7.328238487243652,2.1271104303953923,[2.10526605],0.005,0.1,-5.0,-0.05755584902025215,0
7.335546970367432,2.1269150316786556,[2.09794219],0.005,0.1,-5.0,-0.05004080883448575,0
7.34428858757019,2.1263288355284455,[2.09066867],0.005,0.1,-5.0,-0.06382502084958704,0
7.351597547531128,2.125938038094972,[2.0834676],0.005,0.1,-5.0,-0.05357467389367153,0
7.359571218490601,2.125547240661499,[2.07635878],0.005,0.1,-5.0,-0.06772696487778507,0
7.369541645050049,2.1247656457945525,[2.0693503],0.005,0.1,-5.0,-0.07834342950109605,0
7.378135681152344,2.1239840509276053,[2.06244076],0.005,0.1,-4.83057248252927,-0.08576924991129925,0
7.387348175048828,2.1228116586271857,[2.05563109],0.005,0.1,-4.70289386063204,-0.09030131315845126,0
7.397265434265137,2.121443867610029,[2.04892349],0.005,0.1,-4.280444235263664,-0.09344867465292252,0
7.406606674194336,2.120271475309609,[2.04232019],0.005,0.1,-4.068016804453093,-0.09659416083429645,0
7.416541814804077,2.1187082855757153,[2.03582253],0.005,0.1,-3.6387231708120154,-0.09971597551215977,0
7.427568674087524,2.1169496971250856,[2.02943037],0.005,0.1,-3.177499732201581,-0.10330146395425553,0
7.4374799728393555,2.114995709957719,[2.02314187],0.005,0.1,-2.7554973529405715,-0.10726497156213154,0
7.44561767578125,2.1134325202238253,[2.01696236],0.005,0.1,-2.393238638614392,-0.08018219743767978,0
7.455538749694824,2.1112831343397223,[2.01089458],0.005,0.1,-2.0903276764558276,-0.12665631594289,0
7.4655115604400635,2.1091337484556187,[2.00492194],0.005,0.1,-1.286919121830521,-0.12793785834664706,0
7.474893808364868,2.1067889638547785,[1.99903784],0.005,0.1,-1.5637083770625004,-0.09281586533790041,0
7.485546350479126,2.1038579831037287,[1.99325314],0.005,0.1,-1.2888517890136564,-0.10242110189288087,0
7.494606256484985,2.1015131985028885,[1.98756753],0.005,0.1,-1.1491601293681764,-0.11050173063581148,0
7.503041982650757,2.099363812618785,[1.98197119],0.005,0.1,-0.7897047107701283,-0.11723836736975919,0
7.512501001358032,2.096628230584472,[1.97645472],0.005,0.1,-0.4183054347937393,-0.12280506158026232,0
7.522568941116333,2.093501851116685,[1.97100873],0.005,0.1,-0.3846447936382044,-0.12800885670868425,0
7.5305540561676025,2.0907662690823714,[1.96563238],0.005,0.1,-0.18547741751214972,-0.09437158987703975,0
7.539703130722046,2.087639889614585,[1.96033186],0.005,0.1,-0.24467130485814165,-0.10981007339344812,0
7.551546573638916,2.0833411178463783,[1.95509226],0.005,0.1,-0.09683626510938789,-0.17096093085878875,0
7.562586545944214,2.0794331435116447,[1.94988053],0.005,0.1,-0.1853028928857403,-0.17101857911939705,0
7.570592164993286,2.076502162760595,[1.94468532],0.005,0.1,0.2212503557443074,-0.12378956093882147,0
7.578849792480469,2.073375783292808,[1.93951388],0.005,0.1,0.7072998830685742,-0.14204942471701307,0
7.589550733566284,2.0690770115246013,[1.93436039],0.005,0.1,0.566033483986564,-0.15979971626657705,0
7.59806227684021,2.065559834623341,[1.92920699],0.005,0.1,0.24281957061955828,-0.18045799014545721,0
7.609207391738892,2.060870265421661,[1.9240342],0.005,0.1,-0.08048463365500841,-0.20329048972514144,0
7.620578765869141,2.056376094936718,[1.91882048],0.005,0.1,0.21065242217157035,-0.2305606667049917,0
7.631573438644409,2.0516865257350374,[1.91352914],0.005,0.1,0.365757334398978,-0.3671378557089405,0
7.644552230834961,2.0462153616664107,[1.90809704],0.005,0.1,0.4432008750514763,-0.505964364603865,0
7.655842304229736,2.0417211911814674,[1.90246617],0.005,0.1,1.3037198498682185,-0.48317845268851195,0
7.665947437286377,2.037422419413261,[1.89661289],0.005,0.1,1.9612075113936787,-0.4746361673139016,0
7.6743693351745605,2.033709843795264,[1.89054604],0.005,0.1,2.6809003038913857,-0.3398475112782333,0
7.68355131149292,2.0298018694605307,[1.88428866],0.005,0.1,3.2517107143409048,-0.38431651513365933,0
7.6935625076293945,2.0255030976923236,[1.87784566],0.005,0.1,3.9031448508920925,-0.4285728299787238,0
7.701575756072998,2.0217905220743266,[1.87122176],0.005,0.1,4.409929603092621,-0.3248964916406086,0
7.711055278778076,2.0176871490228567,[1.86443601],0.005,0.1,4.720928995376999,-0.40228304326025305,0
7.719998121261597,2.014169972121597,[1.85748709],0.005,0.1,4.577106109611159,-0.48333843823855077,0
7.730993032455444,2.0098712003533903,[1.8503367],0.005,0.1,4.5352698849719415,-0.7989189999253953,0
7.7385711669921875,2.0067448208856034,[1.84294894],0.005,0.1,4.479799009277343,-0.5908801131176157,0
7.74894380569458,2.0022506504006596,[1.83532675],0.005,0.1,4.37671965421358,-0.6943991687386045,0
7.758311748504639,1.9977564799157166,[1.82746963],0.005,0.1,4.225374810404393,-0.801019836250907,0
7.76751184463501,1.9942393030144565,[1.81935634],0.005,0.1,4.0365395018182015,-0.9114627955224972,0
7.777536869049072,1.9901359299629864,[1.81096747],0.005,0.1,3.823072498183293,-1.016057309141391,0
7.7890684604644775,1.9852509620445697,[1.80226496],0.005,0.1,3.5963559494551482,-1.5210437437770499,0
7.79654598236084,1.9825153800102562,[1.79323971],0.005,0.1,3.3652929200718797,-1.5752305532944375,0
7.804541110992432,1.9788028043922596,[1.78395141],0.005,0.1,3.1363487844595515,-1.5486601443984778,0
7.8145716190338135,1.9743086339073164,[1.77443248],0.005,0.1,2.9139501329944135,-1.5307977601944205,0
7.823663711547852,1.9704006595725827,[1.76467141],0.005,0.1,2.700947469607026,-1.5222753087527239,0
7.832526683807373,1.966688083954586,[1.75466372],0.005,0.1,2.4990294507890183,-1.5138178621753355,0
7.8416218757629395,1.962584710903116,[1.74441177],0.005,0.1,2.3090567576882792,-1.4984627449630552,0
7.849745988845825,1.959458331435329,[1.73394389],0.005,0.1,2.1313165900654347,-1.0794210446546366,0
7.8596813678741455,1.9551595596671225,[1.72331002],0.005,0.1,1.965710128414019,-1.16922342559328,0
7.868502378463745,1.9518377814825991,[1.71253847],0.005,0.1,1.8118874262581532,-1.228982051935744,0
7.876574516296387,1.9481252058646024,[1.70165772],0.005,0.1,1.6693427589543903,-0.9030478860898957,0
7.8856120109558105,1.9444126302466056,[1.69071563],0.005,0.1,1.2614426328747044,-1.0090870483226726,0
7.893926382064819,1.9410908520620822,[1.67973903],0.005,0.1,1.106500121108342,-1.0806028940800076,0
7.902512073516846,1.9377690738775588,[1.66873676],0.005,0.1,1.0491710369332288,-1.1239536066952733,0
7.913332462310791,1.9326887072424053,[1.6577201],0.005,0.1,1.021575949992632,-1.1429875431694534,0
7.92453145980835,1.9279991380407253,[1.64670169],0.005,0.1,0.9965393652802597,-1.151298515403736,0
7.934062957763672,1.9240911637059919,[1.63569478],0.005,0.1,0.9651250969973568,-1.1541631491334734,0
7.944425106048584,1.919987790654522,[1.62471316],0.005,0.1,0.926044424414586,-1.1452024723464962,0
7.9545509815216064,1.9154936201695782,[1.61375665],0.005,0.1,0.6047696046662594,-1.4699742369850632,0
7.963507890701294,1.911585645834845,[1.60282843],0.005,0.1,0.5224516097055132,-1.0060072922587353,0
7.971517562866211,1.907873070216848,[1.59197818],0.005,0.1,0.526448712052491,-0.7259849513215132,0
7.98153829574585,1.903965095882115,[1.58125195],0.005,0.1,0.5511624417419766,-1.0400544175021063,0
7.990508556365967,1.9002525202641178,[1.57066299],0.005,0.1,0.57123736749384,-0.7295925835353301,0
8.001773595809937,1.8957583497791746,[1.56022698],0.005,0.1,0.5791495140750362,-0.9538588442725027,0
8.009529829025269,1.8924365715946512,[1.54996168],0.005,0.1,0.5746921437439294,-0.6555088978534276,0
8.02156662940979,1.8873562049594979,[1.53988596],0.005,0.1,0.8362407432837441,-0.8140704945327388,0
8.030551195144653,1.8834482306247644,[1.53001902],0.005,0.1,0.8476757826112995,-0.5565046901994954,0
8.039517879486084,1.879540256290031,[1.52038764],0.005,0.1,0.7662294886870027,-0.5373155700517139,0
8.04851508140564,1.8756322819552977,[1.51100604],0.005,0.1,0.6611554474369288,-0.6677466319535967,0
8.060925722122192,1.8705519153201442,[1.50186667],0.005,0.1,0.5605034740162018,-0.6010508367407105,0
8.068548202514648,1.867620934569094,[1.49297934],0.005,0.1,0.47367323969829855,-0.4257382459511583,0
8.076544523239136,1.864103757667834,[1.48436746],0.005,0.1,0.40210727101558985,-0.43673217754180443,0
8.084516286849976,1.8603911820498373,[1.47605622],0.005,0.1,0.3442286426648814,-0.44354209751664875,0
8.095192193984985,1.8557016128481572,[1.46806298],0.005,0.1,0.021585173896976756,-0.5915749970521341,0
8.102741479873657,1.852966030813844,[1.46037199],0.005,0.1,-0.049230976827364034,-0.5606584637724933,0
8.11103081703186,1.8496442526293206,[1.45296603],0.005,0.1,0.2511254688965592,-0.4069739420010431,0
8.119810581207275,1.8459316770113239,[1.44584473],0.005,0.1,0.33487990068384255,-0.42695144470280344,0
8.130521774291992,1.8414375065263802,[1.4389878],0.005,0.1,0.052918223457031774,-0.567783301876134,0
8.139510869979858,1.83792032962512,[1.4323672],0.005,0.1,-0.01782798120200795,-0.40660171358173647,0
8.147555112838745,1.8347939501573334,[1.42598242],0.005,0.1,-0.00690708903456384,-0.310059561127135,0
8.155529737472534,1.8312767732560733,[1.41983959],0.005,0.1,0.30435688354629487,-0.3397633188305906,0
8.16396427154541,1.8275641976380768,[1.41392602],0.005,0.1,0.37350053094859137,-0.35592695338481295,0
8.172502756118774,1.82385162202008,[1.408222],0.005,0.1,0.07102377458691492,-0.36049451621176465,0
8.182180881500244,1.8195528502518732,[1.4027103],0.005,0.1,-0.018458093694345402,-0.35708523206207465,0
8.190545797348022,1.8160356733506133,[1.39738266],0.005,0.1,0.2539058037627462,-0.271009966076825,0
8.198524236679077,1.81271389516609,[1.39223792],0.005,0.1,0.3119496679468304,-0.28846569470065264,0
8.207305908203125,1.8088059208313563,[1.38727339],0.005,0.1,0.2862107512067382,-0.22920829559820974,0
8.21653437614441,1.8048979464966233,[1.38248488],0.005,0.1,0.23494964417514122,-0.25453881149831503,0
8.224526643753052,1.8017715670288363,[1.37785376],0.005,0.1,0.18239060647560476,-0.35073937745944295,0
8.235515594482422,1.7970819978271562,[1.37335603],0.005,0.1,0.13721116498621644,-0.2636005222150084,0
8.244009733200073,1.7929786247756863,[1.36898354],0.005,0.1,0.10134551337957506,-0.27448178543366664,0
8.253501892089844,1.7894614478744262,[1.36472845],0.005,0.1,0.07407722975994178,-0.28185466692566574,0
8.263062477111816,1.785358074822956,[1.3605767],0.005,0.1,0.053869345762772775,-0.28509552253898196,0
8.271467685699463,1.7822316953551693,[1.35651565],0.005,0.1,0.039127976254292804,-0.2866179422383555,0
8.28048062324524,1.778323721020436,[1.35254018],0.005,0.1,0.028478148902737047,-0.22284212230676986,0
8.289546251296997,1.7744157466857025,[1.3486577],0.005,0.1,0.020827527535627006,-0.1840509029444184,0
8.301512241363525,1.7691399813338122,[1.34486801],0.005,0.1,0.015346338224925128,-0.26087687706681206,0
8.309520244598389,1.7658182031492888,[1.34115275],0.005,0.1,0.011420975946680968,-0.2583171150693443,0
8.319544076919556,1.761714830097819,[1.33749135],0.005,0.1,0.008605357094381089,-0.3112913795686387,0
8.329557657241821,1.7572206596128757,[1.33387307],0.005,0.1,0.006578778922086299,-0.22891072460005535,0
8.338596105575562,1.7537034827116156,[1.33030008],0.005,0.1,0.005112376354354181,-0.2273187091599741,0
8.347537517547607,1.7501863058103553,[1.32677401],0.005,0.1,0.004043618302971378,-0.2276089426847394,0
8.358508825302124,1.7453013378919386,[1.32328989],0.005,0.1,0.27929580207454335,-0.22877846944061642,0
8.367746114730835,1.7413933635572052,[1.31984218],0.005,0.1,0.31183550489305367,-0.23252435440395458,0
8.375577211380005,1.7382669840894187,[1.31643055],0.005,0.1,-0.019741140428291892,-0.1864964767571482,0
8.385481595993042,1.7339682123212117,[1.31305919],0.005,0.1,-0.1292884338757694,-0.20367984990169782,0
8.396867752075195,1.729083244402795,[1.30971864],0.005,0.1,0.13106153062034165,-0.2791798658274415,0
8.405599117279053,1.725566067501535,[1.30639381],0.005,0.1,0.1834408208739166,-0.21678342479215423,0
8.415477991104126,1.7212672957333282,[1.30308257],0.005,0.1,0.15670019902272192,-0.23438366327785523,0
8.425577402114868,1.7167731252483849,[1.2997814],0.005,0.1,0.1076832812372425,-0.25202810316837765,0
8.434040307998657,1.7132559483471248,[1.2964794],0.005,0.1,0.05951441116527426,-0.27022030360265065,0
8.442480564117432,1.709543372729128,[1.29316569],0.005,0.1,0.02005652483679724,-0.2869878943010976,0
8.45197081565857,1.705244600960921,[1.28982998],0.005,0.1,-0.009340104621889897,-0.30036888206288714,0
8.461987495422363,1.701141227909451,[1.28646321],0.005,0.1,-0.029799568515934762,-0.3093837263621164,0
8.469484806060791,1.6984056458751378,[1.28306509],0.005,0.1,-0.04313637213611837,-0.24062525315694558,0
8.477911472320557,1.6950838676906144,[1.27964332],0.005,0.1,-0.051128049994613706,-0.2610054614092114,0
8.487753629684448,1.6907850959224076,[1.27619902],0.005,0.1,-0.055266641964765946,-0.2711814243677502,0
8.496485710144043,1.686877121587674,[1.27272806],0.005,0.1,-0.05671500810103226,-0.27439260249488345,0
8.507510423660278,1.6823829511027306,[1.26922873],0.005,0.1,-0.05634135185565099,-0.27330282723849947,0
8.51550579071045,1.6790611729182072,[1.26570706],0.005,0.1,-0.05477590286773713,-0.21189186725443065,0
8.524769067764282,1.6751531985834738,[1.26217498],0.005,0.1,0.22357153858875772,-0.22791524804360624,0
8.53650975227356,1.6702682306650571,[1.25863004],0.005,0.1,0.25943554960157356,-0.3092097865699592,0
8.546748876571655,1.6655786614633772,[1.25505704],0.005,0.1,-0.06874585235486219,-0.3033049821512618,0
8.55549693107605,1.662061484562117,[1.25145514],0.005,0.1,0.10110625866995707,-0.23307261079351155,0
8.565475702285767,1.6575673140771736,[1.24783557],0.005,0.1,0.12180162499739881,-0.2547277214647906,0
8.576514720916748,1.6530731435922303,[1.24419275],0.005,0.1,0.08907478043005226,-0.36209991024452653,0
8.584479331970215,1.649751365407707,[1.24051392],0.005,0.1,0.044295187057142436,-0.27480651024737374,0
8.59447455406189,1.6456479923562366,[1.23680151],0.005,0.1,-0.27242717061358473,-0.2990811089078323,0
8.602550983428955,1.64252161288845,[1.23305672],0.005,0.1,-0.06119200502609498,-0.3212416865969036,0
8.611351728439331,1.6386136385537167,[1.22928059],0.005,0.1,0.004606745970617547,-0.25212851891950855,0
8.622529983520508,1.6339240693520367,[1.2254818],0.005,0.1,0.011017927828010362,-0.28292319120910125,0
8.633651733398438,1.6290391014336199,[1.22165378],0.005,0.1,-0.0030440272642451843,-0.3931118585326541,0
8.64575457572937,1.6239587347984663,[1.217778],0.005,0.1,-0.020990032659628035,-0.37226627322131595,0
8.658466815948486,1.6184875707298394,[1.21384213],0.005,0.1,-0.03652508083562285,-0.43914098782377253,0
8.66950249671936,1.6137980015281594,[1.20983952],0.005,0.1,-0.04789384066339825,-0.38598891756048004,0
8.677905797958374,1.6102808246268994,[1.20577432],0.005,0.1,-0.05518626518786897,-0.3464251119054245,0
8.68752908706665,1.606372850292166,[1.20166527],0.005,0.1,-0.059118313902791604,-0.25038309653388713,0
8.697551250457764,1.6020740785239593,[1.19753008],0.005,0.1,-0.06051181258436106,-0.31305510976196094,0
8.710981607437134,1.596212117021859,[1.19336723],0.005,0.1,-0.060096991654666865,-0.35771520476751034,0
8.719478845596313,1.5926949401205992,[1.1891764],0.005,0.1,-0.0584575438869084,-0.2543976367815313,0
8.728430271148682,1.589177763219339,[1.1849757],0.005,0.1,-0.056033770826541054,-0.2476359074634371,0
8.739456415176392,1.5846835927343956,[1.18078089],0.005,0.1,-0.053145556653558274,-0.24197272496447353,0
8.749490022659302,1.5805802196829255,[1.17659976],0.005,0.1,-0.05001880645528406,-0.2375400288868987,0
8.759477615356445,1.576281447914719,[1.17243903],0.005,0.1,-0.04680910451701807,-0.23377327452535415,0
8.768940687179565,1.5721780748632488,[1.16830434],0.005,0.1,-0.04362082623262763,-0.2310822528680323,0
8.777454137802124,1.5682701005285153,[1.16420021],0.005,0.1,-0.040521769324001145,-0.229309945805119,0
8.787458181381226,1.5637759300435718,[1.16013014],0.005,0.1,-0.31359236095782805,-0.22689118080109694,0
8.795457601547241,1.5606495505757851,[1.15610241],0.005,0.1,-0.3439046990017075,-0.17761668936009517,0
8.805449962615967,1.556546177524315,[1.15212395],0.005,0.1,-0.28616267877329293,-0.23703540803417686,0
8.817976713180542,1.5512704121724252,[1.1481896],0.005,0.1,0.06843417279944747,-0.227492073645505,0
8.827208995819092,1.547167039120955,[1.14429516],0.005,0.1,-0.10165305116481613,-0.21940302657058577,0
8.835508584976196,1.543649862219695,[1.14044792],0.005,0.1,-0.13111377860602408,-0.17001107396907408,0
8.844473838806152,1.5399372866016983,[1.13665906],0.005,0.1,-0.10812187060978293,-0.17769885521753634,0
8.853512048721313,1.5364201097004382,[1.13293226],0.005,0.1,-0.07131121407465489,-0.18350341472906062,0
8.863542795181274,1.5321213379322314,[1.12926478],0.005,0.1,-0.03618921068272053,-0.18663610371298928,0
8.872452020645142,1.5284087623142348,[1.1256538],0.005,0.1,-0.2838882233978392,-0.18809320898535445,0
8.88047456741333,1.525086984129711,[1.12210161],0.005,0.1,-0.29614777252419566,-0.15036484239651707,0
8.88919186592102,1.5215698072284511,[1.11861492],0.005,0.1,-0.22671272677057278,-0.15971183002758052,0
8.897846460342407,1.5178572316104544,[1.1151941],0.005,0.1,-0.14144412743757803,-0.16535482513690436,0
8.905707836151123,1.5141446559924576,[1.11183902],0.005,0.1,-0.06558082819610693,-0.135143424127536,0
8.913478374481201,1.5108228778079342,[1.10855421],0.005,0.1,-0.0063730925015426515,-0.1446821616626869,0
8.922777652740479,1.5065241060397276,[1.10533856],0.005,0.1,0.036298559058905666,-0.149315441456592,0
8.930458307266235,1.503397726571941,[1.10219091],0.005,0.1,0.06510239502300984,-0.12351544851696936,0
8.940457582473755,1.4994897522372075,[1.09911088],0.005,0.1,0.08318683679159203,-0.15658910177289045,0
8.951075077056885,1.4951909804690007,[1.09609047],0.005,0.1,0.09338534765175299,-0.1475637360156321,0
8.958526134490967,1.4920646010012137,[1.09312794],0.005,0.1,0.09798624752406744,-0.11723862974974751,0
8.96745228767395,1.4881566266664805,[1.09023108],0.005,0.1,0.0987347107123634,-0.11437604509208464,0
8.97700047492981,1.4840532536150106,[1.08740418],0.005,0.1,0.09691566475406413,-0.10897960917941991,0
8.987257719039917,1.4795590831300671,[1.08464873],0.005,0.1,0.0934525116054993,-0.10195299710986937,0
8.99770998954773,1.4752603113618603,[1.08196752],0.005,0.1,0.08899652490067361,-0.09460409823466501,0
9.00745439529419,1.4715477357438635,[1.07936418],0.005,0.1,0.08399952496593403,-0.08789570174053105,0
9.015483140945435,1.4682259575593402,[1.07684471],0.005,0.1,0.07876975445901818,-0.0761350550056199,0
9.024562358856201,1.464317983224607,[1.07441646],0.005,0.1,0.0735134511708107,-0.07366652123977048,0
9.036454677581787,1.4588468191559802,[1.07208188],0.005,0.1,0.06836514053764704,-0.07469654605828614,0
9.047483682632446,1.4543526486710365,[1.06983946],0.005,0.1,0.06340940087328675,-0.06966351735443324,0
9.056102514266968,1.4508354717697765,[1.06769125],0.005,0.1,0.05869634678662355,-0.06324462086763367,0
9.068450927734375,1.4457551051346231,[1.06564065],0.005,0.1,0.054252561570982016,-0.06297239821772775,0
9.077907085418701,1.441651732083153,[1.06368751],0.005,0.1,0.05008876938398282,-0.05997362914354716,0
9.08748459815979,1.4379391564651562,[1.06183122],0.005,0.1,0.04620519023510858,-0.05768078508933686,0
9.096451044082642,1.4342265808471597,[1.06007309],0.005,0.1,0.04259525743994201,-0.05474353496093684,0
9.104960918426514,1.4309048026626363,[1.05841438],0.005,0.1,0.03924818291247838,-0.05375681882857815,0
9.113073587417603,1.4273876257613762,[1.05685416],0.005,0.1,0.03615071471250338,-0.05268944070045094,0
9.120456218719482,1.4240658475768528,[1.05539058],0.005,0.1,0.033288330131464934,-0.051184791156059777,0
9.128493547439575,1.4207440693923294,[1.05402203],0.005,0.1,0.030646035584437188,-0.05038620723474146,0
9.138007640838623,1.416836095057596,[1.05274514],0.005,0.1,0.028208893565356177,-0.04932651979953576,0
9.14646315574646,1.4131235194395992,[1.05155586],0.005,0.1,0.025962360921151787,-0.04800850449925883,0
9.155075311660767,1.4096063425383392,[1.05044943],0.005,0.1,0.023892497366922734,-0.047589219921531103,0
9.164448261260986,1.405698368203606,[1.04941962],0.005,0.1,0.02198608536658616,-0.04603396419833609,0
9.173760652542114,1.401399596435399,[1.048461],0.005,0.1,0.020230690022301198,-0.044886595154163475,0
9.183457136154175,1.3974916221006655,[1.04756761],0.005,0.1,0.018614678876384738,-0.0439594818991856,0
9.193582534790039,1.392997451615722,[1.04673183],0.005,0.1,0.01712721541358376,-0.043008123908884,0
9.203039169311523,1.3890894772809885,[1.04594502],0.005,0.1,0.015758235777641866,-0.04262898508995541,0
9.213604211807251,1.384790705512782,[1.04519738],0.005,0.1,0.014498415235512478,-0.04264389626316223,0
9.221784353256226,1.3816643260449955,[1.04447792],0.005,0.1,0.01333912884174249,-0.04367923057863275,0
9.230095386505127,1.3781471491437352,[1.04377729],0.005,0.1,0.012272409312502917,-0.04137975589330355,0
9.238476753234863,1.374629972242475,[1.04308811],0.005,0.1,0.01129090411237769,-0.04314688935730849,0
9.250868797302246,1.369354206890585,[1.04239794],0.005,0.1,0.010387833064942498,-0.0506458041160089,0
9.261037588119507,1.3648600364056418,[1.04169009],0.005,0.1,0.009556947316900218,-0.051418624799028236,0
9.270541906356812,1.3611474607876448,[1.04095164],0.005,0.1,0.00879249015957437,-0.053258410688871556,0
9.279467582702637,1.3572394864529114,[1.04017607],0.005,0.1,0.008089159986432894,-0.04652626039328238,0
9.290979146957397,1.3525499172512316,[1.03935583],0.005,0.1,0.007442075515325082,-0.0642650405169803,0
9.301217794418335,1.3480557467662881,[1.03847537],0.005,0.1,0.006846743303505442,-0.06958746003332145,0
9.311281204223633,1.343952373714818,[1.0375192],0.005,0.1,0.28233738719849,-0.07682332205020273,0
9.319458723068237,1.340435196813558,[1.03648041],0.005,0.1,0.31495808473477344,-0.06407738307507098,0
9.331089735031128,1.335550228895141,[1.03535129],0.005,0.1,0.259397229994804,-0.10289301208365276,0
9.338923215866089,1.3322284507106177,[1.03411955],0.005,0.1,-0.09315264861605213,-0.08175443480751479,0
9.346448183059692,1.3292974699595674,[1.03277975],0.005,0.1,0.07884603516338108,-0.09558711135990512,0
9.355958461761475,1.3251940969080978,[1.03132704],0.005,0.1,0.11008509401381156,-0.10714735626809185,0
9.36418867111206,1.3218723187235741,[1.02975817],0.005,0.1,0.08874311132738211,-0.08501832843498273,0
9.375142812728882,1.3173781482386306,[1.02807724],0.005,0.1,0.05346009264053024,-0.09831802823931353,0
9.384536266326904,1.3134701739038972,[1.02628357],0.005,0.1,0.01975031280037783,-0.10762226814927148,0
9.39443063735962,1.3091714021356906,[1.02437309],0.005,0.1,-0.007285029715176224,-0.1119277838718997,0
9.407140493392944,1.3038956367838006,[1.02234035],0.005,0.1,-0.02694706797757563,-0.1420921249658002,0
9.414477586746216,1.3007692573160137,[1.02018442],0.005,0.1,-0.040175750184932454,-0.09890617273473225,0
9.425312757492065,1.296470485547807,[1.01791436],0.005,0.1,-0.048337333120955214,-0.11769386481068962,0
9.436884641647339,1.2915855176293904,[1.01553825],0.005,0.1,-0.05273656133623596,-0.1004338587377728,0
9.446130275726318,1.2872867458611836,[1.01306701],0.005,0.1,-0.05445561923459291,-0.0856819316652174,0
9.455582618713379,1.28337877152645,[1.0105216],0.005,0.1,-0.05433157385933085,-0.0599136854767645,0
9.464527606964111,1.2796661959084534,[1.00792624],0.005,0.1,-0.05298563896501457,-0.05507449651501708,0
9.473209619522095,1.2759536202904564,[1.00530085],0.005,0.1,-0.05086615560787607,-0.04970663896617462,0
9.483947515487671,1.2714594498055134,[1.0026617],0.005,0.1,-0.048289897616230704,-0.043945376873430454,0
9.495426416397095,1.2667698806038332,[1.00002517],0.005,0.1,-0.04547656843928859,-0.03842446228090435,0
9.504108905792236,1.2630573049858367,[0.99740745],0.005,0.1,-0.042575716063091774,-0.03369460564625271,0
9.511440515518188,1.2601263242347864,[0.99482578],0.005,0.1,0.23635142510329113,-0.02687528524347545,0
9.52242660522461,1.2554367550331063,[0.99229635],0.005,0.1,0.27228829765849544,-0.026935274688192724,0
9.532979249954224,1.2509425845481628,[0.98983092],0.005,0.1,0.21988683836361259,-0.023624997217865512,0
9.543426990509033,1.2466438127799562,[0.98744039],0.005,0.1,0.14635807141855622,-0.02107394196324847,0
9.551405429840088,1.2433220345954328,[0.98513697],0.005,0.1,0.07824048027279862,-0.018778640891555273,0
9.562448024749756,1.2388278641104893,[0.98293099],0.005,0.1,0.023868744288772135,-0.01820297386432182,0
9.574010133743286,1.2339428961920726,[0.98082907],0.005,0.1,-0.016032621427656903,-0.01704059176345911,0
9.583426475524902,1.230034921857339,[0.97883595],0.005,0.1,-0.04350087697474304,-0.016321142516565617,0
9.592448711395264,1.226126947522606,[0.97695601],0.005,0.1,0.21481366770916568,-0.0156315681610111,0
9.600448369979858,1.2226097706213457,[0.97519227],0.005,0.1,0.2374543868862356,-0.015275265572325345,0
9.610433101654053,1.2183109988531389,[0.97354504],0.005,0.1,0.17705694496377222,-0.014786101822174491,0
9.620828866958618,1.2140122270849323,[0.97201102],0.005,0.1,0.09927204579304164,-0.014504016339187804,0
9.628448009490967,1.211081246333882,[0.97058511],0.005,0.1,0.30551461135987473,-0.014075505852664845,0
9.636442422866821,1.2083456642995687,[0.96926338],0.005,0.1,0.2843233980996096,-0.013774224378753797,0
9.645155906677246,1.2048284873983088,[0.96804108],0.005,0.1,0.4665513174779173,-0.013595572762009088,0
9.653422594070435,1.2013113104970485,[0.96691105],0.005,0.1,0.39801991739557563,-0.013116617109321372,0
9.664411306381226,1.1966217412953686,[0.96586341],0.005,0.1,0.25698874345381933,-0.014062260037445607,0
9.676860809326172,1.191541374660215,[0.96488222],0.005,0.1,0.3923630601354594,-0.016246134457938825,0
9.685412883758545,1.1886103939091652,[0.96395189],0.005,0.1,0.586310467906646,-0.014329838901453375,0
9.695407390594482,1.1847024195744316,[0.96306295],0.005,0.1,0.479194318238668,-0.014899830985587906,0
9.704471588134766,1.1811852426731717,[0.96220604],0.005,0.1,0.28973743969333055,-0.015508987503897578,0
9.713194608688354,1.1776680657719116,[0.96137031],0.005,0.1,0.3823251637754477,-0.0160181062380082,0
9.723466157913208,1.1735646927204413,[0.96054589],0.005,0.1,0.2675133206839613,-0.016226731779863394,0
9.732820987701416,1.1694613196689714,[0.95972415],0.005,0.1,0.3805612669804955,-0.016199901758545493,0
9.740482568740845,1.1665303389179214,[0.95889999],0.005,0.1,0.26489586078112914,-0.013391549538413157,0
9.751449346542358,1.1620361684329779,[0.95806954],0.005,0.1,0.09438243192662121,-0.01633753372857865,0
9.759403705596924,1.1591051876819278,[0.9572278],0.005,0.1,-0.0625270979235909,-0.01299963517007112,0
9.767394065856934,1.1557834094974044,[0.95637512],0.005,0.1,0.09154532323083234,-0.010937509001198921,0
9.777421712875366,1.152070833879408,[0.95551252],0.005,0.1,0.03934326903195513,-0.013285123158834533,0
9.785494089126587,1.148944454411621,[0.95463736],0.005,0.1,-0.06983289516118496,-0.010767649369124303,0
9.795406579971313,1.1452318787936242,[0.95374965],0.005,0.1,-0.17577325683393005,-0.010844728527235808,0
9.804414987564087,1.1419101006091008,[0.95284729],0.005,0.1,-0.2584337422952594,-0.013536849988550018,0
9.817402601242065,1.1368297339739475,[0.95192387],0.005,0.1,-0.3147914104713436,-0.013255135807370155,0
9.827622175216675,1.1327263609224774,[0.95097484],0.005,0.1,-0.3481941176024237,-0.013501534958938822,0
9.837412595748901,1.128818386587744,[0.94999722],0.005,0.1,-0.363680483510878,-0.01404378968925316,0
9.846466541290283,1.125301209686484,[0.94898759],0.005,0.1,-0.36609121222098306,-0.014783756121372976,0
9.857487440109253,1.1213932353517506,[0.9479424],0.005,0.1,-0.3594404527515549,-0.015495332247838134,0
9.86758828163147,1.1172898623002805,[0.94685826],0.005,0.1,-0.07078389327582313,-0.016110692841900316,0
9.875439882278442,1.1141634828324936,[0.94573521],0.005,0.1,-0.021355165457880923,-0.012337213383757217,0
9.886430501937866,1.1096693123475503,[0.94457352],0.005,0.1,-0.3341313554122907,-0.018129878531879855,0
9.895390748977661,1.1061521354462902,[0.94337103],0.005,0.1,-0.14802375717570648,-0.013234669677848485,0
9.904722213745117,1.1026349585450301,[0.94212934],0.005,0.1,-0.11089809739926099,-0.014123898252710935,0
9.915971517562866,1.09853158549356,[0.94085023],0.005,0.1,-0.12746771999563722,-0.014756468398047874,0
9.925414323806763,1.0950144085923001,[0.93953255],0.005,0.1,-0.1566493825828626,-0.015294217121941825,0
9.935208559036255,1.0911064342575667,[0.93817275],0.005,0.1,-0.18246781356446462,-0.02054678970568713,0
9.944751262664795,1.0877846560730433,[0.9367685],0.005,0.1,0.07593019135880519,-0.01408786129707821,0
9.952444553375244,1.08446287788852,[0.93532756],0.005,0.1,0.09980074573309404,-0.010239308157789695,0
9.96240782737732,1.0805549035537865,[0.93385826],0.005,0.1,0.04242044675063859,-0.01393179264819371,0
9.973365068435669,1.0762561317855797,[0.93236135],0.005,0.1,-0.030729415566992765,-0.012261105318504203,0
9.98241662979126,1.073129752317793,[0.93083942],0.005,0.1,-0.09468985045135365,-0.010704960019249964,0
9.993122100830078,1.0688309805495864,[0.9292992],0.005,0.1,-0.14240252886883326,-0.009118406885633498,0
10.003190279006958,1.0651184049315896,[0.92774806],0.005,0.1,-0.17410919045823986,-0.007724954796235613,0
10.0114004611969,1.0617966267470662,[0.92619532],0.005,0.1,-0.19254833864144755,-0.005303181970712781,0
10.024030447006226,1.0569116588286493,[0.92465029],0.005,0.1,-0.2009013292893524,-0.005657033166478856,0
10.033409118652344,1.0533944819273893,[0.92311907],0.005,0.1,-0.20200869303641883,-0.00461794594481725,0
10.042463064193726,1.0500727037428659,[0.92160896],0.005,0.1,0.07788989818571082,-0.0032757299815007004,0
10.051765441894531,1.0465555268416058,[0.92012955],0.005,0.1,0.11811863611874862,-0.002875618873751595,0
10.061391353607178,1.0432337486570824,[0.91868836],0.005,0.1,0.07211279745211303,-0.0025164014418976315,0
10.070019721984863,1.0401073691892957,[0.91729119],0.005,0.1,0.006215180897508367,-0.002211821170241976,0
10.078697443008423,1.036980989721509,[0.9159434],0.005,0.1,0.2223967365164121,-0.0019662902094506173,0
10.087477922439575,1.033854610253722,[0.91464983],0.005,0.1,0.20962616949059054,-0.0017747260911340163,0
10.095417976379395,1.0309236295026722,[0.91341514],0.005,0.1,0.3990822723528263,-0.0016289913933928866,0
10.104472398757935,1.0276018513181489,[0.91224359],0.005,0.1,0.33683135642838113,-0.001539860866755952,0
10.114464044570923,1.0242800731336255,[0.91113812],0.005,0.1,0.47735483788180866,-0.0014694345286651196,0
10.123406410217285,1.0211536936658387,[0.91010048],0.005,0.1,0.9267823154388508,-0.001420751222496424,0
10.13239336013794,1.0182227129147887,[0.909132],0.005,0.1,1.6552026308987366,-0.001405320268580196,0
10.140395879745483,1.0158779283139485,[0.90823351],0.005,0.1,2.0391579889766014,-0.0013906429887003986,0
10.149408102035522,1.0131423462796352,[0.90740499],0.005,0.1,2.4908125765536226,-0.001363248317338371,0
10.158633708953857,1.0104067642453218,[0.90664576],0.005,0.1,2.5725238337923297,-0.001338844794528206,0
10.168466806411743,1.0074757834942718,[0.9059547],0.005,0.1,3.0407946331386775,-0.0013017658458608404,0
10.178212881088257,1.0049356001766951,[0.90533028],0.005,0.1,3.2320382578915425,-0.001274451750115467,0
10.188446760177612,1.002004619425645,[0.90477062],0.005,0.1,3.534996744306114,-0.0012253885881545693,0
10.199233293533325,0.999659834824805,[0.90427348],0.005,0.1,3.497906983146782,-0.0011910653295031945,0
10.210406303405762,0.9967288540737549,[0.90383653],0.005,0.1,3.5924322167697813,-0.0011747545804297991,0
10.221402645111084,0.9941886707561782,[0.90345761],0.005,0.1,3.3922301380444333,-0.0011575186169280776,0
10.232238531112671,0.9918438861553381,[0.90313444],0.005,0.1,3.094457498044165,-0.0011274063639914124,0
10.240400552749634,0.9900852977047081,[0.90286421],0.005,0.1,2.7847104489368935,-0.0010486315885900547,0
10.24956727027893,0.9881313105373414,[0.90264381],0.005,0.1,2.220504694361649,-0.0010708648850769273,0
10.257664918899536,0.986568120803448,[0.90247022],0.005,0.1,1.6549162736626666,-0.0009838336481842879,0
10.265779495239258,0.9850049310695548,[0.90233984],0.005,0.1,1.452523798799405,-0.0009084109153695289,0
10.276360511779785,0.9832463426189246,[0.90224915],0.005,0.1,1.1120663434548959,-0.0009394446596842107,0
10.285922050476074,0.981292355451558,[0.90219545],0.005,0.1,1.054532444468197,-0.0008946259567596567,0
10.295381546020508,0.9797291657176646,[0.90217581],0.005,0.1,0.8103386224238585,-0.0008060771736043171,0
10.303393125534058,0.9779705772670346,[0.90218687],0.005,0.1,0.5427130678742631,-0.0007834480543438102,0
10.311392068862915,0.976602786249878,[0.90222545],0.005,0.1,0.3118787940079504,-0.0007125183370012511,0
10.320192813873291,0.9752349952327212,[0.90228856],0.005,0.1,0.4090456387068636,-0.0007025816386657445,0
10.332404375076294,0.9732810080653544,[0.90237403],0.005,0.1,0.3124202357477354,-0.0007329974600969646,0
10.343400239944458,0.9713270208979877,[0.90248039],0.005,0.1,0.16800351277606082,-0.0006867291042727646,0
10.353286743164062,0.969959229880831,[0.90260591],0.005,0.1,0.033621119971649835,-0.0006514637364446584,0
10.363197326660156,0.9683960401469377,[0.90274848],0.005,0.1,-0.0724010173257793,-0.0005978384474677894,0
10.374547481536865,0.9668328504130442,[0.90290563],0.005,0.1,-0.14827813405547668,-0.0005024611917086945,0
10.38500428199768,0.9656604581126244,[0.90307366],0.005,0.1,-0.1982525643751051,-0.0003636944733978531,0
10.394401788711548,0.9644880658122044,[0.90324684],0.005,0.1,-0.22801215713746031,-0.00024317247306564373,0
10.405120611190796,0.9629248760783109,[0.9034174],0.005,0.1,-0.2428721036958358,-0.0002231057453035193,0
10.414875507354736,0.9621432812113643,[0.9035764],0.005,0.1,-0.5232348687647997,-0.0003344628528464158,0
10.422503471374512,0.961166287627681,[0.90371535],0.005,0.1,-0.5535034379271999,-0.00037424982067689466,0
10.436084032058716,0.9596030978937875,[0.9038205],0.005,0.1,-0.7668869662904061,-0.0025628385091188105,0
10.445110082626343,0.9586261043101042,[0.90387232],0.005,0.1,-0.9894879975317642,-0.002270420932116745,0
10.45341157913208,0.9578445094431576,[0.90385585],0.005,0.1,-1.160889012793654,-0.0038690615737532537,0
10.464003562927246,0.9566721171427376,[0.90375648],0.005,0.1,-0.9932684021781966,-0.005998737173960765,0
10.474491119384766,0.9554997248423175,[0.90355539],0.005,0.1,-1.0124498828996702,-0.008663683273643662,0
10.483203649520874,0.9547181299753709,[0.90323325],0.005,0.1,-1.0759877570998313,-0.01191156294377937,0
10.494514226913452,0.9537411363916874,[0.90277075],0.005,0.1,-1.1288243408168492,-0.015613123311703322,0
10.503416776657104,0.9529595415247408,[0.90215552],0.005,0.1,-0.8785919063235623,-0.012739021953925391,0
10.511397361755371,0.9521779466577941,[0.9013819],0.005,0.1,-0.8438106673231226,-0.018054617126117927,0
10.51940107345581,0.951591750507584,[0.90043781],0.005,0.1,-1.1509257803522621,-0.02380310026262106,0
10.529109477996826,0.9508101556406374,[0.89930569],0.005,0.1,-0.9438918185377893,-0.029689435280236567,0
10.54215383529663,0.9500285607736906,[0.89796196],0.005,0.1,-0.8753499652246335,-0.05043898281815774,0
10.550479888916016,0.949833162056954,[0.89638683],0.005,0.1,-0.5778829637170453,-0.037538505721355316,0
10.559917688369751,0.9492469659067441,[0.89457228],0.005,0.1,-0.5323245588913664,-0.06141168714834664,0
10.568000555038452,0.9484653710397973,[0.89251337],0.005,0.1,-0.5701489244074345,-0.04481601821838284,0
10.576398611068726,0.9478791748895873,[0.89022511],0.005,0.1,-0.6207941254326178,-0.034926072715350344,0
10.587165355682373,0.9467067825891673,[0.88772296],0.005,0.1,-0.9345338774704537,-0.06139361456211571,0
10.595377683639526,0.9459251877222207,[0.88500631],0.005,0.1,-1.2621651155174956,-0.04574648744992156,0
10.60453200340271,0.9449481941385374,[0.88208585],0.005,0.1,-1.7929118551230367,-0.052761440502683034,0
10.614391565322876,0.9437758018381173,[0.87897355],0.005,0.1,-2.5427433231226098,-0.0583692393904287,0
10.62443995475769,0.9424080108209606,[0.87567434],0.005,0.1,-3.190139174867639,-0.06241425836241385,0
10.633809804916382,0.9408448210870671,[0.87219575],0.005,0.1,-4.195340595606083,-0.0647374048383817,0
10.644540071487427,0.9392816313531739,[0.86854791],0.005,0.1,-4.798384692794177,-0.06572273274013488,0
10.654398441314697,0.9377184416192806,[0.86473645],0.005,0.1,-5.0,-0.0857166142115831,0
10.664387702941895,0.9357644544519137,[0.86077063],0.005,0.1,-5.0,-0.05813615476764137,0
10.673521041870117,0.9340058660012838,[0.85667712],0.005,0.1,-5.0,-0.056750082782390264,0
10.683387517929077,0.932051878833917,[0.85248313],0.005,0.1,-5.0,-0.05424837447635373,0
10.694384574890137,0.9300978916665504,[0.84820903],0.005,0.1,-4.861393054023538,-0.05094153983436997,0
10.702806949615479,0.9281439044991837,[0.84387604],0.005,0.1,-4.598891104563755,-0.047370561548216,0
10.711403369903564,0.9261899173318169,[0.83951066],0.005,0.1,-4.2911836411249205,-0.032811498511638386,0
10.720369100570679,0.9240405314477135,[0.83514263],0.005,0.1,-3.975890216544732,-0.03358698409727222,0
10.728803634643555,0.9220865442803469,[0.830793],0.005,0.1,-3.3943108208700172,-0.033970455696828675,0
10.737411260604858,0.9199371583962435,[0.82647488],0.005,0.1,-3.0727940575093315,-0.034207895806547595,0
10.749341487884521,0.9168107789284567,[0.82219405],0.005,0.1,-3.411308837459523,-0.04641748171975219,0
10.76235818862915,0.9134890007439334,[0.81794898],0.005,0.1,-3.3050235407584214,-0.04409451562491675,0
10.77033805847168,0.9113396148598301,[0.81374715],0.005,0.1,-3.0360465432596957,-0.03141308626467018,0
10.779587745666504,0.9084086341087799,[0.80960355],0.005,0.1,-2.453317529431084,-0.035070488518723214,0
10.790375471115112,0.9050868559242566,[0.80551711],0.005,0.1,-1.8508390686185328,-0.05441573421847648,0
10.799378871917725,0.9027420713234164,[0.80147895],0.005,0.1,-1.6103004842867952,-0.039202202714998156,0
10.808066368103027,0.9002018880058399,[0.79749121],0.005,0.1,-1.2366469057147933,-0.044582455093547725,0
10.818337440490723,0.8972709072547898,[0.79355335],0.005,0.1,-0.8762847160575205,-0.04981154568237528,0
10.82790994644165,0.8947307239372131,[0.78965661],0.005,0.1,-0.5781557530729853,-0.05505588023497307,0
10.835351467132568,0.8923859393363729,[0.78579844],0.005,0.1,-0.3497725230072196,-0.041331077134840674,0
10.84435749053955,0.889454958585323,[0.78198189],0.005,0.1,-0.18304296237777212,-0.05001008343626336,0
10.853894710540771,0.8861331804007996,[0.77820111],0.005,0.1,-0.06564798427785859,-0.05748217665152071,0
10.8613600730896,0.8835929970832228,[0.77445016],0.005,0.1,0.014343988219929424,-0.043594345022599,0
10.869373798370361,0.8808574150489095,[0.77073004],0.005,0.1,0.06692159028056432,-0.05367402365114814,0
10.880676031112671,0.8771448394309127,[0.76702616],0.005,0.1,0.09987896158560777,-0.08653646459621511,0
10.889290571212769,0.8740184599631259,[0.76331825],0.005,0.1,0.11905817050034631,-0.061467606332052796,0
10.898374080657959,0.8708920804953393,[0.75960353],0.005,0.1,0.12872806338553838,-0.06799983695715452,0
10.90783405303955,0.8671795048773426,[0.75587954],0.005,0.1,-0.14408441957822912,-0.0727373019120016,0
10.917327165603638,0.8638577266928191,[0.75213677],0.005,0.1,0.09778387659008438,-0.07700471296052491,0
10.926324129104614,0.860340549791559,[0.7483669],0.005,0.1,0.1822126411691934,-0.08060081826816734,0
10.93435788154602,0.8570187716070357,[0.74457017],0.005,0.1,0.19771785961243662,-0.058451978146631264,0
10.942386627197266,0.8536969934225123,[0.7407618],0.005,0.1,0.1857110903804206,-0.045134263984556354,0
10.950377464294434,0.8505706139547256,[0.73695412],0.005,0.1,0.1648982141865075,-0.05866064893364004,0
10.95913553237915,0.8472488357702022,[0.73314101],0.005,0.1,0.14322543945741345,-0.0709524649067875,0
10.9703369140625,0.843145462718732,[0.72930806],0.005,0.1,0.12367489932503059,-0.08162365802505338,0
10.979396104812622,0.8394328871007354,[0.72544137],0.005,0.1,0.10703822256610167,-0.09170131757703504,0
10.9879629611969,0.8357203114827386,[0.72153655],0.005,0.1,0.09321631972677388,-0.06834115148728351,0
10.999036073684692,0.8312261409977952,[0.71758859],0.005,0.1,0.08180833979230505,-0.11989957309512826,0
11.007876634597778,0.8275135653797985,[0.71358373],0.005,0.1,0.3484018188219722,-0.0866243368195464,0
11.018388986587524,0.8230193948948551,[0.70951924],0.005,0.1,0.3736398251179315,-0.09914978687092366,0
11.027584552764893,0.8187206231266484,[0.70539271],0.005,0.1,0.8639591894532859,-0.10947548804090354,0
11.036965370178223,0.8150080475086516,[0.70119349],0.005,0.1,0.8484298422228597,-0.11719905404156451,0
11.044831991195679,0.8116862693241282,[0.6969136],0.005,0.1,0.9388249874139725,-0.12328714175097205,0
11.053991079330444,0.8079736937061315,[0.69254735],0.005,0.1,1.3109252014082586,-0.12812917333904555,0
11.062948942184448,0.8042611180881346,[0.68809068],0.005,0.1,1.4112659448026728,-0.13278857361347182,0
11.072684049606323,0.7997669476031912,[0.68354067],0.005,0.1,1.6641385657600414,-0.1365223337121143,0
11.081445693969727,0.7962497707019311,[0.67890485],0.005,0.1,1.6220726308429323,-0.0984458173139758,0
11.091415405273438,0.7917556002169878,[0.6741997],0.005,0.1,1.749602496677073,-0.11239401538283715,0
11.099366664886475,0.7890200181826744,[0.66943026],0.005,0.1,1.886516305884545,-0.1254184117928006,0
11.109349489212036,0.7847212464144676,[0.66459191],0.005,0.1,1.9777999254382341,-0.13434581014943203,0
11.117366790771484,0.781594866946681,[0.65969102],0.005,0.1,2.0133131371028874,-0.09881437999015048,0
11.126627683639526,0.7772960951784743,[0.65473374],0.005,0.1,1.9999610095656886,-0.16221792760260206,0
11.136380434036255,0.7733881208437408,[0.64971649],0.005,0.1,1.9494116149228933,-0.11542966113344157,0
11.144376993179321,0.7698709439424808,[0.64464661],0.005,0.1,1.8730961458750706,-0.12873337468080479,0
11.155453443527222,0.7651813747408006,[0.63952164],0.005,0.1,1.7805067862374324,-0.18999350231230483,0
11.167359352111816,0.7601010081056472,[0.63432144],0.005,0.1,1.4028647710475284,-0.18040539176960133,0
11.17638087272644,0.7563884324876504,[0.62904935],0.005,0.1,1.5404301257606718,-0.125772401753039,0
11.186046600341797,0.7520896607194437,[0.6237286],0.005,0.1,1.5232313149992818,-0.13440687157815673,0
11.196362733840942,0.7477908889512369,[0.61837094],0.005,0.1,1.4411874412197516,-0.13974847348395317,0
11.205734014511108,0.743687515899767,[0.61297874],0.005,0.1,1.060519184193094,-0.14182971338025216,0
11.21331238746643,0.7405611364319802,[0.60756475],0.005,0.1,0.9193329740643525,-0.101312352608935,0
11.222429037094116,0.7370439595307202,[0.60215033],0.005,0.1,0.8710533672724844,-0.11135332366129186,0
11.23232913017273,0.7327451877625135,[0.59674663],0.005,0.1,0.8514101716382493,-0.1162304273361974,0
11.244629144668579,0.7274694224106234,[0.59134875],0.005,0.1,0.5584648258289145,-0.15529484746571673,0
11.252342462539673,0.7243430429428366,[0.58595487],0.005,0.1,0.5025125851357202,-0.10485363487803268,0
11.260335683822632,0.7212166634750498,[0.5805812],0.005,0.1,0.527472898999995,-0.104367140548954,0
11.2721688747406,0.7159408981231598,[0.57523684],0.005,0.1,0.5674149210095889,-0.13285787468501373,0
11.281501770019531,0.7118375250716897,[0.56992389],0.005,0.1,0.5977830898079517,-0.08787701738144604,0
11.289833307266235,0.708124949453693,[0.56465954],0.005,0.1,0.3360867690442769,-0.08517696708605771,0
11.300312042236328,0.7038261776854862,[0.5594598],0.005,0.1,0.5781116617156152,-0.08174170200355692,0
