Time_sec,MoCap_Elbow_Angle,Optimized_Angle,Filtered_Net_A
0.0,0.4912398980775848,1.0963350777007437,0.0
0.0004999637603759766,0.4912398980775848,1.0970946349929238,0.0
0.0009999275207519531,0.4912398980775848,1.0978542248838907,0.0
0.0014998912811279297,0.4912398980775848,1.098613844360089,0.0
0.002000093460083008,0.4912398980775848,1.0993734904204775,0.0
0.0025000572204589844,0.4912398980775848,1.10013316007644,0.0
0.003000020980834961,0.4912398980775848,1.100892850351696,0.0
0.0034999847412109375,0.4912398980775848,1.1016525582822123,0.0
0.003999948501586914,0.4912398980775848,1.1024122809161145,0.0
0.004499912261962891,0.4912398980775848,1.1031720153135984,0.0
0.005000114440917969,0.4912398980775848,1.1039317585468422,0.0
0.005500078201293945,0.4912398980775848,1.1046915076999195,0.0
0.006000041961669922,0.4912398980775848,1.1054512598687114,0.0
0.0065000057220458984,0.4912398980775848,1.10621101216082,0.0
0.006999969482421875,0.4912398980775848,1.1069707616954818,0.0
0.0074999332427978516,0.4912398980775848,1.1077305056034823,0.0
0.007999897003173828,0.4912398980775848,1.1084902410270692,0.0
0.008500099182128906,0.4912398980775848,1.1092499651198677,0.0
0.009000062942504883,0.4912398980775848,1.1100096750467965,0.0
0.00950002670288086,0.4912398980775848,1.1107693679839818,0.0
0.009999990463256836,0.4912398980775848,1.111529041118675,0.0
0.010499954223632812,0.4912398980775848,1.112288691649168,0.0
0.010999917984008789,0.4912398980775848,1.1130483167847118,0.0
0.011499881744384766,0.4912398980775848,1.1138079137454326,0.0
0.012000083923339844,0.4912398980775848,1.1145674797622507,0.0
0.01250004768371582,0.4912398980775848,1.115327012076799,0.0
0.013000011444091797,0.4912398980775848,1.116086507941343,0.0
0.013499975204467773,0.4912398980775848,1.1168459646186986,0.0
0.01399993896484375,0.4912398980775848,1.1176053793821545,0.0
0.014499902725219727,0.4912398980775848,1.1183647495153926,0.0
0.015000104904174805,0.4912398980775848,1.1191240723124085,0.0
0.015500068664550781,0.4912398980775848,1.119883345077435,0.0
0.016000032424926758,0.4912398980775848,1.1206425651248642,0.0
0.016499996185302734,0.4912398980775848,1.1214017297791707,0.0
0.01699995994567871,0.4912398980775848,1.1221608363748365,0.0
0.017499923706054688,0.4912398980775848,1.1229198822562751,0.0
0.017999887466430664,0.4912398980775848,1.1236788647777567,0.0
0.018500089645385742,0.4912398980775848,1.1244377813033348,0.0
0.01900005340576172,0.4912398980775848,1.1251966292067725,0.0
0.019500017166137695,0.4912398980775848,1.1259554058714705,0.0
0.019999980926513672,0.4912398980775848,1.1267141086903945,0.0
0.02049994468688965,0.4912398980775848,1.1274727350660048,0.0
0.020999908447265625,0.4912398980775848,1.1282312824101854,0.0
0.021500110626220703,0.4912398980775848,1.1289897481441749,0.0
0.02200007438659668,0.4912398980775848,1.129748129698497,0.0
0.022500038146972656,0.4912398980775848,1.1305064245128926,0.0
0.023000001907348633,0.4912398980775848,1.1312646300362525,0.0
0.02349996566772461,0.4912398980775848,1.1320227437265509,0.0
0.023999929428100586,0.4912398980775848,1.132780763050779,0.0
0.024499893188476562,0.4912398980775848,1.1335386854848806,0.0
0.02500009536743164,0.4912398980775848,1.1342965085136874,0.0
0.025500059127807617,0.4912398980775848,1.135054229630856,0.0
0.026000022888183594,0.4912398980775848,1.1358118463388043,0.0
0.02649998664855957,0.4912398980775848,1.1365693561486512,0.0
0.026999950408935547,0.4912398980775848,1.1373267565801544,0.0
0.027499914169311523,0.4912398980775848,1.13808404516165,0.0
0.0280001163482666,0.4912398980775848,1.1388412194299946,0.0
0.028500080108642578,0.4912398980775848,1.139598276930505,0.0
0.029000043869018555,0.4912398980775848,1.140355215216902,0.0
0.02950000762939453,0.4912398980775848,1.1411120318512529,0.0
0.029999971389770508,0.4912398980775848,1.141868724403915,0.0
0.030499935150146484,0.4912398980775848,1.1426252904534813,0.0
0.03099989891052246,0.4912398980775848,1.1433817275867262,0.0
0.03150010108947754,0.4912398980775848,1.1441380333985516,0.0
0.032000064849853516,0.4912398980775848,1.1448942054919347,0.0
0.03250002861022949,0.4912398980775848,1.1456502414778762,0.0
0.03299999237060547,0.4912398980775848,1.1464061389753495,0.0
0.033499956130981445,0.4912398980775848,1.1471618956112508,0.0
0.03399991989135742,0.4912398980775848,1.1479175090203502,0.0
0.0344998836517334,0.4912398980775848,1.148672976845243,0.0
0.03500008583068848,0.4912398980775848,1.149428296736303,0.0
0.03550004959106445,0.4912398980775848,1.1501834663516357,0.0
0.03600001335144043,0.4912398980775848,1.150938483357033,0.0
0.036499977111816406,0.4912398980775848,1.1516933454259286,0.0
0.03699994087219238,0.4912398980775848,1.1524480502393535,0.0
0.03749990463256836,0.4912398980775848,1.1532025954858942,0.0
0.03800010681152344,0.4912398980775848,1.15395697886165,0.0
0.038500070571899414,0.4912398980775848,1.1547111980701918,0.0
0.03900003433227539,0.4912398980775848,1.1554652508225227,0.0
0.03949999809265137,0.4912398980775848,1.1562191348370374,0.0
0.039999961853027344,0.4912398980775848,1.1569728478394847,0.0
0.04049992561340332,0.4912398980775848,1.1577263875629296,0.0
0.0409998893737793,0.4912398980775848,1.1584797517477163,0.0
0.041500091552734375,0.4912398980775848,1.1592329381414328,0.0
0.04200005531311035,0.4912398980775848,1.1599859444988756,0.0
0.04250001907348633,0.4912398980775848,1.1607387685820159,0.0
0.042999982833862305,0.4912398980775848,1.1614914081599659,0.0
0.04349994659423828,0.4912398980775848,1.1622438610089472,0.0
0.04399991035461426,0.4912398980775848,1.1629961249122582,0.0
0.044500112533569336,0.4912398980775848,1.1637481976602448,0.0
0.04500007629394531,0.4912398980775848,1.1645000770502698,0.0
0.04550004005432129,0.4912398980775848,1.1652517608866837,0.0
0.046000003814697266,0.4912398980775848,1.1660032469807975,0.0
0.04649996757507324,0.4912398980775848,1.1667545331508549,0.0
0.04699993133544922,0.4912398980775848,1.167505617222006,0.0
0.047499895095825195,0.4912398980775848,1.1682564970262819,0.0
0.04800009727478027,0.4912398980775848,1.16900717040257,0.0
0.04850006103515625,0.4912398980775848,1.16975763519659,0.0
0.04900002479553223,0.4912398980775848,1.1705078892608707,0.0
0.0494999885559082,0.4912398980775848,1.1712579304547284,0.0
0.04999995231628418,0.4912398980775848,1.1720077566442446,0.0
0.050499916076660156,0.4912398980775848,1.1727573657022463,0.0
0.051000118255615234,0.4912398980775848,1.1735067555082854,0.0
0.05150008201599121,0.4912398980775848,1.1742559239486203,0.0
0.05200004577636719,0.4912398980775848,1.1750048689161974,0.0
0.052500009536743164,0.4912398980775848,1.1757535883106336,0.0
0.05299997329711914,0.4912398980775848,1.1765020800382,0.0
0.05349993705749512,0.4912398980775848,1.1772503420118057,0.0
0.053999900817871094,0.4912398980775848,1.1779983721509828,0.0
0.05450010299682617,0.4912398980775848,1.178746168381872,0.0
0.05500006675720215,0.4912398980775848,1.1794937286372094,0.0
0.055500030517578125,0.4912398980775848,1.1802410508563128,0.0
0.0559999942779541,0.4912398980775848,1.1809881329850709,0.0
0.05649995803833008,0.4912398980775848,1.1817349729759303,0.0
0.056999921798706055,0.4912398980775848,1.1824815687878867,0.0
0.05749988555908203,0.4912398980775848,1.1832279183864731,0.0
0.05800008773803711,0.4912398980775848,1.183974019743752,0.0
0.058500051498413086,0.4912398980775848,1.1847198708383064,0.0
0.05900001525878906,0.4912398980775848,1.1854654696552316,0.0
0.05949997901916504,0.4912398980775848,1.1862108141861287,0.0
0.059999942779541016,0.4912398980775848,1.1869559024290979,0.0
0.06049990653991699,0.4912398980775848,1.1877007323887325,0.0
0.06100010871887207,0.4912398980775848,1.1884453020761143,0.0
0.06150007247924805,0.4912398980775848,1.1891896095088084,0.0
0.06200003623962402,0.4912398980775848,1.18993365271086,0.0
0.0625,0.4912398980775848,1.1906774297127911,0.0
0.06299996376037598,0.4912398980775848,1.191420938551598,0.0
0.06349992752075195,0.4912398980775848,1.1921641772707485,0.0
0.06399989128112793,0.4912398980775848,1.1929071439201824,0.0
0.06450009346008301,0.4912398980775848,1.1936498365563089,0.0
0.06500005722045898,0.4912398980775848,1.1943922532420075,0.0
0.06550002098083496,0.4912398980775848,1.1951343920466284,0.0
0.06599998474121094,0.4912398980775848,1.1958762510459935,0.0
0.06649994850158691,0.4912398980775848,1.1966178283223976,0.0
0.06699991226196289,0.4912398980775848,1.1973591219646111,0.0
0.06750011444091797,0.4912398980775848,1.1981001300678826,0.0
0.06800007820129395,0.4912398980775848,1.1988408507339419,0.0
0.06850004196166992,0.4912398980775848,1.1995812820710041,0.0
0.0690000057220459,0.4912398980775848,1.200321422193774,0.0
0.06949996948242188,0.4912398980775848,1.2010612692234504,0.0
0.06999993324279785,0.4912398980775848,1.201800821287732,0.0
0.07049989700317383,0.4912398980775848,1.2025400765208232,0.0
0.0710000991821289,0.4912398980775848,1.2032790330634402,0.0
0.07150006294250488,0.4912398980775848,1.2040176890628178,0.0
0.07200002670288086,0.4912398980775848,1.2047560426727169,0.0
0.07249999046325684,0.4912398980775848,1.2054940920534318,0.0
0.07299995422363281,0.4912398980775848,1.2062318353717993,0.0
0.07349991798400879,0.4912398980775848,1.206969270801206,0.0
0.07399988174438477,0.4912398980775848,1.2077063965215988,0.0
0.07450008392333984,0.4912398980775848,1.2084432107194931,0.0
0.07500004768371582,0.4912398980775848,1.2091797115879834,0.0
0.0755000114440918,0.4912398980775848,1.2099158973267539,0.0
0.07599997520446777,0.4912398980775848,1.2106517661420881,0.0
0.07649993896484375,0.4912398980775848,1.2113873162468811,0.0
0.07699990272521973,0.4912398980775848,1.2121225458606504,0.0
0.0775001049041748,0.4912398980775848,1.2128574532095475,0.0
0.07800006866455078,0.4912398980775848,1.213592036526371,0.0
0.07850003242492676,0.4912398980775848,1.2143262940505783,0.0
0.07899999618530273,0.4912398980775848,1.2150602240282988,0.0
0.07949995994567871,0.4912398980775848,1.2157938247123472,0.0
0.07999992370605469,0.4912398980775848,1.2165270943622366,0.0
0.08049988746643066,0.4912398980775848,1.217260031244193,0.0
0.08100008964538574,0.4912398980775848,1.217992633631169,0.0
0.08150005340576172,0.4912398980775848,1.2187248998028586,0.0
0.0820000171661377,0.4912398980775848,1.2194568280457114,0.0
0.08249998092651367,0.4912398980775848,1.2201884166529482,0.0
0.08299994468688965,0.4912398980775848,1.2209196639245758,0.0
0.08349990844726562,0.4912398980775848,1.221650568167403,0.0
0.0840001106262207,0.4912398980775848,1.2223811276950562,0.0
0.08450007438659668,0.4912398980775848,1.2231113408279952,0.0
0.08500003814697266,0.4912398980775848,1.2238412058935302,0.0
0.08550000190734863,0.4912398980775848,1.2245707212258372,0.0
0.08599996566772461,0.4912398980775848,1.2252998851659758,0.0
0.08649992942810059,0.4912398980775848,1.2260286960619056,0.0
0.08699989318847656,0.4912398980775848,1.2267571522685035,0.0
0.08750009536743164,0.4912398980775848,1.227485252147581,0.0
0.08800005912780762,0.4912398980775848,1.2282129940679014,0.0
0.0885000228881836,0.4912398980775848,1.228940376405198,0.0
0.08899998664855957,0.4912398980775848,1.2296673975421917,0.0
0.08949995040893555,0.4912398980775848,1.230394055868609,0.0
0.08999991416931152,0.4912398980775848,1.2311203497812007,0.0
0.0905001163482666,0.4912398980775848,1.2318462776837589,0.0
0.09100008010864258,0.4912398980775848,1.2325718379871369,0.0
0.09150004386901855,0.4912398980775848,1.233297029109267,0.0
0.09200000762939453,0.4912398980775848,1.2340218494751798,0.0
0.09249997138977051,0.4912398980775848,1.2347462975170218,0.0
0.09299993515014648,0.4912398980775848,1.2354703716740758,0.0
0.09349989891052246,0.4912398980775848,1.2361940703927792,0.0
0.09400010108947754,0.4912398980775848,1.2369173921267427,0.0
0.09450006484985352,0.4912398980775848,1.2376403353367704,0.0
0.09500002861022949,0.4912398980775848,1.2383628984908785,0.0
0.09549999237060547,0.4912398980775848,1.239085080064315,0.0
0.09599995613098145,0.4912398980775848,1.2398068785395782,0.0
0.09649991989135742,0.4912398980775848,1.2405282924064371,0.0
0.0969998836517334,0.4912398980775848,1.241249320161951,0.0
0.09750008583068848,0.4912398980775848,1.2419699603104881,0.0
0.09800004959106445,0.4912398980775848,1.242690211363746,0.0
0.09850001335144043,0.4912398980775848,1.2434100718407703,0.0
0.0989999771118164,0.4912398980775848,1.2441295402679755,0.0
0.09949994087219238,0.4912398980775848,1.2448486151791636,0.0
0.09999990463256836,0.4912398980775848,1.2455672951155436,0.0
0.10050010681152344,0.4912398980775848,1.2462855786257525,0.0
0.10100007057189941,0.4912398980775848,1.2470034642658732,0.0
0.10150003433227539,0.4912398980775848,1.2477209505994549,0.0
0.10199999809265137,0.4912398980775848,1.2484380361975331,0.0
0.10249996185302734,0.4912398980775848,1.2491547196386485,0.0
0.10299992561340332,0.4912398980775848,1.2498709995088666,0.0
0.1034998893737793,0.4912398980775848,1.2505868744017976,0.0
0.10400009155273438,0.4912398980775848,1.2513023429186152,0.0
0.10450005531311035,0.4912398980775848,1.2520174036680765,0.0
0.10500001907348633,0.4912398980775848,1.2527320552665409,0.0
0.1054999828338623,0.4912398980775848,1.25344629633799,0.0
0.10599994659423828,0.4912398980775848,1.2541601255140462,0.0
0.10649991035461426,0.4912398980775848,1.254873541433992,0.0
0.10700011253356934,0.4912398980775848,1.2555865427447888,0.0
0.10750007629394531,0.4912398980775848,1.2562991281010965,0.0
0.10800004005432129,0.4912398980775848,1.2570112961652915,0.0
0.10850000381469727,0.4912398980775848,1.2577230456074862,0.0
0.10899996757507324,0.4912398980775848,1.258434375105547,0.0
0.10949993133544922,0.4912398980775848,1.259145283345113,0.0
0.1099998950958252,0.4912398980775848,1.2598557690196157,0.0
0.11050009727478027,0.4912398980775848,1.2605658308302947,0.0
0.11100006103515625,0.4912398980775848,1.2612754674862183,0.0
0.11150002479553223,0.4912398980775848,1.2619846777043007,0.0
0.1119999885559082,0.4912398980775848,1.2626934602093192,0.0
0.11249995231628418,0.4912398980775848,1.2634018137339331,0.0
0.11299991607666016,0.4912398980775848,1.2641097370187009,0.0
0.11350011825561523,0.4912398980775848,1.2648172288120973,0.0
0.11400008201599121,0.4912398980775848,1.2655242878705317,0.0
0.11450004577636719,0.4912398980775848,1.2662309129583642,0.0
0.11500000953674316,0.4912398980775848,1.2669371028479233,0.0
0.11549997329711914,0.4912398980775848,1.2676428563195226,0.0
0.11599993705749512,0.4912398980775848,1.268348172161477,0.0
0.1164999008178711,0.4912398980775848,1.2690530491701204,0.0
0.11700010299682617,0.4912398980775848,1.2697574861498204,0.0
0.11750006675720215,0.4912398980775848,1.2704614819129958,0.0
0.11800003051757812,0.4912398980775848,1.2711650352801322,0.0
0.1184999942779541,0.4912398980775848,1.2718681450797973,0.0
0.11899995803833008,0.4912398980775848,1.2725708101486568,0.0
0.11949992179870605,0.4912398980775848,1.2732730293314902,0.0
0.11999988555908203,0.4912398980775848,1.2739748014812051,0.0
0.12050008773803711,0.4912398980775848,1.2746761254588528,0.0
0.12100005149841309,0.4912398980775848,1.2753770001336426,0.0
0.12150001525878906,0.4912398980775848,1.276077424382957,0.0
0.12199997901916504,0.4912398980775848,1.276777397092365,0.0
0.12249994277954102,0.4912398980775848,1.2774769171556377,0.0
0.12299990653991699,0.4912398980775848,1.2781759834747606,0.0
0.12350010871887207,0.4912398980775848,1.278874594959948,0.0
0.12400007247924805,0.4912398980775848,1.2795727505296568,0.0
0.12450003623962402,0.4912398980775848,1.280270449110599,0.0
0.125,0.4912398980775848,1.2809676896377546,0.0
0.12549996376037598,0.4912398980775848,1.2816644710543854,0.0
0.12599992752075195,0.4912398980775848,1.282360792312046,0.0
0.12649989128112793,0.4912398980775848,1.2830566523705966,0.0
0.127000093460083,0.4912398980775848,1.283752050198216,0.0
0.12750005722045898,0.4912398980775848,1.2844469847714117,0.0
0.12800002098083496,0.4912398980775848,1.2851414550750326,0.0
0.12849998474121094,0.4912398980775848,1.2858354601022794,0.0
0.12899994850158691,0.4912398980775848,1.286528998854716,0.0
0.1294999122619629,0.4912398980775848,1.2872220703422803,0.0
0.13000011444091797,0.4912398980775848,1.2879146735832945,0.0
0.13050007820129395,0.4912398980775848,1.288606807604475,0.0
0.13100004196166992,0.4912398980775848,1.2892984714409428,0.0
0.1315000057220459,0.4912398980775848,1.2899896641362332,0.0
0.13199996948242188,0.4912398980775848,1.2906803847423047,0.0
0.13249993324279785,0.4912398980775848,1.2913706323195484,0.0
0.13299989700317383,0.4912398980775848,1.2920604059367968,0.0
0.1335000991821289,0.4912398980775848,1.2927497046713325,0.0
0.13400006294250488,0.4912398980775848,1.2934385276088962,0.0
0.13450002670288086,0.4912398980775848,1.294126873843695,0.0
0.13499999046325684,0.4912398980775848,1.2948147424784102,0.0
0.1354999542236328,0.4912398980775848,1.2955021326242044,0.0
0.1359999179840088,0.4912398980775848,1.2961890434007288,0.0
0.13649988174438477,0.4912398980775848,1.2968754739361306,0.0
0.13700008392333984,0.4912398980775848,1.2975614233670587,0.0
0.13750004768371582,0.4912398980775848,1.2982468908386708,0.0
0.1380000114440918,0.4912398980775848,1.2989318755046393,0.0
0.13849997520446777,0.4912398980775848,1.2996163765271567,0.0
0.13899993896484375,0.4912398980775848,1.3003003930769412,0.0
0.13949990272521973,0.4912398980775848,1.3009839243332424,0.0
0.1400001049041748,0.4912398980775848,1.3016669694838456,0.0
0.14050006866455078,0.4912398980775848,1.3023495277250767,0.0
0.14100003242492676,0.4912398980775848,1.3030315982618061,0.0
0.14149999618530273,0.4912398980775848,1.3037131803074538,0.0
0.1419999599456787,0.4912398980775848,1.3043942730839915,0.0
0.1424999237060547,0.4912398980775848,1.3050748758219477,0.0
0.14299988746643066,0.4912398980775848,1.3057549877604102,0.0
0.14350008964538574,0.4912398980775848,1.3064346081470284,0.0
0.14400005340576172,0.4912398980775848,1.307113736238017,0.0
0.1445000171661377,0.4912398980775848,1.3077923712981576,0.0
0.14499998092651367,0.4912398980775848,1.308470512600801,0.0
0.14549994468688965,0.4912398980775848,1.3091481594278684,0.0
0.14599990844726562,0.4912398980775848,1.309825311069854,0.0
0.1465001106262207,0.4912398980775848,1.3105019668258246,0.0
0.14700007438659668,0.4912398980775848,1.3111781260034223,0.0
0.14750003814697266,0.4912398980775848,1.3118537879188636,0.0
0.14800000190734863,0.4912398980775848,1.3125289518969403,0.0
0.1484999656677246,0.4912398980775848,1.3132036172710195,0.0
0.14899992942810059,0.4912398980775848,1.3138777833830435,0.0
0.14949989318847656,0.4912398980775848,1.3145514495835289,0.0
0.15000009536743164,0.4912398980775848,1.3152246152315663,0.0
0.15050005912780762,0.4912398980775848,1.315897279694819,0.0
0.1510000228881836,0.4912398980775848,1.3165694423495211,0.0
0.15149998664855957,0.4912398980775848,1.3172411025804773,0.0
0.15199995040893555,0.4912398980775848,1.3179122597810595,0.0
0.15249991416931152,0.4912398980775848,1.3185829133532052,0.0
0.1530001163482666,0.4912398980775848,1.3192530627074155,0.0
0.15350008010864258,0.4912398980775848,1.319922707262752,0.0
0.15400004386901855,0.4912398980775848,1.3205918464468336,0.0
0.15450000762939453,0.4912398980775848,1.3212604796958338,0.0
0.1549999713897705,0.4912398980775848,1.321928606454477,0.0
0.15549993515014648,0.4912398980775848,1.322596226176035,0.0
0.15599989891052246,0.4912398980775848,1.3232633383223222,0.0
0.15650010108947754,0.4912398980775848,1.323929942363693,0.0
0.15700006484985352,0.4912398980775848,1.3245960377790356,0.0
0.1575000286102295,0.4912398980775848,1.3252616240557682,0.0
0.15799999237060547,0.4912398980775848,1.325926700689834,0.0
0.15849995613098145,0.4912398980775848,1.3265912671856959,0.0
0.15899991989135742,0.4912398980775848,1.3272553230563309,0.0
0.1594998836517334,0.4912398980775848,1.3279188678232248,0.0
0.16000008583068848,0.4912398980775848,1.3285819010163662,0.0
0.16050004959106445,0.4912398980775848,1.32924442217424,0.0
0.16100001335144043,0.4912398980775848,1.329906430843822,0.0
0.1614999771118164,0.4912398980775848,1.3305679265805712,0.0
0.16199994087219238,0.4912398980775848,1.3312289089484242,0.0
0.16249990463256836,0.4912398980775848,1.3318893775197873,0.0
0.16300010681152344,0.4912398980775848,1.3325493318755302,0.0
0.16350007057189941,0.4912398980775848,1.3332087716049776,0.0
0.1640000343322754,0.4912398980775848,1.3338676963059029,0.0
0.16449999809265137,0.4912398980775848,1.334526105584519,0.0
0.16499996185302734,0.4912398980775848,1.3351839990554721,0.0
0.16549992561340332,0.4912398980775848,1.3358413763418324,0.0
0.1659998893737793,0.4912398980775848,1.3364982370750857,0.0
0.16650009155273438,0.4912398980775848,1.337154580895126,0.0
0.16700005531311035,0.4912398980775848,1.3378104074502457,0.0
0.16750001907348633,0.4912398980775848,1.3384657163971276,0.0
0.1679999828338623,0.4912398980775848,1.339120507400836,0.0
0.16849994659423828,0.4912398980775848,1.3397747801348074,0.0
0.16899991035461426,0.4912398980775848,1.3404285342808409,0.0
0.16950011253356934,0.4912398980775848,1.341081769529089,0.0
0.1700000762939453,0.4912398980775848,1.3417344855780493,0.0
0.1705000400543213,0.4912398980775848,1.342386682134553,0.0
0.17100000381469727,0.4912398980775848,1.3430383589137562,0.0
0.17149996757507324,0.4912398980775848,1.3436895156391304,0.0
0.17199993133544922,0.4912398980775848,1.3443401520424516,0.0
0.1724998950958252,0.4912398980775848,1.3449902678637906,0.0
0.17300009727478027,0.4912398980775848,1.3456398628515034,0.0
0.17350006103515625,0.4912398980775848,1.34628893676222,0.0
0.17400002479553223,0.4912398980775848,1.3469374893608346,0.0
0.1744999885559082,0.4912398980775848,1.3475855204204952,0.0
0.17499995231628418,0.4912398980775848,1.348233029722593,0.0
0.17549991607666016,0.4912398980775848,1.348880017056752,0.0
0.17600011825561523,0.4912398980775848,1.3495264822208184,0.0
0.1765000820159912,0.4912398980775848,1.350172425020849,0.0
0.1770000457763672,0.4912398980775848,1.3508178452711026,0.0
0.17750000953674316,0.4912398980775848,1.351462742794027,0.0
0.17799997329711914,0.4912398980775848,1.3521071174202492,0.0
0.17849993705749512,0.4912398980775848,1.3527509689885655,0.0
0.1789999008178711,0.4912398980775848,1.3533942973459292,0.0
0.17950010299682617,0.4912398980775848,1.3540371023474405,0.0
0.18000006675720215,0.4912398980775848,1.3546793838563358,0.0
0.18050003051757812,0.4912398980775848,1.3553211417439768,0.0
0.1809999942779541,0.4912398980775848,1.3559623758898394,0.0
0.18149995803833008,0.4912398980775848,1.3566030861815035,0.0
0.18199992179870605,0.4912398980775848,1.357243272514642,0.0
0.18249988555908203,0.4912398980775848,1.3578829347930097,0.0
0.1830000877380371,0.4912398980775848,1.3585220729284335,0.0
0.18350005149841309,0.4912398980775848,1.3591606868408015,0.0
0.18400001525878906,0.4912398980775848,1.3597987764580521,0.0
0.18449997901916504,0.4912398980775848,1.360436341716164,0.0
0.18499994277954102,0.4912398980775848,1.3610733825591455,0.0
0.185499906539917,0.4912398980775848,1.3617098989390246,0.0
0.18600010871887207,0.4912398980775848,1.3623458908158386,0.0
0.18650007247924805,0.4912398980775848,1.362981358157624,0.0
0.18700003623962402,0.4912398980775848,1.3636163009404068,0.0
0.1875,0.4912398980775848,1.3642507191481918,0.0
0.18799996376037598,0.4912398980775848,1.3648846127729546,0.0
0.18849992752075195,0.4912398980775848,1.36551798181463,0.0
0.18899989128112793,0.4912398980775848,1.3661508262811037,0.0
0.189500093460083,0.4912398980775848,1.3667831461882036,0.0
0.19000005722045898,0.4912398980775848,1.3674149415596892,0.0
0.19050002098083496,0.4912398980775848,1.368046212427244,0.0
0.19099998474121094,0.4912398980775848,1.3686769588304653,0.0
0.19149994850158691,0.4912398980775848,1.3693071808168575,0.0
0.1919999122619629,0.4912398980775848,1.3699368784418224,0.0
0.19250011444091797,0.4912398980775848,1.370566051768651,0.0
0.19300007820129395,0.4912398980775848,1.3711947008685168,0.0
0.19350004196166992,0.4912398980775848,1.3718228258204663,0.0
0.1940000057220459,0.4912398980775848,1.372450426711413,0.0
0.19449996948242188,0.4912398980775848,1.3730775036361296,0.0
0.19499993324279785,0.4912398980775848,1.373704056697241,0.0
0.19549989700317383,0.4912398980775848,1.3743300860052172,0.0
0.1960000991821289,0.4912398980775848,1.374955591678368,0.0
0.19650006294250488,0.4912398980775848,1.3755805738428355,0.0
0.19700002670288086,0.4912398980775848,1.3762050326325888,0.0
0.19749999046325684,0.4912398980775848,1.3768289681894184,0.0
0.1979999542236328,0.4912398980775848,1.377452380662931,0.0
0.1984999179840088,0.4912398980775848,1.3780752702105443,0.0
0.19899988174438477,0.4912398980775848,1.3786976369974822,0.0
0.19950008392333984,0.4912398980775848,1.3793194811967708,0.0
0.20000004768371582,0.4912398980775848,1.3799408029892344,0.0
0.2005000114440918,0.4912398980775848,1.3805616025634915,0.0
0.20099997520446777,0.4912398980775848,1.3811818801159517,0.0
0.20149993896484375,0.4912398980775848,1.3818016358508125,0.0
0.20199990272521973,0.4912398980775848,1.3824208699800578,0.0
0.2025001049041748,0.4912398980775848,1.383039582723454,0.0
0.20300006866455078,0.4912398980775848,1.3836577743085496,0.0
0.20350003242492676,0.4912398980775848,1.3842754449706733,0.0
0.20399999618530273,0.4912398980775848,1.3848925949529327,0.0
0.2044999599456787,0.4912398980775848,1.3855092245062144,0.0
0.2049999237060547,0.4912398980775848,1.3861253338891832,0.0
0.20549988746643066,0.4912398980775848,1.386740923368283,0.0
0.20600008964538574,0.4912398980775848,1.3873559932177366,0.0
0.20650005340576172,0.4912398980775848,1.387970543719548,0.0
0.2070000171661377,0.4912398980775848,1.3885845751635029,0.0
0.20749998092651367,0.4912398980775848,1.3891980878471715,0.0
0.20799994468688965,0.4912398980775848,1.3898110820759106,0.0
0.20849990844726562,0.4912398980775848,1.3904235581628672,0.0
0.2090001106262207,0.4912398980775848,1.3910355164289812,0.0
0.20950007438659668,0.4912398980775848,1.39164695720299,0.0
0.21000003814697266,0.4912398980775848,1.3922578808214328,0.0
0.21050000190734863,0.4912398980775848,1.3928682876286553,0.0
0.2109999656677246,0.4912398980775848,1.393478177976816,0.0
0.21149992942810059,0.4912398980775848,1.394087552225891,0.0
0.21199989318847656,0.4912398980775848,1.3946964107436821,0.0
0.21250009536743164,0.4912398980775848,1.395304753905822,0.0
0.21300005912780762,0.4912398980775848,1.395912582095784,0.0
0.2135000228881836,0.4912398980775848,1.3965198957048883,0.0
0.21399998664855957,0.4912398980775848,1.3971266951323118,0.0
0.21449995040893555,0.4912398980775848,1.3977329807850973,0.0
0.21499991416931152,0.4912398980775848,1.3983387530781632,0.0
0.2155001163482666,0.4912398980775848,1.398944012434314,0.0
0.21600008010864258,0.4912398980775848,1.3995487592842506,0.0
0.21650004386901855,0.4912398980775848,1.4001529940665833,0.0
0.21700000762939453,0.4912398980775848,1.400756717227843,0.0
0.2174999713897705,0.4912398980775848,1.4013599292224939,0.0
0.21799993515014648,0.4912398980775848,1.4019626305129476,0.0
0.21849989891052246,0.4912398980775848,1.4025648215695763,0.0
0.21900010108947754,0.4912398980775848,1.4031665028707279,0.0
0.21950006484985352,0.4912398980775848,1.403767674902741,0.0
0.2200000286102295,0.4912398980775848,1.4043683381599612,0.0
0.22049999237060547,0.4912398980775848,1.4049684931447568,0.0
0.22099995613098145,0.4912398980775848,1.4055681403675364,0.0
0.22149991989135742,0.4912398980775848,1.4061672803467666,0.0
0.2219998836517334,0.4912398980775848,1.4067659136089905,0.0
0.22250008583068848,0.4912398980775848,1.4073640406888464,0.0
0.22300004959106445,0.4912398980775848,1.4079616621290874,0.0
0.22350001335144043,0.4912398980775848,1.4085587784806024,0.0
0.2239999771118164,0.4912398980775848,1.4091553903024368,0.0
0.22449994087219238,0.4912398980775848,1.4097514981618133,0.0
0.22499990463256836,0.4912398980775848,1.410347102634156,0.0
0.22550010681152344,0.4912398980775848,1.4109422043031117,0.0
0.22600007057189941,0.4912398980775848,1.411536803760574,0.0
0.2265000343322754,0.4912398980775848,1.4121309016067085,0.0
0.22699999809265137,0.4912398980775848,1.4127244984499767,0.0
0.22749996185302734,0.4912398980775848,1.4133175949071624,0.0
0.22799992561340332,0.4912398980775848,1.4139101916033978,0.0
0.2284998893737793,0.4912398980775848,1.4145022891721906,0.0
0.22900009155273438,0.4912398980775848,1.4150938882554518,0.0
0.22950005531311035,0.4912398980775848,1.4156849895035242,0.0
0.23000001907348633,0.4912398980775848,1.4162755935752114,0.0
0.2304999828338623,0.4912398980775848,1.4168657011378076,0.0
0.23099994659423828,0.4912398980775848,1.4174553128671283,0.0
0.23149991035461426,0.4912398980775848,1.4180444294475414,0.0
0.23200011253356934,0.4912398980775848,1.4186330515719991,0.0
0.2325000762939453,0.4912398980775848,1.419221179942071,0.0
0.2330000400543213,0.4912398980775848,1.4198088152679766,0.0
0.23350000381469727,0.4912398980775848,1.4203959582686196,0.0
0.23399996757507324,0.4912398980775848,1.420982609671623,0.0
0.23449993133544922,0.4912398980775848,1.4215687702133641,0.0
0.2349998950958252,0.4912398980775848,1.4221544406390112,0.0
0.23550009727478027,0.4912398980775848,1.4227396217025594,0.0
0.23600006103515625,0.4912398980775848,1.4233243141668692,0.0
0.23650002479553223,0.4912398980775848,1.4239085188037042,0.0
0.2369999885559082,0.4912398980775848,1.4244922363937698,0.0
0.23749995231628418,0.4912398980775848,1.4250754677267534,0.0
0.23799991607666016,0.4912398980775848,1.4256582136013642,0.0
0.23850011825561523,0.4912398980775848,1.426240474825375,0.0
0.2390000820159912,0.4912398980775848,1.4268222522156626,0.0
0.2395000457763672,0.4912398980775848,1.4274035465982515,0.0
0.24000000953674316,0.4912398980775848,1.4279843588083563,0.0
0.24049997329711914,0.4912398980775848,1.4285646896904256,0.0
0.24099993705749512,0.4912398980775848,1.429144540098187,0.0
0.2414999008178711,0.4912398980775848,1.4297239108946913,0.0
0.24200010299682617,0.4912398980775848,1.430302802952359,0.0
0.24250006675720215,0.4912398980775848,1.430881217153027,0.0
0.24300003051757812,0.4912398980775848,1.431459154387995,0.0
0.2434999942779541,0.4912398980775848,1.4320366155580748,0.0
0.24399995803833008,0.4912398980775848,1.432613601573637,0.0
0.24449992179870605,0.4912398980775848,1.4331901133546616,0.0
0.24499988555908203,0.4912398980775848,1.4337661518307874,0.0
0.2455000877380371,0.4912398980775848,1.4343417179413627,0.0
0.24600005149841309,0.4912398980775848,1.4349168126354963,0.0
0.24650001525878906,0.4912398980775848,1.4354914368721097,0.0
0.24699997901916504,0.4912398980775848,1.4360655916199891,0.0
0.24749994277954102,0.4912398980775848,1.4366392778578394,0.0
0.247999906539917,0.4912398980775848,1.437212496574337,0.0
0.24850010871887207,0.4912398980775848,1.4377852487681844,0.0
0.24900007247924805,0.4912398980775848,1.4383575354481661,0.0
0.24950003623962402,0.4912398980775848,1.4389293576332034,0.0
0.25,0.4912398980775848,1.439500716352411,0.0
0.250499963760376,0.4912398980775848,1.440071612645154,0.0
0.25099992752075195,0.4912398980775848,1.4406420475611053,0.0
0.25149989128112793,0.4912398980775848,1.4412120221603033,0.0
0.252000093460083,0.4912398980775848,1.4417815375132117,0.0
0.252500057220459,0.4912398980775848,1.4423505947007778,0.0
0.25300002098083496,0.4912398980775848,1.4429191948144924,0.0
0.25349998474121094,0.4912398980775848,1.4434873389564509,0.0
0.2539999485015869,0.4912398980775848,1.4440550282394138,0.0
0.2544999122619629,0.4912398980775848,1.4446222637868684,0.0
0.25500011444091797,0.4912398980775848,1.445189046733091,0.0
0.25550007820129395,0.4912398980775848,1.4457553782232093,0.0
0.2560000419616699,0.4912398980775848,1.4463212594132662,0.0
0.2565000057220459,0.4912398980775848,1.4468866914702825,0.0
0.2569999694824219,0.4912398980775848,1.4474516755723223,0.0
0.25749993324279785,0.4912398980775848,1.4480162129085572,0.0
0.25799989700317383,0.4912398980775848,1.448580304679331,0.0
0.2585000991821289,0.4912398980775848,1.4491439520962266,0.0
0.2590000629425049,0.4912398980775848,1.4497071563821313,0.0
0.25950002670288086,0.4912398980775848,1.4502699187713042,0.0
0.25999999046325684,0.4912398980775848,1.4508322405094427,0.0
0.2604999542236328,0.4912398980775848,1.4513941228537506,0.0
0.2609999179840088,0.4912398980775848,1.451955567073006,0.0
0.26149988174438477,0.4912398980775848,1.45251657444763,0.0
0.26200008392333984,0.4912398980775848,1.4530771462697551,0.0
0.2625000476837158,0.4912398980775848,1.4536372838432954,0.0
0.2630000114440918,0.4912398980775848,1.4541969884840151,0.0
0.2634999752044678,0.4912398980775848,1.4547562615196001,0.0
0.26399993896484375,0.4912398980775848,1.4553151042897274,0.0
0.2644999027252197,0.4912398980775848,1.4558735181461366,0.0
0.2650001049041748,0.4912398980775848,1.4564315044527008,0.0
0.2655000686645508,0.4912398980775848,1.4569890645854982,0.0
0.26600003242492676,0.4912398980775848,1.4575461999328843,0.0
0.26649999618530273,0.4912398980775848,1.4581029118955637,0.0
0.2669999599456787,0.4912398980775848,1.4586592018866635,0.0
0.2674999237060547,0.4912398980775848,1.4592150713318048,0.0
0.26799988746643066,0.4912398980775848,1.4597705216691774,0.0
0.26850008964538574,0.4912398980775848,1.4603255543496116,0.0
0.2690000534057617,0.4912398980775848,1.4608801708366532,0.0
0.2695000171661377,0.4912398980775848,1.4614343726066366,0.0
0.26999998092651367,0.4912398980775848,1.461988161148759,0.0
0.27049994468688965,0.4912398980775848,1.4625415379651554,0.0
0.2709999084472656,0.4912398980775848,1.4630945045709722,0.0
0.2715001106262207,0.4912398980775848,1.4636470624944427,0.0
0.2720000743865967,0.4912398980775848,1.4641992132769612,0.0
0.27250003814697266,0.4912398980775848,1.464750958473159,0.0
0.27300000190734863,0.4912398980775848,1.4653022996509788,0.0
0.2734999656677246,0.4912398980775848,1.4658532383917504,0.0
0.2739999294281006,0.4912398980775848,1.466403776290266,0.0
0.27449989318847656,0.4912398980775848,1.466953914954856,0.0
0.27500009536743164,0.4912398980775848,1.4675036560074644,0.0
0.2755000591278076,0.4912398980775848,1.4680530010837238,0.0
0.2760000228881836,0.4912398980775848,1.4686019518330327,0.0
0.27649998664855957,0.4912398980775848,1.4691505099186297,0.0
0.27699995040893555,0.4912398980775848,1.46969867701767,0.0
0.2774999141693115,0.4912398980775848,1.4702464548213012,0.0
0.2780001163482666,0.4912398980775848,1.4707938450347384,0.0
0.2785000801086426,0.4912398980775848,1.4713408493773406,0.0
0.27900004386901855,0.4912398980775848,1.4718874695826858,0.0
0.27950000762939453,0.4912398980775848,1.4724337073986469,0.0
0.2799999713897705,0.4912398980775848,1.472979564587467,0.0
0.2804999351501465,0.4912398980775848,1.4735250429258349,0.0
0.28099989891052246,0.4912398980775848,1.4740701442049597,0.0
0.28150010108947754,0.4912398980775848,1.474614870230647,0.0
0.2820000648498535,0.4912398980775848,1.4751592228233725,0.0
0.2825000286102295,0.4912398980775848,1.4757032038183575,0.0
0.28299999237060547,0.4912398980775848,1.4762468150656431,0.0
0.28349995613098145,0.4912398980775848,1.4767900584301648,0.0
0.2839999198913574,0.4912398980775848,1.4773329357918257,0.0
0.2844998836517334,0.4912398980775848,1.4778754490455712,0.0
0.2850000858306885,0.4912398980775848,1.478417600101462,0.0
0.28550004959106445,0.4912398980775848,1.4789593908847465,0.0
0.28600001335144043,0.4912398980775848,1.4795008233359352,0.0
0.2864999771118164,0.4912398980775848,1.480041899410872,0.0
0.2869999408721924,0.4912398980775848,1.480582621080806,0.0
0.28749990463256836,0.4912398980775848,1.481122990332464,0.0
0.28800010681152344,0.4912398980775848,1.4816630091681218,0.0
0.2885000705718994,0.4912398980775848,1.4822026796056738,0.0
0.2890000343322754,0.4912398980775848,1.4827420036787045,0.0
0.28949999809265137,0.4912398980775848,1.483280983436558,0.0
0.28999996185302734,0.4912398980775848,1.483819620944407,0.0
0.2904999256134033,0.4912398980775848,1.4843579182833222,0.0
0.2909998893737793,0.4912398980775848,1.4848958775503398,0.0
0.2915000915527344,0.4912398980775848,1.48543350085853,0.0
0.29200005531311035,0.4912398980775848,1.4859707903370631,0.0
0.29250001907348633,0.4912398980775848,1.4865077481312767,0.0
0.2929999828338623,0.4912398980775848,1.487044376402741,0.0
0.2934999465942383,0.4912398980775848,1.4875806773293239,0.0
0.29399991035461426,0.4912398980775848,1.4881166531052554,0.0
0.29450011253356934,0.4912398980775848,1.4886523059411914,0.0
0.2950000762939453,0.4912398980775848,1.4891876380642763,0.0
0.2955000400543213,0.4912398980775848,1.4897226517182056,0.0
0.29600000381469727,0.4912398980775848,1.4902573491632864,0.0
0.29649996757507324,0.4912398980775848,1.4907917326764986,0.0
0.2969999313354492,0.4912398980775848,1.4913258045515536,0.0
0.2974998950958252,0.4912398980775848,1.491859567098954,0.0
0.2980000972747803,0.4912398980775848,1.492393022646051,0.0
0.29850006103515625,0.4912398980775848,1.4929261735371002,0.0
0.2990000247955322,0.4912398980775848,1.4934590221333197,0.0
0.2994999885559082,0.4912398980775848,1.4939915708129428,0.0
0.2999999523162842,0.4912398980775848,1.4945238219712729,0.0
0.30049991607666016,0.4912398980775848,1.4950557780207363,0.0
0.30100011825561523,0.4912398980775848,1.4955874413909336,0.0
0.3015000820159912,0.4912398980775848,1.49611881452869,0.0
0.3020000457763672,0.4912398980775848,1.496649899898106,0.0
0.30250000953674316,0.4912398980775848,1.497180699980604,0.0
0.30299997329711914,0.4912398980775848,1.4977112172749771,0.0
0.3034999370574951,0.4912398980775848,1.4982414542974334,0.0
0.3039999008178711,0.4912398980775848,1.4987714135816415,0.0
0.30450010299682617,0.4912398980775848,1.4993010976787742,0.0
0.30500006675720215,0.4912398980775848,1.4998305091575495,0.0
0.3055000305175781,0.4912398980775848,1.5003596506042718,0.0
0.3059999942779541,0.4912398980775848,1.5008885246228716,0.0
0.3064999580383301,0.4912398980775848,1.5014171338349427,0.0
0.30699992179870605,0.4912398980775848,1.5019454808797792,0.0
0.30749988555908203,0.4912398980775848,1.50247356841441,0.0
0.3080000877380371,0.4912398980775848,1.5030013991136326,0.0
0.3085000514984131,0.4912398980775848,1.5035289756700454,0.0
0.30900001525878906,0.4912398980775848,1.5040563007940777,0.0
0.30949997901916504,0.4912398980775848,1.5045833772140185,0.0
0.309999942779541,0.4912398980775848,1.5051102076760439,0.0
0.310499906539917,0.4912398980775848,1.5056367949442426,0.0
0.31100010871887207,0.4912398980775848,1.50616314180064,0.0
0.31150007247924805,0.4912398980775848,1.5066892510452203,0.0
0.312000036239624,0.4912398980775848,1.5072151254959467,0.0
0.3125,0.4912398980775848,1.50774076798878,0.0
0.312999963760376,0.4912398980775848,1.508266181377696,0.0
0.31349992752075195,0.4912398980775848,1.5087913685347003,0.0
0.31399989128112793,0.4912398980775848,1.509316332349841,0.0
0.314500093460083,0.4912398980775848,1.5098410757312204,0.0
0.315000057220459,0.4912398980775848,1.510365601605004,0.0
0.31550002098083496,0.4912398980775848,1.5108899129154283,0.0
0.31599998474121094,0.4912398980775848,1.5114140126248057,0.0
0.3164999485015869,0.4912398980775848,1.5119379037135279,0.0
0.3169999122619629,0.4912398980775848,1.5124615891800672,0.0
0.31750011444091797,0.4912398980775848,1.5129850720409759,0.0
0.31800007820129395,0.4912398980775848,1.5135083553308828,0.0
0.3185000419616699,0.4912398980775848,1.5140314421024883,0.0
0.3190000057220459,0.4912398980775848,1.514554335426557,0.0
0.3194999694824219,0.4912398980775848,1.5150770383919085,0.0
0.31999993324279785,0.4912398980775848,1.5155995541054053,0.0
0.32049989700317383,0.4912398980775848,1.5161218856919385,0.0
0.3210000991821289,0.4912398980775848,1.516644036294412,0.0
0.3215000629425049,0.4912398980775848,1.517166009073723,0.0
0.32200002670288086,0.4912398980775848,1.5176878072087412,0.0
0.32249999046325684,0.4912398980775848,1.5182094338962857,0.0
0.3229999542236328,0.4912398980775848,1.518730892351098,0.0
0.3234999179840088,0.4912398980775848,1.5192521858058143,0.0
0.32399988174438477,0.4912398980775848,1.5197733175109343,0.0
0.32450008392333984,0.4912398980775848,1.5202942907347876,0.0
0.3250000476837158,0.4912398980775848,1.5208151087634976,0.0
0.3255000114440918,0.4912398980775848,1.5213357749009428,0.0
0.3259999752044678,0.4912398980775848,1.5218562924687158,0.0
0.32649993896484375,0.4912398980775848,1.5223766648060786,0.0
0.3269999027252197,0.4912398980775848,1.522896895269917,0.0
0.3275001049041748,0.4912398980775848,1.5234169872346897,0.0
0.3280000686645508,0.4912398980775848,1.5239369440923778,0.0
0.32850003242492676,0.4912398980775848,1.5244567692524287,0.0
0.32899999618530273,0.4912398980775848,1.524976466141699,0.0
0.3294999599456787,0.4912398980775848,1.5254960382043934,0.0
0.3299999237060547,0.4912398980775848,1.5260154889020021,0.0
0.33049988746643066,0.4912398980775848,1.5265348217132335,0.0
0.33100008964538574,0.4912398980775848,1.5270540401339456,0.0
0.3315000534057617,0.4912398980775848,1.5275731476770735,0.0
0.3320000171661377,0.4912398980775848,1.5280921478725549,0.0
0.33249998092651367,0.4912398980775848,1.5286110442672507,0.0
0.33299994468688965,0.4912398980775848,1.529129840424865,0.0
0.3334999084472656,0.4912398980775848,1.5296485399258604,0.0
0.3340001106262207,0.4912398980775848,1.5301671463673707,0.0
0.3345000743865967,0.4912398980775848,1.5306856633631105,0.0
0.33500003814697266,0.4912398980775848,1.5312040945432814,0.0
0.33550000190734863,0.4912398980775848,1.531722443554476,0.0
0.3359999656677246,0.4912398980775848,1.5322407140595775,0.0
0.3364999294281006,0.4912398980775848,1.5327589097376568,0.0
0.33699989318847656,0.4912398980775848,1.5332770342838662,0.0
0.33750009536743164,0.4912398980775848,1.5337950914093297,0.0
0.3380000591278076,0.4912398980775848,1.5343130848410307,0.0
0.3385000228881836,0.4912398980775848,1.534831018321696,0.0
0.33899998664855957,0.4912398980775848,1.5353488956096757,0.0
0.33949995040893555,0.4912398980775848,1.5358667204788212,0.0
0.3399999141693115,0.4912398980775848,1.536384496718359,0.0
0.3405001163482666,0.4912398980775848,1.5369022281327618,0.0
0.3410000801086426,0.4912398980775848,1.5374199185416146,0.0
0.34150004386901855,0.4912398980775848,1.53793757177948,0.0
0.34200000762939453,0.4912398980775848,1.5384551916957578,0.0
0.3424999713897705,0.4912398980775848,1.5389727821545425,0.0
0.3429999351501465,0.4912398980775848,1.5394903470344767,0.0
0.34349989891052246,0.4912398980775848,1.5400078902286014,0.0
0.34400010108947754,0.4912398980775848,1.5405254156442025,0.0
0.3445000648498535,0.4912398980775848,1.5410429272026547,0.0
0.3450000286102295,0.4912398980775848,1.5415604288392606,0.0
0.34549999237060547,0.4912398980775848,1.5420779245030871,0.0
0.34599995613098145,0.4912398980775848,1.542595418156799,0.0
0.3464999198913574,0.4912398980775848,1.5431129137764867,0.0
0.3469998836517334,0.4912398980775848,1.5436304153514941,0.0
0.3475000858306885,0.4912398980775848,1.5441479268842386,0.0
0.34800004959106445,0.4912398980775848,1.5446654523900316,0.0
0.34850001335144043,0.4912398980775848,1.5451829958968928,0.0
0.3489999771118164,0.4912398980775848,1.5457005614453618,0.0
0.3494999408721924,0.4912398980775848,1.5462181530883068,0.0
0.34999990463256836,0.4912398980775848,1.5467357748907287,0.0
0.35050010681152344,0.4912398980775848,1.5472534309295622,0.0
0.3510000705718994,0.4912398980775848,1.5477711252934738,0.0
0.3515000343322754,0.4912398980775848,1.5482888620826547,0.0
0.35199999809265137,0.4912398980775848,1.548806645408612,0.0
0.35249996185302734,0.4912398980775848,1.5493244793939556,0.0
0.3529999256134033,0.4912398980775848,1.5498423681721811,0.0
0.3534998893737793,0.4912398980775848,1.5503603158874502,0.0
0.3540000915527344,0.4912398980775848,1.5508783266943662,0.0
0.35450005531311035,0.4912398980775848,1.5513964047577478,0.0
0.35500001907348633,0.4912398980775848,1.5519145542523975,0.0
0.3554999828338623,0.4912398980775848,1.552432779362868,0.0
0.3559999465942383,0.4912398980775848,1.5529510842832241,0.0
0.35649991035461426,0.4912398980775848,1.553469473216802,0.0
0.35700011253356934,0.4912398980775848,1.5539879503759642,0.0
0.3575000762939453,0.4912398980775848,1.554506519981852,0.0
0.3580000400543213,0.4912398980775848,1.5550251862641336,0.0
0.35850000381469727,0.4912398980775848,1.5555439534607494,0.0
0.35899996757507324,0.4912398980775848,1.5560628258176536,0.0
0.3594999313354492,0.4912398980775848,1.5565818075885534,0.0
0.3599998950958252,0.4912398980775848,1.5571009030346425,0.0
0.3605000972747803,0.4912398980775848,1.5576201164243342,0.0
0.36100006103515625,0.4912398980775848,1.5581394520329892,0.0
0.3615000247955322,0.4912398980775848,1.5586589141426408,0.0
0.3619999885559082,0.4912398980775848,1.5591785070417168,0.0
0.3624999523162842,0.4912398980775848,1.5596982350247581,0.0
0.36299991607666016,0.4912398980775848,1.5602181023921342,0.0
0.36350011825561523,0.4912398980775848,1.5607381134497555,0.0
0.3640000820159912,0.4912398980775848,1.5612582725087827,0.0
0.3645000457763672,0.4912398980775848,1.561778583885332,0.0
0.36500000953674316,0.4912398980775848,1.5622990519001794,0.0
0.36549997329711914,0.4912398980775848,1.5628196808784591,0.0
0.3659999370574951,0.4912398980775848,1.563340475149362,0.0
0.3664999008178711,0.4912398980775848,1.5638614390458287,0.0
0.36700010299682617,0.4912398980775848,1.5643825769042408,0.0
0.36750006675720215,0.4912398980775848,1.5649038930641086,0.0
0.3680000305175781,0.4912398980775848,1.5654253918677574,0.0
0.3684999942779541,0.4912398980775848,1.5659470776600095,0.0
0.3689999580383301,0.4912398980775848,1.5664689547878639,0.0
0.36949992179870605,0.4912398980775848,1.5669910276001733,0.0
0.36999988555908203,0.4912398980775848,1.5675133004473185,0.0
0.3705000877380371,0.4912398980775848,1.5680357776808809,0.0
0.3710000514984131,0.4912398980775848,1.56855846365331,0.0
0.37150001525878906,0.4912398980775848,1.5690813627175924,0.0
0.37199997901916504,0.4912398980775848,1.5696044792269135,0.0
0.372499942779541,0.4912398980775848,1.5701278175343214,0.0
0.372999906539917,0.4912398980775848,1.570651381992385,0.0
0.37350010871887207,0.4912398980775848,1.5711751769528517,0.0
0.37400007247924805,0.4912398980775848,1.5716992067663018,0.0
0.374500036239624,0.4912398980775848,1.5722234757818019,0.0
0.375,0.4912398980775848,1.5727479883465543,0.0
0.375499963760376,0.4912398980775848,1.5732727488055462,0.0
0.37599992752075195,0.4912398980775848,1.5737977615011962,0.0
0.37649989128112793,0.4912398980775848,1.5743230307729983,0.0
0.377000093460083,0.4912398980775848,1.5748485609571645,0.0
0.377500057220459,0.4912398980775848,1.5753743563862657,0.0
0.37800002098083496,0.4912398980775848,1.5759004213888705,0.0
0.37849998474121094,0.4912398980775848,1.5764267602891828,0.0
0.3789999485015869,0.4912398980775848,1.5769533774066764,0.0
0.3794999122619629,0.4912398980775848,1.5774802770557301,0.0
0.38000011444091797,0.4912398980775848,1.5780074635452601,0.0
0.38050007820129395,0.4912398980775848,1.57853494117835,0.0
0.3810000419616699,0.4912398980775848,1.579062714251882,0.0
0.3815000057220459,0.4912398980775848,1.5795907870561645,0.0
0.3819999694824219,0.4912398980775848,1.580119163874559,0.0
0.38249993324279785,0.4912398980775848,1.5806478489831075,0.0
0.38299989700317383,0.4912398980775848,1.5811768466501557,0.0
0.3835000991821289,0.4912398980775848,1.5817061611359784,0.0
0.3840000629425049,0.4912398980775848,1.5822357966924023,0.0
0.38450002670288086,0.4912398980775848,1.5827657575624277,0.0
0.38499999046325684,0.4912398980775848,1.5832960479798504,0.0
0.3854999542236328,0.4912398980775848,1.5838266721688825,0.0
0.3859999179840088,0.4912398980775848,1.5843576343437724,0.0
0.38649988174438477,0.4912398980775848,1.5848889387084246,0.0
0.38700008392333984,0.4912398980775848,1.5854205894560185,0.0
0.3875000476837158,0.4912398980775848,1.5859525907686278,0.0
0.3880000114440918,0.4912398980775848,1.5864849468168385,0.0
0.3884999752044678,0.4912398980775848,1.5870176617593676,0.0
0.38899993896484375,0.4912398980775848,1.587550739742681,0.0
0.3894999027252197,0.4912398980775848,1.5880841849006115,0.0
0.3900001049041748,0.4912398980775848,1.5886180013539777,0.0
0.3905000686645508,0.4912398980775848,1.589152193210201,0.0
0.39100003242492676,0.4912398980775848,1.5896867645629258,0.0
0.39149999618530273,0.4912398980775848,1.5902217194916366,0.0
0.3919999599456787,0.4912398980775848,1.590757062061278,0.0
0.3924999237060547,0.4912398980775848,1.5912927963218748,0.0
0.39299988746643066,0.4912398980775848,1.5918289263081506,0.0
0.39350008964538574,0.4912398980775848,1.5923654560391503,0.0
0.3940000534057617,0.4912398980775848,1.5929023895178602,0.0
0.3945000171661377,0.4912398980775848,1.5934397307308314,0.0
0.39499998092651367,0.4912398980775848,1.593977483647802,0.0
0.39549994468688965,0.4912398980775848,1.5945156522213215,0.0
0.3959999084472656,0.4912398980775848,1.5950542403863763,0.0
0.3965001106262207,0.4912398980775848,1.595593252060016,0.0
0.3970000743865967,0.4912398980775848,1.59613269114098,0.0
0.39750003814697266,0.4912398980775848,1.596672561509328,0.0
0.39800000190734863,0.4912398980775848,1.5972128670260684,0.0
0.3984999656677246,0.4912398980775848,1.5977536115327908,0.0
0.3989999294281006,0.4912398980775848,1.5982947988513,0.0
0.39949989318847656,0.4912398980775848,1.5988364327832496,0.0
0.40000009536743164,0.4912398980775848,1.5993785171097792,0.0
0.4005000591278076,0.4912398980775848,1.5999210555911527,0.0
0.4010000228881836,0.4912398980775848,1.600464051966399,0.0
0.40149998664855957,0.4912398980775848,1.601007509952954,0.0
0.40199995040893555,0.4912398980775848,1.6015514332463046,0.0
0.4024999141693115,0.4912398980775848,1.602095825519636,0.0
0.4030001163482666,0.4912398980775848,1.6026406904234798,0.0
0.4035000801086426,0.4912398980775848,1.6031860315853652,0.0
0.40400004386901855,0.4912398980775848,1.6037318526094724,0.0
0.40450000762939453,0.4912398980775848,1.6042781570762885,0.0
0.4049999713897705,0.4912398980775848,1.6048249485422659,0.0
0.4054999351501465,0.4912398980775848,1.6053722305394833,0.0
0.40599989891052246,0.4912398980775848,1.6059200065753094,0.0
0.40650010108947754,0.4912398980775848,1.6064682801320695,0.0
0.4070000648498535,0.4912398980775848,1.607017054666715,0.0
0.4075000286102295,0.4912398980775848,1.6075663336104955,0.0
0.40799999237060547,0.4912398980775848,1.6081161203686338,0.0
0.40849995613098145,0.4912398980775848,1.608666418320005,0.0
0.4089999198913574,0.4912398980775848,1.6092172308168171,0.0
0.4094998836517334,0.4912398980775848,1.6097685611842965,0.0
0.4100000858306885,0.4912398980775848,1.6103204127203754,0.0
0.41050004959106445,0.4912398980775848,1.6108727886953842,0.0
0.41100001335144043,0.4912398980775848,1.611425692351745,0.0
0.4114999771118164,0.4912398980775848,1.6119791269036707,0.0
0.4119999408721924,0.4912398980775848,1.612533095536867,0.0
0.41249990463256836,0.4912398980775848,1.6130876014082374,0.0
0.41300010681152344,0.4912398980775848,1.6136426476455923,0.0
0.4135000705718994,0.4912398980775848,1.614198237347363,0.0
0.4140000343322754,0.4912398980775848,1.6147543735823169,0.0
0.41449999809265137,0.4912398980775848,1.6153110593892797,0.0
0.41499996185302734,0.4912398980775848,1.615868297776859,0.0
0.4154999256134033,0.4912398980775848,1.6164260917231736,0.0
0.4159998893737793,0.4912398980775848,1.6169844441755852,0.0
0.4165000915527344,0.4912398980775848,1.6175433580504361,0.0
0.41700005531311035,0.4912398980775848,1.6181028362327898,0.0
0.41750001907348633,0.4912398980775848,1.6186628815761759,0.0
0.4179999828338623,0.4912398980775848,1.6192234969023398,0.0
0.4184999465942383,0.4912398980775848,1.6197846850009967,0.0
0.41899991035461426,0.4912398980775848,1.620346448629589,0.0
0.41950011253356934,0.4912398980775848,1.6209087905130497,0.0
0.4200000762939453,0.4912398980775848,1.6214717133435685,0.0
0.4205000400543213,0.4912398980775848,1.6220352197803642,0.0
0.42100000381469727,0.4912398980775848,1.6225993124494604,0.0
0.42149996757507324,0.4912398980775848,1.6231639939434659,0.0
0.4219999313354492,0.4912398980775848,1.62372926682136,0.0
0.4224998950958252,0.4912398980775848,1.6242951336082836,0.0
0.4230000972747803,0.4912398980775848,1.624861596795332,0.0
0.42350006103515625,0.4912398980775848,1.6254286588393558,0.0
0.4240000247955322,0.4912398980775848,1.625996322162765,0.0
0.4244999885559082,0.4912398980775848,1.6265645891533371,0.0
0.4249999523162842,0.4912398980775848,1.6271334621640323,0.0
0.42549991607666016,0.4912398980775848,1.6277029435128112,0.0
0.42600011825561523,0.4912398980775848,1.6282730354824586,0.0
0.4265000820159912,0.4912398980775848,1.628843740320413,0.0
0.4270000457763672,0.4912398980775848,1.629415060238599,0.0
0.42750000953674316,0.4912398980775848,1.6299869974132668,0.0
0.42799997329711914,0.4912398980775848,1.6305595539848348,0.0
0.4284999370574951,0.4912398980775848,1.6311327320577393,0.0
0.4289999008178711,0.4912398980775848,1.6317065337002874,0.0
0.42950010299682617,0.4912398980775848,1.6322809609445155,0.0
0.43000006675720215,0.4912398980775848,1.6328560157860534,0.0
0.4305000305175781,0.4912398980775848,1.6334317001839935,0.0
0.4309999942779541,0.4912398980775848,1.6340080160607642,0.0
0.4314999580383301,0.4912398980775848,1.6345849653020088,0.0
0.43199992179870605,0.4912398980775848,1.6351625497564706,0.0
0.43249988555908203,0.4912398980775848,1.6357407712358811,0.0
0.4330000877380371,0.4912398980775848,1.6363196315148554,0.0
0.4335000514984131,0.4912398980775848,1.636899132330791,0.0
0.43400001525878906,0.4912398980775848,1.6374792753837737,0.0
0.43449997901916504,0.4912398980775848,1.638060062336486,0.0
0.434999942779541,0.4912398980775848,1.6386414948141235,0.0
0.435499906539917,0.4912398980775848,1.6392235744043142,0.0
0.43600010871887207,0.4912398980775848,1.6398063026570444,0.0
0.43650007247924805,0.4912398980775848,1.6403896810845888,0.0
0.437000036239624,0.4912398980775848,1.6409737111614466,0.0
0.4375,0.4912398980775848,1.6415583943242817,0.0
0.437999963760376,0.4912398980775848,1.6421437319718692,0.0
0.43849992752075195,0.4912398980775848,1.642729725465046,0.0
0.43899989128112793,0.4912398980775848,1.6433163761266665,0.0
0.439500093460083,0.4912398980775848,1.6439036852415652,0.0
0.440000057220459,0.4912398980775848,1.6444916540565213,0.0
0.44050002098083496,0.4912398980775848,1.6450802837802314,0.0
0.44099998474121094,0.4912398980775848,1.645669575583285,0.0
0.4414999485015869,0.4912398980775848,1.6462595305981462,0.0
0.4419999122619629,0.4912398980775848,1.64685014991914,0.0
0.44250011444091797,0.4912398980775848,1.6474414346024437,0.0
0.44300007820129395,0.4912398980775848,1.648033385666084,0.0
0.4435000419616699,0.4912398980775848,1.6486260040899372,0.0
0.4440000057220459,0.4912398980775848,1.6492192908157357,0.0
0.4444999694824219,0.4912398980775848,1.6498132467470799,0.0
0.44499993324279785,0.4912398980775848,1.6504078727494533,0.0
0.44549989700317383,0.4912398980775848,1.6510031696502439,0.0
0.4460000991821289,0.4912398980775848,1.651599138238769,0.0
0.4465000629425049,0.4912398980775848,1.652195779266307,0.0
0.44700002670288086,0.4912398980775848,1.6527930934461312,0.0
0.44749999046325684,0.4912398980775848,1.6533910814535508,0.0
0.4479999542236328,0.4912398980775848,1.6539897439259545,0.0
0.4484999179840088,0.4912398980775848,1.6545890814628605,0.0
0.44899988174438477,0.4912398980775848,1.6551890946259697,0.0
0.44950008392333984,0.4912398980775848,1.6557897839392248,0.0
0.4500000476837158,0.4912398980775848,1.6563911498888726,0.0
0.4505000114440918,0.4912398980775848,1.6569931929235318,0.0
0.4509999752044678,0.4912398980775848,1.6575959134542648,0.0
0.45149993896484375,0.4912398980775848,1.6581993118546545,0.0
0.4519999027252197,0.4912398980775848,1.6588033884608844,0.0
0.4525001049041748,0.4912398980775848,1.6594081435718238,0.0
0.4530000686645508,0.4912398980775848,1.6600135774491174,0.0
0.45350003242492676,0.4912398980775848,1.660619690317279,0.0
0.45399999618530273,0.4912398980775848,1.661226482363789,0.0
0.4544999599456787,0.4912398980775848,1.6618339537391968,0.0
0.4549999237060547,0.4912398980775848,1.6624421045572266,0.0
0.45549988746643066,0.4912398980775848,1.6630509348948876,0.0
0.45600008964538574,0.4912398980775848,1.6636604447925887,0.0
0.4565000534057617,0.4912398980775848,1.6642706342542561,0.0
0.4570000171661377,0.4912398980775848,1.664881503247456,0.0
0.45749998092651367,0.4912398980775848,1.66549305170352,0.0
0.45799994468688965,0.4912398980775848,1.6661052795176756,0.0
0.4584999084472656,0.4912398980775848,1.6667181865491796,0.0
0.4590001106262207,0.4912398980775848,1.6673317726214554,0.0
0.4595000743865967,0.4912398980775848,1.6679460375222341,0.0
0.46000003814697266,0.4912398980775848,1.6685609810036994,0.0
0.46050000190734863,0.4912398980775848,1.6691766027826358,0.0
0.4609999656677246,0.4912398980775848,1.66979290254058,0.0
0.4614999294281006,0.4912398980775848,1.6704098799239768,0.0
0.46199989318847656,0.4912398980775848,1.6710275345443375,0.0
0.46250009536743164,0.4912398980775848,1.6716458659784021,0.0
0.4630000591278076,0.4912398980775848,1.6722648737683043,0.0
0.4635000228881836,0.4912398980775848,1.6728845574217406,0.0
0.46399998664855957,0.4912398980775848,1.673504916412142,0.0
0.46449995040893555,0.4912398980775848,1.674125950178849,0.0
0.4649999141693115,0.4912398980775848,1.6747476581272898,0.0
0.4655001163482666,0.4912398980775848,1.675370039629161,0.0
0.4660000801086426,0.4912398980775848,1.6759930940226124,0.0
0.46650004386901855,0.4912398980775848,1.6766168206124334,0.0
0.46700000762939453,0.4912398980775848,1.6772412186702435,0.0
0.4674999713897705,0.4912398980775848,1.6778662874346844,0.0
0.4679999351501465,0.4912398980775848,1.678492026111616,0.0
0.46849989891052246,0.4912398980775848,1.6791184338743148,0.0
0.46900010108947754,0.4912398980775848,1.6797455098636738,0.0
0.4695000648498535,0.4912398980775848,1.680373253188407,0.0
0.4700000286102295,0.4912398980775848,1.6810016629252549,0.0
0.47049999237060547,0.4912398980775848,1.6816307381191926,0.0
0.47099995613098145,0.4912398980775848,1.6822604777836416,0.0
0.4714999198913574,0.4912398980775848,1.6828908809006824,0.0
0.4719998836517334,0.4912398980775848,1.6835219464212698,0.0
0.4725000858306885,0.4912398980775848,1.6841536732654514,0.0
0.47300004959106445,0.4912398980775848,1.6847860603240248,2.2733952640344477e-09
0.47350001335144043,0.4912398980775848,1.6854191064622797,1.4641963917663883e-08
0.4739999771118164,0.4912398980775848,1.6860528105229813,4.924074977845481e-08
0.4744999408721924,0.4912398980775848,1.6866871713273395,1.1931326400167846e-07
0.47499990463256836,0.4912398980775848,1.687322187675365,2.382373248498303e-07
0.47550010681152344,0.4912398980775848,1.6879578583462218,4.195138964536697e-07
0.4760000705718994,0.4912398980775848,1.6885941820985748,6.76758202005556e-07
0.4765000343322754,0.4912398980775848,1.6892311576709356,1.0236929375082803e-06
0.47699999809265137,0.4912398980775848,1.6898687837820066,1.4741427160934059e-06
0.47749996185302734,0.4912398980775848,1.6905070591310245,2.0420301407193484e-06
0.4779999256134033,0.4912398980775848,1.6911459823981052,2.7413755944884177e-06
0.4784998893737793,0.4912398980775848,1.6917855522445928,3.586301806434534e-06
0.4790000915527344,0.4912398980775848,1.6924257673134153,4.591040519951255e-06
0.47950005531311035,0.4912398980775848,1.6930666262294436,5.7699363311630955e-06
0.48000001907348633,0.4912398980775848,1.6937081275998507,7.137445031986632e-06
0.4804999828338623,0.4912398980775848,1.6943502700144701,8.708128793211663e-06
0.4809999465942383,0.4912398980775848,1.6949930520461538,1.0496654133445741e-05
0.48149991035461426,0.4912398980775848,1.6956364722511352,1.2517798778082441e-05
0.48200011253356934,0.4912398980775848,1.6962805291694067,1.4786471684970927e-05
0.4825000762939453,0.4912398980775848,1.6969252213251225,1.7317749195403206e-05
0.4830000400543213,0.4912398980775848,1.6975705472270355,2.0126929261474146e-05
0.48350000381469727,0.4912398980775848,1.6982165053689846,2.3229602791753118e-05
0.48399996757507324,0.4912398980775848,1.6988630942304348,2.6641736721636487e-05
0.4844999313354492,0.4912398980775848,1.6995103122770765,3.0379760905200774e-05
0.4849998950958252,0.4912398980775848,1.700158157961481,3.4460652174772396e-05
0.4855000972747803,0.4912398980775848,1.7008066297238094,3.8902011992214e-05
0.48600006103515625,0.4912398980775848,1.7014557259925673,4.3722135941669237e-05
0.4865000247955322,0.4912398980775848,1.7021054451854032,4.894007294587667e-05
0.4869999885559082,0.4912398980775848,1.7027557857099378,5.457567146639769e-05
0.4874999523162842,0.4912398980775848,1.7034067459646172,6.064961096575602e-05
0.48799991607666016,0.4912398980775848,1.7040583243395806,6.718341879324617e-05
0.48850011825561523,0.4912398980775848,1.7047105192175325,7.419947393436044e-05
0.4890000820159912,0.4912398980775848,1.7053633289746135,8.172099988189601e-05
0.4895000457763672,0.4912398980775848,1.7060167519812641,8.977204955266257e-05
0.49000000953674316,0.4912398980775848,1.7066707866030773,9.837748517856545e-05
0.49049997329711914,0.4912398980775848,1.7073254312016395,0.00010756295562444573
0.4909999370574951,0.4912398980775848,1.7079806841353578,0.00011735487335365695
0.4914999008178711,0.4912398980775848,1.7086365437602755,0.0001277803930906805
0.49200010299682617,0.4912398980775848,1.709293008430878,0.00013886739352962044
0.49250006675720215,0.4912398980775848,1.7099500765008897,0.00015064446211875848
0.4930000305175781,0.4912398980775848,1.7106077463240639,0.00016314088154367414
0.4934999942779541,0.4912398980775848,1.7112660162549647,0.00017638661613762473
0.4939999580383301,0.4912398980775848,1.7119248846497415,0.00019041229725968986
0.49449992179870605,0.4912398980775848,1.7125843498668933,0.00020524920708680608
0.49499988555908203,0.4912398980775848,1.7132444102680209,0.00022092925933429446
0.4955000877380371,0.4912398980775848,1.7139050642185645,0.0002374849746001359
0.4960000514984131,0.4912398980775848,1.7145663100885205,0.0002549494488951801
0.49650001525878906,0.4912398980775848,1.7152281462531347,0.00027335631633251654
0.49699997901916504,0.4912398980775848,1.7158905710935692,0.0002927397096840001
0.497499942779541,0.4912398980775848,1.7165535829975451,0.00031313422364694695
0.497999906539917,0.4912398980775848,1.717217180359964,0.00033457488390847845
0.49850010871887207,0.4912398980775848,1.7178813615835138,0.00035709712200602303
0.49900007247924805,0.4912398980775848,1.7185461250792589,0.000380736754165254
0.499500036239624,0.4912398980775848,1.719211469267217,0.0004055299621643594
0.5,0.4912398980775848,1.7198773925769237,0.0004315132749235818
0.500499963760376,0.4912398980775848,1.7205438934479835,0.0004587235504345395
0.500999927520752,0.4912398980775848,1.7212109703306082,0.0004871979583829386
0.5014998912811279,0.4912398980775848,1.7218786216861435,0.0005169739639984322
0.502000093460083,0.4912398980775848,1.722546845987585,0.0005480893132237389
0.502500057220459,0.4912398980775848,1.7232156417200823,0.0005805820184637182
0.503000020980835,0.4912398980775848,1.7238850073814325,0.0006144903437381416
0.5034999847412109,0.4912398980775848,1.7245549414825612,0.0006498527888205744
0.5039999485015869,0.4912398980775848,1.7252254425479912,0.0006867080733613568
0.5044999122619629,0.4912398980775848,1.7258965091162997,0.0007250951223468682
0.505000114440918,0.4912398980775848,1.726568139740565,0.0007650530529130324
0.505500078201294,0.4912398980775848,1.7272403329888018,0.0008066211609380226
0.5060000419616699,0.4912398980775848,1.7279130874443838,0.0008498389052792136
0.5065000057220459,0.4912398980775848,1.7285864017064516,0.0008947458876672664
0.5069999694824219,0.4912398980775848,1.7292602743902994,0.0009413818263114741
0.5074999332427979,0.4912398980775848,1.7299347041277358,0.000989786520848704
0.5079998970031738,0.4912398980775848,1.7306096895674117,0.001039999805827932
0.5085000991821289,0.4912398980775848,1.731285229375104,0.0010920614906644326
0.5090000629425049,0.4912398980775848,1.7319613222339474,0.0011460112862664896
0.5095000267028809,0.4912398980775848,1.7326379668446052,0.0012018887208450548
0.5099999904632568,0.4912398980775848,1.733315161925376,0.0012597330481089954
0.5104999542236328,0.4912398980775848,1.7339929062122292,0.0013195831502243532
0.5109999179840088,0.4912398980775848,1.7346711984587704,0.001381477437505331
0.5114998817443848,0.4912398980775848,1.7353500374361328,0.0014454537484163371
0.5120000839233398,0.4912398980775848,1.7360294219328012,0.0015115492558118006
0.5125000476837158,0.4912398980775848,1.7367093507543765,0.001579800385639933
0.5130000114440918,0.4912398980775848,1.7373898227232893,0.0016502427522821336
0.5134999752044678,0.4912398980775848,1.7380708366784787,0.0017229111121855312
0.5139999389648438,0.4912398980775848,1.7387523914750445,0.0017978393353700745
0.5144999027252197,0.4912398980775848,1.7394344859838862,0.0018750603926264839
0.5150001049041748,0.4912398980775848,1.7401171190913358,0.001954606354732963
0.5155000686645508,0.4912398980775848,1.7408002896987893,0.002036508398718595
0.5160000324249268,0.4912398980775848,1.7414839967223372,0.0021207968155693285
0.5164999961853027,0.4912398980775848,1.742168239092394,0.0022075010145311863
0.5169999599456787,0.4912398980775848,1.7428530157533206,0.002296649521117218
0.5174999237060547,0.4912398980775848,1.7435383256630346,0.0023882699686362877
0.5179998874664307,0.4912398980775848,1.7442241677926076,0.0024823890856538137
0.5185000896453857,0.4912398980775848,1.7449105411258483,0.0025790326822408335
0.5190000534057617,0.4912398980775848,1.7455974446588693,0.0026782256357305583
0.5195000171661377,0.4912398980775848,1.746284877399639,0.0027799918747388047
0.5199999809265137,0.4912398980775848,1.7469728383675136,0.0028843543605755924
0.5204999446868896,0.4912398980775848,1.7476613265927528,0.0029913350668112374
0.5209999084472656,0.4912398980775848,1.7483503411160133,0.0031009549590590834
0.5215001106262207,0.4912398980775848,1.7490398809878267,0.003213233977550064
0.5220000743865967,0.4912398980775848,1.7497299452680628,0.003328191024346781
0.5225000381469727,0.4912398980775848,1.7504205330253835,0.0034458439558979837
0.5230000019073486,0.4912398980775848,1.7511116433366887,0.0035662095821334472
0.5234999656677246,0.4912398980775848,1.751803275286565,0.003689303674130135
0.5239999294281006,0.4912398980775848,1.7524954279667386,0.003815140980260531
0.5244998931884766,0.4912398980775848,1.7531881004755383,0.003943735247223179
0.5250000953674316,0.4912398980775848,1.7538812919173685,0.004075099241404352
0.5255000591278076,0.4912398980775848,1.7545750014021904,0.004209244767506578
0.5260000228881836,0.4912398980775848,1.755269228045008,0.004346182683064036
0.5264999866485596,0.4912398980775848,1.7559639709653576,0.004485922908480849
0.5269999504089355,0.4912398980775848,1.7566592292867953,0.004628474432689137
0.5274999141693115,0.4912398980775848,1.7573550021363826,0.004773845314819098
0.5280001163482666,0.4912398980775848,1.7580512886441657,0.0049220426822768676
0.5285000801086426,0.4912398980775848,1.7587480879426467,0.0050730727251157605
0.5290000438690186,0.4912398980775848,1.7594453991662438,0.0052269406868408605
0.5295000076293945,0.4912398980775848,1.7601432214507409,0.005383650854158219
0.5299999713897705,0.4912398980775848,1.7608415539327287,0.005543206550682918
0.5304999351501465,0.4912398980775848,1.7615403957490414,0.005705610138215
0.5309998989105225,0.4912398980775848,1.762239746036196,0.005870863024412846
0.5315001010894775,0.4912398980775848,1.7629396039298344,0.006038965673118252
0.5320000648498535,0.4912398980775848,1.7636399685641684,0.006209917615138857
0.5325000286102295,0.4912398980775848,1.7643408390714297,0.006383717459166236
0.5329999923706055,0.4912398980775848,1.765042214581323,0.006560362902685111
0.5334999561309814,0.4912398980775848,1.7657440942204832,0.006739850743053222
0.5339999198913574,0.4912398980775848,1.766446477111938,0.006922176890301521
0.5344998836517334,0.4912398980775848,1.7671493623745795,0.007107336384325312
0.5350000858306885,0.4912398980775848,1.7678527491226492,0.0072953234191145125
0.5355000495910645,0.4912398980775848,1.7685566364652416,0.007486131375561041
0.5360000133514404,0.4912398980775848,1.7692610235058348,0.007679752862203449
0.5364999771118164,0.4912398980775848,1.7699659093418487,0.007876179760734634
0.5369999408721924,0.4912398980775848,1.7706712930642337,0.008075403272195058
0.5374999046325684,0.4912398980775848,1.7713771737570863,0.008277413961394767
0.5380001068115234,0.4912398980775848,1.7720835504972932,0.008482201799258187
0.5385000705718994,0.4912398980775848,1.772790422354201,0.008689756203066182
0.5390000343322754,0.4912398980775848,1.7734977883893086,0.008900066073092586
0.5394999980926514,0.4912398980775848,1.7742056476559787,0.009113119823078445
0.5399999618530273,0.4912398980775848,1.7749139991991645,0.009328905403401627
0.5404999256134033,0.4912398980775848,1.7756228420551463,0.009547410319116111
0.5409998893737793,0.4912398980775848,1.7763321752512782,0.009768621646941346
0.5415000915527344,0.4912398980775848,1.777041997805746,0.009992526053739731
0.5420000553131104,0.4912398980775848,1.777752308727336,0.010219109815840075
0.5425000190734863,0.4912398980775848,1.7784631070152164,0.010448358836965233
0.5429999828338623,0.4912398980775848,1.7791743916587266,0.010680258663461503
0.5434999465942383,0.4912398980775848,1.7798861616371737,0.010914794497056988
0.5439999103546143,0.4912398980775848,1.780598415919635,0.011151951205713127
0.5445001125335693,0.4912398980775848,1.7813111534647665,0.011391713332767135
0.5450000762939453,0.4912398980775848,1.7820243732206138,0.011634065104543592
0.5455000400543213,0.4912398980775848,1.7827380741244272,0.011878990436903701
0.5460000038146973,0.4912398980775848,1.7834522551024792,0.01212647294132846
0.5464999675750732,0.4912398980775848,1.7841669150698851,0.012376495930991363
0.5469999313354492,0.4912398980775848,1.7848820529304261,0.012629042426873873
0.5474998950958252,0.4912398980775848,1.7855976675763754,0.01288409516336719
0.5480000972747803,0.4912398980775848,1.7863137578883261,0.013141636592634304
0.5485000610351562,0.4912398980775848,1.7870303227350202,0.013401648887829952
0.5490000247955322,0.4912398980775848,1.7877473609731773,0.013664113946287656
0.5494999885559082,0.4912398980775848,1.7884648714473281,0.013929013393984899
0.5499999523162842,0.4912398980775848,1.789182852989648,0.01419632859245433
0.5504999160766602,0.4912398980775848,1.7899013044198002,0.014466040649325298
0.5510001182556152,0.4912398980775848,1.7906202245447853,0.01473813043302482
0.5515000820159912,0.4912398980775848,1.791339612158805,0.015012578590630706
0.5520000457763672,0.4912398980775848,1.7920594660431362,0.015289365566745573
0.5525000095367432,0.4912398980775848,1.7927797849660172,0.015568471621178566
0.5529999732971191,0.4912398980775848,1.7935005676825446,0.015849876843856754
0.5534999370574951,0.4912398980775848,1.7942218129345757,0.016133561166569152
0.5539999008178711,0.4912398980775848,1.7949435194506378,0.016419504372164342
0.5545001029968262,0.4912398980775848,1.7956656859458415,0.01670768610178235
0.5550000667572021,0.4912398980775848,1.796388311121797,0.01699808586020038
0.5555000305175781,0.4912398980775848,1.7971113936665322,0.01729068301959932
0.5559999942779541,0.4912398980775848,1.7978349322544116,0.017585456822700515
0.5564999580383301,0.4912398980775848,1.798558925546058,0.017882386386185035
0.556999921798706,0.4912398980775848,1.7992833721882748,0.018181450704650316
0.557499885559082,0.4912398980775848,1.8000082708139729,0.01848262865488488
0.5580000877380371,0.4912398980775848,1.8007336200420963,0.018785899000165567
0.5585000514984131,0.4912398980775848,1.8014594184775536,0.019091240394330144
0.5590000152587891,0.4912398980775848,1.802185664711149,0.01939863138528091
0.559499979019165,0.4912398980775848,1.802912357319514,0.019708050417194055
0.559999942779541,0.4912398980775848,1.8036394948650407,0.020019475830143883
0.560499906539917,0.4912398980775848,1.8043670758958075,0.02033288585553562
0.5610001087188721,0.4912398980775848,1.8050950989454997,0.020648258606529274
0.561500072479248,0.4912398980775848,1.8058235625333194,0.02096557206451762
0.562000036239624,0.4912398980775848,1.8065524651638836,0.02128480406366394
0.5625,0.4912398980775848,1.8072818053271087,0.021605932274422625
0.562999963760376,0.4912398980775848,1.8080115814980837,0.021928934185948934
0.563499927520752,0.4912398980775848,1.8087417921369284,0.022253787088144787
0.5639998912811279,0.4912398980775848,1.8094724356886396,0.022580468055992165
0.564500093460083,0.4912398980775848,1.8102035105829308,0.022908953939898925
0.565000057220459,0.4912398980775848,1.8109350152340693,0.02323922136397331
0.565500020980835,0.4912398980775848,1.8116669480407144,0.023571246729516226
0.5659999847412109,0.4912398980775848,1.812399307385758,0.02390500621765574
0.5664999485015869,0.4912398980775848,1.8131320916361622,0.024240475786755557
0.5669999122619629,0.4912398980775848,1.8138652991427904,0.024577631165374883
0.567500114440918,0.4912398980775848,1.8145989282402342,0.02491644784495332
0.568000078201294,0.4912398980775848,1.8153329772466351,0.025256901075540062
0.5685000419616699,0.4912398980775848,1.8160674444635057,0.02559896586529101
0.5690000057220459,0.4912398980775848,1.8168023281755523,0.025942616983239734
0.5694999694824219,0.4912398980775848,1.8175376266505014,0.026287828964932612
0.5699999332427979,0.4912398980775848,1.8182733381389307,0.026634576120591037
0.5704998970031738,0.4912398980775848,1.8190094608741072,0.026982832545315954
0.5710000991821289,0.4912398980775848,1.8197459930718336,0.027332572130756096
0.5715000629425049,0.4912398980775848,1.8204829329303025,0.027683768577759983
0.5720000267028809,0.4912398980775848,1.8212202786299605,0.02803639540980683
0.5724999904632568,0.4912398980775848,1.8219580283333814,0.02839042598713039
0.5729999542236328,0.4912398980775848,1.8226961801851502,0.02874583352145851
0.5734999179840088,0.4912398980775848,1.8234347323117575,0.029102591091777538
0.5739998817443848,0.4912398980775848,1.8241736828215063,0.029460671661800802
0.5745000839233398,0.4912398980775848,1.8249130298044323,0.029820048098326564
0.5750000476837158,0.4912398980775848,1.825652771332234,0.03018069318743097
0.5755000114440918,0.4912398980775848,1.826392905458212,0.030542579645088525
0.5759999752044678,0.4912398980775848,1.8271334302172089,0.030905680120430348
0.5764999389648438,0.4912398980775848,1.8278743436255473,0.03126996719180623
0.5769999027252197,0.4912398980775848,1.8286156436809606,0.031635413357773555
0.5775001049041748,0.4912398980775848,1.829357328362516,0.03200199102714568
0.5780000686645508,0.4912398980775848,1.8300993956305334,0.0323696725129446
0.5785000324249268,0.4912398980775848,1.8308418434265057,0.03273843003328434
0.5789999961853027,0.4912398980775848,1.8315846696730222,0.033108235719111506
0.5794999599456787,0.4912398980775848,1.8323278722737035,0.03347906162683032
0.5799999237060547,0.4912398980775848,1.8330714491131448,0.03385087975359659
0.5804998874664307,0.4912398980775848,1.8338153980568728,0.03422366205300875
0.5810000896453857,0.4912398980775848,1.8345597169513101,0.03459738044868307
0.5815000534057617,0.4912398980775848,1.8353044036237485,0.034972006843908034
0.5820000171661377,0.4912398980775848,1.836049455882324,0.03534751312739455
0.5824999809265137,0.4912398980775848,1.8367948715159965,0.03572387117674522
0.5829999446868896,0.4912398980775848,1.837540648294531,0.03610105286157456
0.5834999084472656,0.4912398980775848,1.8382867839684804,0.03647903004730599
0.5840001106262207,0.4912398980775848,1.8390332762691737,0.036857774599548206
0.5845000743865967,0.4912398980775848,1.8397801229087045,0.037237258388485364
0.5850000381469727,0.4912398980775848,1.8405273215799254,0.03761745329290276
0.5855000019073486,0.4912398980775848,1.8412748699564427,0.03799833120393027
0.5859999656677246,0.4912398980775848,1.8420227656926156,0.038379864028742994
0.5864999294281006,0.4912398980775848,1.8427710064235567,0.03876202369399915
0.5869998931884766,0.4912398980775848,1.8435195897651355,0.03914478214857518
0.5875000953674316,0.4912398980775848,1.8442685133139824,0.039528111365738694
0.5880000591278076,0.4912398980775848,1.8450177746474958,0.0399119833455152
0.5885000228881836,0.4912398980775848,1.8457673713238514,0.04029637011836782
0.5889999866485596,0.4912398980775848,1.846517300882016,0.04068124375155639
0.5894999504089355,0.4912398980775848,1.8472675608417684,0.041066576358985064
0.5899999141693115,0.4912398980775848,1.8480181487037306,0.041452340114146495
0.5905001163482666,0.4912398980775848,1.8487690619494097,0.041838507265158136
0.5910000801086426,0.4912398980775848,1.8495202980412508,0.042225050150560495
0.5915000438690186,0.4912398980775848,1.8502718544227013,0.042611941213845796
0.5920000076293945,0.4912398980775848,1.8510237285182827,0.04299915301477485
0.5924999713897705,0.4912398980775848,1.8517759177336695,0.04338665823689869
0.5929999351501465,0.4912398980775848,1.8525284194557698,0.043774429691925895
0.5934998989105225,0.4912398980775848,1.8532812310528097,0.04416244032202523
0.5940001010894775,0.4912398980775848,1.854034349874417,0.04455066320166443
0.5945000648498535,0.4912398980775848,1.8547877732517102,0.04493907154212916
0.5950000286102295,0.4912398980775848,1.8555414984973964,0.04532763870373122
0.5954999923706055,0.4912398980775848,1.8562955229058857,0.04571633821953524
0.5959999561309814,0.4912398980775848,1.857049843753431,0.04610514382898337
0.5964999198913574,0.4912398980775848,1.8578044582982944,0.04649402951535262
0.5969998836517334,0.4912398980775848,1.8585593637809414,0.04688296954246927
0.5975000858306885,0.4912398980775848,1.8593145574242604,0.04727193849082087
0.5980000495910645,0.4912398980775848,1.8600700364338103,0.047660911295217295
0.5985000133514404,0.4912398980775848,1.8608257979980967,0.04804986328406248
0.5989999771118164,0.4912398980775848,1.8615818392888763,0.04843877021848851
0.5994999408721924,0.4912398980775848,1.8623381574614908,0.048827608331778384
0.5999999046325684,0.4912398980775848,1.8630947496552308,0.049216354372155775
0.6005001068115234,0.4912398980775848,1.8638516129937348,0.04960498564927972
0.6010000705718994,0.4912398980775848,1.8646087445854196,0.04999348007838157
0.6015000343322754,0.4912398980775848,1.8653661415239342,0.05038181621307347
0.6019999980926514,0.4912398980775848,1.8661238008886274,0.050769973261562525
0.6024999618530273,0.4912398980775848,1.8668817197450163,0.051157931090634164
0.6029999256134033,0.4912398980775848,1.8676398951452637,0.05154567023617106
0.6034998893737793,0.4912398980775848,1.868398324128691,0.051933171950513134
0.6040000915527344,0.4912398980775848,1.869157003722367,0.05232041831131472
0.6045000553131104,0.4912398980775848,1.869915930941821,0.05270739239009431
0.6050000190734863,0.4912398980775848,1.8706751027918957,0.05309407844876444
0.6054999828338623,0.4912398980775848,1.8714345162677333,0.053480462120882984
0.6059999465942383,0.4912398980775848,1.8721941683558547,0.05386653054574872
0.6064999103546143,0.4912398980775848,1.8729540560352969,0.05425227244522388
0.6070001125335693,0.4912398980775848,1.8737141762787684,0.05463767815111232
0.6075000762939453,0.4912398980775848,1.8744745260538003,0.055022739598991996
0.6080000400543213,0.4912398980775848,1.8752351023238796,0.05540745030412615
0.6085000038146973,0.4912398980775848,1.8759959020495605,0.05579180533125061
0.6089999675750732,0.4912398980775848,1.876756922189554,0.05617580126622826
0.6094999313354492,0.4912398980775848,1.8775181597018018,0.056559436194159894
0.6099998950958252,0.4912398980775848,1.8782796115445402,0.05694270968486586
0.6105000972747803,0.4912398980775848,1.8790412746773537,0.0573256227833931
0.6110000610351562,0.4912398980775848,1.879803146062225,0.05770817800177578
0.6115000247955322,0.4912398980775848,1.8805652226645755,0.05809037930906405
0.6119999885559082,0.4912398980775848,1.8813275014542945,0.05847223211839254
0.6124999523162842,0.4912398980775848,1.8820899794067596,0.05885374327093368
0.6129999160766602,0.4912398980775848,1.8828526535038386,0.05923492101679314
0.6135001182556152,0.4912398980775848,1.8836155207348768,0.05961577499315193
0.6140000820159912,0.4912398980775848,1.8843785780976658,0.05999631620030962
0.6145000457763672,0.4912398980775848,1.8851418225993923,0.06037655697617184
0.6150000095367432,0.4912398980775848,1.8859052512575667,0.060756510969246516
0.6154999732971191,0.4912398980775848,1.8866688611009304,0.061136193110059286
0.6159999370574951,0.4912398980775848,1.88743264917034,0.061515619581390596
0.6164999008178711,0.4912398980775848,1.8881966125196288,0.061894807788160366
0.6170001029968262,0.4912398980775848,1.8889607482164457,0.06227377632739181
0.6175000667572021,0.4912398980775848,1.8897250533430707,0.06265254495808828
0.6180000305175781,0.4912398980775848,1.8904895249972085,0.0630311345709387
0.6184999942779541,0.4912398980775848,1.891254160292757,0.06340956715816605
0.6189999580383301,0.4912398980775848,1.8920189563605558,0.06378786578384478
0.619499921798706,0.4912398980775848,1.8927839103491104,0.0641660545545258
0.619999885559082,0.4912398980775848,1.8935490194252942,0.06454415858928958
0.6205000877380371,0.4912398980775848,1.894314280775026,0.06492220398812909
0.6210000514984131,0.4912398980775848,1.895079691603923,0.0653002177983332
0.6215000152587891,0.4912398980775848,1.895845249137926,0.06567822797942453
0.621999979019165,0.4912398980775848,1.8966109506238986,0.06605626336717026
0.622499942779541,0.4912398980775848,1.8973767933301973,0.0664343536366658
0.622999906539917,0.4912398980775848,1.8981427745472137,0.06681252926447419
0.6235001087188721,0.4912398980775848,1.8989088915878882,0.06719082149031222
0.624000072479248,0.4912398980775848,1.899675141788194,0.06756926227885157
0.624500036239624,0.4912398980775848,1.9004415225075932,0.06794788428116105
0.625,0.4912398980775848,1.9012080311294608,0.06832672079413224
0.625499963760376,0.4912398980775848,1.9019746650614782,0.06870580571690106
0.625999927520752,0.4912398980775848,1.9027414217359917,0.06908517350610141
0.6264998912811279,0.4912398980775848,1.9035082986103407,0.06946485913436057
0.627000093460083,0.4912398980775848,1.9042752931671596,0.06984489805593608
0.627500057220459,0.4912398980775848,1.9050424029146589,0.07022532617849968
0.628000020980835,0.4912398980775848,1.9058096253868815,0.07060617983154263
0.6284999847412109,0.4912398980775848,1.9065769581439211,0.07098749571359121
0.6289999485015869,0.4912398980775848,1.9073443987720713,0.07136931079867133
0.6294999122619629,0.4912398980775848,1.908111944883871,0.07175166219168666
0.630000114440918,0.4912398980775848,1.9088795941180143,0.07213458694125546
0.630500078201294,0.4912398980775848,1.9096473441391162,0.07251812183893776
0.6310000419616699,0.4912398980775848,1.9104151926373523,0.0729023032435274
0.6315000057220459,0.4912398980775848,1.9111831373280108,0.07328716696029036
0.6319999694824219,0.4912398980775848,1.911951175951004,0.07367274818271886
0.6324999332427979,0.4912398980775848,1.9127193062703725,0.07405908148386947
0.6329998970031738,0.4912398980775848,1.9134875260738042,0.07444620083658327
0.6335000991821289,0.4912398980775848,1.9142558331721762,0.07483413964454722
0.6340000629425049,0.4912398980775848,1.915024225399116,0.0752229307712919
0.6345000267028809,0.4912398980775848,1.9157927006105773,0.07561260655847736
0.6349999904632568,0.4912398980775848,1.9165612566844175,0.07600319882965287
0.6354999542236328,0.4912398980775848,1.9173298915199697,0.07639473888185538
0.6359999179840088,0.4912398980775848,1.9180986030376057,0.07678725747224542
0.6364998817443848,0.4912398980775848,1.9188673891782906,0.07718078480699611
0.6370000839233398,0.4912398980775848,1.9196362479031337,0.07757535053543081
0.6375000476837158,0.4912398980775848,1.9204051771929387,0.07797098374851648
0.6380000114440918,0.4912398980775848,1.9211741750477547,0.0783677129799233
0.6384999752044678,0.4912398980775848,1.92194323948643,0.07876556620822409
0.6389999389648438,0.4912398980775848,1.922712368546166,0.07916457085861739
0.6394999027252197,0.4912398980775848,1.9234815602820732,0.07956475380273174
0.6400001049041748,0.4912398980775848,1.9242508127667246,0.07996614135669278
0.6405000686645508,0.4912398980775848,1.9250201240897098,0.08036875927926586
0.6410000324249268,0.4912398980775848,1.9257894923571874,0.08077263277138644
0.6414999961853027,0.4912398980775848,1.926558915691441,0.08117778647665
0.6419999599456787,0.4912398980775848,1.9273283922304336,0.08158424448195774
0.6424999237060547,0.4912398980775848,1.928097920127365,0.08199203031839801
0.6429998874664307,0.4912398980775848,1.9288674975502296,0.0824011669626894
0.6435000896453857,0.4912398980775848,1.9296371226813782,0.08281167683903959
0.6440000534057617,0.4912398980775848,1.9304067937170797,0.08322358182100868
0.6445000171661377,0.4912398980775848,1.9311765088670856,0.08363690323286571
0.6449999809265137,0.4912398980775848,1.9319462663541953,0.08405166184986124
0.6454999446868896,0.4912398980775848,1.932716064413822,0.08446787789736776
0.6459999084472656,0.4912398980775848,1.933485901293558,0.08488557105026992
0.6465001106262207,0.4912398980775848,1.9342557752527438,0.08530476043545389
0.6470000743865967,0.4912398980775848,1.9350256845620437,0.08572546464013132
0.6475000381469727,0.4912398980775848,1.9357956275030321,0.0861477017265193
0.6480000019073486,0.4912398980775848,1.9365656023677948,0.08657148925100426
0.6484999656677246,0.4912398980775848,1.9373356074585473,0.08699684428574567
0.6489999294281006,0.4912398980775848,1.9381056410872686,0.08742378344222754
0.6494998931884766,0.4912398980775848,1.9388757015753562,0.08785232289666037
0.6500000953674316,0.4912398980775848,1.939645787253299,0.08828247841559132
0.6505000591278076,0.4912398980775848,1.9404158964603677,0.08871426537921556
0.6510000228881836,0.4912398980775848,1.9411860275443196,0.08914769880112436
0.6514999866485596,0.4912398980775848,1.9419561788611168,0.08958279334462485
0.6519999504089355,0.4912398980775848,1.9427263487746538,0.09001956333594556
0.6524999141693115,0.4912398980775848,1.9434965356564933,0.09045802277469425
0.6530001163482666,0.4912398980775848,1.9442667378856096,0.09089818534231378
0.6535000801086426,0.4912398980775848,1.9450369538481365,0.09134006440879877
0.6540000438690186,0.4912398980775848,1.9458071819371194,0.09178367303640514
0.6545000076293945,0.4912398980775848,1.9465774205522672,0.092229023978211
0.6549999713897705,0.4912398980775848,1.9473476680996988,0.09267612967024222
0.6554999351501465,0.4912398980775848,1.9481179229916814,0.09312500221725711
0.6559998989105225,0.4912398980775848,1.9488881836463552,0.09357565337295175
0.6565001010894775,0.4912398980775848,1.9496584484874426,0.09402809451593169
0.6570000648498535,0.4912398980775848,1.9504287159439397,0.09448233662376823
0.6575000286102295,0.4912398980775848,1.9511989844497912,0.09493839024757263
0.6579999923706055,0.4912398980775848,1.9519692524435495,0.0953962654880395
0.6584999561309814,0.4912398980775848,1.9527395183680192,0.09585597197228343
0.6589999198913574,0.4912398980775848,1.9535097806698865,0.09631751883102507
0.6594998836517334,0.4912398980775848,1.9542800377993346,0.09678091467781082
0.6600000858306885,0.4912398980775848,1.9550502882096512,0.0972461675934669
0.6605000495910645,0.4912398980775848,1.95582053035683,0.09771328511748599
0.6610000133514404,0.4912398980775848,1.9565907626991714,0.09818227424452151
0.6614999771118164,0.4912398980775848,1.9573609836968848,0.09865314142219767
0.6619999408721924,0.4912398980775848,1.9581311918116873,0.09912589254792091
0.6624999046325684,0.4912398980775848,1.9589013855064035,0.09960053296522656
0.6630001068115234,0.4912398980775848,1.9596715632445647,0.1000770674609239
0.6635000705718994,0.4912398980775848,1.9604417234900073,0.10055550026260254
0.6640000343322754,0.4912398980775848,1.961211864706471,0.10103583503500971
0.6644999980926514,0.4912398980775848,1.9619819853571938,0.1015180748750055
0.6649999618530273,0.4912398980775848,1.9627520839045072,0.10200222230632616
0.6654999256134033,0.4912398980775848,1.963522158809428,0.10248827927567151
0.6659998893737793,0.4912398980775848,1.9642922085312535,0.10297624715182137
0.6665000915527344,0.4912398980775848,1.96506223152716,0.10346612673033687
0.6670000553131104,0.4912398980775848,1.9658322262518129,0.10395791824642558
0.6675000190734863,0.4912398980775848,1.9666021911569935,0.10445162139673787
0.6679999828338623,0.4912398980775848,1.9673721246912486,0.10494723536849192
0.6684999465942383,0.4912398980775848,1.9681420252995634,0.10544475887316536
0.6689999103546143,0.4912398980775848,1.9689118914230634,0.10594419018241186
0.6695001125335693,0.4912398980775848,1.9696817214987423,0.10644552716481633
0.6700000762939453,0.4912398980775848,1.9704515139592162,0.10694876732249142
0.6705000400543213,0.4912398980775848,1.9712212672325058,0.10745390782651927
0.6710000038146973,0.4912398980775848,1.9719909797418413,0.10796094555065411
0.6714999675750732,0.4912398980775848,1.9727606499054924,0.10846987710308126
0.6719999313354492,0.4912398980775848,1.9735302761366185,0.10898069885509551
0.6724998950958252,0.4912398980775848,1.974299856843136,0.10949340696369174
0.6730000972747803,0.4912398980775848,1.9750693904275962,0.11000799738415576
0.6735000610351562,0.4912398980775848,1.9758388752870621,0.11052446586927164
0.6740000247955322,0.4912398980775848,1.9766083098129779,0.11104280795392373
0.6744999885559082,0.4912398980775848,1.9773776923910213,0.11156301893126379
0.6749999523162842,0.4912398980775848,1.97814702140095,0.11208509384037277
0.6754999160766602,0.4912398980775848,1.9789162952164672,0.11260902749425236
0.6760001182556152,0.4912398980775848,1.9796855122051493,0.11313481456601472
0.6765000820159912,0.4912398980775848,1.9804546707284674,0.11366244972349408
0.6770000457763672,0.4912398980775848,1.9812237691419128,0.1141919277802287
0.6775000095367432,0.4912398980775848,1.9819928057952159,0.11472324382921677
0.6779999732971191,0.4912398980775848,1.982761779032632,0.11525639333961694
0.6784999370574951,0.4912398980775848,1.983530687193264,0.1157913722124332
0.6789999008178711,0.4912398980775848,1.984299528611402,0.11632817680229592
0.6795001029968262,0.4912398980775848,1.9850683016168593,0.11686680391748418
0.6800000667572021,0.4912398980775848,1.985837004535304,0.11740725081002387
0.6805000305175781,0.4912398980775848,1.986605635688581,0.1179495151646407
0.6809999942779541,0.4912398980775848,1.9873741933950295,0.11849359509207714
0.6814999580383301,0.4912398980775848,1.9881426759697987,0.11903948912884113
0.681999921798706,0.4912398980775848,1.9889110817251678,0.11958719624154597
0.682499885559082,0.4912398980775848,1.989679408970867,0.12013671583149697
0.6830000877380371,0.4912398980775848,1.9904476560143989,0.12068804773585431
0.6835000514984131,0.4912398980775848,1.9912158211613578,0.12124119222418238
0.6840000152587891,0.4912398980775848,1.991983902715742,0.12179614999069042
0.684499979019165,0.4912398980775848,1.9927518989802577,0.12235292214247898
0.684999942779541,0.4912398980775848,1.9935198082566117,0.12291151018407763
0.685499906539917,0.4912398980775848,1.9942876288457907,0.123471915999025
0.6860001087188721,0.4912398980775848,1.9950553590483262,0.12403414182957676
0.686500072479248,0.4912398980775848,1.9958229971645447,0.12459819025558502
0.687000036239624,0.4912398980775848,1.9965905414948018,0.12516406417337894
0.6875,0.4912398980775848,1.997357990339703,0.1257317667752136
0.687999963760376,0.4912398980775848,1.9981253420003093,0.126301301529777
0.688499927520752,0.4912398980775848,1.998892594778332,0.12687267216444248
0.6889998912811279,0.4912398980775848,1.9996597469763149,0.12744588264993365
0.689500093460083,0.4912398980775848,2.0004267968978073,0.12802093718745555
0.690000057220459,0.4912398980775848,2.001193742847531,0.12859784019754686
0.690500020980835,0.4912398980775848,2.0019605831315364,0.12917659630948056
0.6909999847412109,0.4912398980775848,2.0027273160573547,0.1297572103500315
0.6914999485015869,0.4912398980775848,2.003493939934136,0.13033968733055332
0.6919999122619629,0.4912398980775848,2.0042604530727806,0.1309240324314127
0.692500114440918,0.4912398980775848,2.0050268537860547,0.13151025098315938
0.693000078201294,0.4912398980775848,2.0057931403886924,0.13209834844462254
0.6935000419616699,0.4912398980775848,2.00655931119748,0.1326883303790649
0.6940000057220459,0.4912398980775848,2.0073253645313245,0.13328020243012545
0.6944999694824219,0.4912398980775848,2.0080912987113075,0.13387397029990544
0.6949999332427979,0.4912398980775848,2.0088571120607264,0.13446963973213275
0.6954998970031738,0.4912398980775848,2.0096228029051293,0.1350672165018705
0.6960000991821289,0.4912398980775848,2.0103883695723455,0.1356667064090089
0.6965000629425049,0.4912398980775848,2.0111538103925097,0.13626811526966154
0.6970000267028809,0.4912398980775848,2.0119191236980765,0.13687144890137737
0.6974999904632568,0.4912398980775848,2.0126843078238204,0.13747671310287618
0.6979999542236328,0.4912398980775848,2.0134493611068227,0.13808391363229958
0.6984999179840088,0.4912398980775848,2.014214281886445,0.1386930561883204
0.6989998817443848,0.4912398980775848,2.0149790685042928,0.13930414639672803
0.6995000839233398,0.4912398980775848,2.015743719304174,0.13991718980055906
0.7000000476837158,0.4912398980775848,2.0165082326320474,0.1405321918440444
0.7005000114440918,0.4912398980775848,2.017272606835942,0.1411491578345266
0.7009999752044678,0.4912398980775848,2.018036840265834,0.14176809287005507
0.7014999389648438,0.4912398980775848,2.0188009312734505,0.1423890017353371
0.7019999027252197,0.4912398980775848,2.0195648782119973,0.14301188878610996
0.7025001049041748,0.4912398980775848,2.0203286794358224,0.14363675784953658
0.7030000686645508,0.4912398980775848,2.0210923333000395,0.14426361216191408
0.7035000324249268,0.4912398980775848,2.0218558381601404,0.14489245435044218
0.7039999961853027,0.4912398980775848,2.02261919237162,0.1455232864510961
0.7044999599456787,0.4912398980775848,2.0233823942896305,0.14615610994586548
0.7049999237060547,0.4912398980775848,2.024145442268661,0.14679092580200537
0.7054998874664307,0.4912398980775848,2.0249083346622387,0.1474277345007939
0.7060000896453857,0.4912398980775848,2.0256710698226392,0.14806653604969194
0.7065000534057617,0.4912398980775848,2.0264336461005965,0.1487073299781486
0.7070000171661377,0.4912398980775848,2.027196061845003,0.14935011532238893
0.7074999809265137,0.4912398980775848,2.027958315402598,0.14999489060634438
0.7079999446868896,0.4912398980775848,2.0287204051176495,0.15064165382407285
0.7084999084472656,0.4912398980775848,2.029482329331623,0.15129040242596026
0.7090001106262207,0.4912398980775848,2.0302440863828513,0.1519411333092233
0.7095000743865967,0.4912398980775848,2.0310056746061984,0.15259384281274183
0.7100000381469727,0.4912398980775848,2.0317670923327267,0.1532485267157667
0.7105000019073486,0.4912398980775848,2.032528337889366,0.15390518023967625
0.7109999656677246,0.4912398980775848,2.0332894095985887,0.15456379805277232
0.7114999294281006,0.4912398980775848,2.034050305778091,0.15522437427974514
0.7119998931884766,0.4912398980775848,2.0348110247404887,0.15588690251778642
0.7125000953674316,0.4912398980775848,2.0355715647930284,0.15655137585949738
0.7130000591278076,0.4912398980775848,2.036331924237319,0.15721778692065178
0.7135000228881836,0.4912398980775848,2.0370921013690833,0.15788612787005904
0.7139999866485596,0.4912398980775848,2.0378520944779335,0.15855639045821102
0.7144999504089355,0.4912398980775848,2.0386119018471587,0.15922856604091154
0.7149999141693115,0.4912398980775848,2.0393715217535275,0.15990264559560985
0.7155001163482666,0.4912398980775848,2.0401309524670985,0.16057861973145926
0.7160000801086426,0.4912398980775848,2.040890192251035,0.16125647869624846
0.7165000438690186,0.4912398980775848,2.041649239361427,0.1619362123831747
0.7170000076293945,0.4912398980775848,2.0424080920471193,0.1626178103395647
0.7174999713897705,0.4912398980775848,2.043166748549548,0.1633012617791741
0.7179999351501465,0.4912398980775848,2.0439252071025913,0.16398655559894015
0.7184998989105225,0.4912398980775848,2.044683465932433,0.1646736803993765
0.7190001010894775,0.4912398980775848,2.0454415232574408,0.16536262450534506
0.7195000648498535,0.4912398980775848,2.046199377288056,0.1660533759810588
0.7200000286102295,0.4912398980775848,2.0469570262266843,0.16674592263218688
0.7204999923706055,0.4912398980775848,2.0477144682675816,0.16744025199397425
0.7209999561309814,0.4912398980775848,2.0484717015967293,0.1681363513167851
0.7214999198913574,0.4912398980775848,2.0492287243917136,0.16883420756766984
0.7219998836517334,0.4912398980775848,2.049985534821623,0.1695338074593787
0.7225000858306885,0.4912398980775848,2.0507421310469818,0.1702351375036333
0.7230000495910645,0.4912398980775848,2.0514985112197275,0.17093818407632227
0.7235000133514404,0.4912398980775848,2.0522546734832274,0.17164293348229248
0.7239999771118164,0.4912398980775848,2.0530106159723367,0.17234937201161912
0.7244999408721924,0.4912398980775848,2.053766336813479,0.17305748598289758
0.7249999046325684,0.4912398980775848,2.054521834124748,0.17376726177130583
0.7255001068115234,0.4912398980775848,2.0552771060160184,0.17447868582044673
0.7260000705718994,0.4912398980775848,2.0560321505890475,0.1751917446372893
0.7265000343322754,0.4912398980775848,2.0567869659375675,0.1759064247695035
0.7269999980926514,0.4912398980775848,2.057541550147349,0.17662271276576288
0.7274999618530273,0.4912398980775848,2.058295901296233,0.17734059512265385
0.7279999256134033,0.4912398980775848,2.0590500174541218,0.17806005822549634
0.7284998893737793,0.4912398980775848,2.0598038966829386,0.1787810882946038
0.7290000915527344,0.4912398980775848,2.060557537036567,0.17950367135417733
0.7295000553131104,0.4912398980775848,2.0613109365607976,0.1802277932446105
0.7300000190734863,0.4912398980775848,2.062064093293322,0.18095343969272798
0.7304999828338623,0.4912398980775848,2.0628170052638053,0.18168059643648324
0.7309999465942383,0.4912398980775848,2.0635696704940583,0.1824092493805289
0.7314999103546143,0.4912398980775848,2.064322086998305,0.1831393847498613
0.7320001125335693,0.4912398980775848,2.065074252783531,0.18387098921504877
0.7325000762939453,0.4912398980775848,2.0658261658498818,0.18460404997798124
0.7330000400543213,0.4912398980775848,2.066577824191091,0.1853385548211002
0.7335000038146973,0.4912398980775848,2.067329225794923,0.1860744921294672
0.7339999675750732,0.4912398980775848,2.068080368643611,0.18681185089481991
0.7344999313354492,0.4912398980775848,2.0688312507142905,0.187550620708721
0.7349998950958252,0.4912398980775848,2.0695818699794257,0.18829079175099414
0.7355000972747803,0.4912398980775848,2.0703322244072213,0.18903235477896324
0.7360000610351562,0.4912398980775848,2.0710823119620305,0.1897753011207726
0.7365000247955322,0.4912398980775848,2.071832130604761,0.1905196226731827
0.7369999885559082,0.4912398980775848,2.072581678293275,0.19126531190337853
0.7374999523162842,0.4912398980775848,2.0733309529827944,0.19201236185565884
0.7379999160766602,0.4912398980775848,2.0740799526263114,0.1927607661643926
0.7385001182556152,0.4912398980775848,2.0748286751750067,0.19351051907302053
0.7390000820159912,0.4912398980775848,2.0755771185786798,0.19426161545758497
0.7395000457763672,0.4912398980775848,2.0763252807861945,0.19501405085351659
0.7400000095367432,0.4912398980775848,2.0770731597459386,0.19576782148371583
0.7404999732971191,0.4912398980775848,2.0778207534062956,0.19652292428343768
0.7409999370574951,0.4912398980775848,2.078568059716122,0.19727935691643328
0.7414999008178711,0.4912398980775848,2.0793150766252273,0.198037117779269
0.7420001029968262,0.4912398980775848,2.0800618020848423,0.19879620599417003
0.7425000667572021,0.4912398980775848,2.0808082340480754,0.1995566213924426
0.7430000305175781,0.4912398980775848,2.0815543704703523,0.20031836449092125
0.7434999942779541,0.4912398980775848,2.0823002093098317,0.20108143646399182
0.7439999580383301,0.4912398980775848,2.083045748527802,0.20184583911373233
0.744499921798706,0.4912398980775848,2.083790986089057,0.2026115748408683
0.744999885559082,0.4912398980775848,2.0845359199622484,0.20337864661905944
0.7455000877380371,0.4912398980775848,2.0852805481202275,0.20414705797261676
0.7460000514984131,0.4912398980775848,2.0860248685403655,0.20491681295316097
0.7465000152587891,0.4912398980775848,2.0867688792048527,0.20568791610815218
0.746999979019165,0.4912398980775848,2.0875125781009687,0.2064603724370882
0.747499942779541,0.4912398980775848,2.0882559632213145,0.2072341873371911
0.747999906539917,0.4912398980775848,2.088999032564008,0.20800936654452976
0.7485001087188721,0.4912398980775848,2.0897417841328423,0.20878591607675012
0.749000072479248,0.4912398980775848,2.0904842159374075,0.209563842181642
0.749500036239624,0.4912398980775848,2.091226325993188,0.21034315129374775
0.75,0.4912398980775848,2.0919681123216334,0.21112384999955439
0.750499963760376,0.4912398980775848,2.0927095729502145,0.21190594501045787
0.750999927520752,0.4912398980775848,2.0934507059124634,0.21268944314207686
0.7514998912811279,0.4912398980775848,2.094191509248003,0.2134743512986428
0.752000093460083,0.4912398980775848,2.0949319810025666,0.21426067646135283
0.752500057220459,0.4912398980775848,2.0956721192280163,0.21504842567932678
0.753000020980835,0.4912398980775848,2.0964119219823476,0.21583760606112973
0.7534999847412109,0.4912398980775848,2.097151387329691,0.21662822476289742
0.7539999485015869,0.4912398980775848,2.097890513340297,0.21742028896516805
0.7544999122619629,0.4912398980775848,2.09862929809049,0.21821380582645236
0.755000114440918,0.4912398980775848,2.099367739662575,0.21900878240175703
0.755500078201294,0.4912398980775848,2.100105836144671,0.2198052255216675
0.7560000419616699,0.4912398980775848,2.1008435856304475,0.22060314164043887
0.7565000057220459,0.4912398980775848,2.101580986218769,0.22140253667373322
0.7569999694824219,0.4912398980775848,2.102318036013251,0.2222034158510745
0.7574999332427979,0.4912398980775848,2.103054733121746,0.2230057836017794
0.7579998970031738,0.4912398980775848,2.103791075655792,0.22380964348052157
0.7585000991821289,0.4912398980775848,2.1045270617300353,0.22461499812810606
0.7590000629425049,0.4912398980775848,2.105262689461652,0.22542184925865907
0.7595000267028809,0.4912398980775848,2.105997956969774,0.2262301976637596
0.7599999904632568,0.4912398980775848,2.106732862374925,0.22704004322365898
0.7604999542236328,0.4912398980775848,2.107467403798463,0.22785138491624676
0.7609999179840088,0.4912398980775848,2.10820157936203,0.22866422081739962
0.7614998817443848,0.4912398980775848,2.1089353871869942,0.22947854808993112
0.7620000839233398,0.4912398980775848,2.1096688253938822,0.23029436295932537
0.7625000476837158,0.4912398980775848,2.1104018921017924,0.23111166067313593
0.7630000114440918,0.4912398980775848,2.111134585427772,0.23193043544098257
0.7634999752044678,0.4912398980775848,2.1118669034861544,0.23275068035499996
0.7639999389648438,0.4912398980775848,2.112598844387841,0.23357238729342117
0.7644999027252197,0.4912398980775848,2.1133304062395246,0.23439554681024566
0.7650001049041748,0.4912398980775848,2.1140615871428423,0.23522014801486368
0.7655000686645508,0.4912398980775848,2.1147923851934674,0.2360461784511134
0.7660000324249268,0.4912398980775848,2.115522798480142,0.2368736239913688
0.7664999961853027,0.4912398980775848,2.116252825083672,0.23770246876027679
0.7669999599456787,0.4912398980775848,2.1169824630759053,0.23853269509552572
0.7674999237060547,0.4912398980775848,2.1177117105187175,0.2393642835448282
0.7679998874664307,0.4912398980775848,2.118440565463017,0.24019721289057958
0.7685000896453857,0.4912398980775848,2.1191690259477807,0.2410314601892061
0.7690000534057617,0.4912398980775848,2.119897089999125,0.24186700081482182
0.7695000171661377,0.4912398980775848,2.120624755629405,0.2427038085031037
0.7699999809265137,0.4912398980775848,2.1213520208363517,0.24354185539500736
0.7704999446868896,0.4912398980775848,2.122078883602235,0.2443811120799868
0.7709999084472656,0.4912398980775848,2.1228053418930624,0.24522154763759874
0.7715001106262207,0.4912398980775848,2.1235313936578044,0.2460631296768501
0.7720000743865967,0.4912398980775848,2.124257036827649,0.2469058243736991
0.7725000381469727,0.4912398980775848,2.124982269315283,0.24774959650749773
0.7730000019073486,0.4912398980775848,2.125707089014201,0.24859440949699319
0.7734999656677246,0.4912398980775848,2.1264314937980395,0.24944022543604955
0.7739999294281006,0.4912398980775848,2.1271554815199387,0.25028700512863344
0.7744998931884766,0.4912398980775848,2.127879050011928,0.2511347081223353
0.7750000953674316,0.4912398980775848,2.1286021970843363,0.25198329273991227
0.7755000591278076,0.4912398980775848,2.1293249205252245,0.2528327161087923
0.7760000228881836,0.4912398980775848,2.130047218099838,0.25368293418888166
0.7764999866485596,0.4912398980775848,2.1307690875500818,0.25453390179914864
0.7769999504089355,0.4912398980775848,2.1314905265940145,0.2553855726436269
0.7774999141693115,0.4912398980775848,2.132211532925363,0.25623789933784236
0.7780001163482666,0.4912398980775848,2.1329321042130562,0.2570908334364838
0.7785000801086426,0.4912398980775848,2.133652238100784,0.2579443254621236
0.7790000438690186,0.4912398980775848,2.1343719322065735,0.2587983249337841
0.7795000076293945,0.4912398980775848,2.135091184122386,0.25965278039387163
0.7799999713897705,0.4912398980775848,2.1358099914137347,0.2605076394325889
0.7804999351501465,0.4912398980775848,2.1365283516193174,0.26136284871014914
0.7809998989105225,0.4912398980775848,2.137246262250666,0.2622183539783551
0.7815001010894775,0.4912398980775848,2.137963720791814,0.26307410010390964
0.7820000648498535,0.4912398980775848,2.138680724698985,0.2639300310966187
0.7825000286102295,0.4912398980775848,2.139397271400306,0.26478609014683047
0.7829999923706055,0.4912398980775848,2.140113358295551,0.26564221967607826
0.7834999561309814,0.4912398980775848,2.1408289827559286,0.26649836140034083
0.7839999198913574,0.4912398980775848,2.1415441421239083,0.26735445639890415
0.7844998836517334,0.4912398980775848,2.1422588337130883,0.26821044517913484
0.7850000858306885,0.4912398980775848,2.142973054808096,0.2690662677298547
0.7855000495910645,0.4912398980775848,2.1436868026645115,0.2699218635610353
0.7860000133514404,0.4912398980775848,2.1444000745088143,0.27077717173312477
0.7864999771118164,0.4912398980775848,2.145112867538342,0.271632130882057
0.7869999408721924,0.4912398980775848,2.1458251789212692,0.2724866792437488
0.7874999046325684,0.4912398980775848,2.146537005796597,0.27334075467836355
0.7880001068115234,0.4912398980775848,2.1472483452741624,0.2741942946937596
0.7885000705718994,0.4912398980775848,2.147959194434661,0.27504723646821755
0.7890000343322754,0.4912398980775848,2.148669550329682,0.2758995168725141
0.7894999980926514,0.4912398980775848,2.1493794099817594,0.2767510724906186
0.7899999618530273,0.4912398980775848,2.1500887703844325,0.27760183963784524
0.7904999256134033,0.4912398980775848,2.150797628502318,0.27845175437613734
0.7909998893737793,0.4912398980775848,2.1515059812711907,0.27930075252776554
0.7915000915527344,0.4912398980775848,2.1522138255980736,0.2801487696892124
0.7920000553131104,0.4912398980775848,2.1529211583613375,0.2809957412458167
0.7925000190734863,0.4912398980775848,2.1536279764108097,0.28184160238653183
0.7929999828338623,0.4912398980775848,2.1543342765678926,0.28268628811851104
0.7934999465942383,0.4912398980775848,2.155040055625692,0.28352973328264897
0.7939999103546143,0.4912398980775848,2.155745310349156,0.28437187257114643
0.7945001125335693,0.4912398980775848,2.156450037475225,0.28521264054576434
0.7950000762939453,0.4912398980775848,2.157154233712992,0.28605197165413615
0.7955000400543213,0.4912398980775848,2.1578578957438705,0.2868898002434974
0.7960000038146973,0.4912398980775848,2.158561020221772,0.2877260605735275
0.7964999675750732,0.4912398980775848,2.1592636037732897,0.2885606868301481
0.7969999313354492,0.4912398980775848,2.159965642997893,0.2893936131407978
0.7974998950958252,0.4912398980775848,2.16066713446813,0.29022477359052257
0.7980000972747803,0.4912398980775848,2.161368074729842,0.291054102238496
0.7985000610351562,0.4912398980775848,2.1620684603023834,0.2918815331357069
0.7990000247955322,0.4912398980775848,2.162768287678859,0.29270700034404057
0.7994999885559082,0.4912398980775848,2.1634675533263663,0.2935304379551238
0.7999999523162842,0.4912398980775848,2.1641662536862483,0.2943517801079803
0.8004999160766602,0.4912398980775848,2.16486438517436,0.29517096100726775
0.8010001182556152,0.4912398980775848,2.1655619441813423,0.29598791494311383
0.8015000820159912,0.4912398980775848,2.1662589270729065,0.29680257631033846
0.8020000457763672,0.4912398980775848,2.1669553301901288,0.297614879625526
0.8025000095367432,0.4912398980775848,2.167651149849754,0.29842475954338876
0.8029999732971191,0.4912398980775848,2.1683463823445055,0.29923215087369687
0.8034999370574951,0.4912326237640493,2.169041023943407,0.30003698859858363
0.8039999008178711,0.49122534945051377,2.16973507089211,0.30083920789045726
0.8045001029968262,0.4912180716680639,2.1704285194132362,0.3016387441313358
0.8050000667572021,0.4912107973545284,2.1711213657067243,0.3024355329337771
0.8055000305175781,0.4912035230409929,2.171813605950193,0.30322951016295635
0.8059999942779541,0.49119624872745743,2.1725052362993105,0.3040206119592164
0.8064999580383301,0.4911889744139219,2.173196252888179,0.3048087747594566
0.806999921798706,0.4911817001003864,2.1738866518297244,0.3055939353138244
0.807499885559082,0.49117442578685094,2.174576429216087,0.30637603069504704
0.8080000877380371,0.49116714800440103,2.1752655811190236,0.30715499830856696
0.8085000514984131,0.49115806823619496,2.17595410359032,0.3079307759290017
0.8090000152587891,0.4911489884679889,2.1766419926622524,0.3087033017881976
0.809499979019165,0.49113990869978286,2.177329244348118,0.30947251470888937
0.809999942779541,0.4911308289315768,2.178015854642832,0.3102383542444964
0.810499906539917,0.4911217491633707,2.1787018195235794,0.3110007607843101
0.8110001087188721,0.49111266506527995,2.1793871349504936,0.3117596756095192
0.811500072479248,0.4911035852970739,2.1800717968673373,0.3125150409136276
0.812000036239624,0.49109450552886785,2.1807558012021904,0.3132667998150543
0.8125,0.4910854257606618,2.181439143868145,0.3140148963860666
0.812999963760376,0.4910763459924557,2.1821218207640274,0.31475927570583045
0.813499927520752,0.4910638505536028,2.182803827775146,0.31549988392903006
0.8139998912811279,0.4910513551147499,2.183485160774076,0.3162366683560003
0.814500093460083,0.4910388537171756,2.1841658156214665,0.316969577494732
0.815000057220459,0.4910263582783227,2.1848457881668693,0.31769856111013717
0.815500020980835,0.4910138628394698,2.1855250742495786,0.318423570257268
0.8159999847412109,0.49100136740061695,2.186203669699473,0.3191445572968586
0.8164999485015869,0.49098887196176405,2.1868815703378504,0.3198614758957751
0.8169999122619629,0.49097637652291115,2.187558771978252,0.3205742810181096
0.817500114440918,0.49096387512533685,2.1882352704272763,0.32128292891262383
0.818000078201294,0.49095137968648395,2.1889110614853764,0.32198737710062075
0.8185000419616699,0.4909494640016578,2.1895861409476503,0.32268758436597933
0.8190000057220459,0.4909475483168317,2.190260504604618,0.3233835107464712
0.8194999694824219,0.4909456326320055,2.190934148242988,0.32407511752440055
0.8199999332427979,0.4909437169471794,2.1916070676464137,0.32476236721548
0.8204998970031738,0.49094180126235326,2.192279258596235,0.32544522355600297
0.8210000991821289,0.4909398846639912,2.1929507168722098,0.32612365148904243
0.8215000629425049,0.4909379689791651,2.1936214382532278,0.32679761715076766
0.8220000267028809,0.4909360532943389,2.194291418518019,0.3274670878578609
0.8224999904632568,0.4909341376095128,2.1949606534458446,0.3281320320965386
0.8229999542236328,0.49093222192468666,2.1956291388171802,0.3287924195133073
0.8234999179840088,0.4909252964188179,2.19629687041439,0.3294482209076407
0.8239998817443848,0.49091837091294904,2.1969638440223913,0.3300994082270944
0.8245000839233398,0.4909114421045024,2.197630055429313,0.3307459545649839
0.8250000476837158,0.49090451659863354,2.198295500427147,0.3313878341588779
0.8255000114440918,0.49089759109276476,2.198960174812394,0.33202502238660914
0.8259999752044678,0.490890665586896,2.1996240743866955,0.3326574957579134
0.8264999389648438,0.49088374008102714,2.2002871949574585,0.33328523190269743
0.8269999027252197,0.49087681457515836,2.200949532338464,0.3339082095576401
0.8275001049041748,0.49086988576671164,2.2016110823504658,0.3345264085517226
0.8280000686645508,0.49086296026084286,2.202271840821775,0.3351398097909415
0.8285000324249268,0.49084755414828646,2.2029318035888306,0.33574839524272987
0.8289999961853027,0.49083214803573005,2.203590966496758,0.33635214792031715
0.8294999599456787,0.49081674192317365,2.2042493253999145,0.336951051866867
0.8299999237060547,0.49080133581061725,2.2049068761624206,0.33754509213940515
0.8304998874664307,0.49078592969806084,2.2055636146586797,0.33813425479297293
0.8310000896453857,0.49077051623876505,2.206219536773883,0.3387185268654315
0.8315000534057617,0.49075511012620865,2.2068746384045057,0.3392978963626844
0.8320000171661377,0.49073970401365224,2.207528915458787,0.33987235224396084
0.8324999809265137,0.49072429790109584,2.2081823638572007,0.34044188440762235
0.8329999446868896,0.49070889178853944,2.2088349795329147,0.34100648367612435
0.8334999084472656,0.4906988262492103,2.209486758432231,0.3415661417724352
0.8340001106262207,0.4906887559099101,2.210137696515002,0.3421208512777959
0.8345000743865967,0.490678690370581,2.2107877897550168,0.3426706055723504
0.8350000381469727,0.49066862483125184,2.2114370341403498,0.34321539878039786
0.8355000019073486,0.4906585592919227,2.212085425673704,0.3437552257520818
0.8359999656677246,0.49064849375259356,2.2127329603727652,0.34429008210270273
0.8364999294281006,0.4906384282132644,2.2133796342705994,0.3448199643081376
0.8369998931884766,0.4906283626739353,2.2140254434161086,0.34534486983687207
0.8375000953674316,0.4906182923346351,2.214670383874552,0.3458647972945949
0.8380000591278076,0.49060822679530597,2.2153144517281254,0.3463797465624207
0.8385000228881836,0.49060991169076934,2.215957643076593,0.34688971891605386
0.8389999866485596,0.49061159658623266,2.216599954037955,0.3473947171165309
0.8394999504089355,0.49061328148169603,2.217241380749133,0.3478947454667143
0.8399999141693115,0.4906149663771594,2.217881919366662,0.3483898098350595
0.8405001163482666,0.4906166520761017,2.2185215660673707,0.3488799176557211
0.8410000801086426,0.4906183369715651,2.2191603170490497,0.3493650779153092
0.8415000438690186,0.49062002186702847,2.2197981685311023,0.34984530113225515
0.8420000076293945,0.49062170676249184,2.220435116755175,0.350320599331019
0.8424999713897705,0.49062339165795515,2.2210711579857665,0.35079098601281994
0.8429999351501465,0.4906250765534185,2.2217062885108136,0.351256476124868
0.8434998989105225,0.49063138594978245,2.222340504642258,0.3517170860299658
0.8440001010894775,0.49063769835491916,2.222973802716591,0.3521728334787272
0.8445000648498535,0.4906440077512831,2.223606179095381,0.3526237375871974
0.8450000286102295,0.49065031714764706,2.2242376301657876,0.35306981882199356
0.8454999923706055,0.490656626544011,2.224868152341066,0.35351109899364297
0.8459999561309814,0.4906629359403749,2.225497742061064,0.35394760125815483
0.8464999198913574,0.4906692453367389,2.226126395792719,0.3543793501269613
0.8469998836517334,0.4906755547331028,2.2267541100305546,0.35480637148484667
0.8475000858306885,0.4906818671382395,2.227380881297183,0.355228692614315
0.8480000495910645,0.49068817653460345,2.228006706143811,0.35564634222427066
0.8485000133514404,0.490682520522718,2.228631581150758,0.3560593504809783
0.8489999771118164,0.4906768645108326,2.2292555029279764,0.35646774903887546
0.8494999408721924,0.49067120849894713,2.229878468115577,0.35687157106790535
0.8499999046325684,0.49066555248706173,2.2305004733843625,0.35727085127421715
0.8505001068115234,0.49065989377798414,2.2311215154363504,0.3576656259131715
0.8510000705718994,0.4906542377660987,2.2317415910052985,0.3580559327961934
0.8515000343322754,0.4906485817542133,2.2323606968572207,0.3584418112941188
0.8519999980926514,0.4906429257423278,2.232978829790897,0.35882330233866766
0.8524999618530273,0.4906372697304424,2.2335959866383748,0.3592004484214664
0.8529999256134033,0.49063161371855696,2.23421216426546,0.3595732935883334
0.8534998893737793,0.4906295645891962,2.234827359572196,0.3599418834266307
0.8540000915527344,0.49062751448266356,2.235441569493323,0.3603062650450922
0.8545000553131104,0.4906254653533028,2.236054790998721,0.3606664870471051
0.8550000190734863,0.490623416223942,2.236667021093831,0.3610225994988681
0.8554999828338623,0.49062136709458126,2.23727825682005,0.3613746538935358
0.8559999465942383,0.4906193179652205,2.237888495255106,0.3617227031123859
0.8564999103546143,0.4906172688358597,2.238497733513404,0.362066801384562
0.8570001125335693,0.4906152187293271,2.239105968746351,0.3624070042470822
0.8575000762939453,0.4906131695999663,2.239713198142656,0.36274336850559363
0.8580000400543213,0.49061112047060557,2.2403194189286064,0.36307595219475586
0.8585000038146973,0.490616554365042,2.2409246283683206,0.36340481453697937
0.8589999675750732,0.4906219882594784,2.241528823763976,0.36373001589925785
0.8594999313354492,0.49062742215391486,2.2421320024560107,0.3640516177481134
0.8599998950958252,0.4906328560483513,2.242734161823301,0.36436968260133745
0.8605000972747803,0.4906382925340583,2.2433352992833075,0.36468427397293984
0.8610000610351562,0.4906437264284947,2.2439354122921897,0.36499545630561236
0.8615000247955322,0.4906491603229311,2.244534498344876,0.36530329488426516
0.8619999885559082,0.49065459421736757,2.2451325549750827,0.3656078557259615
0.8624999523162842,0.490660028111804,2.2457295797552734,0.36590920544585637
0.8629999160766602,0.4906654620062404,2.246325570296546,0.366207411104281
0.8635001182556152,0.490664915460865,2.2469205242484516,0.3665025400460126
0.8640000820159912,0.4906643691759974,2.2475144392987434,0.3667946597479276
0.8645000457763672,0.49066382289112975,2.248107313173073,0.3670838376915288
0.8650000095367432,0.49066327660626213,2.2486991436346457,0.36737014126881806
0.8654999732971191,0.4906627303213945,2.24928992848385,0.36765363771861276
0.8659999370574951,0.49066218403652684,2.24987966555787,0.36793439408467904
0.8664999008178711,0.4906616377516592,2.2504683527302904,0.3682124771884418
0.8670001029968262,0.4906610912062838,2.2510559879106933,0.3684879536125748
0.8675000667572021,0.4906605449214162,2.2516425690442565,0.3687608896949055
0.8680000305175781,0.4906599986365486,2.252228094111359,0.3690313515357516
0.8684999942779541,0.4906577241511756,2.2528125611271963,0.3692994050251625
0.8689999580383301,0.49065544966580255,2.253395968141424,0.3695651158950984
0.869499921798706,0.49065317518042956,2.2539783132378344,0.3698285497936353
0.869999885559082,0.4906509006950565,2.254559594534067,0.37008977236988844
0.8705000877380371,0.49064862512504576,2.2551398101813613,0.37034884935593543
0.8710000514984131,0.49064635063967277,2.2557189583643336,0.3706058466335999
0.8715000152587891,0.4906440761542997,2.2562970373007736,0.37086083027501815
0.871999979019165,0.49064180166892674,2.2568740452414437,0.37111386654854783
0.872499942779541,0.4906395271835537,2.257449980469866,0.3713650218890833
0.872999906539917,0.4906372526981807,2.2580248413020856,0.3716143628400412
0.8735001087188721,0.4906299840222184,2.2585986260864033,0.3718619559770575
0.874000072479248,0.49062271881083,2.259171333203073,0.37210786782179944
0.874500036239624,0.4906154535994416,2.2597429610639646,0.37235216475292077
0.875,0.4906081883880532,2.260313508112193,0.37259491292072927
0.875499963760376,0.4906009231766648,2.260882972821718,0.3728361781700975
0.875999927520752,0.4905936579652764,2.2614513536969203,0.37307602597237915
