Time_sec,MoCap_Angle_rad,Optimized_Angle_rad,Filtered_Net_A
0.0,0.38716974030910933,0.0,-0.0010064495969924904
0.005000114440917969,0.38724086448658585,0.0,-0.0029920809185471947
0.009000062942504883,0.38715033370178,0.0,-0.004580529167723395
0.01399993896484375,0.3871801198382084,0.0,-0.006731457291177941
0.019999980926513672,0.38722995776259894,0.0,-0.009225526228985866
0.02500009536743164,0.3872575914080738,0.0,-0.012388075499121461
0.029000043869018555,0.38733220190507756,0.0,-0.014008309589961264
0.03500008583068848,0.38716269714289886,0.0,-0.016438709013581368
0.039999961853027344,0.38721450696382415,0.0,-0.01933425217959472
0.04399991035461426,0.3870615689680501,0.0,-0.02183880746037567
0.04900002479553223,0.3871685940733144,0.0,-0.024969613525139222
0.05500006675720215,0.38721384013924515,0.0,-0.029266949651951854
0.059999942779541016,0.38725141551920816,0.0,-0.03267330087341119
0.06399989128112793,0.3872510940965557,0.0,-0.0353984143368809
0.0690000057220459,0.38737231778528775,0.0,-0.03980468540254046
0.07500004768371582,0.3875083664207823,0.0,-0.044750193749836124
0.07899999618530273,0.38745599581903445,0.0,-0.04884056817901817
0.0840001106262207,0.3874131383872006,0.0,-0.05280166405374485
0.08999991416931152,0.38752493943863786,0.0,-0.057554714677791045
0.09500002861022949,0.3874670915961467,0.0,-0.06207094333505819
0.0989999771118164,0.3873400337758144,0.0,-0.06594918249124522
0.10400009155273438,0.3872747423182965,0.0,-0.07079715480951156
0.1099998950958252,0.38711963973685926,0.0,-0.07671495743590435
0.11500000953674316,0.38718623989632234,0.0,-0.08168079181707114
0.11899995803833008,0.3870892744314227,0.0,-0.08610598138302139
0.125,0.38721047277737336,0.0,-0.09218618526698362
0.13000011444091797,0.3870443132284256,0.0,-0.09725310237158728
0.13400006294250488,0.38710721451537977,0.0,-0.10260894433735385
0.13899993896484375,0.3871064799435339,0.0,-0.10721695398462969
0.14499998092651367,0.38714715316972065,0.0,-0.1127467413473374
0.15000009536743164,0.3872659382457412,0.0,-0.1183902956408941
0.15400004386901855,0.38728405906009544,0.0,-0.12330936961928658
0.16000008583068848,0.38717938955629116,0.0,-0.13114825035237385
0.16499996185302734,0.3871018526369795,0.0,-0.13705823798851954
0.16899991035461426,0.38710664229080227,0.0,-0.14178628446086788
0.17400002479553223,0.3870883795852659,0.0,-0.15164280421192017
0.18000006675720215,0.38717440255663554,0.0,-0.156878141613739
0.18499994277954102,0.38721275215140777,0.0,-0.161240784093813
0.18899989128112793,0.3872070808018211,0.0,-0.16527023815636935
0.1940000057220459,0.3871834411987429,0.0,-0.17475796943898045
0.20000004768371582,0.3870749494041708,0.0,-0.1859162799895772
0.20399999618530273,0.3871015142500619,0.0,-0.19239382591412663
0.2090001106262207,0.38693019393868683,0.0,-0.20049104789240946
0.21499991416931152,0.3868793838200951,0.0,-0.21064893688092015
0.2200000286102295,0.3868434048019112,0.0,-0.21986606882284498
0.2239999771118164,0.3869633363983898,0.0,-0.2272395106781603
0.22900009155273438,0.3869996882237777,0.0,-0.2408107947717285
0.2349998950958252,0.3869505492693736,0.0,-0.24976390288959413
0.24000000953674316,0.38699109529073,0.0,-0.2572176236209658
0.24399995803833008,0.38708120774918386,0.0,-0.263867678151369
0.25,0.38698889411679277,0.0,-0.2738429581365945
0.25500011444091797,0.3869436630411784,0.0,-0.28313266380499835
0.2590000629425049,0.3869578505756075,0.0,-0.29037498397873257
0.26399993896484375,0.3869204251686107,0.0,-0.2994277762755305
0.26999998092651367,0.3871015467365703,0.0,-0.3095687318169355
0.27500009536743164,0.38706652014045845,0.0,-0.31649098336405096
0.27900004386901855,0.3871031120103819,0.0,-0.3220285865590708
0.2850000858306885,0.3870239228455883,0.0,-0.3295543076689842
0.28999996185302734,0.3871661512269043,0.0,-0.3357159165089533
0.29399991035461426,0.3870203642893041,0.0,-0.3411027153178654
0.2990000247955322,0.3869280199581958,0.0,-0.34588691639699026
0.30500006675720215,0.3869257427590928,0.0,-0.3516278664426348
0.309999942779541,0.3869254524054344,0.0,-0.3568522802808378
0.31399989128112793,0.3869499538548133,0.0,-0.36069063301707205
0.3190000057220459,0.3869354806373048,0.0,-0.3654887455273126
0.3250000476837158,0.3868040026796477,0.0,-0.3706177114050032
0.32899999618530273,0.3868374845758269,0.0,-0.37379405313924213
0.3340001106262207,0.3868902382456243,0.0,-0.3777646223024095
0.3399999141693115,0.3868069034058238,0.0,-0.3815696301350391
0.3450000286102295,0.3868268526702282,0.0,-0.3847535648977689
0.3489999771118164,0.3868589102213773,0.0,-0.3873006216169334
0.3540000915527344,0.3869093612498066,0.0,-0.3915484093611168
0.3599998950958252,0.386974383159941,0.0,-0.39551790592192426
0.36500000953674316,0.3869012000422673,0.0,-0.39803199267965517
0.3689999580383301,0.3867954346626537,0.0,-0.39956263696351396
0.375,0.386756286454119,0.0,-0.4018586490066438
0.38000011444091797,0.3867433673200249,0.0,-0.4050601060873827
0.3840000629425049,0.3868277344463471,0.0,-0.40611273948537885
0.38899993896484375,0.3868979532650275,0.0,-0.40744663154814986
0.39499998092651367,0.3868551583373091,0.0,-0.40829633087757244
0.40000009536743164,0.3868441870493868,0.0,-0.40900442490668515
0.40400004386901855,0.38678010027320103,0.0,-0.40962620406954475
0.4100000858306885,0.386656905349137,0.0,-0.4104207053003945
0.41499996185302734,0.38677905948704505,0.0,-0.4110827686124882
0.41899991035461426,0.38678829239138207,0.0,-0.41129830348158253
0.4240000247955322,0.3868989531360973,0.0,-0.4113977425167915
0.43000006675720215,0.38691609226351914,0.0,-0.41151706746243666
0.434999942779541,0.3870186229382996,0.0,-0.41163365388995954
0.43899989128112793,0.38704265997211096,0.0,-0.41173051532237664
0.4440000057220459,0.38690641056625646,0.0,-0.41184030397140764
0.4500000476837158,0.38674755541329575,0.0,-0.41191808073052993
0.45399999618530273,0.3867422714767551,0.0,-0.41196993087309514
0.4590001106262207,0.3867667686616126,0.0,-0.41201111246473043
0.4649999141693115,0.38669156110057207,0.0,-0.41203407938038555
0.4700000286102295,0.38677321196639347,0.0,-0.41205321954152685
0.4739999771118164,0.3866424307979901,0.0,-0.4120624952793957
0.4790000915527344,0.38671289636854395,0.0,-0.41207411113534115
0.4849998950958252,0.38684574362160723,0.0,-0.4121182149519156
0.49000000953674316,0.38690894239836426,0.0,-0.4122684680709182
0.4939999580383301,0.3869601500855505,0.0,-0.4123886662674425
0.5,0.38687654672032773,0.0,-0.4127332574936727
0.505000114440918,0.38683343054849506,0.0,-0.41307545685723157
0.5090000629425049,0.3868790331335541,0.0,-0.4133492065579004
0.5139999389648438,0.38686253289561257,0.0,-0.4139260722562424
0.5199999809265137,0.3866620572789057,0.0,-0.4153472440845363
0.5250000953674316,0.38681689373227596,0.0,-0.41664112022634725
0.5290000438690186,0.38687359560980045,0.0,-0.4179233453416835
0.5350000858306885,0.3867454918308174,0.0,-0.4198467212284662
0.5399999618530273,0.38682060789625716,0.0,-0.4225671214919308
0.5439999103546143,0.38691489156890174,0.0,-0.4243000352461089
0.5490000247955322,0.38697465766488764,0.0,-0.4264662549071104
0.5550000667572021,0.3868834398716794,0.0,-0.4294995793944906
0.559999942779541,0.3868755807070914,0.0,-0.4318640200983273
0.5639998912811279,0.38682111824697807,0.0,-0.4337555952110195
0.5690000057220459,0.38688908593340066,0.0,-0.43784344671965864
0.5750000476837158,0.38683799699182186,0.0,-0.4433900750330584
0.5789999961853027,0.38681186659899075,0.0,-0.44673493569846995
0.5840001106262207,0.38667988278579,0.0,-0.4503983133661192
0.5899999141693115,0.38677293374673805,0.0,-0.45479412201605207
0.5950000286102295,0.3866877739402661,0.0,-0.45971560752099677
0.5989999771118164,0.38669279765189835,0.0,-0.46452938962371537
0.6040000915527344,0.38664545050752264,0.0,-0.47054683244771334
0.6099998950958252,0.3865200882069584,0.0,-0.47692314153935494
0.6150000095367432,0.3864299690336787,0.0,-0.4822352894836034
0.6189999580383301,0.38634189986436485,0.0,-0.48621506635589656
0.625,0.3863800806139135,0.0,-0.49133467227566313
0.630000114440918,0.3863864110893249,0.0,-0.4956010783532815
0.6340000629425049,0.38641630315817427,0.0,-0.5014576664264824
0.6389999389648438,0.3863767296691591,0.0,-0.5046195740421775
0.6449999809265137,0.3865259013400094,0.0,-0.5087887540863726
0.6500000953674316,0.3864715778944436,0.0,-0.5125548519190454
0.6540000438690186,0.38642712761529946,0.0,-0.5155676224387264
0.6600000858306885,0.3865650765539066,0.0,-0.5199248219907203
0.6649999618530273,0.38648407478051383,0.0,-0.5224418852918609
0.6689999103546143,0.38656453290971254,0.0,-0.5244555599379548
0.6740000247955322,0.38657423166171095,0.0,-0.5266411330481828
0.6800000667572021,0.3865247739378368,0.0,-0.5288171652499448
0.684999942779541,0.38635776802575017,0.0,-0.5306304677733156
0.6889998912811279,0.38632161737369974,0.0,-0.5318137077339163
0.6940000057220459,0.38637200719131104,0.0,-0.5328752277795583
0.7000000476837158,0.38638432471292794,0.0,-0.5340360905195689
0.7039999961853027,0.3865422017262052,0.0,-0.5341748343044994
0.7090001106262207,0.3865726020391704,0.0,-0.5343482702380729
0.7149999141693115,0.3866351890021825,0.0,-0.5340496113807347
0.7200000286102295,0.3863963067862719,0.0,-0.5332619486364525
0.7239999771118164,0.38626138543702304,0.0,-0.5326318409757228
0.7290000915527344,0.38630918982449436,0.0,-0.5302226386507792
0.7349998950958252,0.38635090690135515,0.0,-0.5288624780918708
0.7400000095367432,0.3863960663905859,0.0,-0.5272819792463318
0.7439999580383301,0.38644516764399994,0.0,-0.5249482161083673
0.75,0.3865633442379109,0.0,-0.5214475018489637
0.755000114440918,0.38653001557550143,0.0,-0.5178723633799855
0.7590000629425049,0.38648355860930295,0.0,-0.5159103347389893
0.7639999389648438,0.38642143644594823,0.0,-0.5134578281746255
0.7699999809265137,0.38643931788474817,0.0,-0.5062880003047053
0.7750000953674316,0.3862909743958662,0.0,-0.5034376329439836
0.7790000438690186,0.3862876378320486,0.0,-0.5011574206032039
0.7850000858306885,0.38634056131182404,0.0,-0.49639122815825265
0.7899999618530273,0.3862694527360644,0.0,-0.4922214688124267
0.7939999103546143,0.38628053814373325,0.0,-0.48780525241539185
0.7990000247955322,0.38627075432332686,0.0,-0.48421397175637854
0.8050000667572021,0.38621075900526364,0.0,-0.47990450346223734
0.809999942779541,0.3862727340308303,0.0,-0.47004798912978496
0.8139998912811279,0.3862710617742733,0.0,-0.46979348455385944
0.8190000057220459,0.3860904075575778,0.0,-0.46947534245656486
0.8250000476837158,0.3861376035538669,0.0,-0.4675492263089575
0.8289999961853027,0.38621036894208494,0.0,-0.46522865683747183
0.8340001106262207,0.38613805714166144,0.0,-0.46232784125923987
0.8399999141693115,0.3859231501549715,0.0,-0.4597966293679856
0.8450000286102295,0.38583484796483675,0.0,-0.45808536773424713
0.8489999771118164,0.38584522680182215,0.0,-0.45715788601328533
0.8540000915527344,0.38580818869066313,0.0,-0.456819209448888
0.8599998950958252,0.38558868205256125,0.0,-0.4564128201801935
0.8650000095367432,0.38563422137752584,0.0,-0.457130143509167
0.8689999580383301,0.38557301725434967,0.0,-0.45802749668063475
0.875,0.3856153316589859,0.0,-0.4597938994891121
0.880000114440918,0.3857375884347005,0.0,-0.462271719859536
0.8840000629425049,0.3856738156432423,0.0,-0.46425390526648824
0.8889999389648438,0.38563186368070573,0.0,-0.4671173691895402
0.8949999809265137,0.38546839556620777,0.0,-0.4720249780553305
0.9000000953674316,0.3855339894845143,0.0,-0.47611471711331965
0.9040000438690186,0.38568032813990827,0.0,-0.47966174655486854
0.9100000858306885,0.3857286720208457,0.0,-0.48433179776743907
0.9149999618530273,0.38575144047967247,0.0,-0.48868036361847805
0.9189999103546143,0.3858159322711047,0.0,-0.49320416295595304
0.9240000247955322,0.38589964645844765,0.0,-0.49885911435998986
0.9300000667572021,0.38576854524412973,0.0,-0.506451414679896
0.934999942779541,0.3857282331649976,0.0,-0.5129226403690573
0.9389998912811279,0.38576219565780373,0.0,-0.518099682636334
0.9440000057220459,0.3857297883391087,0.0,-0.5270663280385388
0.9500000476837158,0.38576185921890377,0.0,-0.5349745267890818
0.9539999961853027,0.38571622736314487,0.0,-0.5402465545423146
0.9590001106262207,0.38572203313302317,0.0,-0.5470134192584681
0.9649999141693115,0.3858852760870411,0.0,-0.5552551235471426
0.9700000286102295,0.38603535617873624,0.0,-0.5610994419729455
0.9739999771118164,0.3861149494546221,0.0,-0.5628903000921621
0.9790000915527344,0.38622143966290495,0.0,-0.5651289527998101
0.9849998950958252,0.3862442417946219,0.0,-0.5726099953794135
0.9900000095367432,0.3864561325977685,0.0,-0.5758136174828533
0.9939999580383301,0.38633146147554126,0.0,-0.5783764235113394
1.0,0.3864062554125377,0.0,-0.5798065676686373
1.005000114440918,0.3864241777914899,0.0,-0.5799059263775724
1.0090000629425049,0.3863265903690131,0.0,-0.5799854105021103
1.0139999389648438,0.3864834024573958,0.0,-0.5801090861861989
1.0199999809265137,0.38655738030997794,0.0,-0.58016281640519
1.0250000953674316,0.3865140126796978,0.0,-0.5795117246241813
1.0290000438690186,0.38659721506757094,0.0,-0.5784227362479474
1.0350000858306885,0.3866414325183919,0.0,-0.576789221228796
1.0399999618530273,0.38659013955953664,0.0,-0.5740112624544321
1.0439999103546143,0.38653529675110115,0.0,-0.571503650459944
1.0490000247955322,0.3865581649119782,0.0,-0.5683690233663989
1.0550000667572021,0.3866181414793397,0.0,-0.5636480200153237
1.059999942779541,0.38655517916369564,0.0,-0.5596110212241754
1.063999891281128,0.386799611842962,0.0,-0.5541797515235888
1.069000005722046,0.38682903235938015,0.0,-0.5489273150810086
1.0750000476837158,0.3868485207822365,0.0,-0.542624491529894
1.0789999961853027,0.38693650329517837,0.0,-0.5372955631730968
1.0840001106262207,0.386996405931064,0.0,-0.5309043516968096
1.0899999141693115,0.38713812177694656,0.0,-0.5232353245748962
1.0950000286102295,0.38723860683760125,0.0,-0.5148983982187293
1.0989999771118164,0.38725150908735817,0.0,-0.5069340681414058
1.1040000915527344,0.3873039396559233,0.0,-0.4964858527854837
1.1099998950958252,0.3874910445804501,0.0,-0.4874863432105126
1.1150000095367432,0.3876762710576502,0.0,-0.4799863346745979
1.11899995803833,0.3877446103654456,0.0,-0.4739865424179204
1.125,0.38797779416571404,0.0,-0.4601914550926012
1.130000114440918,0.3880021431780161,0.0,-0.44756167331064306
1.1340000629425049,0.3882393248967336,0.0,-0.4404680017726873
1.1389999389648438,0.38844732716358954,0.0,-0.43234399585992056
1.1449999809265137,0.388732846258531,0.0,-0.4225948788506846
1.1500000953674316,0.38895353388705906,0.0,-0.4115002280858595
1.1540000438690186,0.38908870029114095,0.0,-0.40366914269864185
1.1600000858306885,0.38936223586750507,0.0,-0.3931572587639231
1.1649999618530273,0.3896451933449597,0.0,-0.38596372311151017
1.1689999103546143,0.3898966379198036,0.0,-0.38020882598497674
1.1740000247955322,0.3901568411824122,0.0,-0.3715142453832009
1.1800000667572021,0.39045360990304784,0.0,-0.36035617755111643
1.184999942779541,0.3909314070711572,0.0,-0.35112396463851486
1.188999891281128,0.3912928417500201,0.0,-0.3441009309651764
1.194000005722046,0.39162596609123307,0.0,-0.3353218249153907
1.2000000476837158,0.3920925507460041,0.0,-0.3254594452398352
1.2039999961853027,0.3925582530311895,0.0,-0.31987717448301245
1.2090001106262207,0.39294085452224004,0.0,-0.312899086486822
1.2149999141693115,0.3932995695776937,0.0,-0.3035102917154962
1.2200000286102295,0.3936337939777037,0.0,-0.2960234387141662
1.2239999771118164,0.3940267233199755,0.0,-0.29003417050878216
1.2290000915527344,0.39454345081898157,0.0,-0.28145885972938983
1.2349998950958252,0.39526754993969826,0.0,-0.26711264944174345
1.2400000095367432,0.39583653634666033,0.0,-0.2550584101961344
1.24399995803833,0.3961923864785051,0.0,-0.24824918733879237
1.25,0.39699764828746265,0.0,-0.23803515011951185
1.255000114440918,0.3975892629293664,0.0,-0.2295233171479331
1.2590000629425049,0.39819554132216056,0.0,-0.20231942889857318
1.2639999389648438,0.39872499962148933,0.0,-0.1731471372772953
1.2699999809265137,0.3995235676661252,0.0,-0.15921672878660237
1.2750000953674316,0.4001629073318879,0.0,-0.15653217457802698
1.2790000438690186,0.4009293424720817,0.0,-0.15438460801512074
1.2850000858306885,0.4019288360120828,0.0,-0.1403523818848419
1.2899999618530273,0.40273577734797955,0.0,-0.1285987814672149
1.2939999103546143,0.40342600803121864,0.0,-0.11752010256541502
1.2990000247955322,0.4043380477851894,0.0,-0.10404382811371994
1.3050000667572021,0.40535113949165885,0.0,-0.08787255580533933
1.309999942779541,0.40643901042830927,0.0,-0.07330246968741572
1.313999891281128,0.4070694429463398,0.0,-0.06258990940985723
1.319000005722046,0.40801482006022716,0.0,-0.049198730167981056
1.3250000476837158,0.409316631905081,0.0,-0.027451894920832783
1.3289999961853027,0.4103708805389399,0.0,-0.017193634005656523
1.3340001106262207,0.4115753619501074,5.622848060825652e-07,-0.0037477582224470104
1.3399999141693115,0.4130435088517236,5.2616860498779e-06,0.008430993887297837
1.3450000286102295,0.4142312811221552,9.178071620506781e-06,0.01858051859405599
1.3489999771118164,0.4151699046300388,3.809926988749254e-05,0.03120331672190938
1.3540000915527344,0.4163950568847026,5.305178459092897e-05,0.03963520308964706
1.3599998950958252,0.4181453932870906,7.09938040698522e-05,0.04975290385467275
1.3650000095367432,0.4199887263531213,0.000162425364020039,0.060607786571658356
1.36899995803833,0.4208862444978045,0.0001889607314276524,0.06701113031930993
1.375,0.422693868418335,0.00034813081100227287,0.07793690103434597
1.380000114440918,0.42442915655909447,0.0004002909823508635,0.08462220167358399
1.3840000629425049,0.4258580059045702,0.00044201762714941894,0.08997025092136657
1.3889999389648438,0.4278372565524753,0.0006804094006189304,0.09656252984482673
1.3949999809265137,0.4299112028877744,0.0007704289209054456,0.10416532806303457
1.4000000953674316,0.43174888372762515,0.0008454463801539872,0.11050109394685619
1.4040000438690186,0.4336243775914577,0.0011782700938825295,0.1156037437574132
1.4100000858306885,0.43625357375643714,0.0013449206592114418,0.12364783017243529
1.4149999618530273,0.442689676815833,0.0018304444103403384,0.12983984530868534
1.4189999103546143,0.4446550536493971,0.0019278000558379475,0.13265891353639178
1.4240000247955322,0.447031874035516,0.0020494989649024915,0.13618287484481756
1.4300000667572021,0.44997827002607876,0.0021955353346105938,0.14041156120223905
1.434999942779541,0.4525690449709488,0.002853854405552101,0.146019904786163
1.438999891281128,0.4547915988566609,0.003040910685744331,0.14905966168388576
1.444000005722046,0.45770553945413683,0.0037737287660336003,0.15223475176001988
1.4500000476837158,0.46146124467141303,0.003966733226052803,0.154784428920343
1.4539999961853027,0.46390166173257974,0.004095400309647421,0.15648417992243874
1.4590001106262207,0.4677151168608879,0.004256239916081607,0.15860894466082773
1.4649999141693115,0.4721999358151724,0.005350998653299304,0.16283788594959123
1.4700000286102295,0.4756485388876993,0.006453204671961424,0.16697073600466933
1.4739999771118164,0.479042706126913,0.006686963102789824,0.16832000651028492
1.4790000915527344,0.48323390672958194,0.006979171591276038,0.17000665496017286
1.4849998950958252,0.4883689550175639,0.008194177049291297,0.17295134737056214
1.4900000095367432,0.49220576954196754,0.008528960873341051,0.17460243232877629
1.49399995803833,0.49572239391292494,0.00879677835455804,0.1759232530585092
1.5,0.5008410449520236,0.010168545241822561,0.17794294335187674
1.505000114440918,0.5056963832116907,0.010536129160658995,0.17947494468870545
1.5090000629425049,0.5094847117511996,0.011135239965723194,0.180893325737693
1.5139999389648438,0.5141989002361458,0.012284844078941036,0.18281526886348975
1.5199999809265137,0.5205110660186677,0.012783028505218768,0.18456277377814106
1.5250000953674316,0.5255612022259368,0.014358694905658529,0.18641171767764647
1.5290000438690186,0.5296683420778122,0.01471866009913579,0.18793518736044626
1.5350000858306885,0.5360098956394626,0.015258618617288545,0.1902204372881651
1.5399999618530273,0.5416915115094887,0.01697855783507488,0.19251830531144132
1.5439999103546143,0.5464089692380534,0.01736498581536394,0.1940702143195304
1.5490000247955322,0.5518891089729216,0.017848038065624548,0.19601016995627377
1.5550000667572021,0.5588946137882919,0.01982636826671555,0.19867431926371568
1.559999942779541,0.5648435791971239,0.0203530545504964,0.20091723530791747
1.563999891281128,0.5693067531661864,0.022222548958382424,0.20292803366705842
1.569000005722046,0.5752769334246137,0.022759817315675356,0.205210911928315
1.5750000476837158,0.5822291582016599,0.023404529097080747,0.2079503223003722
1.5789999961853027,0.5874028048409762,0.02541890842053156,0.21016140786785442
1.5840001106262207,0.5932998802975461,0.026038752278138146,0.2128224938749377
1.5899999141693115,0.6010574758779892,0.028431760004018047,0.21622445807122775
1.5950000286102295,0.6069862534794839,0.028951771398118088,0.21827585943584543
1.5989999771118164,0.6122629351726182,0.02936776563609331,0.21991692183781902
1.6040000915527344,0.6181957762742327,0.029887777030193352,0.2219683232024367
1.6099998950958252,0.6258173520315045,0.032526750595198495,0.22637347247922243
1.6150000095367432,0.6320918353003131,0.03341414307493268,0.23002608982053982
1.61899995803833,0.6372400641320364,0.03590385675574689,0.23311223797159095
1.625,0.6446425781163739,0.03676123008565754,0.23722513415050528
1.630000114440918,0.6511036554279971,0.037475719216822065,0.24065260210982306
1.6340000629425049,0.6563205909034666,0.04005470798747399,0.24379824041455309
1.6389999389648438,0.6628863948927501,0.0408204077244008,0.24734187960739684
1.6449999809265137,0.6728528622060166,0.04382660510411757,0.25220189718916
1.6500000953674316,0.6805874390155655,0.044613866760097695,0.2566114974470407
1.6540000438690186,0.6857987849346401,0.045243653561660664,0.26013905149655747
1.6600000858306885,0.6931737235783546,0.04841072965858144,0.2660716272412859
1.6649999618530273,0.6994585461682948,0.0492501552642161,0.2709246627327334
1.6689999103546143,0.7046575222401061,0.04992170375430873,0.27480713740919205
1.6740000247955322,0.7113423017339724,0.05313643380224319,0.2800667914696222
1.6800000667572021,0.7195280827180667,0.05424509978116073,0.2867279620422029
1.684999942779541,0.7260891017404767,0.05760946908462184,0.2927646739069401
1.688999891281128,0.7316189129577535,0.05834952605678516,0.29718023990067194
1.694000005722046,0.7384969613800122,0.05927463035553995,0.30269989478656
1.7000000476837158,0.7470053923849118,0.06299028280645602,0.309856687427553
1.7039999961853027,0.7524788799313906,0.06378822496280863,0.3143303341202791
1.7090001106262207,0.7598424474503173,0.06478568832950272,0.319922592476353
1.7149999141693115,0.7684940934858232,0.06870487067802392,0.32688911467913473
1.7200000286102295,0.7764569623571941,0.06972528483112385,0.33222527508899863
1.7239999771118164,0.7820719318292805,0.07054158695998888,0.3364940507516101
1.7290000915527344,0.7890324865529731,0.07447805522255783,0.34205548976705635
1.7349998950958252,0.7976597481330374,0.07580563702888385,0.34818157642916414
1.7400000095367432,0.8055306632655583,0.07992814551459214,0.3530743340218264
1.74399995803833,0.8117321679311412,0.08084294053258022,0.35677377848776465
1.75,0.820923007756095,0.08221516032292939,0.36232305544012816
1.755000114440918,0.8285483929817918,0.0865243572195918,0.36685108745489253
1.7590000629425049,0.8345526685173802,0.0874784540037831,0.37001779024110176
1.7639999389648438,0.8423815489154043,0.08867106076668921,0.37397612153570714
1.7699999809265137,0.8516550763953098,0.0934628311057604,0.3785586918670148
1.7750000953674316,0.8594183523451775,0.09473442443615436,0.3819898717779335
1.7790000438690186,0.865716533138553,0.09917752766527274,0.38632025785817276
1.7850000858306885,0.8752405129777162,0.10073860700671067,0.38948822722923576
1.7899999618530273,0.8832337421172036,0.10203946510371832,0.39212811778318013
1.7939999103546143,0.8899676812675551,0.10668406147154301,0.39461737673387376
1.7990000247955322,0.89845272217923,0.10805766497401087,0.3975898492341089
1.8050000667572021,0.9080870637509726,0.1097059629781643,0.4011567595402751
1.809999942779541,0.9165531624295303,0.11487140103068087,0.40416455390686223
1.813999891281128,0.9235188499335846,0.11601856466246313,0.40659156231089855
1.819000005722046,0.9325798184633758,0.11745257048506179,0.40962543131307105
1.8250000476837158,0.9437051372285122,0.12309454665212843,0.4130132915811809
1.8289999961853027,0.9505678402017459,0.1242661625146854,0.4152791203698141
1.8340001106262207,0.959639017854169,0.12973763640078406,0.41990684967871944
1.8399999141693115,0.9706511023852021,0.13157262385534063,0.4226848012159454
1.8450000286102295,0.9797085358809926,0.13310186513874855,0.42499988961803975
1.8489999771118164,0.9873537141650761,0.13851245300426576,0.4270848781758947
1.8540000915527344,0.9967574788629547,0.14009992169488705,0.42942277960844405
1.8599998950958252,1.008263523722904,0.14631687270979357,0.43218479723607006
1.8650000095367432,1.018443525159407,0.14797098108539086,0.4338525036226284
1.86899995803833,1.0262716770151636,0.1492942204625316,0.43518662101950467
1.875,1.0378936550168367,0.15569217555282833,0.43756289663630565
1.880000114440918,1.0475204438082313,0.15734570124777572,0.4386579956371159
1.8840000629425049,1.055857009565555,0.15866847449706678,0.43953404350744746
1.8889999389648438,1.066513709400609,0.16492674486317713,0.4405032291759689
1.8949999809265137,1.0795786969253116,0.1670010859286263,0.44148497105986273
1.9000000953674316,1.0904421795095867,0.16872973095861118,0.4423031022999892
1.9040000438690186,1.099058115280588,0.1748326286451798,0.4424940212979871
1.9100000858306885,1.1120485240157763,0.17696224097320226,0.44265987372530285
1.9149999618530273,1.1228924156265179,0.1835437137696812,0.44261971419292867
1.9189999103546143,1.1314909377450117,0.18501250150233292,0.44221390241429404
1.9240000247955322,1.1423104023976054,0.18684855182892124,0.4417066195495671
1.9300000667572021,1.1557500863701322,0.19375894596230867,0.4406234341973791
1.934999942779541,1.1666283171317573,0.19527252458447722,0.439596891294073
1.938999891281128,1.1731467710691037,0.19648340191718058,0.4387756471813093
1.944000005722046,1.1821614341323685,0.2030540585602799,0.43748673102588115
1.9500000476837158,1.1943904820372409,0.20593799891264142,0.43437280316127425
1.9539999961853027,1.2033992727170448,0.20786058761531842,0.43229689249670655
1.9590001106262207,1.2147974906214338,0.21449708658167604,0.4293674305003756
1.9649999141693115,1.2285308428425126,0.21633219855743485,0.42669820910857836
1.9700000286102295,1.2389035744119528,0.21786154361428417,0.42447373420181217
1.9739999771118164,1.247636302810763,0.22480411733743727,0.421397500237272
1.9790000915527344,1.2582838639452383,0.22740910439154116,0.4172270587427236
1.9849998950958252,1.2714084334847375,0.23527066845875252,0.41288381341497865
1.9900000095367432,1.2832956466008623,0.23724682823749543,0.4099891664651322
1.99399995803833,1.2919403041956907,0.23882769952339902,0.4076735317198732
2.0,1.305359253783718,0.24640611869786355,0.40196579809942107
2.005000114440918,1.3166988878163972,0.2483807991992147,0.39856583733912443
2.009000062942505,1.3255199505433604,0.2552505403102721,0.3954249481363086
2.0139999389648438,1.336832793376243,0.2572295616823325,0.391476050219864
2.0199999809265137,1.3497972054751999,0.25960446282435107,0.3867372220778944
2.0250000953674316,1.361670522615131,0.2669026407615806,0.3822322811998277
2.0290000438690186,1.3705746988763918,0.2684946643276203,0.37884752251688797
2.0350000858306885,1.3843160892908777,0.27088274712329025,0.3737702836175102
2.0399999618530273,1.3957117175293647,0.2781949528650786,0.3685612671317799
2.0439999103546143,1.4047931258004263,0.2797821728023188,0.36432399060817894
2.0490000247955322,1.4164268232527613,0.2870368127638152,0.35734971758099066
2.055000066757202,1.430060141993804,0.28897993365867786,0.35421387251319875
2.059999942779541,1.4413110471579678,0.2905991495962986,0.35160075136098284
2.063999891281128,1.448459801999065,0.2918945377888247,0.34951022951792693
2.069000005722046,1.458116718772075,0.2994624826453173,0.3433579226518143
2.075000047683716,1.4715911144502962,0.30246147535963686,0.3344587284171826
2.0789999961853027,1.4811213634189135,0.30934398644573086,0.3299038578240625
2.0840001106262207,1.4933155792813886,0.31123893079393283,0.3246608064347727
2.0899999141693115,1.5085983417126956,0.3186903707309431,0.315067957310526
2.0950000286102295,1.5216575524332911,0.3206835763218765,0.3123979728365567
2.0989999771118164,1.5319856406484849,0.32227808376985906,0.3102620616445015
2.1040000915527344,1.5445847356068658,0.32938618704864886,0.3067119245235074
2.109999895095825,1.5580753188287968,0.3317470729787017,0.3011406500307965
2.115000009536743,1.5676657752002967,0.33371458737270404,0.2964976629987626
2.11899995803833,1.573431950734478,0.34024805345799913,0.29240537258107496
2.125,1.5853293287108832,0.3424341866996281,0.28688600775615763
2.130000114440918,1.5961494842068753,0.3492300552140159,0.2819088660989284
2.134000062942505,1.6049851677412346,0.35071729099494414,0.27866411034785815
2.1389999389648438,1.6161530912671271,0.3525763135592791,0.2746082140102713
2.1449999809265137,1.629979558781433,0.3596328016792417,0.26944168601358165
2.1500000953674316,1.6417354882204818,0.36140139545651306,0.2654493806419911
2.1540000438690186,1.6511761882024627,0.36281621987961443,0.2622556505628773
2.1600000858306885,1.664154840302004,0.369715887671234,0.2581930479273052
2.1649999618530273,1.6738979332828627,0.3715167274358438,0.25584470942570253
2.1689999103546143,1.6816086905104102,0.3729574164221038,0.2539660162283639
2.1740000247955322,1.6914912088292728,0.37897807480517964,0.25173859348745353
2.180000066757202,1.7039700651774856,0.3804860487096402,0.24948748250362704
2.184999942779541,1.7151104168796334,0.3817426536826372,0.24761161631743037
2.188999891281128,1.7237939657925594,0.3873678076555788,0.24569180765899085
2.194000005722046,1.735024462925169,0.3899246340999225,0.24316269068548935
2.200000047683716,1.7485619771567051,0.3969135112822735,0.2408215376754945
2.2039999961853027,1.758225649341384,0.3982231596766266,0.24004877187465415
2.2090001106262207,1.7697829336601498,0.3998602787161672,0.2390827800778357
2.2149999141693115,1.7834008148122904,0.4060300049471442,0.23822106343870952
2.2200000286102295,1.7932543702995798,0.40759202082188795,0.237781903874132
2.2239999771118164,1.8012807040733847,0.40884158883307314,0.23743058878663836
2.2290000915527344,1.8113034482236703,0.41454486328664214,0.23737549684721934
2.234999895095825,1.8240474453369493,0.41642195203222787,0.23744007866103262
2.240000009536743,1.8352203050597204,0.42199425047816996,0.23776161091336984
2.24399995803833,1.8446770087970066,0.4232190537192315,0.23822938896142062
2.25,1.858051043219896,0.4250562950832748,0.2389310699745485
2.255000114440918,1.8685747043008416,0.4311457857611153,0.24001944156660743
2.259000062942505,1.873883345075321,0.43256955124156493,0.24095357468246192
2.2639999389648438,1.8846466380510687,0.43434923687609495,0.24212122715743273
2.2699999809265137,1.8981151337206512,0.4420795623778711,0.24405743408142716
2.2750000953674316,1.908076567898827,0.4442253806461377,0.24550086966462265
2.2790000438690186,1.9159400441781536,0.45221513257296053,0.2469271658091537
2.2850000858306885,1.9277854993249997,0.4552949508821302,0.2497548751762086
2.2899999618530273,1.9368020990972687,0.4578613845530194,0.2521112247405616
2.2939999103546143,1.9447448214604077,0.46722272675503496,0.2537884264878869
2.2990000247955322,1.9539860586374922,0.4700067979245494,0.255743282408705
2.305000066757202,1.9642546361606503,0.4733476302272388,0.2580890722286224
2.309999942779541,1.972494354155399,0.48458582078570267,0.26133972860978283
2.313999891281128,1.9807269835803303,0.48713060960309995,0.26381861202617374
2.319000005722046,1.9900527502652081,0.49482952558404303,0.26959028470303714
2.325000047683716,2.000841697972335,0.5033661296262422,0.2728906288866483
2.3289999961853027,2.0077014728384945,0.5062300185925238,0.27335911147430303
2.3340001106262207,2.0163341082108177,0.5195861002241997,0.274968786254592
2.3399999141693115,2.0262333066447367,0.5238692038087213,0.2782905188914118
2.3450000286102295,2.034502651429489,0.5274386553634435,0.2810587834198992
2.3489999771118164,2.041137259510094,0.5411262172858496,0.283891267541542
2.3540000915527344,2.0491720406354084,0.5452527520593811,0.2873882119396734
2.359999895095825,2.0587902429489953,0.5502043183180078,0.29158431177655014
2.365000009536743,2.066564921910091,0.5662410065799612,0.29641701851131486
2.36899995803833,2.0727275035193204,0.5700014432694779,0.300054665722332
2.375,2.0819840343780376,0.5876592286304876,0.3061112708398289
2.380000114440918,2.089953105668586,0.5923115948067534,0.31126801878904986
2.384000062942505,2.095762915093703,0.5960333546455487,0.3153932696160611
2.3889999389648438,2.103324507976859,0.6134960766365344,0.32722526118245443
2.3949999809265137,2.1123976090546615,0.6191727721041155,0.3320981753598896
2.4000000953674316,2.1196836226272087,0.6239034268504442,0.33615900171803836
2.4040000438690186,2.1256719731647227,0.641883058073792,0.3445289621963591
2.4100000858306885,2.134769043060178,0.648654403201009,0.35729383631458184
2.4149999618530273,2.1416988467347102,0.66858307407,0.3674064620454822
2.4189999103546143,2.147503290218836,0.6730193950494444,0.3749861278971454
2.4240000247955322,2.154379995795806,0.6785649945953053,0.3844610490535549
2.430000066757202,2.1628296143525625,0.7002116645087347,0.39941711030571375
2.434999942779541,2.1694524212192996,0.7059517090762424,0.4098698140579197
2.438999891281128,2.1752298764020845,0.7105437994729367,0.4182320767469073
2.444000005722046,2.182160404220591,0.7321306422383907,0.4291525947239338
2.450000047683716,2.1906707438304296,0.7393033172424548,0.44271467252509816
2.4539999961853027,2.196502416432428,0.7604637413327401,0.4526618403710387
2.4590001106262207,2.2030747420194303,0.7667265568360874,0.46323506565902234
2.4649999141693115,2.2114349238242292,0.7742415173616327,0.47592223018181984
2.4700000286102295,2.2178381556661635,0.797604334394566,0.4870220883469383
2.4739999771118164,2.2229259162846007,0.8027333991178057,0.494958002247222
2.4790000915527344,2.229368174104037,0.8091449593118679,0.5048782493901408
2.484999895095825,2.2368472038348206,0.8348185378395933,0.5175150099559571
2.490000009536743,2.243360116501222,0.8415465162832634,0.5284207904526058
2.49399995803833,2.2485239929339054,0.8469287065535976,0.5371451028401835
2.5,2.256164705911696,0.8736020829557954,0.5492700226872372
2.505000114440918,2.2634044954122365,0.8806867508806139,0.5562311253316626
2.509000062942505,2.2690757227797556,0.9051456809914006,0.5629610682884594
2.5139999389648438,2.274757337018342,0.9115876831221082,0.5712812286518626
2.5199999809265137,2.281166206186244,0.9193183314279301,0.5812657384847464
2.5250000953674316,2.286432382279403,0.9461390054248355,0.5905754932631889
2.5290000438690186,2.290855387466134,0.9528032133975125,0.5976499396687615
2.5350000858306885,2.297353132582319,0.9828572846778604,0.60983214045395
2.5399999618530273,2.303137452613394,0.9906606721018041,0.6187707001295434
2.5439999103546143,2.3079013101844423,0.996903456461706,0.6259216331168798
2.5490000247955322,2.3140004452599086,1.0251873683496717,0.6480051024033684
2.555000066757202,2.3209089072100926,1.034561454186539,0.6513048224623258
2.559999942779541,2.327013028229814,1.0423729440571958,0.6540545017660053
2.563999891281128,2.3310721533102243,1.0697701483265218,0.659307274931221
2.569000005722046,2.336481437678148,1.0776636917739506,0.667437992169533
2.575000047683716,2.3424904231632366,1.0871357933569177,0.677194697777933
2.5789999961853027,2.346590725807845,1.1147357685265364,0.6829258261107213
2.5840001106262207,2.3516647720529282,1.122895979873177,0.6891350007
2.5899999141693115,2.3578153958627164,1.1536242796742422,0.6969641441666761
2.5950000286102295,2.3626717781215736,1.1613094671514481,0.7026128651843454
2.5989999771118164,2.3664962330432235,1.1674573972632678,0.7071316803909751
2.6040000915527344,2.371638189350805,1.1961614804903196,0.7151186531991616
2.609999895095825,2.3774525556924893,1.2057681145339705,0.7195569958414844
2.615000009536743,2.3819759262079536,1.2137740882738255,0.7232558204746968
2.61899995803833,2.3857045176768388,1.2411980381866374,0.7257491047695226
2.625,2.3903990135875777,1.2504991161713608,0.7293518850921488
2.630000114440918,2.393278210788199,1.2793397507400028,0.7330487246023543
2.634000062942505,2.395496366294808,1.285818166625784,0.733668863916949
2.6389999389648438,2.3993832748894612,1.293916089945848,0.7344440288192775
2.6449999809265137,2.4033202253789807,1.3245376114393705,0.7348425094428235
2.6500000953674316,2.4055127814777144,1.3323920200247938,0.7342028683922387
2.6540000438690186,2.4074021893669078,1.3386753221818437,0.7336911738516293
2.6600000858306885,2.4101156068705643,1.369343886723509,0.7312587274269274
2.6649999618530273,2.4125527708503527,1.3772802558236559,0.7283110523557682
2.6689999103546143,2.4143552542580893,1.383629426792764,0.7259528841869236
2.6740000247955322,2.4171378588465915,1.4126536428909884,0.7222697084025269
2.680000066757202,2.419926424407212,1.4220425054492007,0.717661508291192
2.684999942779541,2.4219519905820928,1.4510659923537488,0.712658401068106
2.688999891281128,2.423062849721407,1.4574510214825211,0.7079294419620196
2.694000005722046,2.4239950484082278,1.4654325933302061,0.7020180316757441
2.700000047683716,2.4245656071642547,1.4961072511522466,0.6924888474433504
2.7039999961853027,2.424788588692965,1.5024810810818596,0.6855140467745112
2.7090001106262207,2.424837694106802,1.5104486534299462,0.6767952341365607
2.7149999141693115,2.4248835578496566,1.5409538587788998,0.6658489887595186
2.7200000286102295,2.42489975976435,1.5487641708916868,0.6583070947315137
2.7239999771118164,2.4247904196511425,1.5761195708042854,0.6513207469493927
2.7290000915527344,2.424683658794538,1.5840005375719424,0.6406992318164707
2.734999895095825,2.424608349557036,1.5934571715938803,0.6279541227033684
2.740000009536743,2.424188091395209,1.6224382447254904,0.6164736528950286
2.74399995803833,2.4234982265271383,1.6287499438492035,0.6080177868286476
2.75,2.4223524186514918,1.6382176806404873,0.5953337357213848
2.755000114440918,2.4213836111192935,1.6673491240098095,0.5831990018207508
2.759000062942505,2.4204254377842322,1.673855353907085,0.5751742886231598
2.7639999389648438,2.418981146755602,1.6819880443270507,0.5651435167052553
2.7699999809265137,2.4169406266957787,1.712485966590063,0.5509105167983402
2.7750000953674316,2.4151132773973005,1.720331516091396,0.5398354000094183
2.7790000438690186,2.4133504589941133,1.7476996045094328,0.5293258902611584
2.7850000858306885,2.4107061598007222,1.7569687277911965,0.5130476798696899
2.7899999618530273,2.407929576096892,1.764692751646472,0.4994829357657605
2.7939999103546143,2.4057142735701618,1.7919335726111474,0.47898653057846524
2.7990000247955322,2.4025934202439294,1.8000055974489466,0.47614749045556615
2.805000066757202,2.398780632029183,1.830821392792043,0.47151816164151666
2.809999942779541,2.394833502518042,1.8386316065408541,0.46171479340147836
2.813999891281128,2.39081533823317,1.8448798520257526,0.45387200531492444
2.819000005722046,2.3866274466448605,1.8737637002233838,0.4414143864074644
2.825000047683716,2.382519805610901,1.8834007453918564,0.43097480957099155
2.8289999961853027,2.3807793391864407,1.8898253145244743,0.4240152299562135
2.8340001106262207,2.3775871509499353,1.9189293411104404,0.4133938812210841
2.8399999141693115,2.3728995108032738,1.9285154717481996,0.40241010540529926
2.8450000286102295,2.3674324624534835,1.936504358365926,0.39325644967676204
2.8489999771118164,2.362397769842865,1.9638542433055741,0.3861312985128756
2.8540000915527344,2.3562761310123475,1.9716626030847808,0.3782740327228325
2.859999895095825,2.3492901365774888,2.001918206167895,0.36811163406731545
2.865000009536743,2.343849710944781,2.0095838688666157,0.3601267400555715
2.86899995803833,2.339003228733655,2.015716179714243,0.35373905329059785
2.875,2.3324027334647592,2.0453424078402747,0.3447604554463056
2.880000114440918,2.3266641484984594,2.052955593467142,0.3378022890573528
2.884000062942505,2.3217555451576013,2.0590459241586334,0.33223595501637143
2.8889999389648438,2.3158402211577123,2.0851959638761453,0.3244179149581883
2.8949999809265137,2.308444982385544,2.0931884467145396,0.3157375356509554
2.9000000953674316,2.3022596458844213,2.117088656407217,0.3085398487041403
2.9040000438690186,2.297499944060504,2.1219323292767385,0.3026245401980818
2.9100000858306885,2.2901250297803246,2.1291979829355796,0.29375140114679327
2.9149999618530273,2.283546488672895,2.1499803825886623,0.28650833945443754
2.9189999103546143,2.2840095903017077,2.154174148497976,0.28191202136423776
2.9240000247955322,2.2791649846712483,2.1594165433629775,0.2761664182774124
2.930000066757202,2.27184468988654,2.1780749540470667,0.2694381810498254
2.934999942779541,2.2660885592140634,2.182602219040688,0.26464525193428645
2.938999891281128,2.2613252381278577,2.1862240742120185,0.2608108629317879
2.944000005722046,2.255101681225728,2.2009207125381214,0.2551229771692785
2.950000047683716,2.2470305142166516,2.2053868233789755,0.2487799520211827
2.9539999961853027,2.241950683735782,2.217489910542556,0.24327154794827355
2.9590001106262207,2.2351717605866557,2.22065803831813,0.23896205980168117
2.9649999141693115,2.2269165622940394,2.224459580158313,0.2337909617085571
2.9700000286102295,2.2205183194119256,2.235088583350461,0.22928721440757657
2.9739999771118164,2.2155721890991513,2.2371568078603805,0.22612513153971983
2.9790000915527344,2.2091358691188434,2.239742180955811,0.2221723865969594
2.984999895095825,2.200871733129891,2.2494337754987197,0.2168701617846145
2.990000009536743,2.1942556826343522,2.251903609335385,0.21269065811154164
2.99399995803833,2.1874030226426977,2.2595754836981006,0.20945422827341448
3.0,2.178769112509532,2.261780815279274,0.20521323426507182
3.005000114440918,2.171974639861811,2.2636186208073825,0.20167901641785882
3.009000062942505,2.16626854053312,2.270077315733242,0.19856532639019717
3.0139999389648438,2.159146503408834,2.271879790278257,0.19516640589836587
3.0199999809265137,2.150593304120754,2.274042828492927,0.19108757164642623
3.0250000953674316,2.1434354027674094,2.2799618294482897,0.18724532285847253
3.0290000438690186,2.137570426944861,2.2811374818663106,0.18505862225512393
3.0350000858306885,2.1290655046981426,2.2829009955309654,0.1817785061805056
3.0399999618530273,2.1214821311457817,2.2882148334002403,0.1781037012950182
3.0439999103546143,2.114926969388294,2.2893903355071843,0.17533591970092458
3.0490000247955322,2.1072183057213887,2.294204089544626,0.17014533953459846
3.055000066757202,2.09811333874426,2.2956829391364737,0.16756157306353653
3.059999942779541,2.0906460323348894,2.2969152746204857,0.16540850278360963
3.063999891281128,2.0848052563885244,2.300819842199348,0.1621805741069878
3.069000005722046,2.0766618158804198,2.3019028248834332,0.15976396961384293
3.075000047683716,2.067200584503469,2.3059479260135975,0.1568485922847495
3.0789999961853027,2.061212089784307,2.306740502360792,0.15445349002570113
3.0840001106262207,2.0535417962436813,2.3077312582261653,0.15145950513109768
3.0899999141693115,2.0447135876358584,2.3113397864775016,0.14629438592637406
3.0950000286102295,2.037016539660215,2.3122158928275316,0.14433950595744716
3.0989999771118164,2.030996362734364,2.3129167528425256,0.14277565791059008
3.1040000915527344,2.023532055789937,2.3159793906950705,0.13949659425697353
3.109999895095825,2.0139238517159774,2.316890945262201,0.1366063331906368
3.115000009536743,2.0060697327008445,2.317650616328438,0.13419764830753672
3.11899995803833,2.0000656830887538,2.3203373091714634,0.1312995715860093
3.125,1.9899082012276288,2.321298160818673,0.12694219490425843
3.130000114440918,1.981593025049316,2.323909473401808,0.12275869703380916
3.134000062942505,1.9749512980936639,2.3243770948334137,0.12134504177136292
3.1389999389648438,1.9667595784620358,2.324961614654729,0.11957799375868125
3.1449999809265137,1.9570077058358661,2.327419935564924,0.11700183624880237
3.1500000953674316,1.9480132142639563,2.3281467477003734,0.11393713509959062
3.1540000438690186,1.9415297232099107,2.328728176614947,0.1114854618600176
3.1600000858306885,1.9311534289995784,2.331035954316332,0.10831023297844335
3.1649999618530273,1.922753731329294,2.3315645749744323,0.1061069921078265
3.1689999103546143,1.9152320173177029,2.331987476542357,0.1043443783990697
3.1740000247955322,1.9061277861457757,2.334061268566751,0.10188605976793653
3.180000066757202,1.896929745282102,2.334787911744191,0.09878704013923459
3.184999942779541,1.8885132796250628,2.3366593359828896,0.09669550314976169
3.188999891281128,1.8815853919331227,2.336959250176215,0.09536192185417146
3.194000005722046,1.872749171632242,2.337334156325254,0.09369488561818658
3.200000047683716,1.8617585114222603,2.3377840365534963,0.09169447393046984
3.2039999961853027,1.8532179266037283,2.339550012237186,0.08950444952468108
3.2090001106262207,1.8429110518896519,2.3401745261797973,0.08765966652081174
3.2149999141693115,1.8314982426034252,2.34199257695687,0.08575585740549817
3.2200000286102295,1.8228594680820376,2.3424625088833495,0.08424288501367685
3.2239999771118164,1.8159122459768688,2.3439542085880594,0.08317736231807782
3.2290000915527344,1.8069848211936015,2.344338440624997,0.08234152823278802
3.234999895095825,1.798942658390353,2.3447994934196537,0.08133858312710816
3.240000009536743,1.7901410033239353,2.346256475040306,0.0808031468914979
3.24399995803833,1.781323389617973,2.3465796503464054,0.0805793660208214
3.25,1.7681270014170332,2.347064422937052,0.08024368804553111
3.255000114440918,1.7570580305739203,2.3484264895411533,0.08049063318210326
3.259000062942505,1.7482707364805254,2.3487152734921133,0.08070956003599973
3.2639999389648438,1.738013765545936,2.3500173114693608,0.0811386506383618
3.2699999809265137,1.7255533527104503,2.350429781069704,0.08185801155946777
3.2750000953674316,1.715494254794734,2.3507735111999755,0.08245748852193437
3.2790000438690186,1.7073274689234998,2.3519382452277546,0.0830669966844099
3.2850000858306885,1.6953774913566355,2.3523328899907296,0.08428911319085672
3.2899999618530273,1.6854579376165544,2.3526617501720994,0.08530751123809092
3.2939999103546143,1.6770502713801594,2.35375955251607,0.08647165184786659
3.2990000247955322,1.6667818297271337,2.354071338305651,0.0878779990712229
3.305000066757202,1.6547565398224082,2.3552429071862964,0.08960091515101418
3.309999942779541,1.644391063784005,2.3555319095554283,0.09059474179550607
3.313999891281128,1.6359281749703438,2.3557631142069435,0.09138981258920408
3.319000005722046,1.6249131978241802,2.356807893922948,0.09278586757621728
3.325000047683716,1.6115804915812606,2.357140404899322,0.0946203965423651
3.3289999961853027,1.6030168489388759,2.3573620744793358,0.09584339155408973
3.3340001106262207,1.592105939691944,2.358360211955834,0.09768885036310879
3.3399999141693115,1.5786429493866565,2.358680870592592,0.09988848160027373
3.3450000286102295,1.5679331960395861,2.3596401430545466,0.10190519061059869
3.3489999771118164,1.559057721589596,2.359846732344463,0.10351484757476383
3.3540000915527344,1.5521886924110715,2.360104978192238,0.10552699073817036
3.359999895095825,1.5408287531978273,2.3610652337226052,0.10814547254949501
3.365000009536743,1.5301655954272797,2.3613000748098814,0.11023521252826986
3.36899995803833,1.5211415149195946,2.3614879409609983,0.11190694472471777
3.375,1.5079429731930056,2.3623979005387086,0.11491187362893723
3.380000114440918,1.4975494414136539,2.3626289294703584,0.11656094153279262
3.384000062942505,1.4889339961379282,2.3628137460060388,0.1178801486767456
3.3889999389648438,1.4777448086007865,2.3636414603959883,0.11976630709621344
3.3949999809265137,1.4639912984954087,2.3639097636308337,0.12159349206924085
3.4000000953674316,1.4526565862010945,2.3647040652308164,0.1230207917784038
3.4040000438690186,1.4435665568666283,2.3648493635297405,0.12394703622481647
3.4100000858306885,1.4328015619364223,2.3650673153084085,0.12533643049902646
3.4149999618530273,1.4226166633734108,2.3658120385035635,0.12648019611551384
3.4189999103546143,1.414082323269838,2.3660064295258048,0.1273431178349973
3.4240000247955322,1.4039582632475882,2.366249426993674,0.12842180856045518
3.430000066757202,1.392057229717248,2.3670340537108925,0.12922448739991338
3.434999942779541,1.3819293331257003,2.3672296886276745,0.12965205391599774
3.438999891281128,1.3738324512281617,2.3673861984268663,0.1299941112065584
3.444000005722046,1.3639233449225232,2.3680862081490144,0.1300762163562692
3.450000047683716,1.3509241946274475,2.3683109110126743,0.13012587175621945
3.4539999961853027,1.3418129262378677,2.368952682775403,0.13008871864413832
3.4590001106262207,1.330921008873866,2.3691350629273606,0.1298625502841968
3.4649999141693115,1.3181461841907476,2.3693539069348,0.1295911633502883
3.4700000286102295,1.3073202454838946,2.3700053354429835,0.12919721019059086
3.4739999771118164,1.2984393677955173,2.370143905955652,0.1288360402756208
3.4790000915527344,1.2877150020725352,2.3703171252911526,0.128384561736147
3.484999895095825,1.2755228843999213,2.370979141701403,0.1277002524904172
3.490000009536743,1.2643829237312443,2.371149414658127,0.1271546219934663
3.49399995803833,1.2561420185629015,2.371724828810438,0.1266381145661043
3.5,1.2449160867313764,2.371916003249644,0.12581054765041289
3.505000114440918,1.2343008144334013,2.372075317814494,0.1251208975925618
3.509000062942505,1.225470365183378,2.372619859743074,0.12447161415429359
3.5139999389648438,1.2153009507020593,2.372756810758482,0.12371874945896155
3.5199999809265137,1.202585673938868,2.3729211572013678,0.12281528310434202
3.5250000953674316,1.1919709944011079,2.373490281691585,0.12136190221204414
3.5290000438690186,1.1836635754563456,2.3736299801199445,0.12013779137662822
3.5350000858306885,1.1717833333109033,2.3742266757967583,0.11847595035537924
3.5399999618530273,1.1621590201886296,2.3743473308151297,0.11773351779705456
3.5439999103546143,1.1540528402671693,2.3744438559805117,0.11713956466983062
3.5490000247955322,1.1439011148790355,2.3745645167523053,0.11639709670868498
3.555000066757202,1.1322081813074654,2.3751511239334318,0.11426512316084811
3.559999942779541,1.1224228660482773,2.37533296100784,0.1123332775972652
3.563999891281128,1.1142584697813827,2.37582171991617,0.1107838792725195
3.569000005722046,1.1045108532704264,2.3759576018217516,0.10907714769238613
3.575000047683716,1.0929037856697699,2.376481151523852,0.1068307255837287
3.5789999961853027,1.084599771078282,2.376586957504357,0.10523937911807518
3.5840001106262207,1.0743741591798248,2.376719219709944,0.10325012489636179
3.5899999141693115,1.062435036609993,2.377227268791989,0.10068019026315478
3.5950000286102295,1.052542294111287,2.3773576767368834,0.09870872079181738
3.5989999771118164,1.0443364029730988,2.3774619993618824,0.0971316016176505
3.6040000915527344,1.0350029898513928,2.3779283167456615,0.09475294868462963
3.609999895095825,1.0237925177931932,2.3780786778411613,0.09190620002290435
3.615000009536743,1.0144246907104768,2.37853311733407,0.0893176978205439
3.61899995803833,1.0063468599500318,2.3786307543373617,0.08744631035687199
3.625,0.9943291670456879,2.3787772127521465,0.08463917338895358
3.630000114440918,0.9852430454014951,2.379214337769651,0.08016562344860553
3.634000062942505,0.9786475253436335,2.379308360046394,0.07856294561167429
3.6389999389648438,0.9690285610149276,2.379425886491263,0.0765596221975785
3.6449999809265137,0.9573160842300341,2.3798706880544698,0.07311651528258924
3.6500000953674316,0.9475029314091433,2.3799791573402582,0.07072664323296429
3.6540000438690186,0.9398142473265638,2.3800659296656286,0.0688148139664872
3.6600000858306885,0.928581816031639,2.380499999353018,0.06493974990936945
3.6649999618530273,0.9194622077319168,2.3806114727916086,0.06160818589275201
3.6689999103546143,0.9124490374164997,2.3807006526056007,0.05894290290639987
3.6740000247955322,0.9031071754708614,2.381108484245385,0.055106158066729784
3.680000066757202,0.8910085799491068,2.381246920272612,0.05082872217171233
3.684999942779541,0.8811537423633392,2.38163627089978,0.04654490404753852
3.688999891281128,0.8745783643826092,2.3817132620639043,0.043691165468636335
3.694000005722046,0.8659199962884119,2.3818095044608776,0.04012386467131043
3.700000047683716,0.8544669681251077,2.382214184867027,0.03455494335508375
3.7039999961853027,0.8462493396830184,2.3823066290727835,0.030487240681214986
3.7090001106262207,0.8366796306278508,2.3824735463023092,0.02476139970622751
3.7149999141693115,0.8254654957105882,2.3827787766064974,0.01828248468271274
3.7200000286102295,0.8153951045070581,2.382851041128059,0.01517842245378355
3.7239999771118164,0.8076525361566402,2.382908850677851,0.012695261476540319
3.7290000915527344,0.7987510910638089,2.385566238691503,0.007839219164614749
3.734999895095825,0.7875259911358989,2.3968684666827977,-0.0020427737298237547
3.740000009536743,0.777981305083399,2.418955907532029,-0.008553415380104075
3.74399995803833,0.7699618212931154,2.4233888087056528,-0.013274396654911452
3.75,0.758455453560501,2.444032404282675,-0.020900311618622477
3.755000114440918,0.7487612228714486,2.449073795087924,-0.027129081235105636
3.759000062942505,0.7413461521821636,2.453106763500077,-0.03211191872584271
3.7639999389648438,0.7317876042243906,2.4706010517880093,-0.04319309997472841
3.7699999809265137,0.7200689184294616,2.476058268889376,-0.04952250746410257
3.7750000953674316,0.7096815930548466,2.480606022090118,-0.054797097540680295
3.7790000438690186,0.7017382350176009,2.4951503588317476,-0.06025702515708725
3.7850000858306885,0.6904519618836885,2.499775766601453,-0.0681707657886881
3.7899999618530273,0.6812613283062807,2.5036301505456033,-0.07476534000728864
3.7939999103546143,0.6736455902403911,2.516343032799018,-0.08105199849948191
3.7990000247955322,0.6648132109775711,2.519778764566464,-0.08908823520805191
3.805000066757202,0.6544507732418557,2.5322735619004737,-0.10011471090931477
3.809999942779541,0.6449054288368912,2.535212511132035,-0.10768786311922633
3.813999891281128,0.6378606046196922,2.5375636985459833,-0.113746457112154
3.819000005722046,0.6292803163018792,2.5473932333901597,-0.12194320973031379
3.825000047683716,0.6179703344400058,2.550274176064296,-0.1334517390240991
3.8289999961853027,0.6101962377346065,2.552194766354528,-0.14112393945173304
3.8340001106262207,0.6009897179081245,2.5597809486822753,-0.15370610819277877
3.8399999141693115,0.5915732576270313,2.561951430330531,-0.16539741132401353
3.8450000286102295,0.5826603829068765,2.5678649045140993,-0.17562207632388704
3.8489999771118164,0.5762430954787564,2.5688974405922105,-0.18629897838907106
3.8540000915527344,0.5684312786997282,2.570188156848403,-0.1996455832714123
3.859999895095825,0.5589778351570553,2.5742346024942155,-0.21550422626271787
3.865000009536743,0.5508865954951201,2.5749759258504166,-0.22868493224100803
3.86899995803833,0.5452396841331001,2.5755689633264316,-0.23922911992924825
3.875,0.5367799855770982,2.57743120646322,-0.25642182394784124
3.880000114440918,0.5295096901694142,2.577664459584237,-0.27164155666659917
3.884000062942505,0.5233429575815721,2.577851055407778,-0.2838169074115258
3.8889999389648438,0.5162731260222111,2.5776009779200764,-0.30654515270363186
3.8949999809265137,0.5076129547041895,2.577313999106259,-0.31956119020798485
3.9000000953674316,0.5007959395103125,2.5770748462935997,-0.33040806053069366
3.9040000438690186,0.4964897963797376,2.5749892071243163,-0.3448819857977741
3.9100000858306885,0.48991288489356494,2.5736784025966073,-0.3731266924609352
3.9149999618530273,0.4851452238868902,2.569533070525185,-0.3952315776227511
3.9189999103546143,0.4809105155007257,2.5684580353925464,-0.4102405637731544
3.9240000247955322,0.47563491426027366,2.5671141934183135,-0.4290024674237628
3.930000066757202,0.4701635420783447,2.560675371317573,-0.45324409337203536
3.934999942779541,0.4654988784663436,2.558759391113619,-0.47211694554744027
3.938999891281128,0.46154261833281723,2.551480228642225,-0.4869457240185147
3.944000005722046,0.4569554673595058,2.5491446275539,-0.5040529704071574
3.950000047683716,0.45141597867745215,2.546341950794946,-0.5245813397861665
3.9539999961853027,0.44802182855310063,2.537212315053681,-0.5402876592627451
3.9590001106262207,0.44401038185667374,2.534286259416836,-0.5542564724695834
3.9649999141693115,0.4396783914253345,2.5307751879834384,-0.5710181158202455
3.9700000286102295,0.4361479313851566,2.5189937870198524,-0.5878902745567779
3.9739999771118164,0.433456497265105,2.516282246884566,-0.6019225735467331
3.9790000915527344,0.4303548871059658,2.5128927004986075,-0.6194635745849008
3.984999895095825,0.426890003614061,2.4983592237377423,-0.6337035117222527
3.990000009536743,0.4240540676892144,2.4944154437734696,-0.6453313387647766
3.99399995803833,0.4220585920373685,2.4799755761154234,-0.6557907297024624
4.0,0.4191220595749132,2.474626758892209,-0.6697251735509815
4.005000114440918,0.417081383113488,2.470169340359059,-0.6813373946584733
4.009000062942505,0.4156538642798715,2.4538766356041357,-0.692853299314333
4.013999938964844,0.4139104517931567,2.448938716791893,-0.7066109070765891
4.019999980926514,0.4117868277898105,2.429202948367372,-0.7224580740051451
4.025000095367432,0.41018803059988296,2.42409678531371,-0.7302864140399621
4.0290000438690186,0.4090173291169106,2.4200120009559343,-0.7365488621023369
4.0350000858306885,0.4071810596103267,2.398765439671192,-0.7562360942476807
4.039999961853027,0.40612727858842096,2.3926164251628714,-0.7608090978425457
4.043999910354614,0.40509043277264384,2.3876971549131887,-0.7644675443310799
4.049000024795532,0.4038297029331801,2.365325857156273,-0.7727208509106175
4.055000066757202,0.40278051103674334,2.3578580558963,-0.7814063539756307
4.059999942779541,0.40184089580848315,2.3516350860074455,-0.7886440431108287
4.063999891281128,0.40117904164712054,2.3292576182017815,-0.7952080812145118
4.069000005722046,0.40030252784477566,2.323002240589087,-0.801610359853945
4.075000047683716,0.39919670645921457,2.315495906762983,-0.8092929721102855
4.078999996185303,0.3983943104270066,2.2905074231936102,-0.8153472479435115
4.084000110626221,0.3975379015319466,2.282442834629717,-0.8214427743759148
4.0899999141693115,0.39679824041116146,2.253215272941725,-0.8278736260709375
4.0950000286102295,0.39591569619756917,2.245594770140527,-0.8324913461955241
4.098999977111816,0.39535058493508296,2.2394985859189123,-0.8361853901841846
4.104000091552734,0.39465091283794806,2.210816152720656,-0.8398701661237712
4.109999895095825,0.3936497788123299,2.2013311410725644,-0.8432360248092616
4.115000009536743,0.3929604428770496,2.1723635766467235,-0.8458501774329731
4.11899995803833,0.39259546166281795,2.166012027668549,-0.8466552428172106
4.125,0.39207664721313745,2.1564845149079397,-0.8478628648866939
4.130000114440918,0.3917225378439071,2.1275177793991475,-0.848125038152782
4.134000062942505,0.3913760850207187,2.121356020805867,-0.8477479784011742
4.138999938964844,0.3913738734431864,2.1136539143828057,-0.8472766593303651
4.144999980926514,0.3912023299669551,2.083081640884024,-0.8453815607585158
4.150000095367432,0.39131714492756325,2.075138520716219,-0.8430855065712989
4.1540000438690186,0.39132793225727286,2.0687842518312642,-0.8412487289106592
4.1600000858306885,0.391415880462056,2.0380953426142305,-0.8367091301509046
4.164999961853027,0.3913171682934696,2.0300535949342153,-0.8332270717445445
4.168999910354614,0.3915326930438418,2.002598978853441,-0.8290998969817507
4.174000024795532,0.39161005150217626,1.994668593713962,-0.8248971921346833
4.180000066757202,0.39152316341777704,1.9851522828032182,-0.8198540264766011
4.184999942779541,0.3912896827381156,1.9562391468466178,-0.8141638448385593
4.188999891281128,0.39126862755770186,1.9500046837735938,-0.8095911807495936
4.194000005722046,0.3912537732259777,1.9422113262265082,-0.8038751462217407
4.200000047683716,0.39137067742417647,1.911566396842618,-0.7956537946294688
4.203999996185303,0.391594810963053,1.905231005829004,-0.7898982944991788
4.209000110626221,0.3917877619435359,1.876258791227562,-0.782040734568481
4.2149999141693115,0.39173535302355306,1.8679765938230746,-0.7734990403260812
4.2200000286102295,0.3917560225202011,1.8610743786843142,-0.7663805657919421
4.223999977111816,0.39181713112703803,1.8555528040427454,-0.7606859898211595
4.229000091552734,0.39182998912807876,1.8254192057805172,-0.7490159798840456
4.234999895095825,0.39204211494130115,1.814484385899712,-0.7357710694897592
4.240000009536743,0.3920981177497706,1.7873000596098463,-0.7265175919847976
4.24399995803833,0.3922569181109237,1.7829444831307877,-0.7202892099864439
4.25,0.39238835747466466,1.776410988604234,-0.7109464513662753
4.255000114440918,0.39233156125105656,1.7709663232934623,-0.7031606954343761
4.259000062942505,0.39265030949699503,1.7390227185755485,-0.6825597901865037
4.263999938964844,0.3928436832241253,1.7048823333238912,-0.6586238201802659
4.269999980926514,0.39292850332449025,1.6954453712348456,-0.6394123102599282
4.275000095367432,0.3931153162748854,1.6875811111644545,-0.6234024641958209
4.2790000438690186,0.3932318256757558,1.660157746266441,-0.6062938765367504
4.2850000858306885,0.3932696880029169,1.6506017712928336,-0.5883455874061323
4.289999961853027,0.3932936358667892,1.621646931267786,-0.5717215151759696
4.293999910354614,0.39352326406338556,1.6173006042158158,-0.5598320067408735
4.299000024795532,0.39359454771863395,1.6118675011023917,-0.5449695896877155
4.305000066757202,0.3935716722377104,1.6053478809921289,-0.527134972695546
4.309999942779541,0.39352557502769014,1.5777479861959305,-0.5039489245986676
4.313999891281128,0.39369235500838123,1.5661345833047753,-0.47621449132667354
4.319000005722046,0.39378024569844966,1.5334492507884618,-0.44702317950816917
4.325000047683716,0.3939401304650519,1.523992408397607,-0.419554988593202
4.328999996185303,0.39417905535949416,1.5176879720632128,-0.4012432251432932
4.334000110626221,0.39463583703224464,1.4886503050233226,-0.37543430222368235
4.3399999141693115,0.39501645544413044,1.479228531247444,-0.34306776972373376
4.3450000286102295,0.3953459356898057,1.4502191049320359,-0.31425109584694927
4.348999977111816,0.39570028444000177,1.443897770823772,-0.29418423996610743
4.354000091552734,0.3959976186232736,1.435995820599148,-0.2690997730451433
4.359999895095825,0.39647944000598384,1.405372858958011,-0.236609228684285
4.365000009536743,0.3970781818899856,1.3974672602329905,-0.21140664781106427
4.36899995803833,0.3976856557946312,1.3911430074287912,-0.1912453041476071
4.375,0.39883188152798327,1.3605218222835322,-0.1605855609701342
4.380000114440918,0.3996722876533203,1.3526300979473396,-0.1376582762203711
4.384000062942505,0.400453831595454,1.3463169442572622,-0.11931710436042568
4.388999938964844,0.40133489589615495,1.3194187882776633,-0.09882987657755468
4.394999980926514,0.40267173161327413,1.3126681346599527,-0.07734659530805357
4.400000095367432,0.4038246914537012,1.3070425005635276,-0.059443576362493
4.4040000438690186,0.40445347375089563,1.2802460687245545,-0.03996161097081302
4.4100000858306885,0.4059120617406821,1.2645268263307996,0.004606960687746076
4.414999961853027,0.407525143728292,1.2340641506511687,0.032548236201350896
4.418999910354614,0.4091621911481544,1.2275853806242938,0.05007282111948207
4.424000024795532,0.41149593710578547,1.2194866284633818,0.07197933568722642
4.430000066757202,0.4141637691325728,1.1893115010387658,0.09839964862391418
4.434999942779541,0.41624224427440626,1.1816480658666568,0.11870507595532667
4.438999891281128,0.41821650097791013,1.1547286871672495,0.13845634432209117
4.444000005722046,0.42081696778820055,1.1470424391846337,0.15659728730922884
4.450000047683716,0.42435437504700096,1.1378190882056853,0.1783660728906854
4.453999996185303,0.42753108475139523,1.111099461782341,0.19258427628905037
4.459000110626221,0.43096427634621376,1.1034820961091838,0.21043055100457428
4.4649999141693115,0.4352083614215964,1.0943417658037762,0.2318448893231018
4.4700000286102295,0.4388075497888369,1.066444879225136,0.2504266931249277
4.473999977111816,0.44215655947868787,1.0603600300757274,0.2641155351750139
4.479000091552734,0.4465453659220791,1.0327285840338936,0.2808846298734834
4.484999895095825,0.45120928635428303,1.023964771411918,0.29639488175123846
4.490000009536743,0.4555564089233731,1.0166611879305718,0.30932081071528694
4.49399995803833,0.45961389322186214,0.9911783684818025,0.3201321278969527
4.5,0.46579978407630823,0.9823605419761079,0.33339760431400656
4.505000114440918,0.47096772569887996,0.9750122364258645,0.34445234370121364
4.509000062942505,0.47592388390794493,0.9501099086824957,0.3527632928319724
4.513999938964844,0.48199856119121787,0.9431127230271644,0.3616107929943232
4.519999980926514,0.489743867496986,0.9158692979242997,0.3718879472053831
4.525000095367432,0.49607359856200783,0.9089365438716885,0.37818935465949144
4.5290000438690186,0.5014804171932931,0.9033905389727442,0.38323030034219097
4.5350000858306885,0.5103205088558962,0.876877477790692,0.3924571178863412
4.539999961853027,0.5179042392939057,0.8700539139138589,0.3963602246948897
4.543999910354614,0.5235699351615568,0.8645949977362026,0.3994827473655786
4.549000024795532,0.5314214052060438,0.8406600213816101,0.4028214563254854
4.555000066757202,0.5412157566794012,0.8341552355264547,0.40548404877458816
4.559999942779541,0.5493264638135479,0.8287347529639312,0.4077028052813884
4.563999891281128,0.5562877933655201,0.8063510742405396,0.40952192860948966
4.569000005722046,0.5651125688205961,0.7981170049911349,0.4112549954338948
4.575000047683716,0.5767533700677313,0.7722758525922732,0.41315220973373673
4.578999996185303,0.584293247703557,0.7674274901886073,0.41375526129448187
4.584000110626221,0.5936380209948646,0.7613668204425456,0.41450910270426594
4.5899999141693115,0.6048453730573833,0.7377784327687769,0.4153243816642132
4.5950000286102295,0.6150881706595657,0.7316578687672074,0.4159400045411045
4.598999977111816,0.6234014384215961,0.7267615926726846,0.4164324852299089
4.604000091552734,0.6336002993826316,0.7061856419636019,0.41733999402810956
4.609999895095825,0.64610908059057,0.7006459040515338,0.41841194489448774
4.615000009536743,0.6569551692691212,0.6960291989654265,0.4193052869795139
4.61899995803833,0.6658604565654016,0.6761449258144101,0.42046899900104234
4.625,0.6785141441305349,0.66769265323379,0.4227793621475603
4.630000114440918,0.689796583819628,0.6470479753111966,0.42470199256817787
4.634000062942505,0.6984293672584252,0.6427947395843981,0.4262500833388643
4.638999938964844,0.7094405621239329,0.6374782583048672,0.42818517373357534
4.644999980926514,0.7228159218181551,0.617470351689827,0.43108831321299146
4.650000095367432,0.7338388746566995,0.6123999574143387,0.4334940208940511
4.6540000438690186,0.7428754665539511,0.6083437870557716,0.4354185182126253
4.6600000858306885,0.7566494360929771,0.5892804486822757,0.43863979252372715
4.664999961853027,0.7678413767050657,0.5844278497859482,0.441359595320775
4.668999910354614,0.7773951547601561,0.5681174211670234,0.4444487680703045
4.674000024795532,0.788835134350797,0.5635609710305052,0.44746090434040453
4.680000066757202,0.8022902752984777,0.5580933177720835,0.45107541041389965
4.684999942779541,0.813561411232172,0.5418782043622491,0.4567354398295267
4.688999891281128,0.8228547564650174,0.5385175815977113,0.46200269071648525
4.694000005722046,0.8346689781924763,0.5343166529085605,0.4685869897926785
4.700000047683716,0.8478594466648001,0.5181177087740716,0.47133131294915487
4.703999996185303,0.8569244712676037,0.5148224873565418,0.47241132458871893
4.709000110626221,0.8681988928234372,0.500222728494183,0.47400257944431956
4.7149999141693115,0.8816804997928405,0.4955783473369425,0.4780597873966793
4.7200000286102295,0.893164640231072,0.49170781438921163,0.48144098211859027
4.723999977111816,0.9021211910480001,0.47905527825557165,0.4857968054790463
4.729000091552734,0.9129074408302573,0.4755880416608698,0.48937613830777504
4.734999895095825,0.9255965569384009,0.4714275892049442,0.49367109876147325
4.740000009536743,0.9367293418895467,0.459054476997357,0.49802974953191737
4.74399995803833,0.9459667988324663,0.45641082595855775,0.5012458028798996
4.75,0.9590680117139634,0.4442444123331909,0.5060995538348113
4.755000114440918,0.9701230497712254,0.4413326244834911,0.5103711344624597
4.759000062942505,0.9786026135917396,0.4390032775087432,0.5137882767564734
4.763999938964844,0.9892918200882511,0.42862665781555154,0.5190195719214908
4.769999980926514,1.00245527545959,0.4253678162443322,0.5232949288690807
4.775000095367432,1.0130212913478234,0.42265207177037467,0.5268577829541501
4.7790000438690186,1.021455838098237,0.4139017580396687,0.5304328738258671
4.7850000858306885,1.034231747350833,0.41104337333095653,0.5360258310564584
4.789999961853027,1.0444429488578697,0.40269486472783317,0.5405422183115246
4.793999910354614,1.0528493566704298,0.40102791436190194,0.5437117346498719
4.799000024795532,1.0634624021032186,0.39894415188504023,0.5476737717630519
4.805000066757202,1.0765283429276558,0.3913787332935516,0.5528926092994563
4.809999942779541,1.0869504115525963,0.38960253335158784,0.5570840079737785
4.813999891281128,1.0950752214923145,0.38818155645843416,0.5604371668865202
4.819000005722046,1.1053729418440739,0.3821180772509387,0.5648891714182134
4.825000047683716,1.1179029742250575,0.38028832829715503,0.569646822936494
4.828999996185303,1.1263686433019435,0.3790685198970267,0.5728185275984264
4.834000110626221,1.1367316571844324,0.3742017625707753,0.5769106351031169
4.8399999141693115,1.1493237563659167,0.3727548193981105,0.5818657955823953
4.8450000286102295,1.159990284798519,0.36888856746043847,0.5861031763366777
4.848999977111816,1.1682734358958689,0.36819704138832476,0.5889217230739298
4.854000091552734,1.1790394362349277,0.3673326028841602,0.5924450324959748
4.859999895095825,1.1922450582985726,0.3644920005251865,0.596886592904882
4.865000009536743,1.202873267996401,0.36390627981723656,0.6002751315036362
4.86899995803833,1.2114940536438117,0.3634377200080969,0.6029858654379916
4.875,1.2242376267094164,0.3618818432252305,0.6057604371736433
4.880000114440918,1.234424419875967,0.361623813126633,0.6077595549262332
4.884000062942505,1.24313939596648,0.3614173964298864,0.6093587919343967
4.888999938964844,1.2539139041563974,0.36108032278599744,0.6110339560707287
4.894999980926514,1.2666579232658106,0.3611236668858164,0.6127438309903666
4.900000095367432,1.2778549127717218,0.36181662501868,0.6134746645979642
4.9040000438690186,1.2867103050378796,0.3620577267431591,0.6134779917901507
4.9100000858306885,1.2994233594523388,0.36241938651536165,0.6134829826775898
4.914999961853027,1.3105424038456863,0.3642697957912848,0.6126551748413714
4.918999910354614,1.3197404372950108,0.36484749609701705,0.6115119275110623
4.924000024795532,1.3313501285091915,0.36556964730473096,0.6100828172403798
4.930000066757202,1.3450130465510641,0.3688273316733407,0.6068320664037791
4.934999942779541,1.3568417763627278,0.3697820202373556,0.604367682788998
4.938999891281128,1.3661780150169336,0.373564098100978,0.6020059087600298
4.944000005722046,1.3775463053081836,0.37481109204852275,0.5979655274142572
4.950000047683716,1.3913037815758678,0.3763074610015988,0.5931171468617248
4.953999996185303,1.4008105582719452,0.3811462047321303,0.5897408676803575
4.959000110626221,1.4126426195903123,0.3825798969851189,0.5854030294526831
4.9649999141693115,1.4266455937145837,0.38430023198161223,0.5801979131547893
4.9700000286102295,1.438237148593024,0.39056552146517315,0.5731902814794041
4.973999977111816,1.4475170582058663,0.39204542593517316,0.5691779076832768
4.979000091552734,1.4588311142026136,0.3941282605014397,0.5641135727926344
4.984999895095825,1.4702592656959896,0.4015511773499256,0.5550114587882583
4.990000009536743,1.4823546345669016,0.40359631554547687,0.5482362057371407
4.99399995803833,1.4923925361986605,0.4113201168193728,0.5411289188902105
5.0,1.50750769739027,0.4144481135955673,0.5307580411018697
5.005000114440918,1.5169274933330548,0.41705481900724783,0.5221155055786605
5.009000062942505,1.5291052226133268,0.42586945337287296,0.5138451098562716
5.013999938964844,1.5401682160259582,0.42855478410754133,0.5076678289648522
5.019999980926514,1.5512966483052513,0.43919436754494895,0.49795771908797415
5.025000095367432,1.5604659837941692,0.44207375290787176,0.48882738034290946
5.0290000438690186,1.569030117916652,0.4443771788202195,0.48152337056196576
5.0350000858306885,1.5821509628589956,0.4559820252419024,0.46561850461056614
5.039999961853027,1.5942057835818484,0.4591838343010688,0.4590687771393016
5.043999910354614,1.6035234132600267,0.46174531208398967,0.4538289326976725
5.049000024795532,1.6154367275456207,0.47376424386531824,0.44409553803645163
5.055000066757202,1.6292223639488863,0.47779384858470675,0.43189396039865513
5.059999942779541,1.6412089918353894,0.4905546344498758,0.4209121006031074
5.063999891281128,1.6502021305219698,0.4934884601733642,0.4133779382501225
5.069000005722046,1.661240475609483,0.49715587348164325,0.403959898501252
5.075000047683716,1.673009785490537,0.5115599013290876,0.3925500059277002
5.078999996185303,1.6808049109060745,0.51454682465707,0.3847514869664758
5.084000110626221,1.690487186437859,0.5182806123446452,0.3750029896394927
5.0899999141693115,1.7031779581167357,0.533243101025047,0.3627461216127825
5.0950000286102295,1.7140835128278624,0.536950125164314,0.3547510996195621
5.098999977111816,1.7232118632544846,0.5399156384193435,0.3483553107591644
5.104000091552734,1.7380781522593292,0.5551856281637386,0.3344239146675338
5.109999895095825,1.7529749673738693,0.5608193108636073,0.31979845153467723
5.115000009536743,1.764576381651961,0.5768368041103361,0.3099571345467138
5.11899995803833,1.7748675281212907,0.5798608018303376,0.30579169885457397
5.125,1.7902364338664836,0.5843968885336551,0.2995434211751085
5.130000114440918,1.79919351430947,0.6006258398972621,0.2927471719837003
5.134000062942505,1.8053698518843326,0.6052023065161958,0.2848363111732655
5.138999938964844,1.811026650385954,0.6109228215943181,0.27494785304275177
5.144999980926514,1.822906759714524,0.6284157118459588,0.26573890555581203
5.150000095367432,1.8347839426067372,0.6322272903451787,0.26135681708520947
5.1540000438690186,1.8483145415685076,0.635276444096915,0.25785127167841476
5.1600000858306885,1.8637627930721001,0.6544075511368905,0.24991420046976034
5.164999961853027,1.8750489285762186,0.6608232152343652,0.24194057502639532
5.168999910354614,1.884116503295684,0.6786597021877414,0.23342640604077006
5.174000024795532,1.8949951412720762,0.6827515982436477,0.23058623083019703
5.180000066757202,1.9099684994810822,0.6876617954657982,0.22717807474831253
5.184999942779541,1.9212084112759007,0.7059853606120557,0.2238057582169058
5.188999891281128,1.9298037704001656,0.7120104458990227,0.22012498826894672
5.194000005722046,1.9405465625387357,0.7195420718535003,0.21552386128864048
5.200000047683716,1.9531522483394954,0.7403191051170095,0.2132898011611164
5.203999996185303,1.9616205735698982,0.7446066340034111,0.21196414124972324
5.209000110626221,1.9724343437437855,0.764657178026311,0.21058266293476183
5.2149999141693115,1.985466647462769,0.7713796042100179,0.21113039136608464
5.2200000286102295,1.9958179813475467,0.7769819376860642,0.21158685711858624
5.223999977111816,2.004287446706959,0.7967381601392026,0.21316684224835047
5.229000091552734,2.014559312490044,0.802536469842283,0.21567178557049366
5.234999895095825,2.025931576800467,0.8250587159530822,0.21912049662908728
5.240000009536743,2.0357564769337406,0.8308995727558779,0.22377318716204125
5.24399995803833,2.0435028715489105,0.8355720910936856,0.2274952064769072
5.25,2.054894361703641,0.8585385147503578,0.2361500258955402
5.255000114440918,2.064659503946666,0.8646025434012453,0.24311174691485424
5.259000062942505,2.071971265752612,0.8694535928326749,0.2486809245584281
5.263999938964844,2.0811304388565346,0.8919465531174111,0.2568371917101382
5.269999980926514,2.092300142869434,0.899373065958956,0.2687519525553852
5.275000095367432,2.1013038397121147,0.9055619250272576,0.2786810777420068
5.2790000438690186,2.1096591002735208,0.9274762252315824,0.29126639390640247
5.2850000858306885,2.1209737610509785,0.9352832415484155,0.3035731637702682
5.289999961853027,2.1290986899147684,0.9588919270949348,0.31630105190507946
5.293999910354614,2.136114721422506,0.9639052636202041,0.3278979254256051
5.299000024795532,2.14432600923257,0.9701721583932833,0.3423945357535817
5.305000066757202,2.155381385203513,0.9955141633653503,0.3625606286908347
5.309999942779541,2.1644783394325158,1.0023303507664565,0.37990850984395785
5.313999891281128,2.171796980770202,1.0077833656931818,0.39378698021284564
5.319000005722046,2.18029312224934,1.0326706578818625,0.4146159905274794
5.325000047683716,2.190802593163249,1.0408936615366975,0.4387829567803977
5.328999996185303,2.1972306637138357,1.0463755550564133,0.4548939475149288
5.334000110626221,2.202620075436063,1.0718921234529215,0.47837129722811933
5.3399999141693115,2.215719774735776,1.0802736162221769,0.5043918048096913
5.3450000286102295,2.2242191409405487,1.10633566871905,0.5269393330113188
5.348999977111816,2.230711451369952,1.1121157851772534,0.5426428102364212
5.354000091552734,2.2388017434249976,1.1193411891446758,0.5622728587769737
5.359999895095825,2.248448966787052,1.1476642467174705,0.5868332568175455
5.365000009536743,2.25641858775182,1.1551568672669663,0.6054995243905886
5.36899995803833,2.2628810957305276,1.1611507493458761,0.6204320044150471
5.375,2.268943796560647,1.190329732203479,0.645323474279428
5.380000114440918,2.277425273401604,1.1979942462969635,0.664676754802286
5.384000062942505,2.2846493640305825,1.2246159749713392,0.6825190778270532
5.388999938964844,2.2918558956590074,1.232181282547208,0.7058127920867404
5.394999980926514,2.30046048485751,1.2412599402389877,0.7337661378050796
5.400000095367432,2.306644254564863,1.2697078479792139,0.7536854931284105
5.4040000438690186,2.311180756095362,1.2755205203747493,0.7615394423169933
5.4100000858306885,2.3190858104485628,1.2842397022014194,0.7733206001688069
5.414999961853027,2.3254567270740134,1.313624234726907,0.7884413560331851
5.418999910354614,2.3306107305882957,1.3206147537214357,0.8007972573702076
5.424000024795532,2.3363992252078263,1.3504483410242847,0.8160351669342188
5.430000066757202,2.3426763699912057,1.3585882546722436,0.8311544344942211
5.434999942779541,2.348199805953936,1.365371300412979,0.8437534236065476
5.438999891281128,2.3526150679646687,1.3707978016953364,0.8538327350527113
5.444000005722046,2.3579333566697716,1.4011122427437297,0.8691518387780216
5.450000047683716,2.3642740565807654,1.4124156306610933,0.8863133340528887
5.453999996185303,2.3685361571578056,1.4395932826120306,0.8954064521349706
5.459000110626221,2.373514540317653,1.446731341326789,0.9045063088521007
5.4649999141693115,2.3792398532948806,1.4552965352785772,0.9154255294455862
5.4700000286102295,2.383020263466272,1.4849796504648252,0.9270809996129185
5.473999977111816,2.3884003679204557,1.49203484391248,0.9359536667864806
5.479000091552734,2.3925910164952806,1.5212798260591536,0.9508169358649804
5.484999895095825,2.3967876034952784,1.5288805216481862,0.9541383089804005
5.490000009536743,2.400018803656078,1.5352147870125095,0.9569062738910538
5.49399995803833,2.4022699920033954,1.54028201808333,0.9591205666292776
5.5,2.405538284753804,1.5731304201466154,0.9651681062305284
5.505000114440918,2.4088014778720153,1.5834365243208168,0.9700897939013454
5.509000062942505,2.410539239262652,1.6111238153509002,0.9709475502857253
5.513999938964844,2.4123580000930467,1.6194219035758466,0.9711707167159198
5.519999980926514,2.414545149158121,1.6502878849757805,0.9699743879315238
5.525000095367432,2.416022863999845,1.6581141247318478,0.9666797880450083
5.5290000438690186,2.4165077724719053,1.664374892631311,0.9640442023928973
5.5350000858306885,2.4174430363207384,1.6948821045958884,0.9570737831330359
5.539999961853027,2.4184471287410427,1.702668138962237,0.9499135136701479
5.543999910354614,2.4191632798174267,1.7088970407105668,0.9441852298124934
5.549000024795532,2.419622942632168,1.7380168509033258,0.9335973735665494
5.555000066757202,2.4200993104528448,1.7478182914555,0.9220604899489832
5.559999942779541,2.421009906795352,1.776962903650648,0.9099682203423353
5.563999891281128,2.4210661250967025,1.783133416865072,0.8985143703448172
5.569000005722046,2.4210438133395376,1.7908468342300898,0.884196545814332
5.575000047683716,2.4209189647591165,1.8213241024793518,0.8610678229010905
5.578999996185303,2.420972999147461,1.8276593807896586,0.8498665528196381
5.584000110626221,2.420922395761185,1.835578761890198,0.8358644644755826
5.5899999141693115,2.420787201019615,1.866235532102185,0.812944407532055
5.5950000286102295,2.420808483755562,1.8741426754379689,0.7915060015817486
5.598999977111816,2.4206824247362997,1.8804681638865883,0.7743558901651794
5.604000091552734,2.4200597542570867,1.909405196676804,0.7532502019574785
5.609999895095825,2.4199455448603353,1.91896062100103,0.7297149441310075
5.615000009536743,2.418788316412106,1.9479214910711904,0.6987199593836507
5.61899995803833,2.4186230061549256,1.9542242537502919,0.6850437521910898
5.625,2.4178039665163524,1.9636785856083276,0.664529033814265
5.630000114440918,2.416755300243487,1.9927421467709632,0.6455177241570123
5.634000062942505,2.4160759255237667,1.9990481898436092,0.6296468701529296
5.638999938964844,2.4150855198695327,2.0069306497158426,0.6098085391450249
5.644999980926514,2.413954033623015,2.0369995879152567,0.5818160814087079
5.650000095367432,2.4124885711659414,2.044651516844737,0.5597628258139642
5.6540000438690186,2.4114537772606752,2.0706716320228384,0.5420395960692895
5.6600000858306885,2.409753160016621,2.0794028453072744,0.514038447394686
5.664999961853027,2.4080385511478997,2.0866786250810923,0.49070489860444866
5.668999910354614,2.40676697002037,2.1101065092555125,0.47313816265078396
5.674000024795532,2.4047970012735878,2.1163665456720953,0.45551953587591404
5.680000066757202,2.4019808291061056,2.1238784699740076,0.4343775197870157
5.684999942779541,2.4000598908981576,2.145432277790648,0.4162227709812023
5.688999891281128,2.3973420495640703,2.1498809938446826,0.4015440630602749
5.694000005722046,2.3939994168008147,2.1689545640964827,0.38007843627523297
5.700000047683716,2.390390792399342,2.173937197057001,0.36048879061695394
5.703999996185303,2.3884951063932274,2.1772588863671265,0.3474292863171467
5.709000110626221,2.3857799732773675,2.1896111906183,0.3278880544646495
5.7149999141693115,2.3820921240738797,2.198374484752198,0.3108016503357631
5.7200000286102295,2.378550772979148,2.2029316498435656,0.29765448213051227
5.723999977111816,2.375880688048163,2.215486575427885,0.28678612520190916
5.729000091552734,2.371681513210442,2.2188027639634664,0.2729867453772892
5.734999895095825,2.3666700630788213,2.230855943449696,0.25211528147839357
5.740000009536743,2.362749203381643,2.2337017560423433,0.2413538339031874
5.74399995803833,2.358964009507326,2.235978324698973,0.23274498372346042
5.75,2.353764121341525,2.2461543106269066,0.21812351936620258
5.755000114440918,2.349182768168151,2.248564394797186,0.20813558287157852
5.759000062942505,2.345720855779097,2.250492393181926,0.20014551942649422
5.763999938964844,2.341347379523119,2.2586664933205376,0.18871978185862565
5.769999980926514,2.335545831304392,2.2610941326140743,0.17545374283660295
5.775000095367432,2.331011979458125,2.263117197513703,0.16439853460446993
5.7790000438690186,2.3273090004281642,2.269779318372149,0.16091676902711743
5.7850000858306885,2.3216680614026948,2.2720114349913563,0.1557306371531047
5.789999961853027,2.316950431764402,2.278234230127305,0.14979997209368154
5.793999910354614,2.3127220955250687,2.2794733615946856,0.14549907662640343
5.799000024795532,2.308013375098355,2.281022331323118,0.14012276502482052
5.805000066757202,2.3024991176832827,2.286589850390906,0.13462955684719205
5.809999942779541,2.2972099388739426,2.287744360510465,0.13072080413117018
5.813999891281128,2.2931800378028564,2.288667979616652,0.1275937646806576
5.819000005722046,2.287580719214772,2.293338595320844,0.12290185730807093
5.825000047683716,2.280998745966203,2.29491340420306,0.11524068498423466
5.828999996185303,2.276308595280429,2.295963255932256,0.110133338243513
5.834000110626221,2.271023633247765,2.300380211204175,0.10783315084975224
5.8399999141693115,2.264194884537714,2.301934177489622,0.10759050798219351
5.8450000286102295,2.258867244181042,2.3058632082452277,0.10641591589313636
5.848999977111816,2.254158100434669,2.3066658584651925,0.10484849842290231
5.854000091552734,2.2485615818558524,2.3076692071218714,0.10288915651518649
5.859999895095825,2.241568307616845,2.3111107888033664,0.10121721575484618
5.865000009536743,2.2354423725187855,2.3117951850763108,0.10017494216809301
5.86899995803833,2.23058294541974,2.3123426825143802,0.09934115311769448
5.875,2.224170621475221,2.315628551844746,0.09811138170009567
5.880000114440918,2.218298534455141,2.31678937745082,0.09711212910261673
5.884000062942505,2.2135003539209928,2.3196448163784025,0.09644085631147924
5.888999938964844,2.2045952313335127,2.3202178984944823,0.09611915129885365
5.894999980926514,2.1953854529508146,2.320905618895668,0.09573309301132635
5.900000095367432,2.189938203018826,2.3214787283391103,0.09541137265822999
5.9040000438690186,2.186271903751253,2.3241576336047034,0.09525259574158872
5.9100000858306885,2.179698864446947,2.3270705414637836,0.09503553461944012
5.914999961853027,2.1761394678238206,2.3277075228432254,0.09507425212682637
5.918999910354614,2.1712712106351537,2.328217114021657,0.09510522650198344
5.924000024795532,2.164908111305587,2.330464610903388,0.09515819600003475
5.930000066757202,2.1570383239580138,2.3311510505156305,0.09529381173617396
5.934999942779541,2.1503377773260155,2.33172306534152,0.09540682125705831
5.938999891281128,2.1451167764162977,2.333641340207264,0.09554410537644323
5.944000005722046,2.138378062209015,2.334133383018427,0.09560868927898702
5.950000047683716,2.130417949803505,2.334723825007065,0.09568618873022759
5.953999996185303,2.125246736595862,2.336552420393338,0.09570371249692453
5.959000110626221,2.118141038344708,2.337119706787383,0.09569663430936011
5.9649999141693115,2.1104289003976926,2.33907271439241,0.0956011613083134
5.9700000286102295,2.10335807139254,2.3395450658635992,0.09530145143152247
5.973999977111816,2.096237359405432,2.3399229335267755,0.09506169210466182
5.979000091552734,2.0884084211964984,2.341593589269534,0.09476179007896489
5.984999895095825,2.0790689147583836,2.342110939966686,0.09449662284930227
5.990000009536743,2.071332456398618,2.342542089532379,0.09427563786458204
5.99399995803833,2.0644647808622163,2.3440141686097236,0.0936807289490269
6.0,2.0550652224040413,2.344505707608219,0.09269211359641588
6.005000114440918,2.047617454067839,2.345985189603786,0.09184998575837126
6.009000062942505,2.041400768790707,2.3462959971404254,0.09154981893713142
6.013999938964844,2.0337830202915512,2.3466845019297717,0.0911746148834734
6.019999980926514,2.024176231921918,2.3481401606560857,0.08978172940154866
6.025000095367432,2.016716062533334,2.348510792631541,0.08891733716506342
6.0290000438690186,2.010031424144632,2.3488072876082815,0.08822584810576946
6.0350000858306885,1.999680907462945,2.350187147764756,0.0869600108938488
6.039999961853027,1.9906481622724488,2.3505368290719812,0.08590955776378467
6.043999910354614,1.9838227839970033,2.3508165774526653,0.08506918524158326
6.049000024795532,1.9748262495639748,2.352043686111453,0.08306371091243821
6.055000066757202,1.9647914872400472,2.3524386760790104,0.08174855390506743
6.059999942779541,1.9558210832667426,2.353612881742154,0.08036524144642274
6.063999891281128,1.9487297751331012,2.3538591693343736,0.0791585237258116
6.069000005722046,1.9398176510194323,2.3541670398347034,0.07765007262986735
6.075000047683716,1.9296253723506738,2.355331557895521,0.07571381750584195
6.078999996185303,1.9225862038966688,2.3555608025878016,0.07432916951691376
6.084000110626221,1.9136566618038915,2.3558473687013204,0.07259829763136794
6.0899999141693115,1.9024129965757226,2.3569525076740683,0.06929435892810654
6.0950000286102295,1.8922478499447162,2.3572447620850046,0.06797999027946093
6.098999977111816,1.8852282307849717,2.3581991193811955,0.06431612972316778
6.104000091552734,1.8754971652940835,2.3584693795489895,0.06337550835949585
6.109999895095825,1.8635571519635794,2.3587936737089423,0.062246825514902876
6.115000009536743,1.85359614161283,2.359751595909831,0.06063521474596499
6.11899995803833,1.8460741902841988,2.3599550447406297,0.059162629040553145
6.125,1.8344971905097534,2.3602602240501533,0.0569537065953964
6.130000114440918,1.824713719408566,2.361169439430732,0.05440136980613483
6.134000062942505,1.8174672466166941,2.361366126113959,0.053287613886130736
6.138999938964844,1.8100649215274258,2.3616119815370955,0.05189543558259578
6.144999980926514,1.799202957178227,2.362524061749997,0.049709031343108744
6.150000095367432,1.7877609636256355,2.3627535928652543,0.04787441781357076
6.1540000438690186,1.7786388520509704,2.3635398477534753,0.04601061453338196
6.1600000858306885,1.7653863326028416,2.3637987788542367,0.042581846367893784
6.164999961853027,1.7552023610079108,2.3640145479122543,0.039724630394022194
6.168999910354614,1.7470721465311485,2.364769016612801,0.03829521254341177
6.174000024795532,1.7367699005355512,2.3649880922953415,0.038176886874542765
6.180000066757202,1.7238180649199613,2.3658095375860646,0.03796627277906425
6.184999942779541,1.7128436652108965,2.3660147398333984,0.03646425616751864
6.188999891281128,1.704694520690891,2.3661789035882754,0.035262628553580304
6.194000005722046,1.6945220164017436,2.3669193787487983,0.033783753817998266
6.200000047683716,1.6822742261152606,2.367155134998244,0.03210019536774767
6.203999996185303,1.6737820452286392,2.367312302708526,0.030977845366958735
6.209000110626221,1.6637360146720146,2.3680187122475127,0.02974693211213825
6.2149999141693115,1.6512770055110122,2.368240809158925,0.028470305437851232
6.2200000286102295,1.640674928911049,2.3684259002150005,0.027406390690656823
6.223999977111816,1.6317520583503287,2.369067198506668,0.026748960576924257
6.229000091552734,1.6210970584882254,2.369248743150827,0.02593864504363643
6.234999895095825,1.607875268349647,2.3699391775459513,0.02484748142086077
6.240000009536743,1.596844902622766,2.370112280629867,0.02431329103354372
6.24399995803833,1.587878659631077,2.370250758144594,0.02388595400664985
6.25,1.5749209993334967,2.3709162155322216,0.023417304905717896
6.255000114440918,1.5645506220186904,2.37108798699416,0.023265170178729838
6.259000062942505,1.5558962763378161,2.3712253992494015,0.023143466749649226
6.263999938964844,1.5453428666549605,2.3718305408310245,0.023114912801487916
6.269999980926514,1.5325478990933603,2.3720224119146627,0.02316769401938681
6.275000095367432,1.5223094577147605,2.3726066610351912,0.023238838703524507
6.2790000438690186,1.5135205068920863,2.372715631023269,0.02345029046413097
6.2850000858306885,1.5004089198115529,2.3728790892529865,0.02376747440687534
6.289999961853027,1.489403111340772,2.373429395584261,0.02403621119248896
6.293999910354614,1.4809841387708742,2.373572777642687,0.024455076287027422
6.299000024795532,1.4696974164788252,2.3737520116254798,0.024978676380170452
6.305000066757202,1.4585804758028507,2.3743424748020465,0.025737458878284606
6.309999942779541,1.44827288093614,2.374489826116058,0.026438956536352712
6.313999891281128,1.439701964450659,2.3746077085725537,0.027000161352976074
6.319000005722046,1.42895244328791,2.37513642423331,0.02823154032074167
6.325000047683716,1.4164666426732475,2.37530930019179,0.029347640608115778
6.328999996185303,1.4082169671114317,2.3757871400912864,0.030230595215342933
6.334000110626221,1.398129801182869,2.37588298918831,0.031300287272007836
6.3399999141693115,1.3854576296834202,2.3759980017062676,0.03258384633199127
6.3450000286102295,1.3752061522924874,2.3760938508032914,0.03365353838865617
6.348999977111816,1.3674558427375163,2.3765760756128613,0.03529761479003951
6.354000091552734,1.3566632946488912,2.376798185413082,0.038678565479206915
6.359999895095825,1.343669826076989,2.3773281074598858,0.0417947970112476
6.365000009536743,1.3318500655745182,2.3774581113881386,0.0439656554818645
6.36899995803833,1.323104006721174,2.377900746474224,0.04594005999375842
6.375,1.3092121772983007,2.3780539986386335,0.049082770558713455
6.380000114440918,1.297203395816403,2.378181710805525,0.0517017376559175
6.384000062942505,1.2889777516242198,2.3786078395273518,0.0545413803288124
6.388999938964844,1.2783511909804854,2.3787264784495648,0.057147536130124764
6.394999980926514,1.2650289873281326,2.3788688496820485,0.06027502251111885
6.400000095367432,1.2548279510876497,2.3793033236762313,0.06310855659322871
6.4040000438690186,1.2464005604333135,2.379394894044108,0.06518487643865568
6.4100000858306885,1.2332249313572126,2.3798437694704813,0.0683100040141784
6.414999961853027,1.222094125926064,2.379962130436896,0.07134506310162383
6.418999910354614,1.2132062544748243,2.3800568203388335,0.0737731393168769
6.424000024795532,1.2021151582359992,2.3804709807780924,0.07649325879048165
6.430000066757202,1.1893982247707242,2.380581313973007,0.07871843370099768
6.434999942779541,1.1783732357806915,2.3806732553792918,0.08057268717983548
6.438999891281128,1.1696309335475972,2.3808278002874896,0.08205345505023252
6.444000005722046,1.1589943796612943,2.3811759223366633,0.0852053581129275
6.450000047683716,1.1462243122282467,2.3816225401509867,0.0891637910664075
6.453999996185303,1.1379341577926603,2.3817085472706245,0.09077893464752906
6.459000110626221,1.127843822984861,2.381816060015039,0.09279793632740516
6.4649999141693115,1.1154012846657242,2.3822205870816786,0.09519020500446607
6.4700000286102295,1.1046330474987105,2.3823203200062415,0.09715403222100309
6.473999977111816,1.0962336917508433,2.3824001034925755,0.09872503780997133
6.479000091552734,1.0856901640869938,2.382770588105644,0.10011408679139196
6.484999895095825,1.0729307219809907,2.38289174121242,0.1006240726359575
6.490000009536743,1.0623313241104189,2.382992707751475,0.1010490844830558
6.49399995803833,1.0544484366588753,2.383335402174447,0.10046554949203462
6.5,1.041970759502818,2.3834529832457187,0.09952376589370072
6.505000114440918,1.0316128746505253,2.383806742661076,0.09819230149483793
6.509000062942505,1.0237223398042383,2.3838811188890507,0.09602257235962362
6.513999938964844,1.0137872608015321,2.3839740880657128,0.09331044327250561
6.519999980926514,1.0018585716282553,2.3843332386604437,0.0886394651866023
6.525000095367432,0.9919944776565659,2.3844203597667235,0.0839792208486369
6.5290000438690186,0.9846380347526221,2.38449005415925,0.08025115870587295
6.5350000858306885,0.9736987434409504,2.384844545251846,0.0724077743310516
6.539999961853027,0.9633851657721167,2.3849390921046987,0.06441282669315113
6.543999910354614,0.9556206704696734,2.385014730488672,0.058016792335177925
6.549000024795532,0.9463180607726213,2.3853197492713174,0.05027544297275549
6.555000066757202,0.9349591741736242,2.3853966841591396,0.04204689688162563
6.559999942779541,0.9251989594051255,2.3854607945275945,0.03518999311952262
6.563999891281128,0.917204515173712,2.3876374812666588,0.026049531547925036
6.569000005722046,0.9083274348798703,2.397354081023233,0.0056170248139281315
6.575000047683716,0.8971890543962393,2.4210990773533383,-0.01463153804370292
6.578999996185303,0.8896115125509196,2.425413773940228,-0.02645178939219959
6.584000110626221,0.880345750750409,2.4308073375582917,-0.041227631991035615
6.5899999141693115,0.8698692888720412,2.450322878419078,-0.060857689328980794
6.5950000286102295,0.8612969086932535,2.455091345885502,-0.0761761672723258
6.598999977111816,0.85355914439699,2.470908367618969,-0.09316780028485608
6.604000091552734,0.8447569763523568,2.475329577333992,-0.11014302414018198
6.609999895095825,0.833908912698349,2.480634733851184,-0.13051215957405937
6.615000009536743,0.8248260365914828,2.4951876677241227,-0.1490078355835876
6.61899995803833,0.8174745480066903,2.4981083083006475,-0.1645018455500419
6.625,0.8071668125088562,2.5024893562084265,-0.1877433222631485
6.630000114440918,0.79888031263453,2.514720794866173,-0.20879392771834637
6.634000062942505,0.7921344566723402,2.5172184152161545,-0.2257797827771465
6.638999938964844,0.7832893652793308,2.5277868355605397,-0.24867487337983155
6.644999980926514,0.7728604878089405,2.530750840585071,-0.27217340926575023
6.650000095367432,0.7642798329691213,2.5332208840315653,-0.29175583375114666
6.6540000438690186,0.7574533629255269,2.5409473983662276,-0.3091077171372861
6.6600000858306885,0.7470463263013859,2.543293395407847,-0.3323690416508967
6.664999961853027,0.7384184685556491,2.545248330795267,-0.3517528625352219
6.668999910354614,0.7314671590556341,2.5507472315133173,-0.3679213874143902
6.674000024795532,0.7230784026291501,2.552062146015265,-0.3884761099881901
6.680000066757202,0.7118999298167656,2.5563514790539217,-0.41453520434681357
6.684999942779541,0.702721097102417,2.557116016369011,-0.43351588768628174
6.688999891281128,0.6960323505844056,2.5577276535124596,-0.44870061537624684
6.694000005722046,0.6878288057664468,2.559540638175223,-0.4686483974556338
6.700000047683716,0.6769347521583907,2.5597343795434795,-0.48948092489371103
6.703999996185303,0.6700027142653402,2.5598635378894716,-0.5033690005842706
6.709000110626221,0.66145277546992,2.5594015955888954,-0.5208888458825939
6.7149999141693115,0.6517163083318797,2.5589443867738093,-0.5385671008152944
6.7200000286102295,0.6432748744868042,2.5585633582313903,-0.5532997995019064
6.723999977111816,0.6368649075509037,2.5559525345079246,-0.5705950912991593
6.729000091552734,0.6288802900450852,2.5548312662286774,-0.5925339252237928
6.734999895095825,0.6192117625397132,2.5499057871647617,-0.6194159496528229
6.740000009536743,0.610814914463117,2.548331521184725,-0.6308849105165774
6.74399995803833,0.6040506638806826,2.5470721534397756,-0.6400597510854886
6.75,0.5947022422550813,2.5398564051343686,-0.6561485902543802
6.755000114440918,0.5866959155731333,2.5377348931880883,-0.6690754492693101
6.759000062942505,0.5799667603192508,2.536037744326619,-0.6794165666493158
6.763999938964844,0.5721708273226017,2.5269868688642236,-0.694340587964089
6.769999980926514,0.5631075481699688,2.5236809846651025,-0.7111424231101121
6.775000095367432,0.556394679684378,2.5128243609362455,-0.7244675751258965
6.7790000438690186,0.5505544317435758,2.510259310011143,-0.7340739831673424
6.7850000858306885,0.5419222362290537,2.5064116571780306,-0.7484838815264667
6.789999961853027,0.5357205911565702,2.4934596554581816,-0.7612060568613536
6.793999910354614,0.5297759807748141,2.490394185413162,-0.7704193829316108
6.799000024795532,0.5228274896420095,2.486562210817933,-0.7819364523925058
6.805000066757202,0.5146454529260571,2.4706694420350175,-0.7943124119947745
6.809999942779541,0.5082785411249944,2.466382398681936,-0.8042211117827682
6.813999891281128,0.5033750193465815,2.4629527231140256,-0.8121481661122314
6.819000005722046,0.49733497334397286,2.445805186491448,-0.8212629415537398
6.825000047683716,0.4906740734429398,2.4399688514916145,-0.8322067905397408
6.828999996185303,0.48613115962152786,2.4222776515292344,-0.8388665879108227
6.834000110626221,0.47916935009216133,2.4170186933718965,-0.8456701271620194
6.8399999141693115,0.47215394089268764,2.4107082946483884,-0.8538339200886055
6.8450000286102295,0.46714302038777944,2.3898532807516175,-0.8598876314499515
6.848999977111816,0.46268086946348963,2.384954564789306,-0.863884547433633
6.854000091552734,0.45764901937730956,2.3788309508439287,-0.8688808710916034
6.859999895095825,0.4519771546856194,2.3550541579501805,-0.874558128723949
6.865000009536743,0.44726095001099647,2.3487866985415122,-0.8789007544116778
6.86899995803833,0.4436496526656571,2.3261082585491195,-0.8820941916589594
6.875,0.4388500589565045,2.318109872287525,-0.8857204959614401
6.880000114440918,0.43443246135823443,2.3114444444611655,-0.8887424642453002
6.884000062942505,0.4313581017682033,2.287055286992195,-0.8905328594503181
6.888999938964844,0.4281686515554242,2.2798205756327388,-0.8921603555792752
6.894999980926514,0.4205709036532602,2.2711386460122114,-0.8941134130196136
6.900000095367432,0.4162492021464568,2.243471901654486,-0.8941316989214224
6.9040000438690186,0.4141993613885285,2.2372825519840935,-0.8940074063921214
6.9100000858306885,0.415335209363319,2.206908339696996,-0.8933218357459696
6.914999961853027,0.40977180814577674,2.199036667351198,-0.8914927755107691
6.918999910354614,0.4067382002986537,2.1927392544025803,-0.8900295098788985
6.924000024795532,0.40426702125242253,2.1636609383529333,-0.8877132148609762
6.930000066757202,0.4021720295105692,2.1541488636917046,-0.8837731247647839
6.934999942779541,0.3999639940829087,2.14622238678951,-0.8804898207273028
6.938999891281128,0.3985964589941238,2.118786831321913,-0.8766324642954264
6.944000005722046,0.39686784125155394,2.110912834296874,-0.8720274051428466
6.950000047683716,0.3950460534791939,2.080477392783967,-0.8647732514138136
6.953999996185303,0.39400170559009695,2.0742890804245926,-0.8562047338633043
6.959000110626221,0.39268462845598817,2.066553413332693,-0.8454937038776525
6.9649999141693115,0.39086089211433445,2.035889254952348,-0.8362384553520944
6.9700000286102295,0.38967730809847706,2.0276398262627655,-0.8349107601729137
6.973999977111816,0.38919097555793686,2.021040519323746,-0.8338486420143635
6.979000091552734,0.38904724567392746,1.9919788842223154,-0.8285952636065059
6.984999895095825,0.38848377604813544,1.9826692607364196,-0.8203644002955807
6.990000009536743,0.3881514971875722,1.9537909058483358,-0.8129075523262288
6.99399995803833,0.38787992695331996,1.9473699585563164,-0.8073924173374432
7.0,0.38766408426206383,1.9377383462566824,-0.7991195504883177
7.005000114440918,0.38753998580185595,1.9087058799312828,-0.7916050888140082
7.009000062942505,0.3874229247123016,1.902498042678903,-0.786045415894946
7.013999938964844,0.38755828184224966,1.894738338618603,-0.7790959075927674
7.019999980926514,0.38772733579316665,1.8641524877861029,-0.7696698605868391
7.025000095367432,0.38743441460256833,1.856107595314572,-0.7619240206422081
7.0290000438690186,0.3874115339307425,1.8496719114982993,-0.7557275702916896
7.0350000858306885,0.3876606337107418,1.8190861966481118,-0.7478747548913728
7.039999961853027,0.38790448313997145,1.8112327168339337,-0.7422222334445926
7.043999910354614,0.38791745203775696,1.7837852767814415,-0.7376620893130226
7.049000024795532,0.3878301794708172,1.7759939652004233,-0.7307487553874632
7.055000066757202,0.3875855120921834,1.7666445399072752,-0.7224528865351542
7.059999942779541,0.387420250779174,1.7376631102536562,-0.7154846776897175
7.063999891281128,0.38721675209721895,1.731320610838577,-0.7107227930127499
7.069000005722046,0.38720984226655747,1.7233922030342594,-0.7047702242909664
7.075000047683716,0.3871818442248024,1.6928794598134613,-0.6962337214305412
7.078999996185303,0.38689697737403944,1.6865647389173468,-0.6923620972384567
7.084000110626221,0.3868051637730853,1.6786710555035476,-0.6875223939210342
7.0899999141693115,0.3869810857347442,1.6479116940549514,-0.680404494052398
7.0950000286102295,0.3868033777579684,1.6398695629050168,-0.6748457435542845
7.098999977111816,0.3869551510274214,1.6124164896141444,-0.6687345323956866
7.104000091552734,0.3869483488922662,1.6046503235731022,-0.6643412653953443
7.109999895095825,0.38704383853057667,1.5953314427595016,-0.6590696382704343
7.115000009536743,0.38714518651062035,1.5662787705349022,-0.654061783293812
7.11899995803833,0.38715452408902334,1.5599135986880905,-0.6503621944548232
7.125,0.3869959288799558,1.529179696863008,-0.6448005016227334
7.130000114440918,0.38700063646298155,1.521247898737313,-0.639432186744356
7.134000062942505,0.3869482538761546,1.5149026871621278,-0.6351376884268594
7.138999938964844,0.3869884622861679,1.4858496702172919,-0.6293535741504845
7.144999980926514,0.386968570915167,1.4763649553106017,-0.6232525524757113
7.150000095367432,0.38698385816579506,1.4684609005930023,-0.6181682869363588
7.1540000438690186,0.38693966440572386,1.4410887465255076,-0.6133863817271046
7.1600000858306885,0.3870685158813594,1.4317414479607726,-0.6066776421846694
7.164999961853027,0.38702825230556653,1.4239522801072777,-0.6010872036189692
7.168999910354614,0.38707363266990685,1.3963139575912673,-0.595652331446954
7.174000024795532,0.3872047394651983,1.3881428122414272,-0.5894788383162953
7.180000066757202,0.3871647628757108,1.3573939727515434,-0.5813230801022582
7.184999942779541,0.3872075135757164,1.3497023797869259,-0.5745733477365434
7.188999891281128,0.38748654427265095,1.3435490320606662,-0.5691734974719116
7.194000005722046,0.38770699205883985,1.314677160021619,-0.5614171525412556
7.200000047683716,0.38787645422153383,1.3052119395500466,-0.5520680011466355
7.203999996185303,0.3877378647054033,1.298901917939478,-0.5458353573833221
7.209000110626221,0.3877991070409355,1.2698377820344258,-0.536456371566789
7.2149999141693115,0.38824543393803,1.260175542982292,-0.525394648390344
7.2200000286102295,0.38819254993627894,1.2313018820078414,-0.507486524467427
7.223999977111816,0.38836669868685625,1.2249451178278212,-0.5027256423360962
7.229000091552734,0.38824540615285774,1.2169988784296344,-0.49677432684117634
7.234999895095825,0.3880586562119384,1.1864175731964353,-0.4867172042120627
7.240000009536743,0.3884706454930369,1.1785803109555875,-0.4762976304078333
7.24399995803833,0.38845051848663703,1.1723107253836487,-0.4679622694640246
7.25,0.3885530681234226,1.1416699626039324,-0.45537405813904086
7.255000114440918,0.3887472324649761,1.1337342054367998,-0.4447241365460545
7.259000062942505,0.3884926664903336,1.1273858267417312,-0.43620450396139254
7.263999938964844,0.3884566177620783,1.0993150345249578,-0.4260722965605808
7.269999980926514,0.3886209371687319,1.0912829464607459,-0.4139581821451445
7.275000095367432,0.38879077397299894,1.0845894333524788,-0.4038629263428506
7.2790000438690186,0.38903414356343335,1.05621020552857,-0.39136842682467876
7.2850000858306885,0.38911185862317377,1.0447827746137606,-0.3752727754353989
7.289999961853027,0.38929647296466313,1.0152862123103323,-0.36210414410616215
7.293999910354614,0.3893922414071881,1.0090756685612954,-0.35297085218717106
7.299000024795532,0.3894797407150963,1.0013122112384845,-0.3415538289932102
7.305000066757202,0.38953180591220116,0.970576750359975,-0.3244587017261331
7.309999942779541,0.38947986092111825,0.9625086214799365,-0.31050253332799843
7.313999891281128,0.38977426477935206,0.9349733480896559,-0.29695262776768766
7.319000005722046,0.3899964067831968,0.9268806329011481,-0.28493684930795354
7.325000047683716,0.3903961454484713,0.9171695290276982,-0.2705181443338133
7.328999996185303,0.3906749557288481,0.889736916985393,-0.2590090206395607
7.334000110626221,0.39095951958624164,0.8820363573823015,-0.2452572564680835
7.3399999141693115,0.39146834075526654,0.8727961999146397,-0.2287560574706
7.3450000286102295,0.3956526684968794,0.8439911215796696,-0.20848488846860957
7.348999977111816,0.39400413989254307,0.8375332793638038,-0.20023245441827847
7.354000091552734,0.39287627659146723,0.8294606879022113,-0.18991654293806487
7.359999895095825,0.3933208610308921,0.7991196081923505,-0.1711904719403881
7.365000009536743,0.39443728636177405,0.7913856498945426,-0.15644299547087578
7.36899995803833,0.39491154828582575,0.7642562206453597,-0.14088220285568007
7.375,0.3957480845818632,0.7547191817376421,-0.12495445205439346
7.380000114440918,0.3960761919660809,0.7467715229928016,-0.11168111541747926
7.384000062942505,0.3995502018749388,0.7197413312651573,-0.09918061741003442
7.388999938964844,0.40112121523131705,0.7119896787826959,-0.084748723714624
7.394999980926514,0.4024297662889129,0.6820770325529989,-0.0660480121182456
7.400000095367432,0.4034623275770229,0.6743294426254582,-0.049959365619852536
7.4040000438690186,0.4045460490370666,0.6681315923386784,-0.037088908710471435
7.4100000858306885,0.4029976219246057,0.6385001861142852,-0.01874243947369421
7.414999961853027,0.4077621622933647,0.6310364706295892,-0.005004794331326421
7.418999910354614,0.4090192075626226,0.6250654270605299,0.005985452798209813
7.424000024795532,0.4104522300679247,0.5975902380218608,0.021611765023894905
7.430000066757202,0.4130290175570375,0.5887150710437384,0.039786954573965735
7.434999942779541,0.41519416219436645,0.5813193336719589,0.05493246439096229
7.438999891281128,0.41690549751661765,0.5555237322153261,0.0671920975143796
7.444000005722046,0.4195850974542137,0.5480171607582588,0.08276893281139015
7.450000047683716,0.42288256632868326,0.519726778503308,0.10264815802286462
7.453999996185303,0.4250247175453704,0.5140867144544651,0.11471856352845548
7.459000110626221,0.42816865856564384,0.5070363822596549,0.12980711000656547
7.4649999141693115,0.4319621344205605,0.47946931925219277,0.14737270475380224
7.4700000286102295,0.4351961143831049,0.4723954336674787,0.16155694897858416
7.473999977111816,0.4378564668682803,0.4667365275805653,0.17290393855321542
7.479000091552734,0.4414265683366654,0.4410914423582494,0.18705747717721682
7.484999895095825,0.44597673830891194,0.43274823326871936,0.20418363960739555
7.490000009536743,0.4499219198937629,0.40767778300564067,0.218419771193941
7.49399995803833,0.453399926340229,0.4023500222870539,0.23019622031289888
7.5,0.4589516535571015,0.394358222427487,0.24786124496138753
7.505000114440918,0.463459684678888,0.3701445683566884,0.2592936177213717
7.509000062942505,0.467923477611077,0.3650608769032764,0.26570490030768584
7.513999938964844,0.47331283978497823,0.35870633834039245,0.27371890800379317
7.519999980926514,0.4799196966637423,0.33387878983880614,0.28623176636900904
7.525000095367432,0.4864390249767986,0.32739490413805755,0.29438396608980133
7.5290000438690186,0.4912835961517755,0.32220798107867077,0.30090549263546856
7.5350000858306885,0.4989565846697434,0.2984697965908059,0.30963374435031527
7.539999961853027,0.5054188779461185,0.29257317656266785,0.3168689509120721
7.543999910354614,0.510939528012995,0.2718842520954707,0.32292480479829927
7.549000024795532,0.518625308439332,0.26597765654089905,0.32782287988886644
7.555000066757202,0.5278458175487718,0.25888985453220414,0.3337004765763171
7.559999942779541,0.5361316400166745,0.23769885253850026,0.3380310799377929
7.563999891281128,0.5436336277664475,0.233119482900591,0.3412751022565295
7.569000005722046,0.5534493756875128,0.2273950661367934,0.3453302751759158
7.575000047683716,0.5647864251060689,0.20650359553763448,0.34873782560698136
7.578999996185303,0.5717888469538004,0.20252757388462003,0.35083228813569
7.584000110626221,0.580396083175451,0.19755736907404492,0.35345045992755253
7.5899999141693115,0.5916061193045535,0.17694715223008528,0.355750932783937
7.5950000286102295,0.6018401549797039,0.17146809850589237,0.3574270956598106
7.598999977111816,0.6108079040318459,0.15391202106016905,0.35901264858972326
7.604000091552734,0.621285640357065,0.14899749814396948,0.35954961638729366
7.609999895095825,0.6347578702252573,0.14310039871682081,0.3601939418987308
7.615000009536743,0.6458836227596941,0.12545399782120728,0.3606023574785189
7.61899995803833,0.6553113124724762,0.12159034297528507,0.3608092977506524
7.625,0.6685305523121298,0.10375358795444645,0.3611242369788123
7.630000114440918,0.6808309362049022,0.09937316953993741,0.3612509510541547
7.634000062942505,0.6908262774942601,0.0958689601302379,0.3613523186891928
7.638999938964844,0.7028906116950647,0.08005894342669997,0.3616026523171788
7.644999980926514,0.7175061570087362,0.07508042147933822,0.36223847287141764
7.650000095367432,0.7297607714526598,0.07093158724743522,0.36276833175497075
7.6540000438690186,0.7395198445865815,0.05689304245908018,0.3638530330161858
7.6600000858306885,0.7539890898355075,0.052180580245154075,0.36576240034416857
7.664999961853027,0.766355293467405,0.038154913115237506,0.3677933396579196
7.668999910354614,0.7768730965681802,0.03519957936794909,0.3696877189395812
7.674000024795532,0.7868933908869478,0.03150528006842398,0.3720557777281015
7.680000066757202,0.7981362335033876,0.017777208784861533,0.3758575871732852
7.684999942779541,0.8083812043293633,0.014420551129933925,0.38006537577224025
7.688999891281128,0.8185736045953633,0.011735192993616132,0.38343164678099845
7.694000005722046,0.8321501066982401,-0.0002190387593796377,0.38763193198521384
7.700000047683716,0.8474281762390645,-0.003924378983235218,0.3927233134594655
7.703999996185303,0.8571182412275279,-0.006394556720484884,0.3961175003383306
7.709000110626221,0.8694197509605185,-0.017216681090341805,0.4015669889016316
7.7149999141693115,0.8836834267132099,-0.020546882669777687,0.4078439464883932
7.7200000286102295,0.8963714996921748,-0.030496635174741604,0.4134499238865454
7.723999977111816,0.9063120367124545,-0.03255204158502481,0.4194165839990229
7.729000091552734,0.9182674290000782,-0.035121391482888516,0.4268751758735463
7.734999895095825,0.933308888909413,-0.044498943342620514,0.43617743905538814
7.740000009536743,0.9465849854213593,-0.04683213663812513,0.44311855148245793
7.74399995803833,0.9567402290244146,-0.04869862452286102,0.4486712428418395
7.75,0.9721507134202847,-0.05672366068658132,0.459360640800263
7.755000114440918,0.9843653219429993,-0.058638200568706306,0.4682338149918546
7.759000062942505,0.9936884398247249,-0.06016977770023458,0.4753321004873883
7.763999938964844,1.0057963620005559,-0.06657782670779083,0.48062420250472104
7.769999980926514,1.020266631045995,-0.06848137677858102,0.4868790647094921
7.775000095367432,1.0322822617775298,-0.07395004154560872,0.49278992250626374
7.7790000438690186,1.0418998391473369,-0.07503073858558619,0.49853561358352255
7.7850000858306885,1.056311979767364,-0.07665181635324865,0.5071543214365533
7.789999961853027,1.0682327146332078,-0.08089059887704815,0.5149405884499441
7.793999910354614,1.0779965761033772,-0.08172831332125918,0.5192688426985269
7.799000024795532,1.0897748748530254,-0.08277549382575902,0.5246793539997893
7.805000066757202,1.103854184292673,-0.08587549978582927,0.5320617192419598
7.809999942779541,1.115812218977735,-0.0865389999596579,0.538295950612117
7.813999891281128,1.1253660994064831,-0.08843700945617794,0.5436776819489774
7.819000005722046,1.1373653010691853,-0.08880307180514742,0.5491289697994889
7.825000047683716,1.1513691003752624,-0.0892423396419854,0.555670411247418
7.828999996185303,1.1606086802123585,-0.08992392933340636,0.5599107658212703
7.834000110626221,1.172128558429094,-0.08996102876361042,0.5641756649240555
7.8399999141693115,1.18589759659849,-0.09000554560325782,0.5692932591411823
7.8450000286102295,1.1969143225473688,-0.08940498789396248,0.5737126983058459
7.848999977111816,1.2056506888802474,-0.08917124119754173,0.5754870456345222
7.854000091552734,1.216371480377537,-0.08766350489691732,0.5788330308273572
7.859999895095825,1.2297641872075573,-0.08692815080535048,0.5806474121012698
7.865000009536743,1.240371312559261,-0.08631532163752455,0.5821594806121577
7.86899995803833,1.2487082220321069,-0.08364191688573781,0.5833343141875202
7.875,1.261592721388464,-0.08250376770305687,0.5845536572775287
7.880000114440918,1.2725255991724875,-0.0815552949755998,0.5855697926698697
7.884000062942505,1.2814150924080696,-0.07767878482460952,0.5861821320309266
7.888999938964844,1.2923195713618099,-0.07645522619163876,0.5865777176406021
7.894999980926514,1.3059007879056777,-0.07116040146885197,0.5870702850443189
7.900000095367432,1.3170128653782147,-0.06953803684611896,0.5872709939492684
7.9040000438690186,1.3258784729381918,-0.06824019156309437,0.5874315553310316
7.9100000858306885,1.3388254272118132,-0.061486850767475926,0.587566531368548
7.914999961853027,1.3504410885797862,-0.05953262267200181,0.5875189821788557
7.918999910354614,1.3592319893177245,-0.05796922155818896,0.5874809423736261
7.924000024795532,1.3702310753795108,-0.05040123481584177,0.5872142467791124
7.930000066757202,1.3835577414188573,-0.04779624987147008,0.5867856698784227
7.934999942779541,1.3946382609881995,-0.03931355934665575,0.5861196530928185
7.938999891281128,1.403421988826741,-0.037294396654939124,0.5855384463188197
7.944000005722046,1.4145027246311535,-0.034770353025524975,0.5848119118690192
7.950000047683716,1.4277471610928198,-0.02450324768034678,0.5836155064467529
7.953999996185303,1.4368727601251192,-0.022255748852427645,0.5824699284398358
7.959000110626221,1.4481324529835238,-0.019446274845208226,0.5810379047192026
7.9649999141693115,1.4615758929734193,-0.007882387124507138,0.5794380631915211
7.9700000286102295,1.473181235196627,-0.00471350664140478,0.5781785557862497
7.973999977111816,1.4825914194749543,-0.0021784929152456967,0.5771709858960037
7.979000091552734,1.4946277087817625,0.009758351070473324,0.5756837303730887
7.984999895095825,1.5066909756033409,0.013556329464200725,0.5738036446255627
7.990000009536743,1.52114725703733,0.026312687178518344,0.5720582726237151
7.99399995803833,1.5289754015866563,0.029478992759801887,0.5705855277175891
8.0,1.542263342433652,0.034228545496201815,0.5683763664666164
8.005000114440918,1.5529919863145665,0.0481171798237074,0.5666190789977333
8.009000062942505,1.5610898622065073,0.050743302672310066,0.565511416158652
8.013999938964844,1.570994343699447,0.054025917100279694,0.5641268541154753
8.019999980926514,1.5832304154970904,0.06947812432946175,0.5616305778591547
8.025000095367432,1.5942819282235594,0.07474829262712382,0.559700313237442
8.029000043869019,1.6034710713012115,0.07896427648798002,0.5581561567641216
8.035000085830688,1.6174131926673179,0.09647835698488165,0.5558255493088081
8.039999961853027,1.628703327138058,0.1012468114379369,0.5540216405603763
8.043999910354614,1.6380780823842027,0.11749078479983657,0.55236072216902
8.049000024795532,1.6495633187112615,0.12215482590640989,0.5503513360874475
8.055000066757202,1.6627098367057134,0.12775158627680966,0.5479401111146811
8.059999942779541,1.6718454448734092,0.1458611273252572,0.5452093634500964
8.063999891281128,1.6795793358817928,0.14995203176497188,0.5438714424008566
8.069000005722046,1.6895095237081947,0.1550658451946492,0.5421989812788052
8.075000047683716,1.7022141349323834,0.17523027917800488,0.539312830145337
8.078999996185303,1.710267842476284,0.17944276106958632,0.5374601163509124
8.08400011062622,1.7213749075569014,0.19930682074583358,0.5351046309963842
8.089999914169312,1.7348294024143303,0.2060977827272967,0.531847673298393
8.09500002861023,1.7465372142897182,0.21175723254550632,0.5291333908886067
8.098999977111816,1.756719601708562,0.23141374868453368,0.526180785073099
8.104000091552734,1.7701063016060075,0.23704226673029608,0.5224241718315277
8.109999895095825,1.7857626303498477,0.2437961126496939,0.5179164867168919
8.115000009536743,1.790838047426384,0.2656322903061663,0.5145152147813593
8.11899995803833,1.7984331118913692,0.270469125541898,0.5118055783833817
8.125,1.8103080183576694,0.29417771164751627,0.5075661019873248
8.130000114440918,1.8208694305532163,0.300379098995242,0.5033759904513253
8.134000062942505,1.829402763957773,0.3053400314543683,0.5000240210998346
8.138999938964844,1.840366275246595,0.3285138716481403,0.49479173800468135
8.144999980926514,1.8539582432868738,0.3363202836097415,0.4902334708004423
8.150000095367432,1.8646049829750306,0.3428257303099998,0.4864348544209103
8.154000043869019,1.8731490697825595,0.36572093659075827,0.48325029165725625
8.160000085830688,1.8874763090433118,0.3737955484705899,0.4783636799663475
8.164999961853027,1.8992751547238422,0.3985939780595194,0.47442222083772456
8.168999910354614,1.9065463613220581,0.4041637179018093,0.47145500138388885
8.174000024795532,1.9173463424194273,0.41112614169465095,0.46774584441984024
8.180000066757202,1.9294715842432322,0.4380047693482453,0.46347601104794284
