Time_sec,MoCap_Angle_rad,Optimized_Angle_rad,Filtered_Net_A
0.0,0.38800843522133566,0.0,-0.006305938985030361
0.00599980354309082,0.3879305483898351,0.0,-0.02067217345731377
0.010999917984008789,0.3880564661949803,0.0,-0.0326447015460373
0.014999866485595703,0.3881113335878024,0.0,-0.03896583445614651
0.020999908447265625,0.38808442702070306,0.0,-0.04532478997955241
0.026000022888183594,0.3879425032276076,0.0,-0.0512371324836612
0.029999971389770508,0.38803438234344545,0.0,-0.055854511389899414
0.034999847412109375,0.3880366043836814,0.0,-0.06162616621750396
0.0409998893737793,0.3881347818473901,0.0,-0.06885783093189993
0.046000003814697266,0.38803587150823954,0.0,-0.0753691619338531
0.04999995231628418,0.38803367748079737,0.0,-0.08057804044900511
0.0559999942779541,0.38803133998184436,0.0,-0.08981108580553636
0.06099987030029297,0.38797746775035663,0.0,-0.09715328182008047
0.06499981880187988,0.3880815961787073,0.0,-0.10443188186763668
0.06999993324279785,0.38813014477862545,0.0,-0.11123321776073686
0.07599997520446777,0.3883384123457485,0.0,-0.11939469111023902
0.08099985122680664,0.38815022816899175,0.0,-0.12781811740194707
0.08499979972839355,0.38827892677672055,0.0,-0.13459709660209623
0.08999991416931152,0.3883718726431262,0.0,-0.14307112365016963
0.09599995613098145,0.3882603001944096,0.0,-0.15417433565824204
0.09999990463256836,0.3882640872661529,0.0,-0.16112954305802255
0.10500001907348633,0.38826604540206433,0.0,-0.16982386323375104
0.11099982261657715,0.3882033089876231,0.0,-0.17975377585651783
0.11599993705749512,0.3881266981639401,0.0,-0.1880628461710627
0.11999988555908203,0.3881105139094869,0.0,-0.19519462757282763
0.125,0.3880084516004966,0.0,-0.20264487268490833
0.13099980354309082,0.38805608356067944,0.0,-0.21158466947326954
0.1359999179840088,0.3854326147376527,0.0,-0.21936364052871604
0.1399998664855957,0.38451183066071715,0.0,-0.224994438214372
0.14599990844726562,0.3874994497173807,0.0,-0.23402547245990227
0.1510000228881836,0.3883694107961608,0.0,-0.24094066304588335
0.1549999713897705,0.38825411478074295,0.0,-0.2464726176740068
0.15999984741210938,0.3881192899852069,0.0,-0.2527445576624428
0.1659998893737793,0.38793520742248533,0.0,-0.2574598336723922
0.17100000381469727,0.3879353541164965,0.0,-0.26138929280299145
0.17499995231628418,0.38777244123251253,0.0,-0.2660810048256898
0.1809999942779541,0.38520394053392054,0.0,-0.26969129525026153
0.18599987030029297,0.38416773511330804,0.0,-0.2726997749647054
0.18999981880187988,0.3842403496035942,0.0,-0.2752175191671882
0.19499993324279785,0.3866766295891529,0.0,-0.2780279476554723
0.20099997520446777,0.3857132324700632,0.0,-0.28103312405402686
0.20599985122680664,0.38448857999595437,0.0,-0.2826912236612441
0.20999979972839355,0.38442889148900994,0.0,-0.28401771916028007
0.21499991416931152,0.3843935892180678,0.0,-0.28549736311841994
0.22099995613098145,0.38465423222749257,0.0,-0.28662004299491617
0.22499990463256836,0.3846717974405957,0.0,-0.2873684813755876
0.23000001907348633,0.38480571667621266,0.0,-0.28790695058213067
0.23599982261657715,0.38473139787260013,0.0,-0.2882105062988267
0.24099993705749512,0.38487480390713136,0.0,-0.2882172467534435
0.24499988555908203,0.3847688035007979,0.0,-0.28800152526340533
0.25,0.38703755328339734,0.0,-0.2877318637572313
0.2559998035430908,0.38588792640312686,0.0,-0.28706801003163734
0.2609999179840088,0.3846966887814477,0.0,-0.28616870300265485
0.2649998664855957,0.38462416622784323,0.0,-0.28544928310826045
0.2709999084472656,0.38467048741973736,0.0,-0.2840229182124705
0.2760000228881836,0.3849829413366208,0.0,-0.2831647230884141
0.2799999713897705,0.38481972880688353,0.0,-0.2824781915417665
0.2849998474121094,0.38482660778406835,0.0,-0.2811650140274671
0.2909998893737793,0.3849124110347303,0.0,-0.28006898765155724
0.29600000381469727,0.38506372253498594,0.0,-0.2782855383082003
0.2999999523162842,0.38506428758866157,0.0,-0.2778187222802316
0.3059999942779541,0.3850862676311451,0.0,-0.27711848432589764
0.31099987030029297,0.38509718923974806,0.0,-0.27598282606289787
0.3149998188018799,0.3851309121597308,0.0,-0.2753910856297729
0.31999993324279785,0.3851546183436736,0.0,-0.2746513836351673
0.3259999752044678,0.3853493579592903,0.0,-0.27363605889351156
0.33099985122680664,0.38533687609214573,0.0,-0.27283582150552843
0.33499979972839355,0.3852329252273873,0.0,-0.27215726334856566
0.3399999141693115,0.38533150895283486,0.0,-0.2717883883538534
0.34599995613098145,0.38544364198261766,0.0,-0.27134574539576983
0.34999990463256836,0.38530825884427033,0.0,-0.27104330342966526
0.35500001907348633,0.38547398614538886,0.0,-0.27107168432493917
0.36099982261657715,0.3855816829736143,0.0,-0.2711057395046821
0.3659999370574951,0.3854259230048398,0.0,-0.2717061840828813
0.36999988555908203,0.3855563826199519,0.0,-0.27223559795800195
0.375,0.3854385160520247,0.0,-0.2728973889688519
0.3809998035430908,0.3854645531368615,0.0,-0.27394831104114553
0.3859999179840088,0.38517725544297066,0.0,-0.27470703482672587
0.3899998664855957,0.38521426468123754,0.0,-0.27546446606552577
0.3959999084472656,0.38527982571786934,0.0,-0.2766123689224754
0.4010000228881836,0.38532489195950714,0.0,-0.2775689698410143
0.4049999713897705,0.38538003267468,0.0,-0.27897561707530777
0.4099998474121094,0.3853497425006215,0.0,-0.2798664576034846
0.4159998893737793,0.3853777119602297,0.0,-0.28095562689606285
0.42100000381469727,0.38552416857886224,0.0,-0.2822140041725904
0.4249999523162842,0.3854602120338943,0.0,-0.28322066999217377
0.4309999942779541,0.38563507721261975,0.0,-0.28462796691303865
0.43599987030029297,0.38552909780064737,0.0,-0.2856398024794398
0.4399998188018799,0.38557167785618934,0.0,-0.286449280582416
0.44499993324279785,0.3855950695343948,0.0,-0.28742506654920674
0.4509999752044678,0.3856760840902233,0.0,-0.2883565551796458
0.45599985122680664,0.3854504176472759,0.0,-0.28913277102916246
0.45999979972839355,0.3855504668098933,0.0,-0.28971878858401096
0.4649999141693115,0.3856152739133792,0.0,-0.29042870998632275
0.47099995613098145,0.3855608009536678,0.0,-0.2912758474266214
0.47499990463256836,0.3855562975833656,0.0,-0.29141580840414616
0.48000001907348633,0.3855899800349796,0.0,-0.2915907658828759
0.48599982261657715,0.38554229218695935,0.0,-0.29182712836744873
0.4909999370574951,0.3856576458989813,0.0,-0.2919036418169281
0.49499988555908203,0.3854608967253544,0.0,-0.29196485038749437
0.5,0.3853964941898588,0.0,-0.2921963097358533
0.5059998035430908,0.3855547214757134,0.0,-0.29257650143580827
0.5109999179840088,0.38553712221991004,0.0,-0.2931120741705177
0.5149998664855957,0.38764302195048556,0.0,-0.29389382888210913
0.5209999084472656,0.3863963126302495,0.0,-0.29506648424790216
0.5260000228881836,0.38506995903518626,0.0,-0.2980652274832016
0.5299999713897705,0.38509597355478153,0.0,-0.29873533760329285
0.5349998474121094,0.38531602588459485,0.0,-0.2995729652678595
0.5409998893737793,0.385516651234947,0.0,-0.3023549216738804
0.5460000038146973,0.3854630297996579,0.0,-0.30516300864291385
0.5499999523162842,0.38551852316473934,0.0,-0.3074093978799668
0.5559999942779541,0.38834079509434133,0.0,-0.31155423812490735
0.560999870300293,0.38664280637258075,0.0,-0.3152372068887515
0.5649998188018799,0.3857092428334007,0.0,-0.3185939963322225
0.5699999332427979,0.38514047878181173,0.0,-0.32275230693356516
0.5759999752044678,0.3856152431195781,0.0,-0.32774220034351115
0.5809998512268066,0.3858600962103197,0.0,-0.3315094319140093
0.5849997997283936,0.38782681719822243,0.0,-0.3339636563575296
0.5899999141693115,0.3870764024296455,0.0,-0.3370315466257247
0.5959999561309814,0.3883767752319588,0.0,-0.34145834282681475
0.5999999046325684,0.38697148713787155,0.0,-0.3449796932460563
0.6050000190734863,0.3857808035978669,0.0,-0.34925828567540096
0.6109998226165771,0.3885259878884464,0.0,-0.35295355214558705
0.6159999370574951,0.3891894675825547,0.0,-0.3560331121858311
0.619999885559082,0.38907098122255274,0.0,-0.3584966721131234
0.625,0.38892788230757425,0.0,-0.3636199784696858
0.6309998035430908,0.3887311168904448,0.0,-0.3694929374150161
0.6359999179840088,0.3886829735072299,0.0,-0.3740591607386544
0.6399998664855957,0.38850079679795085,0.0,-0.3762245540682657
0.6459999084472656,0.3883907567336406,0.0,-0.3794727085972637
0.6510000228881836,0.3883379618892124,0.0,-0.3839543758073039
0.6549999713897705,0.388324225084687,0.0,-0.38799470646195205
0.6599998474121094,0.388347608326243,0.0,-0.3928844687700983
0.6659998893737793,0.3885167992946352,0.0,-0.39833778619702176
0.6710000038146973,0.3884989067200484,0.0,-0.4028822896174079
0.6749999523162842,0.3866280664127044,0.0,-0.4061735378859704
0.6809999942779541,0.38802397044815645,0.0,-0.4094782401100243
0.685999870300293,0.38864052787160214,0.0,-0.4122226467589936
0.6899998188018799,0.3866662533117483,0.0,-0.414512559622838
0.6949999332427979,0.3854090988952004,0.0,-0.41737505307104356
0.7009999752044678,0.3853447528216806,0.0,-0.42132991239956313
0.7059998512268066,0.3855011116644338,0.0,-0.4236174833704369
0.7099997997283936,0.3855870337544392,0.0,-0.42544756196365374
0.7149999141693115,0.38550679924550707,0.0,-0.427855498604351
0.7209999561309814,0.3853612030735574,0.0,-0.42908188477560927
0.7249999046325684,0.38536039937434,0.0,-0.4298994593124924
0.7300000190734863,0.3852849379392375,0.0,-0.4309565521649221
0.7359998226165771,0.3852514091078801,0.0,-0.4322899274273577
0.7409999370574951,0.38507591409371356,0.0,-0.4331866661708402
0.744999885559082,0.38508184234266135,0.0,-0.4335103882561073
0.75,0.38504222961263807,0.0,-0.4339150553343825
0.7559998035430908,0.384965473366289,0.0,-0.43429527398134127
0.7609999179840088,0.3850487554217881,0.0,-0.43416983588479285
0.7649998664855957,0.38502392309582484,0.0,-0.4340694889962847
0.7709999084472656,0.3849052306846344,0.0,-0.43369748071747494
0.7760000228881836,0.38476970054565546,0.0,-0.4333434313848988
0.7799999713897705,0.3848145259399088,0.0,-0.43306020204803863
0.7849998474121094,0.3848029574377768,0.0,-0.43249038554623864
0.7909998893737793,0.38472301949181825,0.0,-0.431744034795898
0.7960000038146973,0.3846779679988266,0.0,-0.4311098302148351
0.7999999523162842,0.38481786278268193,0.0,-0.4305852515387889
0.8059999942779541,0.38462451676878695,0.0,-0.4297983678908554
0.810999870300293,0.3846562347083454,0.0,-0.4289546506746113
0.8149998188018799,0.38454496355494877,0.0,-0.4283033597070355
0.8199999332427979,0.38444199885692837,0.0,-0.42748921688221575
0.8259999752044678,0.3844559634482252,0.0,-0.42606290192616014
0.8309998512268066,0.38444515892814285,0.0,-0.424907754286444
0.8349997997283936,0.38448397378498506,0.0,-0.4239621381196468
0.8399999141693115,0.3843567591108195,0.0,-0.4226358381845011
0.8459999561309814,0.38456298494672075,0.0,-0.42104430355891104
0.8499999046325684,0.3845735675961243,0.0,-0.419769486541246
0.8550000190734863,0.3846202243081152,0.0,-0.4181936739780966
0.8609998226165771,0.3847478661626385,0.0,-0.41630280409674736
0.8659999370574951,0.38475985731103807,0.0,-0.41514394378396363
0.869999885559082,0.38481087738576075,0.0,-0.4142252234422063
0.875,0.3848995324389542,0.0,-0.4130767819444812
0.8809998035430908,0.38501915525805813,0.0,-0.4112342201587091
0.8859999179840088,0.38499035557776223,0.0,-0.4097651148723131
0.8899998664855957,0.38505421849338123,0.0,-0.4085451037608784
0.8959999084472656,0.3849740895748181,0.0,-0.40698650730425473
0.9010000228881836,0.38488644798905935,0.0,-0.4056876562795265
0.9049999713897705,0.38489631635927385,0.0,-0.40438988208733073
0.9099998474121094,0.3848812893962076,0.0,-0.40307333044560023
0.9159998893737793,0.38506732329269516,0.0,-0.40129004776537935
0.9210000038146973,0.38503748097242596,0.0,-0.39968055166573846
0.9249999523162842,0.3849952249251754,0.0,-0.3983930008330246
0.9309999942779541,0.3851050712345951,0.0,-0.3962997025897559
0.935999870300293,0.38501562050045474,0.0,-0.39435806659792993
0.9399998188018799,0.3849277291989272,0.0,-0.3928047392871263
0.9449999332427979,0.385022756642159,0.0,-0.39066445760946167
0.9509999752044678,0.3850157897172394,0.0,-0.38827856961671814
0.9559998512268066,0.3848835388810996,0.0,-0.3861263359352648
0.9599997997283936,0.38498128829577244,0.0,-0.3847199363785879
0.9649999141693115,0.38497312088794905,0.0,-0.38296187406097293
0.9709999561309814,0.3849211817583489,0.0,-0.3806048547216472
0.9749999046325684,0.3850475242067357,0.0,-0.37902004570765324
0.9800000190734863,0.38492806184863115,0.0,-0.377038963592765
0.9859998226165771,0.38485959877075404,0.0,-0.3744510614362242
0.9909999370574951,0.38493695582120246,0.0,-0.37239207830239446
0.994999885559082,0.38713345873751925,0.0,-0.37074495070196245
1.0,0.3881746730649326,0.0,-0.36810535247859033
1.0059998035430908,0.38563944074142936,0.0,-0.3650124209304344
1.0109999179840088,0.38756633022643566,0.0,-0.362460295010607
1.0149998664855957,0.38802133094819286,0.0,-0.3607424283670907
1.0209999084472656,0.3880595390396006,0.0,-0.3581655772047416
1.0260000228881836,0.3877911321293467,0.0,-0.35466777871968713
1.0299999713897705,0.38788655202358485,0.0,-0.35283365214728346
1.0349998474121094,0.3878536314442803,0.0,-0.35054102126274644
1.0409998893737793,0.387777672775276,0.0,-0.3464919125446031
1.0460000038146973,0.38786409182444204,0.0,-0.3440100601385301
1.0499999523162842,0.3877431079163983,0.0,-0.3420246492184134
1.055999994277954,0.3876227545188539,0.0,-0.338166486687101
1.060999870300293,0.3877899223245596,0.0,-0.3351432630535174
1.0649998188018799,0.387792022905904,0.0,-0.332092502538055
1.0699999332427979,0.38768537789419283,0.0,-0.3296731237148364
1.0759999752044678,0.38759971015313377,0.0,-0.32676991527190685
1.0809998512268066,0.38765497797242493,0.0,-0.32401841175486856
1.0849997997283936,0.3876043339000612,0.0,-0.3219836064708049
1.0899999141693115,0.3876874358761938,0.0,-0.3194400089016695
1.0959999561309814,0.38752335699819157,0.0,-0.31559600406163496
1.0999999046325684,0.38759114016366675,0.0,-0.31351939154640057
1.1050000190734863,0.38768049568905905,0.0,-0.3087043207738037
1.1109998226165771,0.3875672485846711,0.0,-0.30672293526386635
1.1159999370574951,0.387587904213616,0.0,-0.3050716888138601
1.119999885559082,0.38565944428533827,0.0,-0.3021258879789728
1.125,0.3866215688809118,0.0,-0.2992154368379753
1.1309998035430908,0.3876217367942429,0.0,-0.2957230897579065
1.1359999179840088,0.38511377851992734,0.0,-0.29198522736967275
1.1399998664855957,0.38417087921514403,0.0,-0.28895447590428097
1.1459999084472656,0.38697736742411215,0.0,-0.28413372139255566
1.1510000228881836,0.3855157498982524,0.0,-0.28092218222490173
1.1549999713897705,0.38452916937448584,0.0,-0.2783530427715482
1.1599998474121094,0.38411012261184596,0.0,-0.2747198687117201
1.1659998893737793,0.3843018091451968,0.0,-0.2696191902047899
1.1710000038146973,0.38420740910904594,0.0,-0.26536855722190267
1.1749999523162842,0.3844263453312062,0.0,-0.26097203245385403
1.180999994277954,0.38446212457127243,0.0,-0.25484051092709703
1.185999870300293,0.384524119398771,0.0,-0.24908658138296802
1.1899998188018799,0.3844407395971661,0.0,-0.24425672851394875
1.1949999332427979,0.38446940109587235,0.0,-0.23821919651364643
1.2009999752044678,0.38468204466465544,0.0,-0.22827943651406363
1.2059998512268066,0.3845624610182338,0.0,-0.2230979889704357
1.2099997997283936,0.3847735243632289,0.0,-0.21895278152017367
1.2149999141693115,0.38488541667872017,0.0,-0.21169211004983834
1.2209999561309814,0.384812905640328,0.0,-0.20382659273393455
1.2249999046325684,0.38483723916205825,0.0,-0.19858301870512912
1.2300000190734863,0.3847517341025315,0.0,-0.1866368083539753
1.2359998226165771,0.3848951843675375,0.0,-0.1826935544617605
1.2409999370574951,0.3849910516172397,0.0,-0.1786256490790262
1.244999885559082,0.38484380334329477,0.0,-0.1743153529917913
1.25,0.38492387320397625,0.0,-0.1689272901950165
1.2559998035430908,0.38511964164822754,0.0,-0.16008006715553738
1.2609999179840088,0.3853255586055137,0.0,-0.15585297762506586
1.2649998664855957,0.38529094474518716,0.0,-0.1524714269359222
1.2709999084472656,0.3853696133413937,0.0,-0.14566555696826364
1.2760000228881836,0.38543994490886624,0.0,-0.13995621187420915
1.2799999713897705,0.38553173602818996,0.0,-0.13503509346890907
1.2849998474121094,0.38563620449376357,0.0,-0.13075684819609998
1.2909998893737793,0.3857249206665783,0.0,-0.12562279066257687
1.2960000038146973,0.38599585788170576,0.0,-0.12013478009184612
1.2999999523162842,0.38603007305524834,0.0,-0.1156721159448143
1.305999994277954,0.3861948766472875,0.0,-0.10897798672479864
1.310999870300293,0.3862050359018442,0.0,-0.10270456441298273
1.3149998188018799,0.3862897938946688,0.0,-0.09808054657244934
1.3199999332427979,0.386416230215062,0.0,-0.09230031755941567
1.3259999752044678,0.38674158937976766,0.0,-0.08294995232406649
1.3309998512268066,0.38671675385657944,0.0,-0.0765788133895655
1.3349997997283936,0.38686242395627174,0.0,-0.07064400202117618
1.3399999141693115,0.3870966746206093,0.0,-0.06522082198037105
1.3459999561309814,0.387613024634025,0.0,-0.05871310936798777
1.3499999046325684,0.3880234812963835,0.0,-0.05369960509662599
1.3550000190734863,0.3884116200010455,0.0,-0.047071240661957545
1.3609998226165771,0.38875085794173336,0.0,-0.038540756136001664
1.3659999370574951,0.3891014139101239,0.0,-0.0320391647404198
1.369999885559082,0.3894456316204624,0.0,-0.02683807763171881
1.375,0.38987118213365496,0.0,-0.018169329902311456
1.3809998035430908,0.3905500246929665,0.0,-0.011642533593056906
1.3859999179840088,0.39123001104184657,0.0,-0.006203234081922932
1.3899998664855957,0.39173503273900306,0.0001689254019310465,-0.00034715512287707183
1.3959999084472656,0.3923210832631405,0.0005610641958611928,0.008225571234259599
1.4010000228881836,0.39293722526560365,0.0008878517181652153,0.015369623414259211
1.4049999713897705,0.39320765692654974,0.002036921719910207,0.02162933966280083
1.4099998474121094,0.3937866008433649,0.002703994653152313,0.029578742472257977
1.4159998893737793,0.39467095508524597,0.005091948437330607,0.03921693860400803
1.4210000038146973,0.3952672698905862,0.006117100425748723,0.04777832909462674
1.4249999523162842,0.397932658051792,0.006937192687320853,0.05462719654938117
1.430999994277954,0.3996360061174401,0.01080506092046229,0.06565534859359427
1.435999870300293,0.4000395613262395,0.012143514115190154,0.07423723916829554
1.4399998188018799,0.4008465164675312,0.01321428943577331,0.08110283347337223
1.4449999332427979,0.40207057866463947,0.018506952149352295,0.09411872079185858
1.4509999752044678,0.40107511051661515,0.020676297039674992,0.10266162047744645
1.4559998512268066,0.40406543061416783,0.026960903959818663,0.11083209791693203
1.4599997997283936,0.4053441908976357,0.02867938012383965,0.11770786422202831
1.4649999141693115,0.40655046234014597,0.03082755215172594,0.12630287947806212
1.4709999561309814,0.4082466519887055,0.03896597272468657,0.13812786247898215
1.4749999046325684,0.40925523379709094,0.04092536340136121,0.1448435397690571
1.4800000190734863,0.41065196909299423,0.043374689339921176,0.15323843659968545
1.4859998226165771,0.41243910563369274,0.052958240034219686,0.16379027682758138
1.4909999370574951,0.4143297493494351,0.05575741403765602,0.17180687763673985
1.494999885559082,0.415860287784617,0.057996673157227424,0.1782199289325272
1.5,0.41797557789089584,0.06844044394495272,0.18795166657211893
1.5059998035430908,0.42026243567704213,0.07230530607769482,0.1988618542480547
1.5109999179840088,0.4222816511770307,0.08415736596331409,0.2127179987436942
1.5149998664855957,0.4241523952684334,0.08701510147087722,0.21859391658978197
1.5209999084472656,0.42680638666394594,0.09130178990047333,0.22740796847716616
1.5260000228881836,0.4293689168401314,0.10447620772433476,0.23720253311336814
1.5299999713897705,0.4316492354880198,0.10769512165849668,0.24599508046263235
1.5349998474121094,0.4348303662796058,0.11171871611002614,0.25698563362836047
1.5409998893737793,0.43846235979758386,0.1275057511135611,0.27060939344250334
1.5460000038146973,0.4415736168259512,0.1320155504940147,0.28213880007288644
1.5499999523162842,0.4442310173735142,0.1474154326986541,0.29132894837203577
1.555999994277954,0.4479467482685065,0.15354363920988956,0.30585347386597866
1.560999870300293,0.4514483441563562,0.15865031562835571,0.3179568603450964
1.5649998188018799,0.4546571471071007,0.17595912189963764,0.3281826781342168
1.5699999332427979,0.45853639683033826,0.18149020824482828,0.34184870022512354
1.5759999752044678,0.4636018605231763,0.18812740636437184,0.3582476660814919
1.5809998512268066,0.4681852852016015,0.20880600968797494,0.37180092282547106
1.5849997997283936,0.4724138296219005,0.21376732599487172,0.38160723999516366
1.5899999141693115,0.4778243252198868,0.22048533113861357,0.39425217437738375
1.5959999561309814,0.4840797168732522,0.24432962789584234,0.4173223504371297
1.5999999046325684,0.48883622953186595,0.24962607235894715,0.4246836569101887
1.6050000190734863,0.4947766182376978,0.2738212720981787,0.43505679285200155
1.6109998226165771,0.5024102990975791,0.2823563992808259,0.4466164361114849
1.6159999370574951,0.5087530502736942,0.28946940096071766,0.4562500080740473
1.619999885559082,0.514475878149208,0.31400657877696075,0.46622030904702844
1.625,0.5214047161966928,0.32157886871760716,0.47617604557532583
1.6309998035430908,0.533813727414151,0.35040119485130505,0.48981942596285627
1.6359999179840088,0.5413366809728646,0.35816793622826076,0.4986821473252703
1.6399998664855957,0.5477284303881084,0.36438110712665794,0.5057720708565129
1.6459999084472656,0.5572359322145664,0.39446463718151525,0.5175114914315186
1.6510000228881836,0.5654668247534071,0.4022303967943304,0.527245087135731
1.6549999713897705,0.5727625549556847,0.40844278230950304,0.5350316852250678
1.6599998474121094,0.5830559081498752,0.4373311354190854,0.5446640690300463
1.6659998893737793,0.5956468724258078,0.4469995295582043,0.5488507948723323
1.6710000038146973,0.6050904794219216,0.45505665273572965,0.5523397885290288
1.6749999523162842,0.6127334779005352,0.4825363352844917,0.557552988658325
1.680999994277954,0.6243856056299097,0.4921336855472358,0.5646645220083206
1.685999870300293,0.6344442625471782,0.5211055443880483,0.5717521887794907
1.6899998188018799,0.6423936400041772,0.5274219452971715,0.5746437579187142
1.6949999332427979,0.652742219003126,0.5353177288023351,0.5782583486076215
1.7009999752044678,0.665774199276045,0.5651043012721148,0.5821115698153536
1.7059998512268066,0.6766689158596327,0.5715087057612632,0.5849326027870989
1.7099997997283936,0.6853488773669311,0.5766322904312572,0.5871894560686293
1.7149999141693115,0.6964414340079188,0.6043347235552889,0.5902698705115236
1.7209999561309814,0.7098564546981931,0.6149984247824494,0.5936289112916325
1.7249999046325684,0.7190633003006414,0.6221074176890722,0.5958682273199201
1.7300000190734863,0.730411442457708,0.6518298605071327,0.598333678473
1.7359998226165771,0.7441514682658928,0.6618568321255057,0.6011142983330202
1.7409999370574951,0.7561529596590076,0.6913676984792744,0.603191895446119
1.744999885559082,0.765307611750338,0.6982245635207144,0.6041247099505042
1.75,0.7772559016969114,0.7067959513522146,0.6052907697815805
1.7559998035430908,0.7914334446181471,0.7374774796583375,0.606599107567171
1.7609999179840088,0.80341476378975,0.7452080421180435,0.60753435998123
1.7649998664855957,0.8128614380606296,0.7513922709177043,0.6082825351553033
1.7709999084472656,0.8276092042874855,0.7815753212474736,0.608968694248845
1.7760000228881836,0.8399747048655797,0.78913894443256,0.6093230904829606
1.7799999713897705,0.849697839458508,0.8163613577583638,0.6096018985506121
1.7849998474121094,0.8620818340225832,0.8245539178074518,0.6094887443542686
1.7909998893737793,0.8765370876719089,0.8343853023954708,0.6093529550020594
1.7960000038146973,0.8891927788531337,0.863734385757177,0.6089105812273945
1.7999999523162842,0.899366081758333,0.8702532398603671,0.6084084601606109
1.805999994277954,0.9138240391853989,0.900687827503246,0.606982507289717
1.810999870300293,0.9260827029214252,0.9085600851900448,0.6059838106427382
1.8149998188018799,0.9362064661990646,0.9146391709101853,0.6051918247780912
1.8199999332427979,0.9489654730728274,0.9314022689909032,0.6041401300274171
1.8259999752044678,0.9643383624168806,0.9531947564125026,0.601719955129294
1.8309998512268066,0.9772760240268905,0.9613954664605341,0.5997638511859198
1.8349997997283936,0.9871915627797171,0.9886584367380165,0.598248825203352
1.8399999141693115,1.0001924225404617,0.9956405438884521,0.5963947301138526
1.8459999561309814,1.0161566748959716,1.0040189392988979,0.5941698513697011
1.8499999046325684,1.0269284621635184,1.0312447018157724,0.5909956659945386
1.8550000190734863,1.0399413454026858,1.0402890562540128,0.5879912187220627
1.8609998226165771,1.0558773028956057,1.0720627903215916,0.5840629349802379
1.8659999370574951,1.0696962259292695,1.0800080369716831,0.5808288046050258
1.869999885559082,1.0808847694443608,1.086364006981629,0.5782415928319506
1.875,1.0953164948892398,1.1153925428866653,0.5745501881292109
1.8809998035430908,1.111153586698213,1.1248676282228345,0.5700012999494133
1.8859999179840088,1.1232508340103067,1.1327639719410996,0.5662103489100049
1.8899998664855957,1.1330407216165437,1.160233644470103,0.5628511231293128
1.8959999084472656,1.1485065312612712,1.1697264495483737,0.5590697621834229
1.9010000228881836,1.161991772782984,1.19871790696842,0.5555761232506541
1.9049999713897705,1.1724833628782636,1.2048071792421575,0.5528106398226857
1.9099998474121094,1.1857631035883278,1.2124186788459337,0.5493538267471701
1.9159998893737793,1.201845106607468,1.2428439936696534,0.5446252427872813
1.9210000038146973,1.2153530300663862,1.2511420135362772,0.5402006156310454
1.9249999523162842,1.225769503569214,1.2577801920267573,0.5366610404927575
1.930999994277954,1.2414470562583078,1.2884223982768663,0.5321597019831904
1.935999870300293,1.2550428877635014,1.2961841002744168,0.5287709420991438
1.9399998188018799,1.2656809009439343,1.302393535895651,0.5260599018733724
1.9449999332427979,1.2794846878163848,1.3313038578029102,0.5220239479511716
1.9509999752044678,1.2954559676950588,1.3406295640791608,0.5174853402075559
1.9559998512268066,1.3087914679138795,1.3691060321930337,0.5134293804003941
1.9599997997283936,1.3193903300277068,1.3751734466901675,0.5105988465210087
1.9649999141693115,1.3330246426632224,1.3827579860496415,0.507060552635423
1.9709999561309814,1.3493550542249166,1.4115291645879648,0.5024600232940346
1.9749999046325684,1.358382449598349,1.4167336197727414,0.5000818920107153
1.9800000190734863,1.369852468173717,1.423239421413984,0.4971091215944448
1.9859998226165771,1.384450582851329,1.452028336816518,0.4921564247102876
1.9909999370574951,1.3977796847230803,1.4606194899591374,0.4870090020820014
1.994999885559082,1.4089107198655557,1.4869599070003712,0.4829901041205616
2.0,1.4228928701043997,1.4940670058739494,0.4800944420916194
2.005999803543091,1.4394020106334102,1.5025950500830658,0.47661984095875987
2.010999917984009,1.4527078235151258,1.52874579816172,0.47312687802390047
2.0149998664855957,1.4631956010018967,1.5341664993717925,0.46985632738043814
2.0209999084472656,1.479004211220534,1.542297712738466,0.4649504039439851
2.0260000228881836,1.491605102984633,1.5677066614839108,0.46008821879392153
2.0299999713897705,1.4999919331467866,1.5731453433019063,0.4567362170728684
2.0349998474121094,1.512170643629562,1.5799436145306827,0.452546264870913
2.0409998893737793,1.5275331721038148,1.6062424426584105,0.44830437621713376
2.0460000038146973,1.540057122531241,1.6129040655783697,0.44483134415076137
2.049999952316284,1.5497018020724782,1.6360629315359227,0.44173667106281217
2.055999994277954,1.5649281508943291,1.6436378736522217,0.4352710116127157
2.060999870300293,1.5765637746242247,1.64995012474977,0.42988313335125294
2.06499981880188,1.586203991360744,1.672196032701508,0.42558520851524995
2.069999933242798,1.5976619801794267,1.678495467748523,0.42210286689675863
2.0759999752044678,1.6119906560108355,1.6860546696555028,0.41792412337344415
2.0809998512268066,1.6240382942256264,1.7086976235168851,0.4124710943705839
2.0849997997283936,1.6336539941910675,1.7133497174352812,0.4083838319509994
2.0899999141693115,1.6460070155292055,1.719165042800758,0.40327457120929794
2.0959999561309814,1.659766141220381,1.74246287683556,0.39803779222441227
2.0999999046325684,1.6685463126190228,1.747160378485052,0.39484969404413056
2.1050000190734863,1.6785121209766434,1.768881890602926,0.390499287713048
2.110999822616577,1.6910311428856393,1.7758688236553541,0.3840915038631434
2.115999937057495,1.7012694640988768,1.7816915917847214,0.378751386918967
2.119999885559082,1.7101963008304686,1.8013377364459646,0.3743568014043099
2.125,1.7216946167224836,1.8067797999533752,0.36949782187058516
2.130999803543091,1.7362887427672615,1.8279744529834172,0.36300021211775274
2.135999917984009,1.7491726524723339,1.8332191341447648,0.3569593390432232
2.1399998664855957,1.7594676159297962,1.8374147290257454,0.35212681341040886
2.1459999084472656,1.7736548430870787,1.8575851254889468,0.3460053491814802
2.1510000228881836,1.7818732950984264,1.862577783027462,0.34293939581447924
2.1549999713897705,1.789432940825393,1.8665717662204653,0.3404867208365003
2.1599998474121094,1.8003231593362305,1.8850930021015992,0.3357470503151888
2.1659998893737793,1.8134082238964229,1.8908966134207124,0.32939362523496035
2.1710000038146973,1.8253617183133555,1.908781217242364,0.32376387750659863
2.174999952316284,1.8332444645260284,1.9125058277429783,0.3199968951523034
2.180999994277954,1.8461738473690523,1.9180928544973719,0.3143463093545926
2.185999870300293,1.8582826416368345,1.9352490178331199,0.31017541344364624
2.18999981880188,1.86755936143887,1.9388759819147163,0.3082212249902495
2.194999933242798,1.878939786819248,1.9434098491567287,0.3057784020633474
2.2009999752044678,1.8913313672504874,1.9610436122719999,0.30250423309909785
2.2059998512268066,1.90391062734861,1.965472816189818,0.29996351580631064
2.2099997997283936,1.9127136681464074,1.9690162215653004,0.2979309177413118
2.2149999141693115,1.9235600308964462,1.9849473630882832,0.29604867614001457
2.2209999561309814,1.9359821065268146,1.9895237522767186,0.2943369873607213
2.2249999046325684,1.9443013064405423,1.9925746177863102,0.2931958841798342
2.2300000190734863,1.9551015701662928,2.0090262472994156,0.29213110958903865
2.235999822616577,1.9679102148317855,2.0152377210483956,0.2912790514726111
2.240999937057495,1.9786093027656335,2.0314174072065816,0.2912458908888334
2.244999885559082,1.9870721077547309,2.0348273494484426,0.2916267343947101
2.25,1.9972613564514097,2.039089929689028,0.2921028058023065
2.255999803543091,2.0094161569578057,2.0550939454470587,0.2937179189754119
2.260999917984009,2.01921030748372,2.058907239334465,0.29504707627010834
2.2649998664855957,2.026855190699934,2.061957765347674,0.2961103640792407
2.2709999084472656,2.0384608264312987,2.0784280998884155,0.3001253352641939
2.2760000228881836,2.0484817592200852,2.0832923259979195,0.3027197517977131
2.2799999713897705,2.056275078066786,2.097698334763299,0.3053037418392192
2.2849998474121094,2.0657874190632777,2.101714566943524,0.3095737587084668
2.2909998893737793,2.076971246942905,2.106534198770692,0.3146979418438197
2.2960000038146973,2.0862502978760937,2.1209870326822715,0.3197355740490423
2.299999952316284,2.0937684437893904,2.124152571942128,0.3235088650240439
2.305999994277954,2.104598303083592,2.138952717536526,0.3297231591213183
2.310999870300293,2.1134519360186834,2.142756195510294,0.3353172981134463
2.31499981880188,2.1207136921329472,2.145799014163001,0.33979266265833835
2.319999933242798,2.1297043298357123,2.159097312814896,0.3464242409567656
2.3259999752044678,2.140646021898305,2.1633480252476636,0.3530054566821006
2.3309998512268066,2.149188754550737,2.166890173003667,0.358489628778421
2.3349997997283936,2.1562078563735425,2.1786965188406704,0.36514664642671146
2.3399999141693115,2.1657499043808275,2.182222092135494,0.37199102942652496
2.3459999561309814,2.1766818582888403,2.1864527128458473,0.38020415848304345
2.3499999046325684,2.1834444601439293,2.1973738179755014,0.38520734863148415
2.3550000190734863,2.1908521979236504,2.2004889476518366,0.3915282598402745
2.360999822616577,2.2000108370110905,2.2119998835445345,0.40231975343614057
2.365999937057495,2.2077648225362516,2.2149644958771453,0.4080508700530526
2.369999885559082,2.2139666896718833,2.2173361009269366,0.4126355993817734
2.375,2.222107568079605,2.2272376004635395,0.4194318860497655
2.380999803543091,2.2317703672883176,2.2302694655191235,0.4275100724796127
2.385999917984009,2.2390458497368466,2.2327961602914543,0.434242269014751
2.3899998664855957,2.2427940389795826,2.241339760065432,0.44036384744156776
2.3959999084472656,2.2472521184461347,2.244360839491334,0.44998983640108237
2.4010000228881836,2.252506928617314,2.25278487975567,0.4604835706893846
2.4049999713897705,2.259063262201908,2.25455693827618,0.46565815228672225
2.4099998474121094,2.2685066047289,2.2567719850207477,0.4721263021751271
2.4159998893737793,2.2802203832620878,2.2647275615032942,0.4809012986353609
2.4210000038146973,2.2885679534734247,2.2667023690746335,0.4880793623736573
2.424999952316284,2.294243502994373,2.2682821586333,0.49382160800294383
2.430999994277954,2.302629879385935,2.2754685856177845,0.5029410277378514
2.435999870300293,2.309950454933719,2.2772801243024623,0.5098840312146646
2.43999981880188,2.315678847090127,2.278729372526812,0.5154385002113979
2.444999933242798,2.3228238969028134,2.284797451308058,0.5232436835239628
2.4509999752044678,2.3311644449339144,2.2866586914345346,0.532791797082965
2.4559998512268066,2.3379101653782017,2.2921454579211265,0.5413222686860373
2.4599997997283936,2.3421538777706705,2.293288544765881,0.5459224315367921
2.4649999141693115,2.3470654946514187,2.2947174544224453,0.5516728407461876
2.4709999561309814,2.354143567846892,2.2998413177088333,0.5589728909337066
2.4749999046325684,2.358543486879769,2.3008329183636325,0.5640747327453643
2.4800000190734863,2.363715236931552,2.3020724635107057,0.5704522630829746
2.485999822616577,2.370156212578257,2.306579120369763,0.5768685042052981
2.490999937057495,2.3758505778320353,2.307694719784128,0.5814659324234551
2.494999885559082,2.3802161562144426,2.3113827944149907,0.5853912759501294
2.5,2.3853575723674316,2.312332623971216,0.588593456680603
2.505999803543091,2.390151396196644,2.3134723560321744,0.5924358597934376
2.510999917984009,2.3942429524175384,2.3169346621762905,0.5952803261750672
2.5149998664855957,2.397499217332051,2.3176631337471663,0.5968024208073238
2.5209999084472656,2.40190289230775,2.318755862813904,0.5990856081182476
2.5260000228881836,2.405839727727009,2.321899874520819,0.5996731351396534
2.5299999713897705,2.4087103303948965,2.3225655177347577,0.599650047303006
2.5349998474121094,2.4129448359297743,2.3233975618331963,0.5996211878512365
2.5409998893737793,2.4172385878414575,2.32628960672331,0.5983444180108618
2.5460000038146973,2.421559387601005,2.326948147890715,0.5972945619561724
2.549999952316284,2.4241031868371414,2.3274749619840565,0.5964547071483559
2.555999994277954,2.4275131115256134,2.3303122048299865,0.5922148013895215
2.560999870300293,2.4298846523551503,2.3311020509403075,0.588535644767039
2.56499981880188,2.431481117725411,2.333405560536026,0.5847168198430234
2.569999933242798,2.4333686568671586,2.3340601810246624,0.5798315825841756
2.5759999752044678,2.435266104381918,2.336457033397803,0.5734659662265721
2.5809998512268066,2.4359587872695943,2.337046088620565,0.5682551110536777
2.5849997997283936,2.436488476005147,2.3375173384165824,0.5640863772195424
2.5899999141693115,2.4369356446331416,2.339592529435533,0.5586191296845591
2.5959999561309814,2.4371353839818775,2.3402227516200966,0.5509706555269298
2.5999999046325684,2.4372822654397,2.3406428913956043,0.545871774062154
2.6050000190734863,2.437292368307323,2.3425417282878165,0.5385323194457856
2.610999822616577,2.437140435220065,2.343136356150663,0.5298994419309888
2.615999937057495,2.436991236234141,2.3436319069370573,0.5227049771091999
2.619999885559082,2.437008269906124,2.345272712482716,0.5157463587076272
2.625,2.436931932987645,2.345708937579147,0.5078550017875779
2.630999803543091,2.4366700078252923,2.347369026584937,0.49567697324055804
2.635999917984009,2.4361897367151197,2.347776284063788,0.48892511748411793
2.6399998664855957,2.435653514766329,2.3481020783954056,0.48352382604668726
2.6459999084472656,2.434805800717215,2.349600047191835,0.4748149741582594
2.6510000228881836,2.4339683458604977,2.3499509178550992,0.4669560820048241
2.6549999713897705,2.4332877397026835,2.3502316043474503,0.46066919312163773
2.6599998474121094,2.432238726501059,2.3515004424763433,0.4519463368108228
2.6659998893737793,2.430611636029593,2.3518831121544586,0.4422988846013862
2.6710000038146973,2.428874511595986,2.353033912125418,0.43044587047763416
2.674999952316284,2.4273449994890157,2.3532640388180073,0.4250765699092364
2.680999994277954,2.4249427791053813,2.3536092357152896,0.417022459036953
2.685999870300293,2.4226887898609797,2.354653227037759,0.40879347093548873
2.68999981880188,2.420879049416371,2.354865181512931,0.4020003101033891
2.694999933242798,2.4184674322931237,2.355130134082122,0.39350855538140106
2.7009999752044678,2.415038138518642,2.3561032732865366,0.38171352118577356
2.7059998512268066,2.412315858026851,2.356342173528,0.37571251896627017
2.7099997997283936,2.409582203994543,2.3565332959995575,0.37091165995923153
2.7149999141693115,2.4062881562385074,2.357380964205871,0.3632618110846444
2.7209999561309814,2.4022881881488294,2.3576391340524703,0.3546930273849734
2.7249999046325684,2.399193066658029,2.3583810312498685,0.34846405224318133
2.7300000190734863,2.395154842008021,2.358572792030619,0.3419758402658595
2.735999822616577,2.390452973457089,2.3588028921663993,0.33419041901803836
2.740999937057495,2.3866646336644997,2.359504408730073,0.326206518203533
2.744999885559082,2.383742968391167,2.359642320244318,0.3216991836927309
2.75,2.379526823403154,2.359814715802329,0.3160648140580797
2.755999803543091,2.374458811427619,2.3604848411259067,0.3070311368095161
2.760999917984009,2.3699637604938,2.3606430589692913,0.3017276035339265
2.7649998664855957,2.366140785101298,2.360769628717454,0.29748492864528614
2.7709999084472656,2.360422043220985,2.3614148177047483,0.28938358438751205
2.7760000228881836,2.355521503427339,2.361589160901993,0.2828226099963581
2.7799999713897705,2.351586576174557,2.362116186235203,0.27821549477393176
2.7849998474121094,2.3474173288296583,2.362243976362697,0.2730983021069346
2.7909998893737793,2.3415187692056585,2.362397329390617,0.26695747569628897
2.7960000038146973,2.3365847970324105,2.3629039639148495,0.2619652864772851
2.799999952316284,2.3329044372965417,2.363012257370918,0.2579702739907859
2.805999994277954,2.3263009770502663,2.3635188596766605,0.2522150549969912
2.810999870300293,2.320445230721051,2.3636440896151902,0.2487098722770792
2.81499981880188,2.3160554366196826,2.363744274760329,0.2459056926722933
2.819999933242798,2.310099119271906,2.364183152960222,0.2416498440535866
2.8259999752044678,2.3032222462561274,2.364304351018333,0.23833821283419857
2.8309998512268066,2.2977804854936066,2.3644053461894625,0.23557860787902946
2.8349997997283936,2.293085506854448,2.3647954784571104,0.23292782951222582
2.8399999141693115,2.2870138784350855,2.3649151062796365,0.2295286446692655
2.8459999561309814,2.2798008223974398,2.3653451310322158,0.22523630766903993
2.8499999046325684,2.274778146495989,2.3654273663696705,0.22314563479542926
2.8550000190734863,2.26823654719917,2.365530164217742,0.2205322002418522
2.860999822616577,2.2606567763723264,2.3659255558727206,0.21748442137626325
2.865999937057495,2.2541003643858066,2.366024905767391,0.21503334266200932
2.869999885559082,2.249063214453766,2.366104382840769,0.21307254981492568
2.875,2.2417608112302196,2.366457477002427,0.210319609749838
2.880999803543091,2.239891352481248,2.3665670061712065,0.2076876598336411
2.885999917984009,2.2335044933392356,2.3666582855563703,0.20549424621780635
2.8899998664855957,2.228305403517938,2.3669756474969836,0.2034595924989181
2.8959999084472656,2.22065616961233,2.367081068017622,0.20070865703836774
2.9010000228881836,2.214341124157508,2.3674030986406347,0.19824167776408383
2.9049999713897705,2.2090581678171177,2.3674712628354597,0.19646131228698346
2.9099998474121094,2.2023678623784,2.367556467063252,0.1942358819704625
2.9159998893737793,2.194366988342039,2.3678785304670815,0.1912684715211762
2.9210000038146973,2.187790027931394,2.3679591861911575,0.18921367584475146
2.924999952316284,2.1829381419695664,2.3680237084628923,0.187569898090442
2.930999994277954,2.1759477872944015,2.368328396416417,0.18486181194734294
2.935999870300293,2.169536921100723,2.368402505934302,0.18252567642896372
2.93999981880188,2.1645145468886167,2.3684617942553916,0.18065674573458348
2.944999933242798,2.156060820381526,2.3687370072750276,0.17839649702738108
2.9509999752044678,2.147139271343638,2.3688225563371383,0.17567081707046386
2.9559998512268066,2.140636692019224,2.36908572275987,0.17327285900402722
2.9599997997283936,2.1351132559097086,2.3691406625450306,0.17158040243024558
2.9649999141693115,2.1282436015945043,2.3692093397325134,0.16946475605333983
2.9709999561309814,2.119277146943823,2.3694720004350063,0.16647910480532124
2.9749999046325684,2.113257778937223,2.369523321650268,0.16452807620237953
2.9800000190734863,2.1058082259133726,2.3695874754636117,0.16208920322980436
2.985999822616577,2.0965621104740886,2.369835184773648,0.15915850110778929
2.990999937057495,2.0889915993099715,2.369897765220767,0.15732341490481447
2.994999885559082,2.0826629802442747,2.370113219056824,0.1557600413280607
3.0,2.074659042319096,2.3701714265396294,0.15334705740861562
3.005999803543091,2.0652794844487246,2.3702412716333163,0.15045163778565
3.010999917984009,2.057326029452576,2.370452870304846,0.147681043130628
3.0149998664855957,2.0510963347644364,2.3704958043649995,0.14558274271131855
3.0209999084472656,2.0412627724882983,2.37056020673478,0.1424352295473237
3.0260000228881836,2.033380145362584,2.370757652420777,0.1396416236232857
3.0299999713897705,2.027114365013816,2.37079781898013,0.13759696002442814
3.0349998474121094,2.0190396448319707,2.3709493345466037,0.13488681069378428
3.0409998893737793,2.0100736974767504,2.371044553652677,0.13137786879084432
3.0460000038146973,2.001908811875265,2.371094009354095,0.1284975564775695
3.049999952316284,1.9950697466078622,2.371259414881663,0.12616765264401544
3.055999994277954,1.984357828460909,2.3713113528922394,0.12330599656459224
3.060999870300293,1.9756416306227742,2.3713546331918423,0.12092135897254007
3.06499981880188,1.9685896941645984,2.37150893440744,0.11927157324978832
3.069999933242798,1.959870058534496,2.3715509877510685,0.11726254773211124
3.0759999752044678,1.9493789957041965,2.371714157814814,0.11470950355289576
3.0809998512268066,1.9404257040788466,2.371752673898655,0.11293817966444544
3.0849997997283936,1.9337661306146754,2.3717834871330554,0.11152110366060534
3.0899999141693115,1.925557322585504,2.3719294457333615,0.10978137247707256
3.0959999561309814,1.9147830809710806,2.371974247725663,0.10779978141486642
3.0999999046325684,1.906773594761777,2.372004115127111,0.10647874695366351
3.1050000190734863,1.8981721653331456,2.372143816152195,0.10492593395081819
3.110999822616577,1.8873634254848177,2.372189253059303,0.10315050808589826
3.115999937057495,1.8766502436340489,2.3723247282735413,0.1016981706451761
3.119999885559082,1.8681317641577238,2.3723523024419197,0.10070743911655848
3.125,1.8580334666798228,2.3723867713850706,0.09946898041606564
3.130999803543091,1.846355673439354,2.3725166216772577,0.0958531613282654
3.135999917984009,1.8364439326955826,2.372550795726577,0.09568636012876675
3.1399998664855957,1.8281269200582348,2.3725781339883274,0.09555292394127919
3.1459999084472656,1.8149157542938141,2.3727075175103582,0.09471298804795633
3.1510000228881836,1.8051400494943732,2.3727391031845033,0.09360061728698753
3.1549999713897705,1.799676285780414,2.3727643708201667,0.09271075250266683
3.1599998474121094,1.791051154486148,2.3728823325662627,0.09168106154410194
3.1659998893737793,1.7772336043337313,2.372920808948204,0.09061234449388446
3.1710000038146973,1.7659273058250124,2.3730350767294817,0.08965356461614449
3.174999952316284,1.7566484467634702,2.3730585339085124,0.0889647894876416
3.180999994277954,1.7432458296357087,2.3730937203761453,0.08793160626752455
3.185999870300293,1.7318390151758931,2.3732032711846367,0.08710485444178831
3.18999981880188,1.7232873127429325,2.3732263874665747,0.08656240085302352
3.194999933242798,1.7119107294116125,2.373255283852388,0.08588430961719024
3.2009999752044678,1.6992657612062243,2.373368054154924,0.085218911359939
3.2059998512268066,1.6887854727046432,2.373396887592481,0.08477480541156851
3.2099997997283936,1.6804873411390915,2.37341995461751,0.08441951641744273
3.2149999141693115,1.6697549831495537,2.3735251888923137,0.08426548497809457
3.2209999561309814,1.657271964518367,2.3735591949387502,0.08408754590462826
3.2249999046325684,1.6485527066690062,2.373657641047497,0.08406155997452842
3.2300000190734863,1.6373489934432515,2.373686214166751,0.08424836544555912
3.235999822616577,1.6233625790249782,2.3737205000024386,0.08447251954047079
3.240999937057495,1.6121466165338771,2.3738250794810476,0.08497629088312067
3.244999885559082,1.60291650832507,2.373848141348684,0.08542053608466499
3.25,1.591470995634047,2.3738769697141886,0.08597586244615915
3.255999803543091,1.5775050722306956,2.3739898341032117,0.08715392585495578
3.260999917984009,1.5663376732965288,2.374019949202302,0.08772782182583659
3.2649998664855957,1.5573704574893277,2.3741222408664813,0.08835384500907911
3.2709999084472656,1.544090923590524,2.3741585858281202,0.08955569578310604
3.2760000228881836,1.5328631800238082,2.3741888737775554,0.09055725401377013
3.2799999713897705,1.525794867315331,2.3742938537442955,0.09155495848300528
3.2849998474121094,1.5131711603989022,2.374325014494932,0.09257201924084171
3.2909998893737793,1.5016167986230609,2.374362408584414,0.09379253094899641
3.2960000038146973,1.4913432037366743,2.3744775930334825,0.0948841920977287
3.299999952316284,1.4824604384928877,2.3745033334621075,0.09576394737289302
3.305999994277954,1.4683668824089582,2.3746271400606225,0.0971529084816717
3.310999870300293,1.456601206603001,2.3746600401159377,0.09815721861856258
3.31499981880188,1.4475053082584723,2.374686360473957,0.09896067630616061
3.319999933242798,1.436642058389474,2.3748057560473037,0.10008601028790677
3.3259999752044678,1.423245174982689,2.374845692983231,0.10087849990816368
3.3309998512268066,1.4123578231399334,2.3748789727052104,0.10153888693138578
3.3349997997283936,1.4044603537967555,2.3749939326071434,0.1020650485368688
3.3399999141693115,1.394436076561458,2.3750280447656844,0.10263350182376357
3.3459999561309814,1.3819761023029562,2.375156709089587,0.10338650872764173
3.3499999046325684,1.3740873719363564,2.375180629044402,0.10355130983098473
3.3550000190734863,1.3657494682042444,2.3752105300572395,0.10375731857744175
3.360999822616577,1.3535292198443547,2.375335200403913,0.10398361364781761
3.365999937057495,1.3415310800216227,2.375365128372493,0.1040200292015529
3.369999885559082,1.3324235944170548,2.3753890698911304,0.10404916060270764
3.375,1.3211063910451288,2.375496382398753,0.10405669041329851
3.380999803543091,1.3067527765943039,2.375556426871207,0.10392244076008503
3.385999917984009,1.2950884388424377,2.375684194337071,0.10379832866167045
3.3899998664855957,1.2863603261300471,2.3757097490059387,0.10368562751468939
3.3959999084472656,1.2736397165491888,2.3757480817708383,0.10351657243541865
3.4010000228881836,1.2621500035451543,2.37586638504149,0.10342039561535621
3.4049999713897705,1.2536307164721558,2.3758924002198785,0.10343460317200613
3.4099998474121094,1.2432994016117624,2.375924918805202,0.10345236240610672
3.4159998893737793,1.2298281518779328,2.3760502973412683,0.10410891056695702
3.4210000038146973,1.2186777986029067,2.376083554820336,0.10503910803543716
3.424999952316284,1.2096836824294475,2.3761101598521073,0.10578323939766733
3.430999994277954,1.1961880964885159,2.37623851734124,0.10867454207586229
3.435999870300293,1.1852005187452657,2.376272752645282,0.11109361835461311
3.43999981880188,1.176299336217832,2.3763001412150166,0.11302890244829497
3.444999933242798,1.1662929969195917,2.3764346106720056,0.11837538674274176
3.4509999752044678,1.153544778330284,2.376484389231996,0.12446366185931204
3.4559998512268066,1.1428499681654496,2.376632808230393,0.1307019065910189
3.4599997997283936,1.134734777371322,2.376670984627197,0.13648469041456127
3.4649999141693115,1.1247157162419175,2.376718706829842,0.1437134287078992
3.4709999561309814,1.1116387025322059,2.3769029585717187,0.15723038200516504
3.4749999046325684,1.1027777036644455,2.376945047034982,0.1630749053646846
3.4800000190734863,1.0917442521135716,2.376997659495587,0.17038082083800188
3.485999822616577,1.0780230614614421,2.3772141265288966,0.18639758572807752
3.490999937057495,1.0666748455841213,2.3772793654705264,0.19923539544336458
3.494999885559082,1.0577741544358679,2.3775038304130174,0.21375885112189816
3.5,1.0467832546356162,2.377573809121517,0.2199759138130113
3.505999803543091,1.0331001047075996,2.3776577789002404,0.22743597401813534
3.510999917984009,1.0220392110361145,2.377913940240245,0.2350784815427458
3.5149998664855957,1.013774679977697,2.377975563617826,0.2416480771240588
3.5209999084472656,1.0014919287389672,2.3782625684997454,0.25130444906541993
3.5260000228881836,0.9903959336614722,2.378342286002759,0.2582311681003736
3.5299999713897705,0.9817097437717076,2.3784060577244865,0.2637723451578511
3.5349998474121094,0.9710622736113167,2.378691416233297,0.27025243393513626
3.5409998893737793,0.9576818225439752,2.3787871208809017,0.27623226365135173
3.5460000038146973,0.9467822504682825,2.378866876021551,0.281215534286672
3.549999952316284,0.9382150053311604,2.379142350574146,0.28379577817722335
3.555999994277954,0.9247351462827411,2.3792381067270614,0.2863201920961598
3.560999870300293,0.9132083083494704,2.3793179009845034,0.2884238034882768
3.56499981880188,0.9044640938422284,2.3795893919655753,0.28746867966683437
3.569999933242798,0.8935323269249507,2.3796646769048007,0.28594523990037723
3.5759999752044678,0.8806189864735802,2.379959413284894,0.28333008298013734
3.5809998512268066,0.8693107354051961,2.3800338119557796,0.279199440824825
3.5849997997283936,0.8605596089060471,2.3800933316020267,0.275894887706725
3.5899999141693115,0.8496100507996279,2.380356649435447,0.26902303680144535
3.5959999561309814,0.8360981486312261,2.3804320891689215,0.2570332905795773
3.5999999046325684,0.8273461497293615,2.380482381325343,0.24904028524045788
3.6050000190734863,0.8162042748721897,2.380703294796203,0.23372789265771904
3.610999822616577,0.8021630453024224,2.3807662801522116,0.22134316776261978
3.615999937057495,0.7913263359027086,2.3809369588801967,0.1850623712608051
3.619999885559082,0.7830176695288216,2.3809715953852857,0.18053236424139213
3.625,0.7718896946097501,2.381014892565039,0.17486965295742427
3.630999803543091,0.7583270496317944,2.3811768594333578,0.1631950218377747
3.635999917984009,0.7475844820597289,2.3812061853081175,0.14738445128282526
3.6399998664855957,0.7390575881867053,2.3812296451689243,0.13473644717256458
3.6459999084472656,0.7261659271898875,2.3813389962224716,0.11209478376390072
3.6510000228881836,0.715637780121374,2.381352150342716,0.09154463656054512
3.6549999713897705,0.7071401267427903,2.381362673262578,0.07510510672883156
3.6599998474121094,0.69637146117017,2.381408995638451,0.050396534786704035
3.6659998893737793,0.6841245346246732,2.381405434557637,0.02258085103001816
3.6710000038146973,0.6744122928486888,2.3809771961034856,-0.0022997457590399253
3.674999952316284,0.6663089970330895,2.3800942822251376,-0.020009432052749358
3.680999994277954,0.6543020606570067,2.3787698850943935,-0.046574489289888985
3.685999870300293,0.6448298074896892,2.374435419960712,-0.076197075522106
3.68999981880188,0.6371624288041414,2.3719589173123095,-0.10621200907423478
3.694999933242798,0.6244313336007943,2.3688631782920853,-0.14373201780376
3.7009999752044678,0.6107197309668736,2.358912067502377,-0.17310405284885078
3.7059998512268066,0.6017616642996136,2.3557073841244978,-0.19435702040790057
3.7099997997283936,0.5949511074598403,2.3531436068591938,-0.21135959714425925
3.7149999141693115,0.5852083093473028,2.3390811591627108,-0.24292406384879964
3.7209999561309814,0.5760139475503845,2.3323835328576106,-0.280764507817416
3.7249999046325684,0.5696797699672719,2.31530229341223,-0.3093997792604539
3.7300000190734863,0.5598616154618913,2.308917718004253,-0.3437046155590592
3.735999822616577,0.5496129951911952,2.3012566537213166,-0.3848681290749089
3.740999937057495,0.5411359783738434,2.2786689496895636,-0.4034804382001127
3.744999885559082,0.5349371452662901,2.2732933516695266,-0.4160760493801116
3.75,0.5271126140984517,2.2665736138334287,-0.43182112643005716
3.755999803543091,0.5183927869892369,2.2394957036937737,-0.4610397323873845
3.760999917984009,0.5110905511653862,2.2314725819541805,-0.48416320586399625
3.7649998664855957,0.505262761674765,2.2044224916127306,-0.5231167528144728
3.7709999084472656,0.49647398037182083,2.196164037365616,-0.5326935779574309
3.7760000228881836,0.4896658652971169,2.1892818827732894,-0.5406743924252889
3.7799999713897705,0.4835231513902156,2.162175842181041,-0.5486572397375237
3.7849998474121094,0.4766235230135528,2.1530829640286746,-0.5655014112060982
3.7909998893737793,0.46895085193513203,2.121128783535595,-0.5864781749041199
3.7960000038146973,0.4632410505264019,2.113469380397235,-0.5965168882235276
3.799999952316284,0.45899064136051915,2.1073420770188127,-0.6045475716757353
3.805999994277954,0.4523969806435458,2.0768862824825574,-0.6166336617185022
3.810999870300293,0.44737285760997303,2.06855137118037,-0.6239085092374955
3.81499981880188,0.4429309811679299,2.0618833626487403,-0.6297284566327629
3.819999933242798,0.43726654171431195,2.032774948014256,-0.6389513141343715
3.8259999752044678,0.4306203853655345,2.023351470153428,-0.6430440013536075
3.8309998512268066,0.42583319835223854,2.0154988215712373,-0.6464544656178767
3.8349997997283936,0.4224767843805742,1.9881503423381317,-0.6498365853642974
3.8399999141693115,0.41839408358111396,1.9801767762224498,-0.6524558036319851
3.8459999561309814,0.41382479534812966,1.9498023660458088,-0.6556471993398771
3.8499999046325684,0.4109783511044251,1.944292495085366,-0.6559976889506399
3.8550000190734863,0.40741335948553853,1.937404910071215,-0.6564358166324017
3.860999822616577,0.4035223672217742,1.907584471841025,-0.6569703026229314
3.865999937057495,0.400543190071496,1.8986048815190018,-0.6574710701484816
3.869999885559082,0.39793598638938,1.8914214661636428,-0.6578716698421758
3.875,0.3950121949418564,1.8617898549630256,-0.6582085063762289
3.880999803543091,0.3919229676143903,1.8518894400617707,-0.6584436212745977
3.885999917984009,0.3895648129620237,1.8225894420740358,-0.6586876862024088
3.8899998664855957,0.3879493440757826,1.816364459996788,-0.6589602507473481
3.8959999084472656,0.38521762731534936,1.807026801359605,-0.6593691056879181
3.9010000228881836,0.3834894054501151,1.7780064988769666,-0.6598202005772935
3.9049999713897705,0.38190332430798407,1.7716869595506262,-0.660281271981088
3.9099998474121094,0.3804836110288395,1.7637876295623869,-0.6608576043652434
3.9159998893737793,0.379089861945255,1.7331764691473637,-0.6620865778962491
3.9210000038146973,0.3782471043281455,1.7253440330616336,-0.6633521739534924
3.924999952316284,0.37779346259713115,1.7190783082757148,-0.6643646145911222
3.930999994277954,0.3775280427498966,1.6885151727203769,-0.6664975858702745
3.935999870300293,0.3767824300506309,1.6806026441857915,-0.6680769964591657
3.93999981880188,0.3764482299040393,1.6532410126026322,-0.6704700853685743
3.944999933242798,0.37619993332775614,1.645107637190555,-0.6725983415593011
3.9509999752044678,0.37600473247314775,1.6353477418243367,-0.675152208395837
3.9559998512268066,0.37538880828338533,1.6063499586547558,-0.678015499001594
3.9599997997283936,0.37524971914686867,1.6001951220695383,-0.6805371275888974
3.9649999141693115,0.3755283916001354,1.5925013011918376,-0.6836892760500601
3.9709999561309814,0.37595474198957457,1.561817345616323,-0.6885943565913181
3.9749999046325684,0.37584737834636156,1.5553344482748839,-0.6915407828039375
3.9800000190734863,0.37568076904767994,1.5261671665424719,-0.6955805903950935
3.985999822616577,0.37590935261068814,1.5169306253636083,-0.7001384113927837
3.990999937057495,0.3757909565666065,1.509233079502169,-0.7039368068612343
3.994999885559082,0.37561435928860515,1.4818608468359795,-0.7072776961818891
4.0,0.3757259834274768,1.4739544056708143,-0.7120713860113642
4.005999803543091,0.37611890499055606,1.4644672040724267,-0.7178234938007378
4.010999917984009,0.37660013928007985,1.4353862231458716,-0.7225856310501715
4.014999866485596,0.3768872674113646,1.4290704943492116,-0.7264150938804521
4.020999908447266,0.3769015249887449,1.398591688278299,-0.7325797095419525
4.026000022888184,0.37693179592639553,1.3915676078433747,-0.7371195493675109
4.0299999713897705,0.37692492474249567,1.385948544451389,-0.7407512913450711
4.034999847412109,0.3768067017013906,1.3789247989430542,-0.7452909146991521
4.040999889373779,0.3767824852770459,1.3473413375921812,-0.7514465467339433
4.046000003814697,0.3769091740345196,1.338460451646391,-0.7558325349554562
4.049999952316284,0.3770345063579165,1.3105968386404676,-0.7589350433267134
4.055999994277954,0.37702919333240975,1.3006338017316945,-0.7625356143386902
4.060999870300293,0.37697086502487503,1.2712186271235826,-0.7652179468604368
4.06499981880188,0.377272119114201,1.2650227782830301,-0.765906406283419
4.069999933242798,0.37736326581022506,1.2572776902527467,-0.7667670113390774
4.075999975204468,0.37748528768739675,1.226934931890922,-0.7664176229906854
4.080999851226807,0.3777055115173453,1.2191208793907948,-0.7650390233781541
4.0849997997283936,0.3777668276904244,1.2128695628682336,-0.7639361305404526
4.0899999141693115,0.3777393711643139,1.1844661602825526,-0.7529428586007374
4.0959999561309814,0.3778857961616714,1.1755604835525146,-0.751718272902036
4.099999904632568,0.377878302537014,1.169623483691597,-0.7509018986563429
4.105000019073486,0.3778790599631254,1.1402927408854495,-0.7462809811613633
4.110999822616577,0.3776702142784278,1.1297817929309186,-0.7369433811365194
4.115999937057495,0.3778902022005865,1.100311488778608,-0.7259400100749348
4.119999885559082,0.377817592700031,1.0940332820291323,-0.7176781704146256
4.125,0.3778078597286901,1.0861852429309617,-0.7073505015014704
4.130999803543091,0.3779463771039883,1.0557008573863995,-0.6887965906849176
4.135999917984009,0.378202328076141,1.0477764012957462,-0.6780604130780489
4.139999866485596,0.3780808442115751,1.0414370631385417,-0.6694717781500288
4.145999908447266,0.37823633487207775,1.0108700169935347,-0.6519071463934579
4.151000022888184,0.3782305234866258,1.0030036724606568,-0.6372325279818009
4.1549999713897705,0.37840708381655036,0.9967108218871258,-0.6254932530870665
4.159999847412109,0.37830664869160563,0.9677831477371027,-0.6064691946157947
4.165999889373779,0.3780522977814343,0.9583960999938224,-0.5851707178740357
4.171000003814697,0.3779076006163217,0.929415651168613,-0.5651085233233603
4.174999952316284,0.3780110818441097,0.9230331670876328,-0.5494602157900528
4.180999994277954,0.37803399485023914,0.9134592507508653,-0.5259872881281815
4.185999870300293,0.3780320345078965,0.8853951188626807,-0.5055463709464847
4.18999981880188,0.3781609558986452,0.8800703985287336,-0.48894546496236013
4.194999933242798,0.3782077857810051,0.873414260074687,-0.4681935903543218
4.200999975204468,0.3786040982578756,0.847660584809997,-0.4404551957191745
4.205999851226807,0.37869700567055803,0.841876249959841,-0.4186572202045042
4.2099997997283936,0.37876141631063875,0.8210754914928976,-0.40023265066433306
4.2149999141693115,0.3789291228664155,0.815859404632351,-0.3830338577946818
4.2209999561309814,0.37910905586371363,0.8096001998863793,-0.36239563438453287
4.224999904632568,0.37910776005110886,0.7915053053306319,-0.3457310711364069
4.230000019073486,0.37920773471703734,0.7871529414817781,-0.3263149720300113
4.235999822616577,0.37924035294361125,0.7696719570272763,-0.30325220288096566
4.240999937057495,0.3794851705287037,0.7660688882587838,-0.28636176930936724
4.244999885559082,0.37983027229629424,0.7631865363262548,-0.27284990568020906
4.25,0.3797311486855895,0.7493301818092905,-0.2543145037481655
4.255999803543091,0.3802564389605002,0.7458601488878907,-0.23305386323593003
4.260999917984009,0.38069349265749036,0.742968293913617,-0.21533567715118526
4.264999866485596,0.38113812650234813,0.7326411154263546,-0.19931119954095972
4.270999908447266,0.38157450611435717,0.7301853098526183,-0.17709013260891976
4.276000022888184,0.38235675647594786,0.7281387726797502,-0.15857228250565578
4.2799999713897705,0.38291890780932664,0.7205066528169326,-0.1454897765459438
4.284999847412109,0.3836626245556193,0.7187931473881991,-0.13213336739666737
4.290999889373779,0.38464347772948243,0.7123247465035781,-0.11161817605052633
4.296000003814697,0.385264289757138,0.7113342168143139,-0.09847713083803304
4.299999952316284,0.3858983490683104,0.7105418214015354,-0.08796467062775266
4.305999994277954,0.3871908445629645,0.7065346334347646,-0.06993375441713445
4.310999870300293,0.388078663055458,0.70617851419088,-0.05485304636427764
4.31499981880188,0.38895017043933244,0.7058936153994704,-0.04278833609758655
4.319999933242798,0.39015315908890125,0.7043604439831239,-0.02884227502132152
4.325999975204468,0.3920437283725973,0.7046018008776785,-0.012957210272413155
4.330999851226807,0.3932964764938424,0.7048029252294112,0.0002799228774460691
4.3349997997283936,0.3943671139242325,0.7057209723948841,0.01621890597143767
4.3399999141693115,0.39605508022960006,0.7067410298245786,0.0337259377105324
4.3459999561309814,0.39871681282402793,0.7101392457560284,0.05349083776159819
4.349999904632568,0.40045147574684825,0.7110896223227299,0.059379379316573236
4.355000019073486,0.40252981003342864,0.7122776355167971,0.0667403195020019
4.360999822616577,0.40540437183261707,0.7169947152261544,0.07785291257800775
4.365999937057495,0.4076712130777302,0.7190162701307501,0.09177970685556736
4.369999885559082,0.40991485155350765,0.7206334562186005,0.10292074383795424
4.375,0.41255992345663933,0.7271636077902071,0.11508202415505883
4.380999803543091,0.41624760816645096,0.7298677744455226,0.12924451480225482
4.385999917984009,0.4194660954781787,0.7379008756456273,0.14149059636995648
4.389999866485596,0.42169919733971317,0.7401412358268573,0.15238035084451435
4.395999908447266,0.42545171144278343,0.7435018428674983,0.16871530710050306
4.401000022888184,0.42908347231320026,0.75375311813023,0.18272574989889293
4.4049999713897705,0.4322506659432043,0.7562015652576138,0.18808017891760376
4.409999847412109,0.43614866651308964,0.7592620876816685,0.19477313540275512
4.415999889373779,0.4410756928036556,0.771463114433047,0.20607167247832062
4.421000003814697,0.44533067321219055,0.7751641263402663,0.21707351817893353
4.424999952316284,0.4483921908404984,0.7781248299816651,0.22587467998129773
4.430999994277954,0.4537600386217711,0.7920814882271362,0.23760146700857787
4.435999870300293,0.4586507545101622,0.7960039233474118,0.2458525807410346
4.43999981880188,0.4626792028700068,0.8097130607950574,0.259264402786595
4.444999933242798,0.46792595451167146,0.8140119029728755,0.26624535589964343
4.450999975204468,0.4746709642911893,0.8191704315942262,0.27462236648723526
4.455999851226807,0.47993648103843195,0.8351003231057744,0.28321677153409824
4.4599997997283936,0.48462276372327373,0.8389209657506828,0.28885085695745466
4.4649999141693115,0.4903030681305724,0.8436969398550528,0.29589371560313815
4.4709999561309814,0.49763059015297656,0.8613918813600003,0.30536236473818135
4.474999904632568,0.5024630958724731,0.8651576837816934,0.3112635557359871
4.480000019073486,0.5090093728554748,0.8829052930348366,0.3197719562514471
4.485999822616577,0.5169385145044004,0.8892659795778965,0.32706719737008805
4.490999937057495,0.5237419917150963,0.8945668465829058,0.3331469031813393
4.494999885559082,0.5289333181903412,0.9125015834381783,0.33848968925600753
4.5,0.5363201998127449,0.9179225860726615,0.34332810860382346
4.505999803543091,0.5452780386031295,0.9244274273513555,0.3491338888292569
4.510999917984009,0.5530916409917711,0.9441662469350216,0.3542860498272698
4.514999866485596,0.5596446038120747,0.9486008682294971,0.3580802503659479
4.520999908447266,0.5691519697239924,0.9700106382231353,0.36370486126631946
4.526000022888184,0.5772447479478424,0.9756833811728076,0.3669353161919826
4.5299999713897705,0.5834974527188419,0.9802214132377826,0.3695195877105717
4.534999847412109,0.5919673734436715,1.0010908253824782,0.373198180256492
4.540999889373779,0.6060645348411449,1.008199287857706,0.37756187391628804
4.546000003814697,0.6113967714861205,1.0141231007413773,0.38119834309824957
4.549999952316284,0.6210259697510807,1.0344438230533113,0.38424649242372805
4.555999994277954,0.6320014453731151,1.041592859847312,0.3882779911576039
4.560999870300293,0.6408441343352559,1.0634963203165555,0.39169349781553525
4.56499981880188,0.6479437232971451,1.0683890255553095,0.3948145130992617
4.569999933242798,0.6585852837055433,1.0745051258275362,0.3987159217259714
4.575999975204468,0.6717744708792701,1.0982960314310295,0.4036079046020399
4.580999851226807,0.6808304372760683,1.1046817950999726,0.40725060290820436
4.5849997997283936,0.6873793822144793,1.109790466936025,0.4101647962934755
4.5899999141693115,0.696357692556523,1.132951791834164,0.4139001930181903
4.5959999561309814,0.7081833552050601,1.1406684267478908,0.4185403126553418
4.599999904632568,0.715801372799446,1.1458127478139162,0.4216336642866098
4.605000019073486,0.7251902703134815,1.1696153470441144,0.42564646250215593
4.610999822616577,0.737247503157377,1.1776251586412532,0.430038530240643
4.615999937057495,0.7471640737768261,1.201509767726192,0.4340487686269966
4.619999885559082,0.7547939197810352,1.20613816457237,0.4363502906386558
4.625,0.7644156086703313,1.2119238675382191,0.43922729604060595
4.630999803543091,0.7762477314953447,1.2373860761089301,0.44429661935970344
4.635999917984009,0.7861610111906749,1.2456310233568813,0.44730990959756134
4.639999866485596,0.7937009161498579,1.2522267452708082,0.44972045557889556
4.645999908447266,0.8054576664779188,1.279196712823597,0.4536638139763493
4.651000022888184,0.8157686752864328,1.2861716213291376,0.4567361920026389
4.6549999713897705,0.8238617625229956,1.3104661081725744,0.4592065783566613
4.659999847412109,0.8338031219954717,1.3176665003469328,0.4629801930907189
4.665999889373779,0.8462298436276948,1.3263072456361373,0.4675086747271356
4.671000003814697,0.8563391140746276,1.352635655391047,0.47239461101760266
4.674999952316284,0.8643815511865682,1.3585719253154682,0.47565587483701194
4.680999994277954,0.8765927016455126,1.3674765071190078,0.4805478677606129
4.685999870300293,0.8875549675786248,1.394519881603649,0.4832015450754761
4.68999981880188,0.8961205049063758,1.400482733539494,0.4851670008630442
4.694999933242798,0.906630328159869,1.407936565022986,0.48762390846135606
4.700999975204468,0.9185855015641424,1.4369807941551709,0.49210280860381816
4.705999851226807,0.9297201965262691,1.4446668724826572,0.49558574086665735
4.7099997997283936,0.9385527037523421,1.471047117777718,0.498199379597732
4.7149999141693115,0.9496284040840256,1.4786356239322227,0.5011724239004639
4.7209999561309814,0.9627123221422415,1.4877416865816728,0.5047400203587202
4.724999904632568,0.9714645200261344,1.5143760937147426,0.5070920395359027
4.730000019073486,0.9826470824268797,1.5222105890371176,0.508506061439548
4.735999822616577,0.9961583136246558,1.5523088669442753,0.5103071804385941
4.740999937057495,1.0079566127099957,1.5600435376453452,0.5113348516138231
4.744999885559082,1.0173113797916007,1.566231052920562,0.5121569591527712
4.75,1.0288094166966006,1.5947536652132166,0.5131568752505652
4.755999803543091,1.0428681853745096,1.6044473965392645,0.513162400251625
4.760999917984009,1.054867092493934,1.612525955385673,0.5131670046753176
4.764999866485596,1.0646162171343763,1.6395811088022099,0.5126990734925487
4.770999908447266,1.0799312182761767,1.6487104095655014,0.5117204014484404
4.776000022888184,1.092594218457699,1.6563182811226718,0.5109048284487966
4.7799999713897705,1.1023224077037117,1.6831645933608068,0.5094303836106254
4.784999847412109,1.1142516613717994,1.6909098277675003,0.508019959477138
4.790999889373779,1.1265811493388846,1.7206406457539447,0.5060488943405405
4.796000003814697,1.1378530710776809,1.72774393332648,0.5036888041668997
4.799999952316284,1.147498960867077,1.733426360162472,0.501800799549163
4.805999994277954,1.1623162284725268,1.7624590395840543,0.49780007718164765
4.810999870300293,1.1741328383175245,1.7703500533467438,0.4951436749331803
4.81499981880188,1.1836056269185864,1.776662939613333,0.49301852780035227
4.819999933242798,1.1953266172784889,1.803990008877122,0.48882944110257337
4.825999975204468,1.2103728364298016,1.8127419714203579,0.4845558280505442
4.830999851226807,1.2226263529556871,1.8395287093377548,0.4806521654074873
4.8349997997283936,1.2324232732342144,1.845199836693407,0.4777823846154796
4.8399999141693115,1.2447446604560386,1.8522889994103848,0.4741950303346199
4.8459999561309814,1.2591576795395132,1.8798664748486633,0.46897725534019274
4.849999904632568,1.269079880862944,1.8854438325586194,0.4651716972890857
4.855000019073486,1.2811147162288195,1.8924157790265934,0.46041457960130977
4.860999822616577,1.296085225962987,1.919075361128076,0.4538095875159795
4.865999937057495,1.308556250164839,1.9256209048151067,0.44846230706717505
4.869999885559082,1.3184646854556203,1.9308571524995104,0.44418463569155076
4.875,1.3306852496496548,1.9554973426894642,0.43887248073391927
4.880999803543091,1.3453693966978124,1.9635505770018655,0.4331030882153252
4.885999917984009,1.3579899125606147,1.9874826076478407,0.42785869260129233
4.889999866485596,1.3675286356870306,1.9924204964074286,0.42400027629820436
4.895999908447266,1.3822798792430893,1.9998274767092576,0.4182125368523253
4.901000022888184,1.3945770637361348,2.022658578285977,0.41271300839859604
4.9049999713897705,1.4025357806465315,2.0274396818383837,0.4085895693805
4.909999847412109,1.4126637371464994,2.0334159900339803,0.40343533205270043
4.915999889373779,1.4260713234267233,2.0558289545490287,0.39651002223079745
4.921000003814697,1.4384008340172119,2.0613335172559464,0.3915602233080866
4.924999952316284,1.4488911633758579,2.0802345723957374,0.3871049481244438
4.930999994277954,1.4648652478377904,2.0862718443924835,0.3810804486312645
4.935999870300293,1.4774617611352534,2.0913027444578,0.3760601919805666
4.93999981880188,1.4877029285797259,2.1079553258852806,0.36906031159025243
4.944999933242798,1.5004726166222628,2.112412847452791,0.36436599456973306
4.950999975204468,1.515219452118809,2.1177617883152724,0.358732903680052
4.955999851226807,1.5274018076322264,2.133053012137225,0.35147011206644496
4.9599997997283936,1.5368278509110094,2.136151062076591,0.3478051634106751
4.9649999141693115,1.5487455098820955,2.1400237629962064,0.3432238137528813
4.9709999561309814,1.5596766639825175,2.154065717886818,0.33617764557584806
4.974999904632568,1.5685868380186734,2.1567183994067824,0.33142007012840863
4.980000019073486,1.5792388867491483,2.1685136975741535,0.32413888710255817
4.985999822616577,1.5923309367190663,2.1718730730472364,0.3186629802788359
4.990999937057495,1.603621057430368,2.1746727083510904,0.31409947072560307
4.994999885559082,1.613303113288713,2.1841725154560203,0.3098697424095189
5.0,1.6253421278253657,2.186446462867218,0.30513368510075695
5.005999803543091,1.6397419432873133,2.189175047961762,0.2994507324889414
5.010999917984009,1.6523076368558016,2.198125975332667,0.29297196782907897
5.014999866485596,1.6609475248559948,2.200202259525315,0.28830242185153065
5.020999908447266,1.6735222456573897,2.2086372769751024,0.2808196333576853
5.026000022888184,1.6829072812445132,2.210502920530149,0.2760963756063449
5.0299999713897705,1.691268645090978,2.2119953819989178,0.272317904535668
5.034999847412109,1.7015277553908985,2.2186651820983836,0.26690832618057264
5.040999889373779,1.7148509722209717,2.220701294543608,0.2627621428636406
5.046000003814697,1.7262571622916565,2.22239808188372,0.2593069351817404
5.049999952316284,1.736369947672274,2.227920220207537,0.2555774167510716
5.055999994277954,1.7519436958564967,2.2297319245967304,0.2515925418867149
5.060999870300293,1.7651895654648713,2.235032145299402,0.2479177220185723
5.06499981880188,1.7753161525440202,2.2360925813700128,0.24582506256941566
5.069999933242798,1.7851048722381957,2.2374181738640733,0.24320914470759813
5.075999975204468,1.796989523017092,2.2424281375099424,0.24018478922398892
5.080999851226807,1.8066199573719122,2.2436465076221443,0.23816689451208486
5.0849997997283936,1.814867022554675,2.244621215331477,0.23655255949794085
5.0899999141693115,1.8265470277138496,2.2488990102938033,0.23475235553728538
5.0959999561309814,1.8406717696987152,2.2502060323349498,0.23329164865983548
5.099999904632568,1.8513775035048656,2.251077363050372,0.23231786342249236
5.105000019073486,1.8641489663257613,2.2550559957803413,0.23189894016415544
5.110999822616577,1.8777687318803584,2.256339486691216,0.23161285240402843
5.115999937057495,1.8881263870604026,2.26009052924174,0.23187549664749485
5.119999885559082,1.8979091833190687,2.260889005450174,0.23257378813074014
5.125,1.9096081949743402,2.2618871364058433,0.2334466837012605
5.130999803543091,1.9234231552878693,2.2656132589997764,0.23524566523230847
5.135999917984009,1.934191346017635,2.2665637986464904,0.23709542183381643
5.139999866485596,1.9424530954043875,2.2673242031693266,0.23857517419427318
5.145999908447266,1.9550476555785672,2.2709024996797065,0.24300259997206988
5.151000022888184,1.9654342233839146,2.2718488352410406,0.24610643337894916
5.1549999713897705,1.9738382519191182,2.2749664493305284,0.24991537946550108
5.159999847412109,1.984174440378077,2.275837812485698,0.251940626891839
5.165999889373779,1.9962066904501574,2.2768834815125922,0.25437100106241833
5.171000003814697,2.006278843833768,2.2799639902678246,0.2583084031748395
5.174999952316284,2.013816325039805,2.2805632696786255,0.26056185023656614
5.180999994277954,2.025384748808731,2.281462206654975,0.2639420879879766
5.185999870300293,2.035052339436293,2.2845603774235577,0.268019900118684
5.18999981880188,2.0429570611414123,2.285376671314452,0.2717022999554449
5.194999933242798,2.0523634772579946,2.2885231301607054,0.2765472340412562
5.200999975204468,2.063521453160029,2.289489831823074,0.2809404381022107
5.205999851226807,2.0726704735098918,2.2902953909330455,0.28460132510699004
5.2099997997283936,2.079919397000646,2.293028193576743,0.28807602193689225
5.2149999141693115,2.0889612946224942,2.293836054608442,0.2913270201645477
5.2209999561309814,2.0998815416284518,2.2948054724381066,0.2952281560312832
5.224999904632568,2.1069376722663082,2.297415566416096,0.2977168358051439
5.230000019073486,2.115458148998702,2.298155738065943,0.3008406096477022
5.235999822616577,2.125887795895732,2.300964246459362,0.30487984041960103
5.240999937057495,2.134604853511291,2.301699894640245,0.30713677514359533
5.244999885559082,2.14127244531988,2.30228839213837,0.3089422583528482
5.25,2.149422836833236,2.3048407321526065,0.3118064480171722
5.255999803543091,2.158962045833326,2.3056605232250815,0.31335991844458067
5.260999917984009,2.166998728960395,2.3063437204582202,0.31465454915404256
5.264999866485596,2.1735234250427133,2.308609455507612,0.3157432380884007
5.270999908447266,2.1832035421076705,2.3093701362277175,0.3169158500561413
5.276000022888184,2.1902274064265272,2.311662488349557,0.3179377621782992
5.2799999713897705,2.196976690884709,2.3121529321680887,0.3184471667990553
5.284999847412109,2.2048941122803827,2.312765979632977,0.3190839149841823
5.290999889373779,2.213020802116024,2.3150557948427504,0.3196405804578406
5.296000003814697,2.219786050292949,2.3156235875214346,0.31976812673214594
5.299999952316284,2.2245501918524098,2.316077805420075,0.31987016010254554
5.305999994277954,2.2317022192719884,2.3182095886175578,0.3199512228771798
5.310999870300293,2.237844111540081,2.3187386649083117,0.3199671724629688
5.31499981880188,2.242537911551283,2.3191619309867044,0.31997993228371086
5.319999933242798,2.2488661705809134,2.3210668613775987,0.320039574997067
5.325999975204468,2.2561907541174993,2.321678055792727,0.32012743107489594
5.330999851226807,2.261820825555254,2.3234966503160153,0.3202979838039253
5.3349997997283936,2.2664621290289073,2.3238803548994245,0.3205908098573743
5.3399999141693115,2.269319315274803,2.3243600027818383,0.3209568555146987
5.3459999561309814,2.2720421596168743,2.3261777725203405,0.3217977587117165
5.349999904632568,2.277130043893423,2.3265542355010655,0.32258042103589984
5.355000019073486,2.284672843130235,2.327024831056395,0.32355878392931187
5.360999822616577,2.293424402849728,2.3287485185787116,0.32550516626855835
5.365999937057495,2.2999484175031677,2.3291847094560683,0.32719395098711795
5.369999885559082,2.305104057081581,2.329533649678718,0.3285449304465531
5.375,2.3114529573327385,2.331107840141622,0.33148755014822484
5.380999803543091,2.3190198972578093,2.331621812908455,0.3348233954349265
5.385999917984009,2.3249279040998703,2.333162262727804,0.3379913658337021
5.389999866485596,2.3291035823710615,2.333497851072786,0.3409053461358495
5.395999908447266,2.335170797133905,2.334001243591699,0.3452764034335691
5.401000022888184,2.3386653596478206,2.3355051625615952,0.34961056461740175
5.4049999713897705,2.3427560331248047,2.3358378440487706,0.35288095851161927
5.409999847412109,2.3476084493472094,2.3362536909503353,0.3569689021460971
5.415999889373779,2.3537652199526873,2.337811727186075,0.3635093146385981
5.421000003814697,2.3586642227192787,2.338222726498658,0.3687313443927878
5.424999952316284,2.3626433818582795,2.3396011295861574,0.37303147761048977
5.430999994277954,2.368138457526687,2.3400777945698694,0.38025249962839075
5.435999870300293,2.3732024346602913,2.340475002762408,0.38626982668622284
5.43999981880188,2.376972133391468,2.341837126318307,0.39159660646884287
5.444999933242798,2.3815844415705456,2.3422441379549976,0.3988787137628909
5.450999975204468,2.387456353361113,2.342732544156074,0.40761710362375364
5.455999851226807,2.3916322295704004,2.344159147243736,0.4150201561900003
5.4599997997283936,2.395252018926823,2.3444706585552457,0.4198809222439118
5.4649999141693115,2.3993363333158637,2.3458805501362585,0.42592655124779355
5.4709999561309814,2.40437268816223,2.3463051352332407,0.4333818086735034
5.474999904632568,2.4075166234339735,2.3465881863407696,0.43835188154289595
5.480000019073486,2.4118161193620016,2.347952936145246,0.445225969351999
5.485999822616577,2.4162413243821605,2.3484800573445934,0.4544822324638304
5.490999937057495,2.419542540703754,2.3489193494484164,0.4621962141837322
5.494999885559082,2.4218857274321515,2.3501847726893734,0.46768333337509205
5.5,2.424920246201203,2.350508510994424,0.4726619632137857
5.505999803543091,2.4278356848126244,2.3508969753491162,0.4786359866684264
5.510999917984009,2.4299571200953567,2.352271941428602,0.48481749978016236
5.514999866485596,2.430227523133513,2.3526221309479016,0.48958981275664076
5.520999908447266,2.431591283080036,2.3540278279627476,0.4960275165197651
5.526000022888184,2.4332715853209255,2.3543389631820744,0.4995793857834602
5.5299999713897705,2.4348967176483955,2.3545878624560896,0.5024207795769473
5.534999847412109,2.4369400999095503,2.3558238420431312,0.5063765797110424
5.540999889373779,2.438860923272302,2.3562907648045543,0.511019518135237
5.546000003814697,2.4399938282610893,2.357553270155868,0.5150140024879116
5.549999952316284,2.440358129825714,2.357813347432909,0.5165112961096654
5.555999994277954,2.440452332439165,2.3582034710994764,0.5187572811656977
5.560999870300293,2.4402730995387123,2.3593603600956974,0.5200720283950253
5.56499981880188,2.4403623914835846,2.359603023817282,0.520408978682571
5.569999933242798,2.4402061482599087,2.3599063643173155,0.5208301816050486
5.575999975204468,2.4402120176177813,2.3610294096773146,0.5204170332950362
5.580999851226807,2.440189661824311,2.3612789352206587,0.5194914497620047
5.5849997997283936,2.4401997445393824,2.3614785580350537,0.5187509741083082
5.5899999141693115,2.4401378283635244,2.3625038261060523,0.5167142690333149
5.5959999561309814,2.4399099156856603,2.362893224785232,0.5122823546584322
5.599999904632568,2.4395668822718304,2.3638491353292674,0.5093815864482089
5.605000019073486,2.438970512063042,2.36409355592865,0.5060254645697168
5.610999822616577,2.4379564641482454,2.3643868443314466,0.5019983423557051
5.615999937057495,2.4363625871540204,2.3652827235375167,0.4973461485955417
5.619999885559082,2.4350685559055947,2.3654697371415567,0.4933369297168454
5.625,2.433740876058249,2.365703512506874,0.4883252268901171
5.630999803543091,2.4320395799659917,2.3665778466773757,0.48129019918690985
5.635999917984009,2.4304784336955207,2.366791315901921,0.47564371328955823
5.639999866485596,2.428811704621991,2.366962085174294,0.4711266861152369
5.645999908447266,2.4266065560271946,2.3677711933415533,0.463663549688281
5.651000022888184,2.4241557301863392,2.3679744065714345,0.45785821330861537
5.6549999713897705,2.4221580271642216,2.368646685992479,0.45053052707347424
5.659999847412109,2.4205658839826403,2.368826889265519,0.44563671827082874
5.665999889373779,2.416975279341843,2.369043140067547,0.4397639610190345
5.671000003814697,2.413635329348818,2.369699894388099,0.4328178025805415
5.674999952316284,2.4106530047479713,2.3698340364761226,0.42734764429400296
5.680999994277954,2.406231771240918,2.370481633296194,0.41793847695915726
5.685999870300293,2.4025921663806087,2.3706388292279255,0.41126710221397095
5.68999981880188,2.3995887848916237,2.3707645874724848,0.40592993879305683
5.694999933242798,2.395248766210546,2.371333690511531,0.3987466461232476
5.700999975204468,2.3897914442720385,2.371507907984713,0.3912089241105955
5.705999851226807,2.385493993615885,2.37165308459721,0.38492768878009687
5.7099997997283936,2.38199555788853,2.3721489578127186,0.37969587949380335
5.7149999141693115,2.377256960410807,2.372280556397638,0.37290565587672103
5.7209999561309814,2.3713033049539636,2.3724384721895557,0.36475751704649534
5.724999904632568,2.3674577703558164,2.372891868987369,0.35818438470236436
5.730000019073486,2.3625517719783313,2.3730141403994875,0.3506959618257148
5.735999822616577,2.3564737768343518,2.373477153614439,0.3375521869676311
5.740999937057495,2.3518894736710334,2.3735884915332273,0.3325518009713356
5.744999885559082,2.3477791124679017,2.3736775586829277,0.3285516352332157
5.75,2.342237767324461,2.374083168562314,0.321836223451855
5.755999803543091,2.3371648802778937,2.374196233452766,0.3145497698760366
5.760999917984009,2.3337247875632987,2.3742904594365752,0.308477387424534
5.764999866485596,2.330075501010755,2.374644724059128,0.30037279459759514
5.770999908447266,2.3227592438909586,2.3747734418571764,0.2914869038127796
5.776000022888184,2.316444536531851,2.375123913968992,0.2820814806131379
5.7799999713897705,2.3115186193298034,2.3751882645142084,0.27822203502396115
5.784999847412109,2.3055500169012353,2.375268701736819,0.27339778554845146
5.790999889373779,2.2983544562232923,2.3756007502892085,0.2670878444641429
5.796000003814697,2.292746084032518,2.375684918638478,0.260370063309957
5.799999952316284,2.287909242738984,2.3757522509098727,0.25499603057946985
5.805999994277954,2.2804583460690506,2.376059804133895,0.2473363790330052
5.810999870300293,2.273379267465405,2.376131913593414,0.2410983314345732
5.81499981880188,2.2678104770927443,2.3761896018487354,0.23610783386369472
5.819999933242798,2.260474211469013,2.376455129194292,0.2300647242348034
5.825999975204468,2.2510307926911413,2.376537439235873,0.22349822658968813
5.830999851226807,2.254683028142529,2.3767834790937865,0.21742450933940496
5.8349997997283936,2.249778659354913,2.37683191551821,0.21374671405741488
5.8399999141693115,2.2435304422333475,2.3768924632140433,0.2091493055425495
5.8459999561309814,2.2361425135537973,2.3771281816714844,0.20220671483143082
5.849999904632568,2.2313232767929745,2.377176032799945,0.20004805236383036
5.855000019073486,2.2254359360305807,2.37723584884966,0.1973496277783552
5.860999822616577,2.2186597086481767,2.377459673291352,0.19241776781596398
5.865999937057495,2.2127708560470323,2.3775147403594077,0.18837822272896393
5.869999885559082,2.2081301527185713,2.3776966550577865,0.17988228918833052
5.875,2.2021403129686483,2.3777470987378866,0.17829169194641808
5.880999803543091,2.194906350753673,2.377807627786605,0.1763830814375145
5.885999917984009,2.188025121427545,2.377992738519061,0.17331047195253066
5.889999866485596,2.181992338571991,2.3780307436093686,0.17038114492789888
5.895999908447266,2.173815277115338,2.378087752377484,0.16598706708907884
5.901000022888184,2.1675743541981705,2.37825837567029,0.16300962522589726
5.9049999713897705,2.1623478703596066,2.378292936937722,0.16093662021440638
5.909999847412109,2.156015263629748,2.378336138007002,0.1583453948406223
5.915999889373779,2.1481091526546336,2.3785069517639768,0.15433961584724473
5.921000003814697,2.1417534785931784,2.378549156506493,0.15118396711280235
5.924999952316284,2.13639096679276,2.3786935449733866,0.14799074332769577
5.930999994277954,2.128337087287625,2.378739373958216,0.1449687722014224
5.935999870300293,2.1215069379344467,2.3787775635648623,0.1424505429838638
5.93999981880188,2.11609828238888,2.378912849982894,0.139810025978729
5.944999933242798,2.1093585734944904,2.378951373485005,0.13702898155493526
5.950999975204468,2.101335262127463,2.3790953910604156,0.13349889332036166
5.955999851226807,2.094803961432044,2.3791285048608124,0.1310655920782936
5.9599997997283936,2.0891634861321364,2.3791549962169354,0.12911892787829474
5.9649999141693115,2.082623509652048,2.379280743617194,0.12666023611547578
5.9709999561309814,2.073868683531306,2.3793192565048398,0.12323599549303044
5.974999904632568,2.067969156173801,2.379344931253152,0.1209532137667821
5.980000019073486,2.0607999029119597,2.379461706531284,0.1178356588275443
5.985999822616577,2.0521061453776763,2.3794968724397814,0.11433587540678891
5.990999937057495,2.0453413591555036,2.3795261789938444,0.11141922697046536
5.994999885559082,2.0392653555907314,2.379628054043824,0.10927470073535724
6.0,2.0318364140307112,2.379655396082608,0.10658164378571432
6.005999803543091,2.0231505359097373,2.379760539554522,0.10347614188919904
6.010999917984009,2.015613115017404,2.37978218769727,0.10111997863481835
6.014999866485596,2.009775043351516,2.3797995055921235,0.09923511544014235
6.020999908447266,2.0002976671996775,2.379891853990429,0.09416958113399354
6.026000022888184,1.992025349214085,2.379919106957173,0.09212333511076494
6.0299999713897705,1.9855855689943467,2.3799409085508727,0.09048639683441047
6.034999847412109,1.9774444715906607,2.3800266128261187,0.08807618147903384
6.040999889373779,1.968097477797412,2.380051784760526,0.08496430621430204
6.046000003814697,1.9600395238773447,2.380129645247412,0.08247839133423542
6.049999952316284,1.9533468868025634,2.380144894216116,0.08070319264113657
6.055999994277954,1.9433538040348404,2.3801677681236324,0.0780403416957634
6.060999870300293,1.9352936904341789,2.3802386116224383,0.07589210350405216
6.06499981880188,1.928743725538976,2.380252396683344,0.07421208201769522
6.069999933242798,1.9207099131289396,2.3802696286257246,0.07211198005596918
6.075999975204468,1.9093033389228555,2.380337498588368,0.06956927992366108
6.080999851226807,1.9009566699065636,2.3803533558025554,0.06741745716941608
6.0849997997283936,1.8947919381885399,2.3803660417251353,0.0656959784441303
6.0899999141693115,1.886698922682509,2.3804243542293757,0.06344250128037152
6.0959999561309814,1.8758293596769184,2.3804427800037256,0.061657805554461334
6.099999904632568,1.8663785301174898,2.38049543122176,0.06053808677717501
6.105000019073486,1.8562217506309318,2.380509087021785,0.0593371069938239
6.110999822616577,1.8451102540474553,2.380525473070213,0.05789601142601773
6.115999937057495,1.8344213625966808,2.3805772638494367,0.05688529630717808
6.119999885559082,1.8266921823789355,2.3805883516175506,0.056134693816131426
6.125,1.8177932390447304,2.380602211823361,0.05519640714734496
6.130999803543091,1.8075774319161653,2.3806535286445567,0.054608160670261245
6.135999917984009,1.7981738929306152,2.3806661273897505,0.05423357596629647
6.139999866485596,1.7918211457039233,2.380711360973516,0.05394628720061804
6.145999908447266,1.7814779013113806,2.380727406636453,0.05407881702783522
6.151000022888184,1.7694732565423217,2.3807407782347654,0.05418926030592466
6.1549999713897705,1.7596353283679882,2.380787062018172,0.05442759890024479
6.159999847412109,1.747692778830211,2.3808007093328287,0.05494377994844115
6.165999889373779,1.7343604870934182,2.3808170866310334,0.055563216897509364
6.171000003814697,1.7233035639253471,2.38086769038906,0.056309240361331385
6.174999952316284,1.714813287669549,2.3808791472172506,0.056881668312351905
6.180999994277954,1.7020047931809543,2.3809339385604686,0.057767506915612436
6.185999870300293,1.6918210081191374,2.380948572952813,0.05865538000659028
6.18999981880188,1.6836196696049879,2.380960280606256,0.05936568694700014
6.194999933242798,1.673188297367764,2.3810142157607213,0.060327067743992546
6.200999975204468,1.6603935445012181,2.3810328582894624,0.06136225469621813
6.205999851226807,1.650232960209214,2.381048393236225,0.062224883066842096
6.2099997997283936,1.6410245569336666,2.3811017949741005,0.06298969042873091
6.2149999141693115,1.629656123332524,2.3811175940816165,0.06384936051772704
6.2209999561309814,1.6156786802468768,2.3811790600145453,0.06495153356515515
6.224999904632568,1.606518847754594,2.3811925629020654,0.06557732912346072
6.230000019073486,1.5945470855581385,2.3812094421150993,0.0663596015469443
6.235999822616577,1.5803393106613313,2.381273241304064,0.0675038649265852
6.240999937057495,1.5686510564580767,2.3812904599352573,0.06810493325454825
6.244999885559082,1.5614588717742008,2.3813042343475943,0.06858577072060949
6.25,1.5511885046768967,2.3813655573036456,0.06928861311572442
6.255999803543091,1.53764615033296,2.381385097535553,0.06997508735648214
6.260999917984009,1.5264037632912892,2.381401381968041,0.07054718104919708
6.264999866485596,1.5173409651512388,2.381461257335825,0.0708340967406197
6.270999908447266,1.5035208496965562,2.381483081959674,0.0711477556024264
6.276000022888184,1.4920774477424004,2.381547006856395,0.07136667183570945
6.2799999713897705,1.483051930557561,2.3815606642799327,0.07146442569489231
6.284999847412109,1.4711176049300974,2.3815777358558408,0.0715866165622061
6.290999889373779,1.4562193752268324,2.3816442072661177,0.0716382563583785
6.296000003814697,1.4441132551134486,2.3816615685566402,0.07159797711428788
6.299999952316284,1.435068721235779,2.381675457092359,0.07156575487138743
6.305999994277954,1.42162351471296,2.381741100825059,0.07149374906052375
6.310999870300293,1.4105478581134316,2.381757711503941,0.07146513598541795
6.31499981880188,1.402481475147875,2.3817710002054624,0.071442245252451
6.319999933242798,1.3919064352653157,2.3818339335383336,0.07155072025030308
6.325999975204468,1.380803234487263,2.381854908492103,0.07169372628477194
6.330999851226807,1.370026393954305,2.3819177976180206,0.07197879178908832
6.3349997997283936,1.3611852885289493,2.381931906084415,0.07224390537886734
6.3399999141693115,1.3492284649005655,2.381949542298113,0.0725753092177447
6.3459999561309814,1.33468556124167,2.3820150641140363,0.07320042372327071
6.349999904632568,1.325243269323416,2.382027312834883,0.07364860279380593
6.355000019073486,1.313041895461517,2.3820426242835078,0.07420884666739863
6.360999822616577,1.2987213664520185,2.3821124544728614,0.07546960299526051
6.365999937057495,1.2870074976888282,2.382134716511784,0.0764691854483995
6.369999885559082,1.2775942775267382,2.382199828337512,0.07731999893276158
6.375,1.2657486179817874,2.3822161121209295,0.07815411060812784
6.380999803543091,1.2518277690360595,2.3822356515739957,0.07915498893688008
6.385999917984009,1.2407316360640372,2.3823038807352286,0.08047246484271493
6.389999866485596,1.2311793786804164,2.3823223016104613,0.08137932278419825
6.395999908447266,1.2166238676597922,2.3823499334723026,0.08273963672324393
6.401000022888184,1.2046122806443629,2.382420760747896,0.08382863147720036
6.4049999713897705,1.1944875917686237,2.382435703321454,0.08461803121919027
6.409999847412109,1.1818098550305245,2.3824543813157373,0.08560476913355343
6.415999889373779,1.167036967250268,2.3825352120675456,0.08672094699289862
6.421000003814697,1.1555003020968462,2.3825586458698345,0.0875575133071968
6.424999952316284,1.1468664441507792,2.3826308358391466,0.0882293622660527
6.430999994277954,1.1334347675192717,2.3826549841217997,0.08903603957100983
6.435999870300293,1.1222390981993655,2.382675107050971,0.0897082492889728
6.43999981880188,1.1128645377864848,2.382747787694593,0.09035302585592105
6.444999933242798,1.1006338014389043,2.3827696628992023,0.09068744874856856
6.450999975204468,1.0855484503201172,2.3828519669096218,0.09108073995776153
6.455999851226807,1.072682438264605,2.3828728768847562,0.09122411017565724
6.4599997997283936,1.0631340894422756,2.382889605064282,0.09133880771729265
6.4649999141693115,1.0513436591167937,2.382966704841,0.09142973186592783
6.4709999561309814,1.03720387067112,2.382992243448819,0.0913510633496694
6.474999904632568,1.027894923576159,2.3830092688490963,0.0912986187141585
6.480000019073486,1.016212687832816,2.3830856846637727,0.09106005948993469
6.485999822616577,1.002536273983877,2.3831103782411795,0.09080115935527613
6.490999937057495,0.9914468539338727,2.3831864036778305,0.09053889129025852
6.494999885559082,0.9828786690711234,2.383202669491656,0.09017112388910296
6.5,0.9718177214742654,2.383223002486086,0.08971139819696286
6.505999803543091,0.9583388419090607,2.383301956032143,0.08906932837156761
6.510999917984009,0.9470937600347319,2.383322055580592,0.0884878038403059
6.514999866485596,0.9386395643823527,2.3833381346443114,0.08802260085246601
6.520999908447266,0.9256939552395105,2.3834149923855565,0.08674142764582266
6.526000022888184,0.9150377467855845,2.383433267972095,0.08529388168428634
6.5299999713897705,0.9064699489791218,2.383447887918469,0.08413588632873155
6.534999847412109,0.8963647218013584,2.383518278419207,0.08303762576878948
6.540999889373779,0.8837077568122276,2.383541979761846,0.08234217081116002
6.546000003814697,0.8733700599682096,2.3836111334917622,0.08116118536959457
6.549999952316284,0.8654391845011289,2.3836246434896533,0.07958313746925742
6.555999994277954,0.8534723167318238,2.3836449088891247,0.07721601858865394
6.560999870300293,0.8430345795282748,2.383707371493161,0.07460955545644397
6.56499981880188,0.8350166623257167,2.3837191082015154,0.07241495894959506
6.569999933242798,0.8250956953188953,2.3837337796116373,0.0696716152086619
6.575999975204468,0.8120880943239944,2.3837914419704176,0.06521141784765114
6.580999851226807,0.8020127005176085,2.3838035935573836,0.061303700818213784
6.5849997997283936,0.7942266016293232,2.3838133149428455,0.058177489926846154
6.5899999141693115,0.7847045074719577,2.383857263364243,0.053084661039074374
6.5959999561309814,0.7720583416366833,2.383869138512587,0.0496315558805312
6.599999904632568,0.7641621508412597,2.383877055120858,0.047329531512539505
6.605000019073486,0.7545552501537194,2.383913803695384,0.04148158071358533
6.610999822616577,0.7431094358846414,2.383923164041114,0.0348522064696971
6.615999937057495,0.7326841554654433,2.3839479333498423,0.028425041442258908
6.619999885559082,0.7251203121750389,2.3839505880003484,0.024124203140176867
6.625,0.7155493954820669,2.383953906432155,0.018747962997644557
6.630999803543091,0.7034195222811213,2.3839552253230245,0.011009960063645388
6.635999917984009,0.6939446028664288,2.3839506694084247,0.0044126663167017716
6.639999866485596,0.6865822362302639,2.383828257881607,-0.0009481819875185719
6.645999908447266,0.6758661650407114,2.3832060016680088,-0.009533394389286966
6.651000022888184,0.6667994056708874,2.3826874465813206,-0.01668785177186214
6.6549999713897705,0.6590316394723323,2.3811008221408065,-0.024093825946224463
6.659999847412109,0.6499902058521734,2.3803374566749307,-0.03185134410942171
6.665999889373779,0.6402204489724406,2.3789268531546117,-0.0422145841160026
6.671000003814697,0.6309563840579439,2.3766458087113795,-0.05100346433879526
6.674999952316284,0.6241202768001392,2.3759410576024327,-0.05561957463841606
6.680999994277954,0.6142246231958014,2.3748839099355226,-0.0625438776604258
6.685999870300293,0.6058736512467129,2.370675742573155,-0.07381146926039615
6.68999981880188,0.5990533861907166,2.369206947041804,-0.08330480462487155
6.694999933242798,0.5874200946411557,2.3636914092680685,-0.09497105545999918
6.700999975204468,0.5758005865426993,2.36149552136175,-0.1059173670550259
6.705999851226807,0.5680610251126643,2.3596656729439083,-0.11503900340801429
6.7099997997283936,0.5622482710369451,2.353012587126633,-0.1252505663809509
6.7149999141693115,0.5549531403376045,2.350461327626831,-0.1376653198339918
6.7209999561309814,0.5447499830031945,2.3413665993922743,-0.1521665401890207
6.724999904632568,0.5391504026464813,2.339319293149158,-0.16122752224069964
6.730000019073486,0.5324992150890538,2.3367600688223638,-0.1725541548679757
6.735999822616577,0.5248572156307127,2.3259876228479346,-0.18792325630451623
6.740999937057495,0.5189278404480957,2.321862313061702,-0.20425594187804108
6.744999885559082,0.5142027787198425,2.3185621832560748,-0.21732162306567346
6.75,0.5090054846483844,2.304879911903358,-0.2409368817844729
6.755999803543091,0.5024834528430183,2.299792453675395,-0.2569881734463991
6.760999917984009,0.49793579930241516,2.2843085095578433,-0.2769739995673014
6.764999866485596,0.4938121558102765,2.2803229637889206,-0.288249367554061
6.770999908447266,0.48768336448043437,2.2743445263554873,-0.3051627555706785
6.776000022888184,0.4822957298326071,2.2563730501749837,-0.3217276460366236
6.7799999713897705,0.4783390027051306,2.2517714242038447,-0.3381802695384148
6.784999847412109,0.4734352948102498,2.2460194603103742,-0.3587458037493024
6.790999889373779,0.46753499147764854,2.223501025300026,-0.384535364554302
6.796000003814697,0.4632940195073946,2.2168057161165566,-0.4043534683389012
6.799999952316284,0.4598355770739062,2.2114496603197296,-0.42020738437906047
6.805999994277954,0.4549932621237419,2.1851201005799012,-0.4490333438828372
6.810999870300293,0.4507874853248787,2.1776927921834277,-0.46287126918306043
6.81499981880188,0.4479300494434597,2.152430848359379,-0.47925606194529824
6.819999933242798,0.4444012157229879,2.144664953275215,-0.4974175057092236
6.825999975204468,0.439761658918112,2.1353460272935214,-0.519210891831813
6.830999851226807,0.4363890664113096,2.106512684344293,-0.5339223488537458
6.8349997997283936,0.4342265321972341,2.1004909562472815,-0.5432563241748476
6.8399999141693115,0.4310985548051827,2.092963526930328,-0.5549242105928096
6.8459999561309814,0.4276733699092756,2.0619658187626135,-0.5703525231942861
6.849999904632568,0.4250550378387887,2.05503057047328,-0.5814301249138406
6.855000019073486,0.4219024570478058,2.029672541888276,-0.5978506706211532
6.860999822616577,0.41845078544548114,2.016133213104536,-0.6152945531318894
6.865999937057495,0.41566846661016427,2.0082526648693686,-0.62930981033451
6.869999885559082,0.4134628009679247,1.9810055666390511,-0.6410894167529824
6.875,0.41054268979715425,1.9730960349899809,-0.6472045263819145
6.880999803543091,0.40722044993407447,1.9636051250172144,-0.6545422497183667
6.885999917984009,0.4043846224616387,1.935362290529474,-0.6618719023087655
6.889999866485596,0.4024215156957565,1.9298470437521704,-0.6672003527154623
6.895999908447266,0.39954413180241927,1.9215740092169364,-0.6751931871277489
6.901000022888184,0.39737923554223936,1.8918599839490524,-0.6820904344927781
6.9049999713897705,0.39598676135304106,1.88436971158272,-0.6877748722116551
6.909999847412109,0.3942679907444752,1.8541996953229336,-0.6940885019132311
6.915999889373779,0.39231484624133706,1.8447803714822868,-0.6982470241199918
6.921000003814697,0.39066686035528364,1.8369308101858535,-0.7017125143735159
6.924999952316284,0.3890436096450774,1.8096401472882115,-0.7037278272926627
6.930999994277954,0.3869970149763176,1.8005794920255738,-0.7054207660477155
6.935999870300293,0.38498866940395093,1.7930291859970917,-0.7068315034963452
6.93999981880188,0.38392616431013615,1.765848044012647,-0.7068434989430373
6.944999933242798,0.38245485684841907,1.758161264135508,-0.7061889948369691
6.950999975204468,0.380860982147338,1.7277966128610223,-0.7045841184942118
6.955999851226807,0.37931321732988743,1.7192282733459368,-0.7032317116961255
6.9599997997283936,0.3781335075821653,1.7123735200177888,-0.7021497733597803
6.9649999141693115,0.3771470906133132,1.6832751413588394,-0.7000226322857075
6.9709999561309814,0.3764952664901933,1.6748641621269682,-0.6966364109401714
6.974999904632568,0.37611127144280787,1.6692569540457038,-0.6943789748949493
6.980000019073486,0.37535990748180986,1.6404290095670608,-0.6909020244295556
6.985999822616577,0.3744808260519133,1.6295102824653458,-0.6862843883430382
6.990999937057495,0.3735677855385019,1.5995214210709787,-0.6822043652479052
6.994999885559082,0.3727477165493805,1.5933261111592263,-0.6779793002042974
7.0,0.372354897039453,1.585581696814035,-0.67269778002223
7.005999803543091,0.3722250600608874,1.555045440475072,-0.6663765210113297
7.010999917984009,0.3718936991118708,1.5469756105139618,-0.6620550394277608
7.014999866485596,0.3716770161078256,1.5405199774194769,-0.6585979777966557
7.020999908447266,0.37152907586952383,1.5099608466090833,-0.651976359786566
7.026000022888184,0.37133074357002477,1.5021121156758046,-0.6476353212387614
7.0299999713897705,0.3711815615093468,1.4958333554780354,-0.6441626145957843
7.034999847412109,0.37090642206682056,1.466638576008632,-0.6389539427789174
7.040999889373779,0.3710307167085866,1.4569596712221666,-0.6331971177059379
7.046000003814697,0.3714541964641478,1.4278639540515203,-0.6283356033252276
7.049999952316284,0.3717869036883552,1.4216948304238026,-0.6243260207497087
7.055999994277954,0.3722922056552441,1.4124409611256474,-0.6183115273900194
7.060999870300293,0.3721954115940863,1.383501063392531,-0.6136269781358321
7.06499981880188,0.37226034324471746,1.3771603707964788,-0.6104574204529137
7.069999933242798,0.37246488323969623,1.3692342215967168,-0.6064953316571716
7.075999975204468,0.3720553954138291,1.3385117095635046,-0.6018194137516952
7.080999851226807,0.37146933270731813,1.330559319424211,-0.5979168933883283
7.0849997997283936,0.3714233081488717,1.3030843547415796,-0.5946608625126302
7.0899999141693115,0.3719915480150375,1.2952188441262817,-0.5922387510865355
7.0959999561309814,0.37263812279266867,1.2857803814071997,-0.5893322635722734
7.099999904632568,0.3725365665407125,1.2584254166678408,-0.5868947849164222
7.105000019073486,0.3724183916028824,1.2504953140651967,-0.584959763996525
7.110999822616577,0.37228373602696,1.2409797203213697,-0.5826378680662746
7.115999937057495,0.3720529473045732,1.2118257845100924,-0.5814728654105542
7.119999885559082,0.3719767182614283,1.2054437304311822,-0.5806113845746044
7.125,0.3716450205974641,1.1832318449867882,-0.5792982445061207
7.130999803543091,0.37152195704647395,1.167130639988692,-0.5791839804667542
7.135999917984009,0.37135334752004967,1.1593100372480665,-0.5791917266750267
7.139999866485596,0.37145913925895124,1.131948295100836,-0.579499121624692
7.145999908447266,0.3716548958890105,1.1224656005828788,-0.5807427037226949
7.151000022888184,0.37177601590969567,1.1145632295493177,-0.5817790386094197
7.1549999713897705,0.37176951138579584,1.0870609539665412,-0.583111135941369
7.159999847412109,0.371638924320427,1.0791234527571114,-0.5850584602953528
7.165999889373779,0.3715987183941541,1.0485527957182295,-0.5891734057644868
7.171000003814697,0.3715365140919161,1.0405371637220353,-0.591226012950747
7.174999952316284,0.37152939233855525,1.0341248874489022,-0.5928680399755365
7.180999994277954,0.3715443961513412,1.0034124016165156,-0.5962830181626556
7.185999870300293,0.37143082614271733,0.9954534710980688,-0.5999447323150965
7.18999981880188,0.37150765445093864,0.9890862507791532,-0.6028741385587425
7.194999933242798,0.371365669863855,0.9601309159242142,-0.6073285591273695
7.200999975204468,0.3712224717105047,0.9508139403246851,-0.6127310198356427
7.205999851226807,0.37146375820794375,0.943050040805583,-0.6172329273105374
7.2099997997283936,0.37145279944381643,0.9154705061150579,-0.6218289969093868
7.2149999141693115,0.37156549976365777,0.9074079837967634,-0.627045655778953
7.2209999561309814,0.37151661893154164,0.8766694925419531,-0.6336277197429437
7.224999904632568,0.37158723352518386,0.8705140176537453,-0.6386311412813394
7.230000019073486,0.3717180975704034,0.8628193988687719,-0.6448856418775861
7.235999822616577,0.37166471653249644,0.832359147350871,-0.6520438555312207
7.240999937057495,0.3717739224620145,0.8245406049046202,-0.6577876560899377
7.244999885559082,0.37182809318908755,0.8182859946327935,-0.6623825322092203
7.25,0.37194498723777675,0.7891451091234815,-0.6692266714883216
7.255999803543091,0.3720614715680607,0.7794014452233444,-0.6770811509677136
7.260999917984009,0.372047406870658,0.7502456084928996,-0.6848231235392034
7.264999866485596,0.37204090054513006,0.7440269310755864,-0.6882962196412132
7.270999908447266,0.37219350905319204,0.7346987296162014,-0.6935059673018904
7.276000022888184,0.37197501923401366,0.7060637358509386,-0.6975542276232363
7.2799999713897705,0.3720309129690256,0.700238036527247,-0.6998963873331245
7.284999847412109,0.3721656616324063,0.6929559991834348,-0.7028240520691361
7.290999889373779,0.3722417271903312,0.6623526434118163,-0.7050449101823866
7.296000003814697,0.3721965436957384,0.6537567606991818,-0.7056237573195002
7.299999952316284,0.3719706450782753,0.6468803004536224,-0.7060868184686206
7.305999994277954,0.3720596566375811,0.6159964272195828,-0.7035591216065143
7.310999870300293,0.37201516751114566,0.607892902146726,-0.7015140053419789
7.31499981880188,0.3721893229542359,0.5805765815856795,-0.6960791934839512
7.319999933242798,0.3724627015116598,0.5727798117062702,-0.6898922202412808
7.325999975204468,0.37250663262403866,0.5634238365591592,-0.6824679703545252
7.330999851226807,0.3725095293989028,0.5343884243192607,-0.675549227551584
7.3349997997283936,0.3723446705989842,0.5280865538930204,-0.6696778852694394
7.3399999141693115,0.37240358051100847,0.5202089341410316,-0.6623384449439261
7.3459999561309814,0.37252951037072524,0.4893642435337646,-0.6477383582362801
7.349999904632568,0.37277959478922224,0.4828208351799333,-0.6378147967320071
7.355000019073486,0.37298283123582365,0.45381760556202055,-0.6228668620282245
7.360999822616577,0.3731950990276793,0.4458524915224695,-0.6076935050803957
7.365999937057495,0.37317050691613113,0.4392145272213582,-0.595048337509966
7.369999885559082,0.373445532162547,0.4339043456898045,-0.584932565226488
7.375,0.3736082393706185,0.40404841227363997,-0.5643195352275615
7.380999803543091,0.37406362896673306,0.3931746204497935,-0.5389045517607256
7.385999917984009,0.37418544414171045,0.3672527536184171,-0.5198366532898713
7.389999866485596,0.37444332782189654,0.3628672430903373,-0.506392436011917
7.395999908447266,0.3748792472808281,0.3562888465981363,-0.4862257094209294
7.401000022888184,0.37518952904944913,0.3340963474448771,-0.4625507857737818
7.4049999713897705,0.3756038561475332,0.3297575840085851,-0.4455023905813518
7.409999847412109,0.37587124087102003,0.3243341943666659,-0.4241921506349699
7.415999889373779,0.3760158040612678,0.3057065535938051,-0.39443573142437893
7.421000003814697,0.3760400431501791,0.3010148614797553,-0.3760185251332058
7.424999952316284,0.37630060828284306,0.28778087854655454,-0.3571063417550665
7.430999994277954,0.37668027665951426,0.2842615398958565,-0.3302303649458506
7.435999870300293,0.3774623159502306,0.27352736241883907,-0.30456527187058163
7.43999981880188,0.3778283180030141,0.2719815951178834,-0.29182324164229684
7.444999933242798,0.377878252035968,0.27004931688961603,-0.2758951342364681
7.450999975204468,0.3787702767273367,0.267730619870134,-0.25678170914705906
7.455999851226807,0.3797338936203789,0.26001184259487914,-0.22741376010317313
7.4599997997283936,0.3803742456267621,0.2585722224475442,-0.20841468333510588
7.4649999141693115,0.3813182656980473,0.25276411755021205,-0.18705823526875
7.4709999561309814,0.3824865151963346,0.25163577550546884,-0.1644192054191297
7.474999904632568,0.38307266321246053,0.25088356242096366,-0.14932681871535952
7.480000019073486,0.3841119871936685,0.24739693428345408,-0.12096879085607962
7.485999822616577,0.38575440121577975,0.2465530308515907,-0.10176499579876049
7.490999937057495,0.3875478848608894,0.24441492998969716,-0.07579870221811019
7.494999885559082,0.38894508603910727,0.24423005427044686,-0.06476338273727254
7.5,0.39056719487524844,0.24399895135668892,-0.05096874006265092
7.505999803543091,0.39261404492519497,0.2431773548295957,-0.031009496615550983
7.510999917984009,0.3945259696876254,0.2434695792442752,-0.013847488210778285
7.514999866485596,0.3964535182339116,0.24370335041560257,-0.00011837248472108819
7.520999908447266,0.39934450322930864,0.2450929764551131,0.02394627714381743
7.526000022888184,0.40224011849965063,0.24600242476121445,0.03775418789256729
7.5299999713897705,0.40412622322610914,0.2467299573871663,0.04880012145311356
7.534999847412109,0.4068215177560199,0.2502559970177261,0.06463867953349724
7.540999889373779,0.41034286764685635,0.25201696334680235,0.08018750823780096
7.546000003814697,0.4135540009689648,0.25716404709145696,0.09407383872336296
7.549999952316284,0.4166748008019086,0.2585859368538792,0.10382160559100999
7.555999994277954,0.4215216409552334,0.26071881387367524,0.11844354640231147
7.560999870300293,0.4251199578186217,0.2680189609918376,0.13197714046221726
7.56499981880188,0.4286848341654463,0.2706264745666539,0.14578339541267543
7.569999933242798,0.4328838395968938,0.2738859831016152,0.1630418312963858
7.575999975204468,0.43804335057356564,0.28444647242108695,0.1803641219726961
7.580999851226807,0.4432079875977867,0.2876554920399872,0.19336163398511783
7.5849997997283936,0.44691395380428456,0.29844867208478515,0.204564125170407
7.5899999141693115,0.4521504687001012,0.302105552259469,0.21600372159351952
7.5959999561309814,0.45888690651636643,0.30649373872123203,0.22973101911326246
7.599999904632568,0.4639600335026535,0.31913736347044225,0.23971079847964566
7.605000019073486,0.47003485481874735,0.32342698254186514,0.25303626818223846
7.610999822616577,0.4781271316381498,0.33943772183931764,0.2698950739550351
7.615999937057495,0.48501252650115234,0.3438808098492134,0.27876031016911534
7.619999885559082,0.49113874631844956,0.34743515314227175,0.2858522455097421
7.625,0.4982280098452936,0.36380448713051267,0.29476521392771937
7.630999803543091,0.5073783811726413,0.36984459571995015,0.307823144106565
7.635999917984009,0.5151428439893279,0.3748782995680599,0.31870535796353905
7.639999866485596,0.5218179649334324,0.392154899183589,0.3276515921318216
7.645999908447266,0.5308127905924078,0.3986608750693611,0.33850632237436756
7.651000022888184,0.5393771890783069,0.4040826078149866,0.34755207468489263
7.6549999713897705,0.5470558594316062,0.42280601853391486,0.3552155339631354
7.659999847412109,0.5561612416731451,0.42861396763939236,0.36367346990938343
7.665999889373779,0.5679357363372033,0.450680407054952,0.37372448380479234
7.671000003814697,0.5768762957163255,0.45661888718840576,0.3819420123393565
7.674999952316284,0.5843800276002994,0.46136950139777794,0.38851580006701153
7.680999994277954,0.5964197586570741,0.4847071790629951,0.3990247337171942
7.685999870300293,0.6064588787717502,0.4911595865606691,0.40719006280933734
7.68999981880188,0.6148567477653945,0.49632157409528727,0.4137224039556291
7.694999933242798,0.6252405397573905,0.5198411989795115,0.4217786325848414
7.700999975204468,0.6378105910497308,0.5278753402456324,0.4299359380025968
7.705999851226807,0.6484342224865232,0.5522555848814049,0.43730253135223784
7.7099997997283936,0.6568187939236796,0.5577135327303352,0.4423267697098464
7.7149999141693115,0.667449656206637,0.5645362115339213,0.4486072922607057
7.7209999561309814,0.680597975634646,0.5913498821811498,0.45805040086154974
7.724999904632568,0.6892960385403584,0.5973026265624414,0.46314562087334243
7.730000019073486,0.7036002076751149,0.6047438231508927,0.4695148736650999
7.735999822616577,0.7183108798393443,0.632863952267621,0.4773421423868342
7.740999937057495,0.7318793745262991,0.6403124130039036,0.4840543378994351
7.744999885559082,0.7419501768260082,0.646270968495636,0.4894239022764571
7.75,0.7532815861848281,0.6736217842340676,0.4962048230932624
7.755999803543091,0.7664802807148652,0.6824845395073282,0.5044131892853232
7.760999917984009,0.777844192532527,0.7106800985921913,0.5118457927736536
7.764999866485596,0.786639121537461,0.7174259123453598,0.5172430474901966
7.770999908447266,0.7996706790305883,0.7275448340186171,0.525339090417807
7.776000022888184,0.8112123405189176,0.7561581752991986,0.5323417204168817
7.7799999713897705,0.8206231845998145,0.7616073444343284,0.5372450731068937
7.784999847412109,0.8321965398758773,0.7684187246532476,0.5433741909028194
7.790999889373779,0.845007626932028,0.7987100198134286,0.5533377979353029
7.796000003814697,0.8563547310010678,0.807950749856078,0.5609362985321679
7.799999952316284,0.8656420855915574,0.8153430695168412,0.5670148816197895
7.805999994277954,0.8794539820150487,0.846092075684367,0.5773890065507025
7.810999870300293,0.8910925904001692,0.854169574193299,0.5819743583261535
7.81499981880188,0.9005742818899318,0.8816888769306463,0.5866405185095569
7.819999933242798,0.9117782545841785,0.8896010795789584,0.5928619213427633
7.825999975204468,0.9256246438861969,0.8990955718470979,0.6003274860814849
7.830999851226807,0.9377682309162467,0.9281241022331668,0.6060333621402677
7.8349997997283936,0.947699856061714,0.934427757417825,0.60993403745273
7.8399999141693115,0.9597045956699509,0.942307608197622,0.6148100559693277
7.8459999561309814,0.9736575833382785,0.9729568921566139,0.620122260038464
7.849999904632568,0.9830449040104057,0.9793500596070172,0.6233256704496056
7.855000019073486,0.9948274988463585,1.0084699835472948,0.6269760299849694
7.860999822616577,1.0092973219507315,1.0178548442440254,0.6296899509520271
7.865999937057495,1.021391694683996,1.0256759965798823,0.6319516775771465
7.869999885559082,1.0307670638565556,1.0530343146011265,0.6330712080178927
7.875,1.0425641860830597,1.0608635824485522,0.6335621043332332
7.880999803543091,1.056963682802496,1.0702581812174092,0.6341511471415272
7.885999917984009,1.069660017353695,1.0993904542636659,0.6328739037434594
7.889999866485596,1.0801614798903987,1.1058734696218775,0.6320032716081242
7.895999908447266,1.0956892058628607,1.1366907044436325,0.6301572308916413
7.901000022888184,1.108403682338332,1.144704460628123,0.6278229689919151
7.9049999713897705,1.1189576512621802,1.1511152363055595,0.6259556262543743
7.909999847412109,1.1319166794609012,1.1801119274077776,0.6230388813590801
7.915999889373779,1.1473289724005726,1.1894360584029358,0.6193543786557302
7.921000003814697,1.1603301187286277,1.197206291067263,0.6162839109336188
7.924999952316284,1.170496385930577,1.2246495675235545,0.6125460243791541
7.930999994277954,1.1835262062206455,1.2340518153582245,0.6065773400801323
7.935999870300293,1.195638855161211,1.2630047403240938,0.6001406050479292
7.93999981880188,1.205383292904425,1.269347239739173,0.5962724645177699
7.944999933242798,1.2180599681545654,1.2772756475434905,0.5914371159334879
7.950999975204468,1.2329745661141063,1.3077011993554681,0.5846304144126705
7.955999851226807,1.245371306810735,1.3152272516789152,0.5787531003384795
7.9599997997283936,1.2551455250462467,1.3212481653134804,0.5740511930273019
7.9649999141693115,1.2671449539404165,1.3502281792804436,0.5670109385702207
7.9709999561309814,1.2823147108998287,1.3602223442722043,0.5583327181661835
7.974999904632568,1.2922401732562048,1.3668849885568253,0.5525473528431868
7.980000019073486,1.3049439325710792,1.3958556359725596,0.5432851488813656
7.985999822616577,1.3202987017515935,1.405364623547275,0.5356570557041805
7.990999937057495,1.332218098674745,1.4343069840419214,0.5278018441484172
7.994999885559082,1.342217180230426,1.4403534625164098,0.5210284159523403
8.0,1.3547718675624334,1.4479118309116517,0.5125613279075095
8.00599980354309,1.3700810601049898,1.4769727947269427,0.4986225194813408
8.010999917984009,1.3828023207415343,1.4843713192240147,0.49291851469111514
8.014999866485596,1.3924438994399906,1.490289927153033,0.48835547404808555
8.020999908447266,1.40752347298779,1.518450026300584,0.4765807731457723
8.026000022888184,1.4197857085288055,1.5256634018048874,0.46902919912102903
8.02999997138977,1.4298879205193755,1.5502078041327645,0.4628896765025361
8.03499984741211,1.4402448349474246,1.556559528238262,0.454315231978968
8.04099988937378,1.4519956790471933,1.5641818394699127,0.444025571453475
8.046000003814697,1.4630048040262027,1.5880775286848463,0.43210915760033836
8.049999952316284,1.4723263421375987,1.5931248051227533,0.42625582859709815
8.055999994277954,1.4866433920999178,1.60069587020211,0.4174756606471939
8.060999870300293,1.498919772914523,1.6232724000979484,0.41001510917820316
8.06499981880188,1.5086359779425724,1.6276881448651264,0.4039753978136529
8.069999933242798,1.5208748873795652,1.633208023225814,0.396425488608351
8.075999975204468,1.5349270602731033,1.6563561593890828,0.38458916297003354
8.080999851226807,1.5465638483126736,1.662437159835112,0.3749202442195815
8.084999799728394,1.5553263845114376,1.6818324261737305,0.3668991514219575
8.089999914169312,1.566206627831079,1.6867183865406208,0.36066550120256397
8.095999956130981,1.578859407587021,1.692581445790724,0.3531852398340127
8.099999904632568,1.5874506236906896,1.7108478004947179,0.3472418783733344
8.105000019073486,1.5960158651597598,1.7158598885385228,0.33878629394198345
8.110999822616577,1.60868034943547,1.7352835145846595,0.3287262320345819
8.115999937057495,1.6194312687116663,1.7400971422646518,0.32272253734794265
8.119999885559082,1.6278186720524062,1.7439479066928052,0.3179197533617827
8.125,1.6382744737609543,1.7613869086868652,0.31138971058080034
8.13099980354309,1.6512754486242094,1.7666717098940745,0.3045434205902981
8.135999917984009,1.6618393028430951,1.7710759559070923,0.29883786153284486
8.139999866485596,1.6697788915967822,1.7866249663352345,0.29432463390664787
8.145999908447266,1.6810029473219976,1.7916579826015062,0.28755230351351824
8.151000022888184,1.6900936825724304,1.7958522294876325,0.2819086051504604
8.15499997138977,1.6974821398419346,1.8105826039108739,0.27777605523226284
8.15999984741211,1.70699265765444,1.814678718689779,0.273194176050654
8.16599988937378,1.7193687743822497,1.830489824653916,0.26787442433466013
8.171000003814697,1.7296326688911836,1.8342830480123316,0.26377741658721593
8.174999952316284,1.738099444846734,1.837317518176557,0.26049992760290963
8.180999994277954,1.751088790017694,1.8522662057451071,0.25592288819344067
8.185999870300293,1.7625231304479847,1.8557994554573585,0.2523922396910886
8.18999981880188,1.7716505413164587,1.8586260889236899,0.249567687217484
8.194999933242798,1.7793572818305148,1.8723113136349774,0.24453690323480767
8.200999975204468,1.7893795572677784,1.8770691709550549,0.2417571787323283
8.205999851226807,1.797760936820829,1.8906760423085238,0.23911546275015041
8.209999799728394,1.8045797947832283,1.8934134887059637,0.2370145917200224
8.214999914169312,1.81315374720393,1.896835419077729,0.2343884090148996
8.220999956130981,1.8230681370798556,1.9102920207215746,0.23148399259459176
