0.000000000000000000e+00
0.000000000000000000e+00
0.000000000000000000e+00
0.000000000000000000e+00
0.000000000000000000e+00
0.000000000000000000e+00
0.000000000000000000e+00
0.000000000000000000e+00
0.000000000000000000e+00
0.000000000000000000e+00
0.000000000000000000e+00
0.000000000000000000e+00
0.000000000000000000e+00
0.000000000000000000e+00
0.000000000000000000e+00
0.000000000000000000e+00
0.000000000000000000e+00
0.000000000000000000e+00
0.000000000000000000e+00
0.000000000000000000e+00
0.000000000000000000e+00
0.000000000000000000e+00
0.000000000000000000e+00
0.000000000000000000e+00
0.000000000000000000e+00
0.000000000000000000e+00
0.000000000000000000e+00
0.000000000000000000e+00
0.000000000000000000e+00
0.000000000000000000e+00
0.000000000000000000e+00
0.000000000000000000e+00
0.000000000000000000e+00
0.000000000000000000e+00
0.000000000000000000e+00
0.000000000000000000e+00
0.000000000000000000e+00
0.000000000000000000e+00
0.000000000000000000e+00
0.000000000000000000e+00
0.000000000000000000e+00
0.000000000000000000e+00
0.000000000000000000e+00
0.000000000000000000e+00
0.000000000000000000e+00
0.000000000000000000e+00
0.000000000000000000e+00
0.000000000000000000e+00
0.000000000000000000e+00
0.000000000000000000e+00
0.000000000000000000e+00
0.000000000000000000e+00
0.000000000000000000e+00
0.000000000000000000e+00
0.000000000000000000e+00
0.000000000000000000e+00
0.000000000000000000e+00
0.000000000000000000e+00
0.000000000000000000e+00
0.000000000000000000e+00
0.000000000000000000e+00
0.000000000000000000e+00
0.000000000000000000e+00
0.000000000000000000e+00
0.000000000000000000e+00
0.000000000000000000e+00
0.000000000000000000e+00
0.000000000000000000e+00
0.000000000000000000e+00
0.000000000000000000e+00
0.000000000000000000e+00
0.000000000000000000e+00
0.000000000000000000e+00
0.000000000000000000e+00
0.000000000000000000e+00
0.000000000000000000e+00
0.000000000000000000e+00
0.000000000000000000e+00
0.000000000000000000e+00
0.000000000000000000e+00
0.000000000000000000e+00
0.000000000000000000e+00
0.000000000000000000e+00
0.000000000000000000e+00
0.000000000000000000e+00
0.000000000000000000e+00
0.000000000000000000e+00
0.000000000000000000e+00
0.000000000000000000e+00
0.000000000000000000e+00
0.000000000000000000e+00
0.000000000000000000e+00
0.000000000000000000e+00
0.000000000000000000e+00
0.000000000000000000e+00
0.000000000000000000e+00
0.000000000000000000e+00
0.000000000000000000e+00
0.000000000000000000e+00
0.000000000000000000e+00
0.000000000000000000e+00
0.000000000000000000e+00
0.000000000000000000e+00
0.000000000000000000e+00
0.000000000000000000e+00
0.000000000000000000e+00
0.000000000000000000e+00
0.000000000000000000e+00
0.000000000000000000e+00
0.000000000000000000e+00
0.000000000000000000e+00
0.000000000000000000e+00
0.000000000000000000e+00
0.000000000000000000e+00
0.000000000000000000e+00
0.000000000000000000e+00
0.000000000000000000e+00
0.000000000000000000e+00
0.000000000000000000e+00
0.000000000000000000e+00
0.000000000000000000e+00
0.000000000000000000e+00
0.000000000000000000e+00
0.000000000000000000e+00
0.000000000000000000e+00
0.000000000000000000e+00
0.000000000000000000e+00
0.000000000000000000e+00
0.000000000000000000e+00
0.000000000000000000e+00
0.000000000000000000e+00
0.000000000000000000e+00
0.000000000000000000e+00
0.000000000000000000e+00
0.000000000000000000e+00
0.000000000000000000e+00
0.000000000000000000e+00
0.000000000000000000e+00
0.000000000000000000e+00
0.000000000000000000e+00
0.000000000000000000e+00
0.000000000000000000e+00
0.000000000000000000e+00
0.000000000000000000e+00
0.000000000000000000e+00
0.000000000000000000e+00
0.000000000000000000e+00
0.000000000000000000e+00
0.000000000000000000e+00
0.000000000000000000e+00
0.000000000000000000e+00
0.000000000000000000e+00
0.000000000000000000e+00
0.000000000000000000e+00
0.000000000000000000e+00
0.000000000000000000e+00
0.000000000000000000e+00
0.000000000000000000e+00
0.000000000000000000e+00
0.000000000000000000e+00
0.000000000000000000e+00
0.000000000000000000e+00
0.000000000000000000e+00
0.000000000000000000e+00
0.000000000000000000e+00
0.000000000000000000e+00
0.000000000000000000e+00
0.000000000000000000e+00
0.000000000000000000e+00
0.000000000000000000e+00
0.000000000000000000e+00
0.000000000000000000e+00
0.000000000000000000e+00
0.000000000000000000e+00
0.000000000000000000e+00
0.000000000000000000e+00
0.000000000000000000e+00
0.000000000000000000e+00
0.000000000000000000e+00
0.000000000000000000e+00
0.000000000000000000e+00
0.000000000000000000e+00
0.000000000000000000e+00
0.000000000000000000e+00
0.000000000000000000e+00
0.000000000000000000e+00
0.000000000000000000e+00
0.000000000000000000e+00
0.000000000000000000e+00
0.000000000000000000e+00
0.000000000000000000e+00
0.000000000000000000e+00
0.000000000000000000e+00
0.000000000000000000e+00
0.000000000000000000e+00
0.000000000000000000e+00
0.000000000000000000e+00
0.000000000000000000e+00
0.000000000000000000e+00
0.000000000000000000e+00
0.000000000000000000e+00
0.000000000000000000e+00
0.000000000000000000e+00
0.000000000000000000e+00
0.000000000000000000e+00
0.000000000000000000e+00
0.000000000000000000e+00
0.000000000000000000e+00
0.000000000000000000e+00
0.000000000000000000e+00
0.000000000000000000e+00
0.000000000000000000e+00
0.000000000000000000e+00
0.000000000000000000e+00
0.000000000000000000e+00
0.000000000000000000e+00
-3.192788062733598053e-02
-2.779425631160847843e-02
-2.692754969757515937e-02
-2.757785841822624207e-02
-2.784799289656803012e-02
-2.884424611693248153e-02
-2.804072209983132780e-02
-2.671523179742507637e-02
-2.553986087150406092e-02
-2.693583155632950366e-02
-2.796473927446641028e-02
-2.796072658384218812e-02
-2.592048622318543494e-02
-2.549959754105657339e-02
-2.626266723382286727e-02
-2.801437403832096606e-02
-2.969965316879097372e-02
-3.236928023397922516e-02
-3.349088001414202154e-02
-3.488075162749737501e-02
-3.439274587435647845e-02
-3.182552245561964810e-02
-2.717651659622788429e-02
-2.216118082287721336e-02
-1.683228401816450059e-02
-1.606977457413449883e-02
-1.891770079964771867e-02
-2.328207483515143394e-02
-2.677810516615863889e-02
-3.007865052495617419e-02
-3.122465932392515242e-02
-3.134580038022249937e-02
-3.134231155854649842e-02
-3.268403816036880016e-02
-3.241104423068463802e-02
-2.986574145324993879e-02
-2.578943167463876307e-02
-2.306014721398241818e-02
-2.111038702423684299e-02
-2.006096474360674620e-02
-1.887823236756958067e-02
-2.001505345106124878e-02
-2.242181835754308850e-02
-2.451809268677607179e-02
-2.416541065031196922e-02
-2.250395118608139455e-02
-1.994708873098716140e-02
-1.908494050439912826e-02
-1.884951416286639869e-02
-1.929438803927041590e-02
-2.059820326394401491e-02
-2.377598138991743326e-02
-2.792896702885627747e-02
-3.300476964795961976e-02
-3.563436621334403753e-02
-3.640132126747630537e-02
-3.402390211704187095e-02
-3.129969263682141900e-02
-2.951836358988657594e-02
-2.902614687627647072e-02
-2.933397809101734310e-02
-3.239748912164941430e-02
-3.475700214039534330e-02
-3.418826236156746745e-02
-3.081393879256211221e-02
-2.797021807054989040e-02
-2.516829044907353818e-02
-2.334179771423805505e-02
-2.183410470024682581e-02
-2.068038520519621670e-02
-1.983652873605024070e-02
-1.986938150366768241e-02
-1.997844628931488842e-02
-2.196983587055001408e-02
-2.362206578254699707e-02
-2.379191209911368787e-02
-2.211206447100266814e-02
-2.010749994951765984e-02
-1.867739410954527557e-02
-1.930404687300324440e-02
-1.951144258782733232e-02
-2.141144068446010351e-02
-2.433069312246516347e-02
-2.568318814155645669e-02
-2.476205736456904560e-02
-2.374467294430360198e-02
-2.152124943677335978e-02
-2.137447336281184107e-02
-2.190327177231665701e-02
-2.182521166105289012e-02
-1.988365693250671029e-02
-1.964301554835401475e-02
-2.131744258804246783e-02
-2.414596383459866047e-02
-2.602053245936986059e-02
-2.882386979763396084e-02
-2.962141661555506289e-02
-2.985868741234298795e-02
-2.952374234155286103e-02
-2.767720070551149547e-02
-2.620195118652191013e-02
-2.733756628003902733e-02
-2.768421290966216475e-02
-2.714900983846746385e-02
-2.601385676825884730e-02
-2.528289405745454133e-02
-2.478148599038831890e-02
-2.446208600304089487e-02
-2.492073326720856130e-02
-2.478833084751386195e-02
-2.501814924471545964e-02
-2.591757402115035802e-02
-2.656037395354360342e-02
-2.732259781623724848e-02
-2.604600740596652031e-02
-2.388274697295855731e-02
-2.217684232164174318e-02
-2.274251892231404781e-02
-2.340682476642541587e-02
-2.347902773180976510e-02
-2.413745460216887295e-02
-2.474795110174454749e-02
-2.419145494059193879e-02
-2.278749525430612266e-02
-2.308977673237677664e-02
-2.478408714523538947e-02
-2.715214941417798400e-02
-2.798010609694756567e-02
-2.589536052255425602e-02
-2.327683614566922188e-02
-2.105663770635146648e-02
-2.049792783509474248e-02
-2.100201345456298441e-02
-2.283047433593310416e-02
-2.353009585931431502e-02
-2.475596738804597408e-02
-2.508124998712446541e-02
-2.526678144931793213e-02
-2.658055745996534824e-02
-2.844792470568791032e-02
-2.717114512051921338e-02
-2.394311013631522655e-02
-2.138643867510836571e-02
-2.225102980446536094e-02
-2.391909401922021061e-02
-2.495829539839178324e-02
-2.656459400895982981e-02
-2.829657751135528088e-02
-2.828708784363698214e-02
-2.875507925637066364e-02
-2.793759995256550610e-02
-2.784487514873035252e-02
-2.728637446125503629e-02
-2.743206823652144521e-02
-2.728719482547603548e-02
-2.735076668614055961e-02
-2.702731944737024605e-02
-2.793663770717103034e-02
-2.829742697940673679e-02
-2.648500048962887377e-02
-2.363882958889007568e-02
-2.494519685569684952e-02
-2.595236583147197962e-02
-2.512707942514680326e-02
-2.580908949312288314e-02
-2.738658804446458817e-02
-2.849628071999177337e-02
-2.836181556631345302e-02
-2.591931479400955141e-02
-2.491219129296950996e-02
-2.415249946352560073e-02
-2.395280353084672242e-02
-2.394009607087355107e-02
-2.460923496983014047e-02
-2.520831731089856476e-02
-2.637269426486454904e-02
-2.735356247285380960e-02
-2.898127240769099444e-02
-2.937879253295250237e-02
-2.959147786896210164e-02
-2.876119833672419190e-02
-2.855714228644501418e-02
-2.913080425059888512e-02
-2.957740070996806026e-02
-2.763599331956356764e-02
-2.509163459762930870e-02
-2.428411971777677536e-02
-2.467660851834807545e-02
-2.493103056622203439e-02
-2.640002276166342199e-02
-2.827375283231958747e-02
-2.764758755802176893e-02
-2.559382483013905585e-02
-2.488826066837646067e-02
-2.719758231251034886e-02
-3.054136323044076562e-02
-3.157717219437472522e-02
-3.045095400011632591e-02
-2.876314465538598597e-02
-2.718075666052754968e-02
-2.499814399925526232e-02
-2.383220089541282505e-02
-2.297011087648570538e-02
-2.209177546319551766e-02
-2.338374906685203314e-02
-2.420755845378153026e-02
-2.293214129167608917e-02
-2.070546361210290343e-02
-1.654918378335423768e-02
-1.449277897336287424e-02
-1.458818405808415264e-02
-1.541001256555318832e-02
-1.720744512567762285e-02
-2.087313441734295338e-02
-2.388666689512319863e-02
-2.500888331269379705e-02
-2.445910467940848321e-02
-2.299856350873596966e-02
-2.212530853284988552e-02
-2.092370596074033529e-02
-1.955216430360451341e-02
-2.159365249099209905e-02
-2.480652801750693470e-02
-2.726643651840277016e-02
-2.818216853484045714e-02
-2.930474511231295764e-02
-3.164594090776517987e-02
-3.326162914163433015e-02
-3.394978557480499148e-02
-3.540952820912934840e-02
-3.651859515230171382e-02
-3.576541348593309522e-02
-3.378199471626430750e-02
-3.243080209358595312e-02
-3.034091787412762642e-02
-2.705220504140015692e-02
-2.432081782899331301e-02
-2.380433943471871316e-02
-2.421126191620714962e-02
-2.549176133470609784e-02
-2.580661930551286787e-02
-2.489385406079236418e-02
-2.339069578738417476e-02
-2.437393231957685202e-02
-2.359065183554776013e-02
-2.075186603178735822e-02
-1.935736509039998055e-02
-2.074049734801519662e-02
-2.223520095867570490e-02
-2.291966120537836105e-02
-2.090349335048813373e-02
-1.868074105004779994e-02
-1.770303970261011273e-02
-1.778120167728047818e-02
-1.816803523979615420e-02
-1.951788726728409529e-02
-2.250675606774166226e-02
-2.577069244580343366e-02
-2.736261922109406441e-02
-2.778963789751287550e-02
-2.825766205205582082e-02
-2.890167525038123131e-02
-2.714235597522929311e-02
-2.400236553512513638e-02
-2.244233292003627867e-02
-2.235510328318923712e-02
-2.323412627447396517e-02
-2.577981103968340904e-02
-2.974337985506281257e-02
-3.351407940499484539e-02
-3.404620656510815024e-02
-3.132668280159123242e-02
-3.011112858075648546e-02
-3.067284342250786722e-02
-3.020243639184627682e-02
-2.959786797873675823e-02
-2.796870649035554379e-02
-2.550447425164747983e-02
-2.212886465713381767e-02
-1.799781784939114004e-02
-1.509904905105940998e-02
-1.653768413234502077e-02
-2.049726208497304469e-02
-2.230308382422663271e-02
-2.156458322133403271e-02
-1.993193291127681732e-02
-1.939673893502913415e-02
-2.026183210546150804e-02
-2.100740312016569078e-02
-2.117797703249379992e-02
-2.136175498890224844e-02
-2.242385016870684922e-02
-2.349410169699694961e-02
-2.445086829538922757e-02
-2.581750959507189691e-02
-2.721088094403967261e-02
-2.702388701436575502e-02
-2.571099139458965510e-02
-2.620835402922239155e-02
-2.915731420216616243e-02
-2.931580456788651645e-02
-2.746209611359518021e-02
-2.636610406625550240e-02
-2.704441067180596292e-02
-2.622319152578711510e-02
-2.533496444812044501e-02
-2.504592703189700842e-02
-2.515291635063476861e-02
-2.720147494983393699e-02
-2.920623592217452824e-02
-2.903202403103932738e-02
-2.839980697899591178e-02
-2.868027877411805093e-02
-2.860009590222034603e-02
-2.783774289127904922e-02
-2.693448368518147618e-02
-2.586168193374760449e-02
-2.586067967058625072e-02
-2.590516487543936819e-02
-2.597233105916529894e-02
-2.646926623128820211e-02
-2.540666537242941558e-02
-2.299362677149474621e-02
-2.221068098151590675e-02
-2.297500213899184018e-02
-2.358504389121662825e-02
-2.201432471338193864e-02
-2.017922815866768360e-02
-1.982017784030176699e-02
-2.032471820712089539e-02
-2.014642268477473408e-02
-2.016210237343329936e-02
-1.989909287658520043e-02
-1.987496034416835755e-02
-2.144688733096700162e-02
-2.404813494649715722e-02
-2.583316381787881255e-02
-2.667523040145169944e-02
-2.730756204982753843e-02
-2.614777622511610389e-02
-2.407881402177736163e-02
-2.249023600597865880e-02
-2.030175528489053249e-02
-1.857166716945357621e-02
-1.843043719418346882e-02
-2.018622399191372097e-02
-2.355894503125455230e-02
-2.690632391022518277e-02
-2.924529144365806133e-02
-3.057807043660432100e-02
-2.993123962369281799e-02
-3.038681097677908838e-02
-3.025096521014347672e-02
-2.846617826435249299e-02
-2.701716221054084599e-02
-2.722823228396009654e-02
-2.781161492748651654e-02
-2.833479265973437577e-02
-2.886864785978104919e-02
-2.874753772630356252e-02
-2.863881854864303023e-02
-2.883308479795232415e-02
-2.791009683278389275e-02
-2.769846469163894653e-02
-2.801389018713962287e-02
-2.594248690002132207e-02
-2.351473995076958090e-02
-2.245530413347296417e-02
-2.333296833967324346e-02
-2.479014619893860072e-02
-2.621784915390890092e-02
-2.703042446228209883e-02
-2.738867806328926235e-02
-2.770176615740638226e-02
-2.768866033875383437e-02
-2.926158776972442865e-02
-3.113173079327680171e-02
-2.984622733492869884e-02
-2.719002259254921228e-02
-2.632001996971666813e-02
-2.574681457190308720e-02
-2.551639408920891583e-02
-2.727442188188433647e-02
-2.883045090129598975e-02
-2.873614357667975128e-02
-2.880464489862788469e-02
-3.009284591826144606e-02
-2.971885805891361088e-02
-2.857935942301992327e-02
-2.837198735505808145e-02
-2.836122621374670416e-02
-2.837164538505021483e-02
-2.734621375566348433e-02
-2.721141390793491155e-02
-2.869507443392649293e-02
-2.827580465236678720e-02
-2.624016633490100503e-02
-2.359072459512390196e-02
-2.093764123856090009e-02
-1.897488618851639330e-02
-1.786957545846235007e-02
-1.645196425670292228e-02
-1.567891376907937229e-02
-1.647016142669599503e-02
-1.878124749055132270e-02
-2.031500116572715342e-02
-2.112191941705532372e-02
-2.304548797837924212e-02
-2.329246490262448788e-02
-2.301626773260068148e-02
-2.278280589962378144e-02
-2.358985511818900704e-02
-2.451086220389697701e-02
-2.467436752340290695e-02
-2.445057725708466023e-02
-2.334732926101423800e-02
-2.312928882020059973e-02
-2.450302599754650146e-02
-2.741274693107698113e-02
-2.973337359435390681e-02
-3.024900070158764720e-02
-2.874671918107196689e-02
-2.625602610351052135e-02
-2.450984902679920197e-02
-2.349931855860631913e-02
-2.438366027490701526e-02
-2.562425652286037803e-02
-2.500644768588244915e-02
-2.297583887411747128e-02
-2.284117363160476089e-02
-2.527818469388876110e-02
-2.785093602142296731e-02
-2.837037573044653982e-02
-2.631326060509309173e-02
-2.347516601730603725e-02
-2.232116639788728207e-02
-2.252498234156519175e-02
-2.280543958477210253e-02
-2.212516301369760185e-02
-2.164798024750780314e-02
-2.284595211676787585e-02
-2.500072514521889389e-02
-2.469651371939107776e-02
-2.378439967287704349e-02
-2.545710231061093509e-02
-2.632378891576081514e-02
-2.585454603831749409e-02
-2.588004826975520700e-02
-2.625132219691295177e-02
-2.681762998690828681e-02
-2.781027797027491033e-02
-2.816272899508476257e-02
-2.837068677763454616e-02
-2.799076173687353730e-02
-2.812023922160733491e-02
-2.859825326595455408e-02
-2.792634768411517143e-02
-2.783090531011112034e-02
-2.833452344930265099e-02
-2.785946344374679029e-02
-2.734036024776287377e-02
-2.721720193221699446e-02
-2.829311597452033311e-02
-2.743621007539331913e-02
-2.564893111411947757e-02
-2.552677688072435558e-02
-2.740035233728121966e-02
-2.942370520031545311e-02
-3.015991023858077824e-02
-2.934274743893183768e-02
-2.822185888362582773e-02
-2.772975676634814590e-02
-2.866389513656031340e-02
-2.924777254520449787e-02
-3.030342668353114277e-02
-2.959047378681134433e-02
-2.877480073948390782e-02
-2.770142964436672628e-02
-2.654361560416873544e-02
-2.545049756008666009e-02
-2.426274477329570800e-02
-2.219634370703715831e-02
-1.966457966773305088e-02
-1.948839053511619568e-02
-2.106262400047853589e-02
-2.163079807360190898e-02
-2.131516157533042133e-02
-2.268045864184387028e-02
-2.294871774211060256e-02
-2.276903251186013222e-02
-2.341187791898846626e-02
-2.399986988166347146e-02
-2.385654988756868988e-02
-2.401078381808474660e-02
-2.414290793240070343e-02
-2.377629971306305379e-02
-2.342202242289204150e-02
-2.387216045462992042e-02
-2.489952021278440952e-02
-2.468512866471428424e-02
-2.330072129552718252e-02
-2.254372157040052116e-02
-2.483024400135036558e-02
-2.719318945310078561e-02
-2.769780621747486293e-02
-2.776042492769192904e-02
-2.810722617141436785e-02
-2.836352177837397903e-02
-2.773814230749849230e-02
-2.688459971977863461e-02
-2.604125620564445853e-02
-2.598586252133827657e-02
-2.571298318798653781e-02
-2.600807420094497502e-02
-2.566619878052733839e-02
-2.528675759094767272e-02
-2.487096026015933603e-02
-2.418098119960632175e-02
-2.415365997876506299e-02
-2.510910599085036665e-02
-2.534434679546393454e-02
-2.430582208035048097e-02
-2.362122177146375179e-02
-2.311736534466035664e-02
-2.327691618120297790e-02
-2.302547909494023770e-02
-2.300276537425816059e-02
-2.370600486756302416e-02
-2.505194424884393811e-02
-2.521497299312613904e-02
-2.424872945994138718e-02
-2.265597322548273951e-02
-2.240340472781099379e-02
-2.298793697264045477e-02
-2.207417492172680795e-02
-2.067700370389502496e-02
-2.149346619262360036e-02
-2.406378553132526577e-02
-2.625108754727989435e-02
-2.759796552709303796e-02
-2.837362444552127272e-02
-2.982043770316522568e-02
-3.141948764096014202e-02
-3.117668893537484109e-02
-2.964093619084451348e-02
-2.908974056481383741e-02
-3.003299752890598029e-02
-3.104117786278948188e-02
-3.046876918233465403e-02
-2.947596294688992202e-02
-2.760684583336114883e-02
-2.428447260172106326e-02
-2.307897921127732843e-02
-2.363041494390927255e-02
-2.437159128021448851e-02
-2.529539233364630491e-02
-2.810038677125703543e-02
-2.999859862029552460e-02
-3.027694401680491865e-02
-3.017391645698808134e-02
-2.990493885590694845e-02
-2.806640077324118465e-02
-2.576684164523612708e-02
-2.464831231918651611e-02
-2.438355477352160960e-02
-2.319091436220332980e-02
-2.176139605580829084e-02
-2.164349825761746615e-02
-2.090636371576692909e-02
-1.979835542442742735e-02
-2.007418152061291039e-02
-2.097044671245384961e-02
-2.086811400658916682e-02
-2.152648630726616830e-02
-2.396943636995274574e-02
-2.477178895787801594e-02
-2.395772207819391042e-02
-2.390423469478264451e-02
-2.374092036916408688e-02
-2.261480221932288259e-02
-2.298287654411979020e-02
-2.466680416546296328e-02
-2.487291203578934073e-02
-2.512010905775241554e-02
-2.577918894530739635e-02
-2.594860052340663970e-02
-2.511225829948671162e-02
-2.302536267961841077e-02
-2.199989830842241645e-02
-2.260803557874169201e-02
-2.394924558757338673e-02
-2.328734444745350629e-02
-2.300305459357332438e-02
-2.360667167522478849e-02
-2.367695014982018620e-02
-2.407746433163993061e-02
-2.525929812691174448e-02
-2.552319347159937024e-02
-2.462405973346903920e-02
-2.297713399457279593e-02
-2.175673580495640635e-02
-2.216199027316179127e-02
-2.326483263459522277e-02
-2.499389120202977210e-02
-2.594152465462684631e-02
-2.573187703092116863e-02
-2.598965329525526613e-02
-2.632803079904988408e-02
-2.600512016215361655e-02
-2.540876812417991459e-02
-2.608723116281908005e-02
-2.616935125843156129e-02
-2.574768041085917503e-02
-2.699521428439766169e-02
-2.967724140034988523e-02
-3.033534994756337255e-02
-2.900187428167555481e-02
-2.788479832815937698e-02
-2.783528361760545522e-02
-2.828033393598161638e-02
-2.837786450982093811e-02
-2.919092730735428631e-02
-3.018028655787929893e-02
-3.190425559296272695e-02
-3.307982842670753598e-02
-3.245836705900728703e-02
-2.995470094901975244e-02
-2.712548302952200174e-02
-2.585807123978156596e-02
-2.566604962339624763e-02
-2.536153806431684643e-02
-2.602849599497858435e-02
-2.759617927949875593e-02
-3.022623423021286726e-02
-3.314680361654609442e-02
-3.326490696053951979e-02
-2.973674236272927374e-02
-2.675966425158549100e-02
-2.552750083850696683e-02
-2.454515924910083413e-02
-2.382342972850892693e-02
-2.462556949467398226e-02
-2.518005567253567278e-02
-2.414681512163951993e-02
-2.286264316353481263e-02
-2.156040136469528079e-02
-2.033872442552819848e-02
-1.748861905070953071e-02
-1.546183193568140268e-02
-1.561433600727468729e-02
-1.591539876244496554e-02
-1.566597165947314352e-02
-1.606229670869652182e-02
-1.613940366951283067e-02
-1.670714846113696694e-02
-1.873163455456960946e-02
-2.141080949513707310e-02
-2.425719139864668250e-02
-2.854194462997838855e-02
-3.378303881618194282e-02
-3.744479545275680721e-02
-4.000384069513529539e-02
-4.230760896462015808e-02
-4.211497434880584478e-02
-4.183581768302246928e-02
-3.948731318814679980e-02
-3.532851405907422304e-02
-3.156536695314571261e-02
-3.055556953768245876e-02
-3.070243838010355830e-02
-2.967792352137621492e-02
-2.855157799785956740e-02
-2.786118966469075531e-02
-2.739405499596614391e-02
-2.629131085996050388e-02
-2.532922371756285429e-02
-2.451927321089897305e-02
-2.191711610066704452e-02
-1.924813659570645541e-02
-1.713393612590152770e-02
-1.488492398493690416e-02
-1.298568622587481514e-02
-1.235606669069966301e-02
-1.250350851478287950e-02
-1.438829258404439315e-02
-1.872841130534652621e-02
-2.326517096662428230e-02
-2.517931170586962253e-02
-2.568330819485709071e-02
-2.497882815077900887e-02
-2.457579284964594990e-02
-2.480808325344696641e-02
-2.354406205995474011e-02
-2.180707451771013439e-02
-2.123321610270068049e-02
-2.178350769099779427e-02
-2.289726944582071155e-02
-2.405210761935450137e-02
-2.534635677875485271e-02
-2.475582186889369041e-02
-2.266720366606023163e-02
-2.075748852803371847e-02
-1.898668415378779173e-02
-1.648315628699492663e-02
-1.478122612752486020e-02
-1.341669030807679519e-02
-1.207097648148192093e-02
-1.156660528067732230e-02
-1.204237469210056588e-02
-1.378666365781100467e-02
-1.683655136730521917e-02
-1.934008651005569845e-02
-2.122830301232170314e-02
-2.272946403536479920e-02
-2.375449548708274961e-02
-2.510879494366236031e-02
-2.708434840315021574e-02
-2.846174174919724464e-02
-2.938664147222880274e-02
-2.918721474998164922e-02
-2.843801848939619958e-02
-2.805401163641363382e-02
-2.902331289078574628e-02
-3.025337355211377144e-02
-2.978278462251182646e-02
-2.836711064446717501e-02
-2.895422585424967110e-02
-3.019188261532690376e-02
-3.116867810604162514e-02
-3.304756683064624667e-02
-3.377844768692739308e-02
-3.400670175324194133e-02
-3.390442725503817201e-02
-3.498377554933540523e-02
-3.693487087730318308e-02
-3.745116919162683189e-02
-3.641931834863498807e-02
-3.494117845548316836e-02
-3.420344728510826826e-02
-3.380805719643831253e-02
-3.429955540923401713e-02
-3.498813384794630110e-02
-3.348824247950688004e-02
-2.893294367822818458e-02
-2.621989551698789001e-02
-2.475001201673876494e-02
-2.316205245733726770e-02
-2.108394983224570751e-02
-2.039639730355702341e-02
-2.096664866257924587e-02
-2.062420207948889583e-02
-1.945293115568347275e-02
-1.945091753441374749e-02
-2.014609344769269228e-02
-2.117800431733485311e-02
-2.347277586522977799e-02
-2.669482819328550249e-02
-2.682977719814516604e-02
-2.400296943960711360e-02
-2.045422843366395682e-02
-1.879211777122691274e-02
-1.967889511433895677e-02
-2.125133323715999722e-02
-2.223611591034568846e-02
-2.240499270556028932e-02
-2.231155303888954222e-02
-2.295547710673417896e-02
-2.465067700541112572e-02
-2.472790038154926151e-02
-2.224267518613487482e-02
-2.104259147017728537e-02
-2.249266617582179606e-02
-2.382836828473955393e-02
-2.263956230308394879e-02
-2.172003041778225452e-02
-2.269373362651094794e-02
-2.497861532901879400e-02
-2.591307202237658203e-02
-2.575417056505102664e-02
-2.578773455752525479e-02
-2.703004429349675775e-02
-2.820607915055006742e-02
-2.899628634622786194e-02
-2.969823253806680441e-02
-3.012903289345558733e-02
-3.123696660622954369e-02
-3.247859058319590986e-02
-3.272041794843971729e-02
-3.286462379037402570e-02
-3.305571954115293920e-02
-3.273018955951556563e-02
-3.208701673429459333e-02
-3.179026316502131522e-02
-2.973174014186952263e-02
-2.686397056095302105e-02
-2.574570680735632777e-02
-2.617399695736821741e-02
-2.664055318746250123e-02
-2.562080589996185154e-02
-2.450221836625132710e-02
-2.130279972334392369e-02
-1.722588967822957784e-02
-1.423646426701452583e-02
-1.258875636267475784e-02
-1.208106186822988093e-02
-1.137709477916359901e-02
-1.120875003834953532e-02
-1.253325353900436312e-02
-1.379536661261226982e-02
-1.360823625873308629e-02
-1.494560729042859748e-02
-1.844811777118593454e-02
-2.093043622153345495e-02
-2.288251744175795466e-02
-2.514427978894673288e-02
-2.787232915579807013e-02
-2.968642547784838825e-02
-2.916231824201531708e-02
-2.917467099905479699e-02
-3.181203283020295203e-02
-3.576536619220860302e-02
-3.838207339867949486e-02
-4.027561226394027472e-02
-4.172821718384511769e-02
-4.176741640549153090e-02
-4.066341716679744422e-02
-4.100945807294920087e-02
-3.983644273830577731e-02
-3.683335671667009592e-02
-3.321184703963808715e-02
-3.157233368256129324e-02
-3.119231769233010709e-02
-2.937772478617262095e-02
-2.647195651661604643e-02
-2.412875437585171312e-02
-2.265739567519631237e-02
-2.048886381089687347e-02
-1.795270691218320280e-02
-1.649974001338705420e-02
-1.703671478026080877e-02
-1.748874819895718247e-02
-1.644585063331760466e-02
-1.454577795811928809e-02
-1.309922845393884927e-02
-1.363022693112725392e-02
-1.524554591014748439e-02
-1.640492337173782289e-02
-1.759510087140370160e-02
-1.906470060930587351e-02
-2.137117189704440534e-02
-2.424725244054570794e-02
-2.600076186354272068e-02
-2.584674803074449301e-02
-2.414192567812278867e-02
-2.382084312557708472e-02
-2.588503411971032619e-02
-2.832656900864094496e-02
-2.977431358885951340e-02
-2.942826722573954612e-02
-2.807487726386170834e-02
-2.671803122211713344e-02
-2.477604357409290969e-02
-2.264090653625316918e-02
-2.044929533440154046e-02
-1.831409099395386875e-02
-1.950292971741873771e-02
-2.273220161441713572e-02
-2.536125066399108618e-02
-2.680297620827332139e-02
-2.731686072365846485e-02
-2.839853368641342968e-02
-2.902189953601919115e-02
-2.806332304317038506e-02
-2.622779356897808611e-02
-2.532437974878121167e-02
-2.584253525128588080e-02
-2.573746132839005440e-02
-2.405219493084587157e-02
-2.235585998278111219e-02
-2.289891745022032410e-02
-2.530135861888993531e-02
-2.680644502106588334e-02
-2.815563493641093373e-02
-2.983859303640201688e-02
-3.187195034115575254e-02
-3.327257945784367621e-02
-3.333234781166538596e-02
-3.175601887051016092e-02
-3.019307587237562984e-02
-2.872173536161426455e-02
-2.622505053295753896e-02
-2.365527143410872668e-02
-2.255759864056017250e-02
-2.331796713406220078e-02
-2.435328860883601010e-02
-2.353055060666520149e-02
-2.080537160509265959e-02
-1.943422648764681071e-02
-2.034860335697885603e-02
-2.116267023666296154e-02
-2.155655056412797421e-02
-2.176005182263907045e-02
-2.347148620174266398e-02
-2.545765164541080594e-02
-2.585915353847667575e-02
-2.670516551006585360e-02
-2.774841050268150866e-02
-2.832321115420199931e-02
-3.058887523366138339e-02
-3.382697832421399653e-02
-3.529611785779707134e-02
-3.409882992855273187e-02
-3.271095192758366466e-02
-3.237851706217043102e-02
-3.194071905454620719e-02
-3.079598900512792170e-02
-2.928170397353824228e-02
-2.685199433472007513e-02
-2.368991772527806461e-02
-2.179247712774667889e-02
-2.211440551036503166e-02
-2.613495416881050915e-02
-3.318025119369849563e-02
-3.803001527558080852e-02
-3.801209822995588183e-02
-3.458115315879695117e-02
-3.106243093498051167e-02
-2.707321436901111156e-02
-2.173077336919959635e-02
-1.647330645937472582e-02
-1.175724992208415642e-02
-7.036285296635469422e-03
-4.010744305560365319e-03
-3.209963779227109626e-03
-5.001154477213276550e-03
-5.874312137166270986e-03
-7.782086868246551603e-03
-1.078085279004881158e-02
-1.412797610100824386e-02
-1.697455445537343621e-02
-1.902386975416447967e-02
-2.151076660084072500e-02
-2.350822251173667610e-02
-2.439349555061198771e-02
-2.513769140932708979e-02
-2.667161970748566091e-02
-2.890844734793063253e-02
-3.159321931889280677e-02
-3.298580486443825066e-02
-3.322036354802548885e-02
-3.306216603959910572e-02
-3.256883792346343398e-02
-3.240819569327868521e-02
-3.198541162419132888e-02
-3.129045580863021314e-02
-2.980028693855274469e-02
-2.829423101502470672e-02
-2.742279139056336135e-02
-2.576123188191559166e-02
-2.422676334390416741e-02
-2.160072835977189243e-02
-2.108472472173161805e-02
-2.193103318859357387e-02
-2.341935396543703973e-02
-2.563955240475479513e-02
-2.690441579034086317e-02
-2.812036291288677603e-02
-3.036888119822833687e-02
-3.305476275272667408e-02
-3.385157469892874360e-02
-3.377961911610327661e-02
-3.248257053201086819e-02
-3.056829882552847266e-02
-2.966832289530429989e-02
-2.926713932538405061e-02
-2.833377220667898655e-02
-2.721655800996813923e-02
-2.538365515647456050e-02
-2.420515920675825328e-02
-2.398704418737906963e-02
-2.431496250210329890e-02
-2.515972118999343365e-02
-2.664372368599288166e-02
-2.810016303556039929e-02
-2.838313230313360691e-02
-2.786705954349599779e-02
-2.805710755637846887e-02
-2.842568756022956222e-02
-2.892703014367725700e-02
-2.818201392074115574e-02
-2.720608426898252219e-02
-2.528881486796308309e-02
-2.304858389834407717e-02
-2.030503310379572213e-02
-1.729317773424554616e-02
-1.462152249587234110e-02
-1.368051925965119153e-02
-1.500996950198896229e-02
-1.652708670007996261e-02
-1.827883897931315005e-02
-1.898087793961167336e-02
-1.900263123388867825e-02
-1.938979767146520317e-02
-1.982291905733291060e-02
-2.081743696180637926e-02
-2.193595537391956896e-02
-2.233735904155764729e-02
-2.211247374361846596e-02
-2.266995397803839296e-02
-2.224076342827174813e-02
-1.981858258659485728e-02
-1.780030288500711322e-02
-1.844011421781033278e-02
-1.963805152627173811e-02
-2.009686795645393431e-02
-2.121426769008394331e-02
-2.268166463181842119e-02
-2.348596171941608191e-02
-2.317745020263828337e-02
-2.371239315834827721e-02
-2.528076947783119977e-02
-2.789798236335627735e-02
-3.152446879539638758e-02
-3.359250695211812854e-02
-3.377651228220202029e-02
-3.403347000130452216e-02
-3.458977880654856563e-02
-3.413697049836628139e-02
-3.543435741448774934e-02
-3.771364936255849898e-02
-3.848678534268401563e-02
-3.738555096788331866e-02
-3.639760689111426473e-02
-3.512998591759242117e-02
-3.402226502657867968e-02
-3.506512439344078302e-02
-3.638355701696127653e-02
-3.549063330865465105e-02
-3.391840800759382546e-02
-3.243781247874721885e-02
-3.173325239913538098e-02
-3.197383557562716305e-02
-3.426129842409864068e-02
-3.455567639321088791e-02
-3.173771983711048961e-02
-2.719599069678224623e-02
-2.258094536955468357e-02
-1.982160756597295403e-02
-1.878178773040417582e-02
-1.692796649876981974e-02
-1.524384242657106370e-02
-1.407859417668078095e-02
-1.316027919529005885e-02
-1.358813824481330812e-02
-1.529359178675804287e-02
-1.781208447937387973e-02
-1.945615804288536310e-02
-2.138542731699999422e-02
-2.224566378572490066e-02
-2.309497540409211069e-02
-2.402337122475728393e-02
-2.432836117804981768e-02
-2.479363502061460167e-02
-2.586752634670119733e-02
-2.578689964138902724e-02
-2.492571911716368049e-02
-2.452930129948072135e-02
-2.329412563994992524e-02
-2.263092574139591306e-02
-2.402540121693164110e-02
-2.568848503869958222e-02
-2.545054121583234519e-02
-2.447310544084757566e-02
-2.333748125238344073e-02
-2.374567520746495575e-02
-2.517338907637167722e-02
-2.568905983935110271e-02
-2.463273449393454939e-02
-2.348875750612933189e-02
-2.363274506933521479e-02
-2.367572596995159984e-02
-2.222145667474251240e-02
-2.118737029377371073e-02
-2.283208050357643515e-02
-2.527470132918097079e-02
-2.729730113060213625e-02
-2.874599158531054854e-02
-2.945745472970884293e-02
-2.951956776087172329e-02
-2.936504279205109924e-02
-2.962979124276898801e-02
-3.079113957937806845e-02
-3.165768430335447192e-02
-3.107059092144481838e-02
-2.927550121967215091e-02
-2.620194572955369949e-02
-2.513941763027105480e-02
-2.584653338999487460e-02
-2.658159246493596584e-02
-2.749318628048058599e-02
-2.667577064130455256e-02
-2.203200347139500082e-02
-1.837869785958901048e-02
-1.761874409567099065e-02
-1.931975020852405578e-02
-2.194174885516986251e-02
-2.326024696230888367e-02
-2.432993824186269194e-02
-2.484158721927087754e-02
-2.191954263253137469e-02
-1.711579898255877197e-02
-1.516895372333237901e-02
-1.568831248732749373e-02
-1.850405169534496963e-02
-2.143826350220479071e-02
-2.271327866765204817e-02
-2.322559157619252801e-02
-2.332418262085411698e-02
-2.361027327424380928e-02
-2.455236062814947218e-02
-2.516581298550590873e-02
-2.429732194286771119e-02
-2.337565092602744699e-02
-2.365826185268815607e-02
-2.332846815988887101e-02
-2.164957913919351995e-02
-1.963717295438982546e-02
-1.878513103292789310e-02
-2.045985092991031706e-02
-2.522528848203364760e-02
-3.113537968602031469e-02
-3.584820296964608133e-02
-3.833718801615759730e-02
-3.720583845279179513e-02
-3.442127854214049876e-02
-3.254582043155096471e-02
-3.239999932702630758e-02
-3.198122794856317341e-02
-3.070637831115163863e-02
-3.178503902745433152e-02
-3.351986379129812121e-02
-3.302506593172438443e-02
-3.127460513496771455e-02
-3.003894016728736460e-02
-2.946907261502929032e-02
-3.018284041900187731e-02
-3.187713446095585823e-02
-3.253696195315569639e-02
-3.309601379442028701e-02
-3.369309706613421440e-02
-3.328665115986950696e-02
-3.281059252913109958e-02
-3.351803752593696117e-02
-3.440132786636240780e-02
-3.361195558682084084e-02
-3.179453415214084089e-02
-3.000620017701294273e-02
-2.865951682906597853e-02
-2.785304423014167696e-02
-2.683269303815905005e-02
-2.359754762437660247e-02
-1.980392516998108476e-02
-1.697290463198442012e-02
-1.461108331568539143e-02
-1.228543806064408273e-02
-9.923858669935725629e-03
-8.588559467170853168e-03
-8.959469596447888762e-03
-8.381135558011010289e-03
-6.521548129967413843e-03
-4.713139333034632728e-03
-3.689718823807197623e-03
-3.534665665938518941e-03
-5.892477929592132568e-03
-1.137969593401066959e-02
-1.460505791328614578e-02
-1.491030343458987772e-02
-1.453323693567654118e-02
-1.457909820601344109e-02
-1.615569090063218027e-02
-1.858535506471525878e-02
-2.205719101766590029e-02
-2.713289177336264402e-02
-3.136695158900693059e-02
-3.351352643221616745e-02
-3.506825305521488190e-02
-3.699334411066956818e-02
-3.803101208177395165e-02
-3.944735362892970443e-02
-4.007951429230161011e-02
-4.204042488709092140e-02
-4.343266846262849867e-02
-4.276376057532615960e-02
-4.059165075886994600e-02
-3.859164280584082007e-02
-3.706491770572029054e-02
-3.437528721406124532e-02
-3.172468859702348709e-02
-3.055835986742749810e-02
-3.119511893601156771e-02
-3.109600220341235399e-02
-2.991893234138842672e-02
-2.912992567871697247e-02
-2.674880670383572578e-02
-2.426267201371956617e-02
-2.285901246068533510e-02
-2.187991594837512821e-02
-2.124133061442989856e-02
-1.984393929888028651e-02
-1.868533945525996387e-02
-1.730842450342606753e-02
-1.543609505461063236e-02
-1.572049768583383411e-02
-1.751253330439794809e-02
-1.918981251947116107e-02
-2.047331327048595995e-02
-2.277878047607373446e-02
-2.446080725349020213e-02
-2.528752702346537262e-02
-2.513628714950755239e-02
-2.290880001964978874e-02
-2.124240745615679771e-02
-2.262270209030248225e-02
-2.538950502639636397e-02
-2.769111233646981418e-02
-3.133956124656833708e-02
-3.512561306706629694e-02
-3.634831591625697911e-02
-3.416973049752414227e-02
-3.306155122118070722e-02
-3.301527613075450063e-02
-3.215728429495356977e-02
-3.004263999173417687e-02
-2.936633063654880971e-02
-3.018569441337604076e-02
-2.973214941448532045e-02
-2.848555959644727409e-02
-2.781508010230027139e-02
-2.769996171991806477e-02
-2.691025292733684182e-02
-2.384254185017198324e-02
-2.146165206795558333e-02
-2.048600617854390293e-02
-1.799280653358437121e-02
-1.611314655747264624e-02
-1.484472250012913719e-02
-1.363862884318223223e-02
-1.279798652831232175e-02
-1.259158852917607874e-02
-1.258584143215557560e-02
-1.209620495501440018e-02
-1.118885120376944542e-02
-1.165534740721341223e-02
-1.423260619048960507e-02
-1.670985511736944318e-02
-1.888392762339208275e-02
-1.935887848958373070e-02
-2.089376721414737403e-02
-2.324713932466693223e-02
-2.446059261274058372e-02
-2.490390943421516567e-02
-2.554768798290751874e-02
-2.676033909665420651e-02
-2.783599302347283810e-02
-2.837264582922216505e-02
-2.883098750317003578e-02
-3.008515159308444709e-02
-3.180066778440959752e-02
-3.299665695521980524e-02
-3.322825796203687787e-02
-3.298614319646731019e-02
-3.181470310664735734e-02
-3.146586823277175426e-02
-3.231337905162945390e-02
-3.349110556882806122e-02
-3.232306335121393204e-02
-3.086878496105782688e-02
-2.978522024932317436e-02
-2.981972647830843925e-02
-3.165531961712986231e-02
-3.400137211428955197e-02
-3.738286613952368498e-02
-4.083312887814827263e-02
-4.248793993610888720e-02
-4.295160397305153310e-02
-4.053538941661827266e-02
-3.513082629069685936e-02
-2.977424628625158221e-02
-2.454950663377530873e-02
-2.004231464525219053e-02
-1.736792000883724540e-02
-1.703633824945427477e-02
-1.705560498521663249e-02
-1.616977897356264293e-02
-1.480708124290686101e-02
-1.258636166312498972e-02
-9.241527550329919904e-03
-7.674173502891790122e-03
-9.748724551172927022e-03
-1.349238118564244360e-02
-1.675679231993854046e-02
-1.816874282667413354e-02
-1.840894219640176743e-02
-2.035006400546990335e-02
-2.274625148857012391e-02
-2.405348095635417849e-02
-2.483713797118980438e-02
-2.446237704134546220e-02
-2.196129389631096274e-02
-2.099962875945493579e-02
-2.202770338044501841e-02
-2.310070885869208723e-02
-2.412906906101852655e-02
-2.475602741469629109e-02
-2.540334753575734794e-02
-2.611105628602672368e-02
-2.457328810123726726e-02
-2.150461841665674001e-02
-1.926084951264783740e-02
-1.744964174577035010e-02
-1.500501366535900161e-02
-1.314535529672866687e-02
-1.370198970107594505e-02
-1.677181717241182923e-02
-2.001734719669912010e-02
-2.284720903844572604e-02
-2.423192199785262346e-02
-2.579317879281006753e-02
-2.906143890868406743e-02
-3.375707456143572927e-02
-3.919150913134217262e-02
-4.244449883117340505e-02
-4.180600808467715979e-02
-3.814259252976626158e-02
-3.450750955380499363e-02
-3.166784881614148617e-02
-3.122765338048338890e-02
-3.196768739144317806e-02
-3.418065898586064577e-02
-3.464810288278385997e-02
-3.264896076871082187e-02
-3.450797157711349428e-02
-4.278675623936578631e-02
-5.157068153494037688e-02
-5.388509089243598282e-02
-4.941653969581238925e-02
-4.339766746852546930e-02
-3.710879173013381660e-02
-3.018981260538566858e-02
-2.346875589864794165e-02
-1.796901415218599141e-02
-1.412465644534677267e-02
-1.217965564137557521e-02
-1.178713682747911662e-02
-1.221350794367026538e-02
-1.391429577779490501e-02
-1.620210241526365280e-02
-1.660770794842392206e-02
-1.667584001552313566e-02
-1.829237589845433831e-02
-1.822440935939084738e-02
-1.605066972842905670e-02
-1.412033543601864949e-02
-1.425189384463010356e-02
-1.554532173031475395e-02
-1.384776351187610999e-02
-1.330245868302881718e-02
-1.496405093348585069e-02
-1.744546898407861590e-02
-1.853824505815282464e-02
-1.830245673772878945e-02
-1.703818088572006673e-02
-1.543162579764612019e-02
-1.518019507784629241e-02
-1.994900048885028809e-02
-2.731702443270478398e-02
-3.301066317362710834e-02
-3.542471313267014921e-02
-3.493712938507087529e-02
-3.292582550784572959e-02
-3.045045377803035080e-02
-2.818184111674781889e-02
-2.824003058776725084e-02
-3.062803079956211150e-02
-3.394292798475362360e-02
-3.612217187765054405e-02
-3.713665864779613912e-02
-3.719554661074653268e-02
-3.653639942058362067e-02
-3.494912743917666376e-02
-3.247416680096648633e-02
-2.915886398113798350e-02
-2.736385249590966851e-02
-2.760278221103362739e-02
-2.763183692877646536e-02
-2.659405072336085141e-02
-2.457706796121783555e-02
-2.132141344191040844e-02
-1.861903547251131386e-02
-1.902733856695704162e-02
-2.056623452517669648e-02
-1.995643287955317646e-02
-1.805358260753564537e-02
-1.888855513243470341e-02
-2.079675869026686996e-02
-1.839669494074769318e-02
-1.506857825006591156e-02
-1.554649315949063748e-02
-1.819885801523923874e-02
-2.014990604948252439e-02
-2.022055559791624546e-02
-1.810759567888453603e-02
-1.584442543389741331e-02
-1.334065564151387662e-02
-1.079025241779163480e-02
-1.134501326305326074e-02
-1.454027187719475478e-02
-1.818171040213201195e-02
-2.105823114106897265e-02
-2.408710497547872365e-02
-2.801694972731638700e-02
-3.236616976209916174e-02
-3.717814979609102011e-02
-3.912323882104828954e-02
-3.689663572004064918e-02
-3.333503264002501965e-02
-3.187094625900499523e-02
-3.391146674402989447e-02
-3.680944064399227500e-02
-3.773681237362325191e-02
-3.712634133989922702e-02
-3.845021637971512973e-02
-3.971251135226339102e-02
-3.917893627658486366e-02
-3.949741221731528640e-02
-3.905796620529145002e-02
-3.520306927384808660e-02
-2.981412217195611447e-02
-2.586574009910691530e-02
-2.333701559109613299e-02
-2.213628067693207413e-02
-2.126577237504534423e-02
-1.932429768203292042e-02
-1.868695289886090904e-02
-1.990083546843379736e-02
-2.117360781994648278e-02
-2.118640259141102433e-02
-2.042480446107219905e-02
-2.139661955880001187e-02
-2.390627741988282651e-02
-2.641321589180734009e-02
-2.885523099394049495e-02
-2.968953776871785522e-02
-3.015004585904534906e-02
-2.965594103443436325e-02
-2.679059070942457765e-02
-2.456783840898424387e-02
-2.389374458289239556e-02
-2.364578722335863858e-02
-2.209651574958115816e-02
-2.085918276861775666e-02
-2.022310582106001675e-02
-1.913875530590303242e-02
-1.666074422246310860e-02
-1.350278034806251526e-02
-1.047492332872934639e-02
-9.403916010342072695e-03
-1.115367012971546501e-02
-1.362799412163440138e-02
-1.538420656288508326e-02
-1.796354081307072192e-02
-2.122533442161511630e-02
-2.588991810625884682e-02
-3.318805829621851444e-02
-3.971861224272288382e-02
-4.046072353958152235e-02
-3.874613685184158385e-02
-4.137566065764985979e-02
-4.411661575431935489e-02
-4.082877057953737676e-02
-3.365101656527258456e-02
-2.636957469803746790e-02
-2.079392652376554906e-02
-1.740891639201436192e-02
-1.630208316782955080e-02
-1.514038376626558602e-02
-1.416248687746701762e-02
-1.326914843957638368e-02
-1.331904149992624298e-02
-1.479292131989495829e-02
-1.702693407423794270e-02
-2.033407690760213882e-02
-2.334395139769185334e-02
-2.629018490551970899e-02
-2.799877984216436744e-02
-2.691120425879489630e-02
-2.413862603134475648e-02
-2.250544639537110925e-02
-2.132654481101781130e-02
-1.999484993575606495e-02
-1.975515806407202035e-02
-2.175150075345300138e-02
-2.618528560560662299e-02
-3.074058622587472200e-02
-3.351548366481438279e-02
-3.558034586603753269e-02
-3.657815250335261226e-02
-3.573740104911848903e-02
-3.340105831739492714e-02
-3.223911699024029076e-02
-3.145961818518117070e-02
-3.110622492386028171e-02
-3.119022221653722227e-02
-3.139199543511494994e-02
-3.082630792050622404e-02
-2.988937012560199946e-02
-3.094217390753328800e-02
-3.199092680006287992e-02
-2.903737731685396284e-02
-2.360889629926532507e-02
-1.877098475233651698e-02
-1.709359821688849479e-02
-1.816264011722523719e-02
-2.152315209968946874e-02
-2.465968645992688835e-02
-2.568480886111501604e-02
-2.534882150939665735e-02
-2.641288483573589474e-02
-2.843430411303415895e-02
-3.101117545156739652e-02
-3.325950819998979568e-02
-3.497981742839328945e-02
-3.636892870417796075e-02
-3.693548205774277449e-02
-3.599563933676108718e-02
-3.478588041616603732e-02
-3.334184657433070242e-02
-3.280550299677997828e-02
-3.208660200471058488e-02
-3.041005402337759733e-02
-2.763354859780520201e-02
-2.466689147695433348e-02
-2.206172030128072947e-02
-1.977952706511132419e-02
-1.661312853684648871e-02
-1.436748607375193387e-02
-1.357323162665124983e-02
-1.381638685415964574e-02
-1.424365655111614615e-02
-1.383867947879480198e-02
-1.248181251867208630e-02
-1.227379470947198570e-02
-1.287614577449858189e-02
-1.596269066794775426e-02
-2.081977254420053214e-02
-2.425551792839542031e-02
-2.581920671218540519e-02
-2.459046299918554723e-02
-2.188369398936629295e-02
-1.977034844458103180e-02
-1.938970126502681524e-02
-2.092521754093468189e-02
-2.351301372982561588e-02
-2.566431794548407197e-02
-2.627928552101366222e-02
-2.699447395571041852e-02
-2.834040788002312183e-02
-2.898689490393735468e-02
-2.786256300169043243e-02
-2.697194213396869600e-02
-2.636918725329451263e-02
-2.582803244877140969e-02
-2.599308209028095007e-02
-2.586674600024707615e-02
-2.545938514231238514e-02
-2.603697794256731868e-02
-2.756891626631841063e-02
-2.860050699382554740e-02
-2.645034874149132520e-02
-2.153131754312198609e-02
-1.681351204751990736e-02
-1.347532179352128878e-02
-1.210543450724799186e-02
-1.152030472439946607e-02
-1.110983157559530810e-02
-1.079899084288626909e-02
-1.143519330071285367e-02
-1.420958869857713580e-02
-1.737648017297033221e-02
-1.954777326318435371e-02
-2.099110861308872700e-02
-2.333643169549759477e-02
-2.674314600881189108e-02
-3.023057433892972767e-02
-3.244261097279377282e-02
-3.352402927703224123e-02
-3.375139931449666619e-02
-3.191638825228437781e-02
-2.843028778443112969e-02
-2.530063648009672761e-02
-2.526551543269306421e-02
-2.868718001991510391e-02
-3.347807432874105871e-02
-3.758622551686130464e-02
-3.950454629375599325e-02
-4.129208537051454186e-02
-4.208213431411422789e-02
-4.072915908182039857e-02
-3.821372229140251875e-02
-3.609013947425410151e-02
-3.302649565739557147e-02
-3.040649608010426164e-02
-2.724706246226560324e-02
-2.236321051896084100e-02
-1.671900281507987529e-02
-1.049820639309473336e-02
-6.316200597211718559e-03
-7.641001502634026110e-03
-1.062978026311611757e-02
-1.435212288924958557e-02
-1.659745612414553761e-02
-1.932358827616553754e-02
-2.433386907796375453e-02
-2.871346805477514863e-02
-3.005926373589318246e-02
-3.124442446278408170e-02
-3.252674287068657577e-02
-3.118695167358964682e-02
-2.771124491118825972e-02
-2.547511758166365325e-02
-2.598404535092413425e-02
-2.691580084501765668e-02
-2.611534728202968836e-02
-2.313275581400375813e-02
-2.067966306640300900e-02
-2.255562685604672879e-02
-2.801908885885495692e-02
-3.357130481163039804e-02
-3.584671867429278791e-02
-3.272328831371851265e-02
-2.816245432768482715e-02
-2.644539381435606629e-02
-2.507124918338377029e-02
-2.153085733880288899e-02
-1.703688758425414562e-02
-1.512966628069989383e-02
-1.708925810817163438e-02
-2.132468580384738743e-02
-2.600196239654906094e-02
-3.108329110546037555e-02
-3.624650707934051752e-02
-4.165072823525406420e-02
-4.532975799520500004e-02
-4.706729305326007307e-02
-4.610537143889814615e-02
-4.252138023730367422e-02
-3.876409391523338854e-02
-3.530278263497166336e-02
-3.084804848185740411e-02
-2.708166903175879270e-02
-2.650803071446716785e-02
-2.730000960582401603e-02
-2.537520776968449354e-02
-2.612039133964572102e-02
-2.819206019921693951e-02
-2.837863394233863801e-02
-2.741340176726225764e-02
-2.647011751832906157e-02
-2.500341724953614175e-02
-2.266298361064400524e-02
-2.011170363402925432e-02
-1.804831481422297657e-02
-1.561850694997701794e-02
-1.435091962775913998e-02
-1.509420417278306559e-02
-1.614014945516828448e-02
-1.401923964294837788e-02
-1.229665485880104825e-02
-1.055043412634404376e-02
-8.901985893317032605e-03
-9.930176929628942162e-03
-1.177079411718295887e-02
-1.145585429185302928e-02
-1.002231419988675043e-02
-9.066669008461758494e-03
-9.444936040381435305e-03
-1.223963135998928919e-02
-1.453226923331385478e-02
-1.565111233503557742e-02
-1.721606895443983376e-02
-1.972530480998102576e-02
-2.213389780081342906e-02
-2.382496313657611609e-02
-2.553436752350535244e-02
-2.894664248742628843e-02
-3.236030534026212990e-02
-3.381603528396226466e-02
-3.290471067884936929e-02
-3.108437158516608179e-02
-3.228931745979934931e-02
-3.488322545308619738e-02
-3.609341365518048406e-02
-3.605701931519433856e-02
-3.585789090720936656e-02
-3.574578659026883543e-02
-3.173369623254984617e-02
-2.645081440277863294e-02
-2.330765710212290287e-02
-2.180639421567320824e-02
-2.304779081896413118e-02
-2.644752930791582912e-02
-2.733524161158129573e-02
-2.636182034621015191e-02
-2.782883348118048161e-02
-3.092431143159046769e-02
-3.312294938950799406e-02
-3.452692908467724919e-02
-3.549955363268963993e-02
-3.420668508624657989e-02
-3.017697417817544192e-02
-2.592694181657861918e-02
-2.338147714908700436e-02
-2.194368244090583175e-02
-2.102950747939758003e-02
-2.134177702828310430e-02
-2.296379534527659416e-02
-2.474776374583598226e-02
-2.734325607889331877e-02
-2.936282726295758039e-02
-3.038732756976969540e-02
-3.047318932658527046e-02
-3.090813333983533084e-02
-3.027859565918333828e-02
-3.072964318562299013e-02
-3.240586011088453233e-02
-3.341798583278432488e-02
-3.323754572193138301e-02
-3.212256342521868646e-02
-3.122244379483163357e-02
-3.023929821210913360e-02
-2.884932473534718156e-02
-2.709520413191057742e-02
-2.810436126310378313e-02
-3.057060894207097590e-02
-3.155442027491517365e-02
-2.813318860717117786e-02
-2.383065839239861816e-02
-2.359085556236095726e-02
-2.653421324794180691e-02
-2.878467603295575827e-02
-3.062635732931084931e-02
-3.351752093294635415e-02
-3.492188625386916101e-02
-3.338047463330440223e-02
-3.212314186384901404e-02
-3.173579534632153809e-02
-3.015109723492059857e-02
-2.698043499549385160e-02
-2.444153869873844087e-02
-2.348029192944522947e-02
-2.199427217419724911e-02
-1.809424065868370235e-02
-1.266307663172483444e-02
-8.465884093311615288e-03
-6.536520231747999787e-03
-5.230761416896712035e-03
-3.764475877687800676e-03
-3.237654482290963642e-03
-3.500065076877945103e-03
-6.019719421601621434e-03
-1.008950130199082196e-02
-1.343919848295627162e-02
-1.553414222144056112e-02
-1.857652023318223655e-02
-2.311225580342579633e-02
-2.731234599195886403e-02
-2.952969225589185953e-02
-3.159007974318228662e-02
-3.309407111373730004e-02
-3.315022695460356772e-02
-3.305732388980686665e-02
-3.400390414753928781e-02
-3.523814666550606489e-02
-3.353114880155771971e-02
-3.036399721167981625e-02
-2.785891592793632299e-02
-2.373124334553722292e-02
-1.484843051002826542e-02
-6.805987595726037398e-03
-5.248259640211472288e-03
-9.467797099205199629e-03
-1.633418469282332808e-02
-2.184441837016493082e-02
-2.382735510764177889e-02
-2.428749940008856356e-02
-2.499514448572881520e-02
-2.607627902762033045e-02
-2.837208194250706583e-02
-3.119036409771069884e-02
-3.203564847353845835e-02
-3.327122612972743809e-02
-3.563676364137791097e-02
-3.480115992715582252e-02
-2.973595837829634547e-02
-2.300870801263954490e-02
-1.594890454725828022e-02
-1.079131925507681444e-02
-1.019850697048241273e-02
-1.146744943980593234e-02
-1.226444601343246177e-02
-1.447042450308799744e-02
-1.754512231855187565e-02
-1.910175706143490970e-02
-1.989820339076686651e-02
-2.126892286469228566e-02
-2.460243013047147542e-02
-3.047768768738023937e-02
-3.632721563917584717e-02
-3.920553717762231827e-02
-3.979313623858615756e-02
-3.976746666012331843e-02
-3.845571336569264531e-02
-3.728634692379273474e-02
-3.641552757471799850e-02
-3.568179090507328510e-02
-3.548094173311255872e-02
-3.666444899863563478e-02
-3.694567567436024547e-02
-3.447494964348152280e-02
-3.088293306063860655e-02
-2.853904152289032936e-02
-2.720487100305035710e-02
-2.502379902580287308e-02
-2.292137651238590479e-02
-2.290148404426872730e-02
-2.502633833501022309e-02
-2.583484456408768892e-02
-2.420960481686051935e-02
-2.270725963171571493e-02
-2.564614260336384177e-02
-2.760375173238571733e-02
-2.579840838734526187e-02
-2.187442441936582327e-02
-1.860931297414936125e-02
-1.860346310422755778e-02
-2.120965109497774392e-02
-2.313813092769123614e-02
-2.228417906735558063e-02
-2.167612365155946463e-02
-2.713935646170284599e-02
-3.254306648159399629e-02
-3.205606481060385704e-02
-2.870665775844827294e-02
-2.631420829857233912e-02
-2.572765697550494224e-02
-2.633421718201134354e-02
-2.797998968162573874e-02
-2.979004057124257088e-02
-3.121418558293953538e-02
-3.290971653768792748e-02
-3.417504194658249617e-02
-3.299440140835940838e-02
-3.054965418414212763e-02
-3.055367415072396398e-02
-3.327999002067372203e-02
-3.393786755623295903e-02
-3.290762833785265684e-02
-3.250551526434719563e-02
-3.333767017466016114e-02
-3.590516280382871628e-02
-3.810110501945018768e-02
-3.567554085748270154e-02
-2.948777546407654881e-02
-2.389881228737067431e-02
-2.019233579630963504e-02
-1.697154766588937491e-02
-1.579491981829050928e-02
-1.562470970384310931e-02
-1.559532938699703664e-02
-1.543881626275833696e-02
-1.415761107637081295e-02
-1.249376782652689144e-02
-1.115976283472264186e-02
-9.864048479357734323e-03
-8.957395948527846485e-03
-8.488454113830812275e-03
-7.504744189645862207e-03
-7.489874406019225717e-03
-8.680894097778946161e-03
-1.231643545906990767e-02
-1.910562968987505883e-02
-2.638895603013224900e-02
-3.138040847261436284e-02
-3.356211891514249146e-02
-3.356510933372192085e-02
-3.203915912308730185e-02
-3.137324165436439216e-02
-3.226905755582265556e-02
-3.424084206926636398e-02
-3.643337913672439754e-02
-3.708190706674940884e-02
-3.601774005801416934e-02
-3.276404822827316821e-02
-3.014665708178654313e-02
-3.074282722081989050e-02
-3.195945100742392242e-02
-3.244290928705595434e-02
-3.283023761468939483e-02
-3.260698576923459768e-02
-3.105778887402266264e-02
-2.858233892766293138e-02
-2.555218816269189119e-02
-2.221768409071955830e-02
-1.793455703591462225e-02
-1.321769286732887849e-02
-9.983667951019015163e-03
-8.002944923646282405e-03
-7.565336090920027345e-03
-7.491639280488016084e-03
-7.143783477658871561e-03
-8.986998182081151754e-03
-1.039076869346899912e-02
-9.394633707415778190e-03
-8.129080015351064503e-03
-6.932497399247949943e-03
-6.887299150548642501e-03
-1.010196228889981285e-02
-1.556280585646163672e-02
-2.021348518610466272e-02
-2.278271676914300770e-02
-2.636371027620043606e-02
-2.995677095896098763e-02
-3.177936741849407554e-02
-3.278256554040126503e-02
-3.495119017316028476e-02
-3.683089380501769483e-02
-3.717672734637744725e-02
-3.582465069484896958e-02
-3.327747981529682875e-02
-3.156911407131701708e-02
-2.962299549835734069e-02
-2.996211333083920181e-02
-3.091349935857579112e-02
-3.168491093674674630e-02
-3.238088538637384772e-02
-3.384519004612229764e-02
-3.506743087200447917e-02
-3.509347152430564165e-02
-3.506759094307199121e-02
-3.515522257657721639e-02
-3.486395144136622548e-02
-3.286214632680639625e-02
-2.899682112911250442e-02
-2.603261054900940508e-02
-2.520827729313168675e-02
-2.777802001219242811e-02
-3.252252645324915648e-02
-3.308562008896842599e-02
-2.896710611821617931e-02
-2.751700412773061544e-02
-3.083116098423488438e-02
-3.476313213468529284e-02
-3.507331712171435356e-02
-3.252446549595333636e-02
-2.957939250336494297e-02
-2.614822915347758681e-02
-2.190513623645529151e-02
-1.989756310649681836e-02
-2.014897472690790892e-02
-2.202941868745256215e-02
-1.953287573996931314e-02
-6.927198683115420863e-03
9.371838132210541517e-03
1.496207642048830166e-02
9.330819011665880680e-03
3.418720098125049844e-04
-7.768559044052381068e-03
-1.565443926665466279e-02
-2.146614860976114869e-02
-2.558310916356276721e-02
-2.980845965794287622e-02
-3.469395960564725101e-02
-4.041685315314680338e-02
-4.592827099259011447e-02
-5.068365499028004706e-02
-5.459769818116910756e-02
-5.570582288783043623e-02
-5.394425534177571535e-02
-5.239770325715653598e-02
-5.075549779576249421e-02
-4.658932448364794254e-02
-3.830181594821624458e-02
-2.763833617791533470e-02
-1.857602546806447208e-02
-1.617238558537792414e-02
-1.915074426506180316e-02
-2.310616946488153189e-02
-2.553527883719652891e-02
-2.734844019869342446e-02
-2.924626278399955481e-02
-3.010048931173514575e-02
-3.372945866431109607e-02
-4.030857598991133273e-02
-4.524939504335634410e-02
-4.442902718437835574e-02
-4.056205943925306201e-02
-3.589690095395781100e-02
-2.978210613946430385e-02
-2.421980752842500806e-02
-2.163227327400818467e-02
-1.863900070020463318e-02
-1.442591565137263387e-02
-1.225239520863397047e-02
-1.240214987774379551e-02
-1.383862127113388851e-02
-1.563328987685963511e-02
-1.895489367598202080e-02
-2.287939241796266288e-02
-2.450960164424031973e-02
-2.248406417493242770e-02
-1.897667607408948243e-02
-1.861677264969330281e-02
-2.182794378313701600e-02
-2.665443389560095966e-02
-2.906787085521500558e-02
-2.970778950839303434e-02
-2.994613168993964791e-02
-2.818664142978377640e-02
-2.425444654363673180e-02
-1.959815199370495975e-02
-1.492341016273712739e-02
-1.169700226455461234e-02
-1.022891956381499767e-02
-1.019903629639884457e-02
-1.085406529455212876e-02
-1.070581765816314146e-02
-1.030189378070645034e-02
-1.202116618514992297e-02
-1.515757412562379614e-02
-1.561290264362469316e-02
-1.062939463736256585e-02
-5.201738986215787008e-03
-4.344339231465710327e-03
-7.429690413118805736e-03
-1.140289350587408990e-02
-1.504014926467789337e-02
-1.792112561815883964e-02
-2.064809086732566357e-02
-2.542249785619787872e-02
-3.222749364795163274e-02
-3.830645437119528651e-02
-3.911224121111445129e-02
-3.609663690440356731e-02
-3.392401777091436088e-02
-3.142317291349172592e-02
-2.658545599842909724e-02
-2.207208126492332667e-02
-2.058012796624097973e-02
-2.085268897644709796e-02
-2.217960172856692225e-02
-2.299961488461121917e-02
-2.321394640603102744e-02
-2.506932287360541523e-02
-2.894972021749708802e-02
-3.328594902995973825e-02
-3.534967254381626844e-02
-3.603322329581715167e-02
-3.452557211858220398e-02
-3.394687882973812521e-02
-3.279965312685817480e-02
-3.071809260291047394e-02
-3.099950117757543921e-02
-3.319694587844423950e-02
-3.463310349616222084e-02
-3.528898014337755740e-02
-3.565378210623748600e-02
-3.549012762960046530e-02
-3.570191620383411646e-02
-3.637106783571653068e-02
-3.742849730770103633e-02
-3.694937913678586483e-02
-3.473751712590456009e-02
-3.236222255509346724e-02
-3.045847370231058449e-02
-2.792619670799467713e-02
-2.527421202103141695e-02
-2.364501597185153514e-02
-2.299483639944810420e-02
-2.544758717704098672e-02
-2.941658021882176399e-02
-3.065597411477938294e-02
-2.759405469987541437e-02
-2.444592973915860057e-02
-2.572326957306358963e-02
-2.695153489185031503e-02
-2.560940811235923320e-02
-2.099087942042388022e-02
-1.628469726711045951e-02
-1.501509905210696161e-02
-1.600802170287352055e-02
-1.487473764427704737e-02
-1.064324442268116400e-02
-6.779239356546895579e-03
-5.609049821941880509e-03
-5.259122644929448143e-03
-3.959228251915192232e-03
-1.855796881500282325e-03
2.781719786071334966e-03
6.255427706491900608e-03
5.360981049307156354e-03
-5.994505727358045988e-04
-5.609052095678634942e-03
-7.326971626753220335e-03
-9.622556717658881098e-03
-1.342558789474423975e-02
-1.761550993251148611e-02
-2.367540946579538286e-02
-2.998556374222971499e-02
-3.105748692178167403e-02
-2.943701838376000524e-02
-3.152100907755084336e-02
-3.561429548426531255e-02
-3.900257070199586451e-02
-4.161028846283443272e-02
-4.536374399322085083e-02
-4.892182914773002267e-02
-4.913238808512687683e-02
-4.724566315417177975e-02
-4.712341979029588401e-02
-4.609308962244540453e-02
-4.027992326882667840e-02
-3.164471127092838287e-02
-2.479319118720013648e-02
-2.299522748216986656e-02
-2.832609425240661949e-02
-3.465357076493091881e-02
-3.586304592317901552e-02
-3.498534715618006885e-02
-3.424618989811278880e-02
-3.333240601932629943e-02
-3.348960672155953944e-02
-3.384135561645962298e-02
-3.423544694669544697e-02
-3.391885911696590483e-02
-3.345896402606740594e-02
-3.311022737761959434e-02
-3.257696880609728396e-02
-3.033219945791643113e-02
-2.353183663217350841e-02
-1.600576979399193078e-02
-1.162032185675343499e-02
-1.202606654260307550e-02
-1.488647376390872523e-02
-1.944172436196822673e-02
-2.566554394434206188e-02
-3.047581594728399068e-02
-3.360490518389269710e-02
-3.597440445446409285e-02
-3.756193473236635327e-02
-3.900866067851893604e-02
-3.559884135029278696e-02
-2.472852065693587065e-02
-1.617475209059193730e-02
-1.374963630951242521e-02
-1.470621100452262908e-02
-1.633918691368307918e-02
-1.884292942122556269e-02
-2.402436803095042706e-02
-2.840745037246961147e-02
-2.781825787678826600e-02
-2.255813342344481498e-02
-1.716343649604823440e-02
-1.449023056920850649e-02
-1.491270450060255826e-02
-1.443184191884938627e-02
-9.398543625138700008e-03
-5.264816991257248446e-03
-6.838693934696493670e-03
-1.268243613594677299e-02
-1.872408392955549061e-02
-2.211776518379338086e-02
-2.272037090733647346e-02
-2.332999247300904244e-02
-2.372213384660426527e-02
-2.262122688989620656e-02
-2.118708107445854694e-02
-2.221326940343715250e-02
-2.467494232405442744e-02
-2.760738607321400195e-02
-2.628390393510926515e-02
-2.386319829383864999e-02
-2.510018202883657068e-02
-2.990973734995350242e-02
-3.493406984489411116e-02
-3.641443618107587099e-02
-3.742265471373684704e-02
-3.987738091382198036e-02
-4.055075260112062097e-02
-3.839696728391572833e-02
-3.660171205410733819e-02
-3.641346847871318460e-02
-3.391322388779371977e-02
-2.892637166951317340e-02
-2.651107934070751071e-02
-2.446134749334305525e-02
-1.943632923939730972e-02
-1.695359242148697376e-02
-2.150868021999485791e-02
-2.905135988839901984e-02
-3.354420914547517896e-02
-3.322381598991341889e-02
-3.052645843126811087e-02
-2.858308653230778873e-02
-2.837461215676739812e-02
-2.902714368246961385e-02
-2.779800161079037935e-02
-2.397741263848729432e-02
-1.947052987816277891e-02
-1.781121500243898481e-02
-1.954367326106876135e-02
-2.253069578728172928e-02
-2.419916745566297323e-02
-2.545417009969241917e-02
-2.647545807121787220e-02
-2.593302269815467298e-02
-2.514612060622312129e-02
-2.544364178902469575e-02
-2.568723175500053912e-02
-2.501221388229168952e-02
-2.553932972659822553e-02
-2.694817158044315875e-02
-2.678912642295472324e-02
-2.712017521844245493e-02
-2.669283639988861978e-02
-2.502399001969024539e-02
-2.453706474625505507e-02
-2.466088517394382507e-02
-2.445143945806194097e-02
-2.432480323477648199e-02
-2.435138776490930468e-02
-2.556321487645618618e-02
-2.737028808041941375e-02
-2.830208359227981418e-02
-2.741510616033338010e-02
-2.552110345277469605e-02
-2.502222923794761300e-02
-2.536840111133642495e-02
-2.706819395825732499e-02
-2.818071698129642755e-02
-2.685443541849963367e-02
-2.533424412831664085e-02
-2.415505878161638975e-02
-2.395629417151212692e-02
-2.490881161065772176e-02
-2.467604463163297623e-02
-2.291336386406328529e-02
-2.000579661398660392e-02
-1.729894029267597944e-02
-1.542070458526723087e-02
-1.416942723153624684e-02
-1.372023780277231708e-02
-1.571357825014274567e-02
-2.095548006764147431e-02
-2.673352537385653704e-02
-2.946610766230151057e-02
-2.897853482863865793e-02
-2.811858212226070464e-02
-2.742373726505320519e-02
-2.734514964686241001e-02
-2.796796252368949354e-02
-2.671871516213286668e-02
-2.442876211716793478e-02
-2.211846549471374601e-02
-2.197053436248097569e-02
-2.307690192537847906e-02
-2.479658724041655660e-02
-2.705953738768585026e-02
-2.926658453361596912e-02
-3.073659900110214949e-02
-3.187891343259252608e-02
-3.234947143937461078e-02
-3.143698995700106025e-02
-3.166714668623171747e-02
-3.021305383299477398e-02
-2.654746094776783139e-02
-2.240692811028566211e-02
-2.096621938108000904e-02
-2.234566818515304476e-02
-2.347872941754758358e-02
-2.256547304568812251e-02
-2.037560261669568717e-02
-1.965009687410201877e-02
-2.066682645818218589e-02
-1.971418714674655348e-02
-1.573696681589353830e-02
-1.260511453438084573e-02
-1.080170022760285065e-02
-9.482400855631567538e-03
-8.661106221552472562e-03
-7.506909241783432662e-03
-6.038939773134188727e-03
-5.885207883693510666e-03
-7.566892236354760826e-03
-8.406449524045456201e-03
-9.158657121588476002e-03
-1.329750011791475117e-02
-2.018190207309089601e-02
-2.715406662900932133e-02
-3.268943328293971717e-02
-3.654191095847636461e-02
-3.959315290558151901e-02
-4.056643956573680043e-02
-3.729175296030007303e-02
-3.029940125998109579e-02
-2.044395114353392273e-02
-8.809591236058622599e-03
8.747448418944259174e-04
2.902892219935893081e-03
-1.523255150459590368e-03
-9.187634532281663269e-03
-1.546665953355841339e-02
-1.970213088497985154e-02
-2.732649591052904725e-02
-3.840009230771102011e-02
-4.751375672640278935e-02
-5.473274723044596612e-02
-5.969521589577198029e-02
-6.173225119709968567e-02
-6.267127173487097025e-02
-6.466217018896713853e-02
-6.542409391840919852e-02
-6.240240327315405011e-02
-5.819279249408282340e-02
-5.669680467690341175e-02
-5.507261448656208813e-02
-5.166860137251205742e-02
-4.799299858859740198e-02
-4.259935303707607090e-02
-3.564694270608015358e-02
-2.934279473265632987e-02
-2.255671097373124212e-02
-1.260814042325364426e-02
-2.824406692525371909e-03
-4.675986247093533166e-04
-6.136056981631554663e-03
-1.455564688512822613e-02
-2.267357558594085276e-02
-3.047772406716831028e-02
-3.821546488325111568e-02
-4.263864684617146850e-02
-3.988613752881065011e-02
-3.161429776810109615e-02
-2.419183874735608697e-02
-2.132569170498754829e-02
-2.093662078550551087e-02
-1.972517020476516336e-02
-1.913125561259221286e-02
-1.881640309875365347e-02
-1.834239083109423518e-02
-1.842866913648322225e-02
-1.695628270681481808e-02
-1.216348846355685964e-02
-3.191161340510006994e-03
6.786953235859982669e-03
1.368720768368802965e-02
1.176544628833653405e-02
3.895472673320909962e-03
-4.742757937492569908e-03
-1.505841555626830086e-02
-2.728883373492863029e-02
-3.952711995225399733e-02
-4.954107134835794568e-02
-5.418319051386788487e-02
-5.372089799493551254e-02
-5.151721052243374288e-02
-4.856412851950153708e-02
-4.515328691923059523e-02
-4.009757685707882047e-02
-3.452496821410022676e-02
-2.812770435411948711e-02
-2.212736580986529589e-02
-1.575192072778008878e-02
-7.878766155045013875e-03
-2.308275270479498431e-03
-1.227203597409243230e-03
-3.748171593542792834e-03
-9.321188372268807143e-03
-1.392259855492739007e-02
-1.489376973040634766e-02
-1.655557753110770136e-02
-2.034328281297348440e-02
-2.147762097592931241e-02
-1.959721885214094073e-02
-1.805705323931761086e-02
-1.895312561828177422e-02
-2.113523441948927939e-02
-2.231424150522798300e-02
-2.270504774060100317e-02
-2.361759834457188845e-02
-2.354214120714459568e-02
-2.201963798142969608e-02
-2.251430851174518466e-02
-2.606037924124393612e-02
-3.038139402633532882e-02
-3.320324685773812234e-02
-3.513454066705890000e-02
-3.496499630273319781e-02
-3.242136881453916430e-02
-2.929781658167485148e-02
-2.744281846389640123e-02
-2.702907477214466780e-02
-2.756323738140054047e-02
-2.947280518128536642e-02
-3.336142617627047002e-02
-3.713223486556671560e-02
-3.896432826877571642e-02
-3.652813757071271539e-02
-3.291408211225643754e-02
-2.833862708939705044e-02
-2.510040212655439973e-02
-2.339641287107951939e-02
-1.948335193446837366e-02
-1.231934220413677394e-02
-6.775995643693022430e-03
-6.132408998382743448e-03
-8.671370778756681830e-03
-1.103195063478779048e-02
-1.210194659506669268e-02
-1.681096910033375025e-02
-2.537723776185885072e-02
-3.505851418594829738e-02
-3.981381814810447395e-02
-3.731389369932003319e-02
-3.177566395606845617e-02
-2.836566818587016314e-02
-2.867688999685924500e-02
-2.972416405100375414e-02
-2.977504846057854593e-02
-2.732245775405317545e-02
-2.334080818400252610e-02
-1.876465830719098449e-02
-1.544044789625331759e-02
-1.255873303307453170e-02
-9.993279491027351469e-03
-1.038328446156810969e-02
-1.488745328970253468e-02
-2.111245885316748172e-02
-2.777885674731805921e-02
-3.333901622681878507e-02
-3.551992267603054643e-02
-3.648348865681327879e-02
-3.802277933573350310e-02
-3.940603710361756384e-02
-4.072098818141967058e-02
-4.320590232964605093e-02
-4.666003223974257708e-02
-4.841011104872450233e-02
-4.783819531439803541e-02
-4.856647501583211124e-02
-4.942285158904269338e-02
-4.962605089531280100e-02
-4.825431460631079972e-02
-4.534294566838070750e-02
-4.094957330380566418e-02
-3.539493263815529644e-02
-2.724627120187506080e-02
-1.808577871997840703e-02
-7.223223292385227978e-03
4.644324235414387658e-03
1.103274189517833292e-02
9.655671419750433415e-03
4.019233983854064718e-03
-1.237503170159470756e-03
-4.561391961033223197e-03
-3.964122242905432358e-03
-1.739412823553720955e-03
-3.958353772759437561e-03
-1.205970420414814726e-02
-2.159537325496785343e-02
-2.766521174635272473e-02
-2.880211650335695595e-02
-2.779205897240899503e-02
-2.738231887633446604e-02
-2.890924952225759625e-02
-3.071338505833409727e-02
-3.096703221672214568e-02
-2.950824273284524679e-02
-2.587823291833046824e-02
-1.837777926994021982e-02
-1.144076395576121286e-02
-8.972400792117696255e-03
-1.209532911161659285e-02
-2.048894930339884013e-02
-2.946836684714071453e-02
-3.429460412007756531e-02
-3.725912029040046036e-02
-4.074543539900332689e-02
-4.176999209448695183e-02
-4.179399911663495004e-02
-4.198061651550233364e-02
-4.402442573336884379e-02
-4.727219493361189961e-02
-4.984603947377763689e-02
-5.011637767893262208e-02
-4.854814687860198319e-02
-4.592442201101221144e-02
-4.327658825786784291e-02
-4.058445483678951859e-02
-3.899505827575922012e-02
-3.934554842999204993e-02
-4.006287781521677971e-02
-3.844745515380054712e-02
-3.519578604027628899e-02
-3.200670835212804377e-02
-2.844609480234794319e-02
-2.243069320684298873e-02
-1.776039243850391358e-02
-1.591647014720365405e-02
-1.586940197739750147e-02
-1.559413249196950346e-02
-1.231341957463882864e-02
-7.568201453977962956e-03
-5.687169050361262634e-03
-7.032747816992923617e-03
-8.502833225065842271e-03
-8.146782420226372778e-03
-5.633409728034166619e-03
-3.544680339473416097e-03
-2.762217263807542622e-03
-2.188565531469066627e-03
-1.302624013987951912e-03
-3.023269528057426214e-03
-8.541901479475200176e-03
-1.367394361295737326e-02
-1.616195368114858866e-02
-1.740278275974560529e-02
-1.904485907289199531e-02
-2.441842480038758367e-02
-3.036929047084413469e-02
-3.231131267966702580e-02
-3.104767165496014059e-02
-3.027018647117074579e-02
-3.164192457916215062e-02
-3.281976387370377779e-02
-3.120584733551368117e-02
-2.971086905745323747e-02
-3.010403997905086726e-02
-3.138565080007538199e-02
-3.350118277012370527e-02
-3.380510315764695406e-02
-3.135536462650634348e-02
-2.847293035301845521e-02
-2.704752296267542988e-02
-2.795353611872997135e-02
-3.010108412127010524e-02
-3.064565316890366375e-02
-3.227249180781655014e-02
-3.557476156856864691e-02
-3.848456981359049678e-02
-3.918942820746451616e-02
-3.920853487215936184e-02
-3.916479181498289108e-02
-3.598260082071647048e-02
-3.052053216379135847e-02
-2.366079388593789190e-02
-1.496157256042351946e-02
-5.913757831876864657e-03
3.153670149913523346e-03
1.045565750246169046e-02
1.701981636870186776e-02
1.791405702533666044e-02
9.659573152021039277e-03
-3.469857119853259064e-03
-1.453165714337956160e-02
-2.285833215864840895e-02
-3.018923962372355163e-02
-3.447730341576971114e-02
-3.657647175714373589e-02
-3.868593194056302309e-02
-4.054371675010770559e-02
-4.312165401643142104e-02
-4.626072404789738357e-02
-4.842225098400376737e-02
-4.863106369157321751e-02
-4.695044481195509434e-02
-4.632654236047528684e-02
-4.648721733246929944e-02
-4.492244624998420477e-02
-4.196721783955581486e-02
-4.125780833419412374e-02
-4.214100044919177890e-02
-3.595918315113522112e-02
-2.251377372886054218e-02
-9.165044502879027277e-03
1.289177589569590054e-03
6.014664904796518385e-03
5.958810561423888430e-03
3.909206952812382951e-03
2.413018592051230371e-03
9.747566309670219198e-04
-1.610685217201535124e-03
-6.203400062076980248e-03
-1.271818473469465971e-02
-1.812522896216250956e-02
-1.956039523065555841e-02
-2.125107675965409726e-02
-2.440343632770236582e-02
-2.687367123144213110e-02
-3.202647712896578014e-02
-3.755232683033682406e-02
-4.200238981866277754e-02
-4.557537977234460413e-02
-4.780184099217876792e-02
-4.740141594083979726e-02
-4.564401388051919639e-02
-4.468765837373211980e-02
-4.135190829401835799e-02
-3.703274342115037143e-02
-3.641315561253577471e-02
-4.328696377342566848e-02
-5.136554318596608937e-02
-5.339514245861209929e-02
-5.063921344117261469e-02
-4.582546171150170267e-02
-3.987669697380624712e-02
-3.592651410144753754e-02
-3.507721703499555588e-02
-3.389500852790661156e-02
-2.994126589328516275e-02
-2.291655073349829763e-02
-1.415815768268657848e-02
-6.933429631317267194e-03
-1.691935267444932833e-03
1.182846631309075747e-03
1.328059738625597674e-03
-3.203798257800372085e-04
-1.483924961576121859e-03
-3.295406713732518256e-03
-5.424058599601266906e-03
-9.466788469580933452e-03
-1.359249654342420399e-02
-1.325232460658298805e-02
-9.194017366098705679e-03
-7.102094514266354963e-03
-9.591823982191272080e-03
-1.642157440073788166e-02
-2.332421172468457371e-02
-2.722586941672489047e-02
-2.999938624270725995e-02
-3.019549149030353874e-02
-2.758030313998460770e-02
-2.506005148461554199e-02
-2.363455860177055001e-02
-2.411341483821161091e-02
-2.778668931568972766e-02
-3.327542071929201484e-02
-3.905016274075023830e-02
-4.426863233675248921e-02
-4.842928683501668274e-02
-5.077858440927229822e-02
-4.795950371772050858e-02
-4.107852510060183704e-02
-3.246862979722209275e-02
-2.463221244397573173e-02
-1.998506922973319888e-02
-1.876197347883135080e-02
-1.929415884660556912e-02
-2.111886897182557732e-02
-2.569852949818596244e-02
-3.216421100660227239e-02
-3.954555359086953104e-02
-4.539939618553034961e-02
-4.523993993643671274e-02
-3.978870518039911985e-02
-3.670107980724424124e-02
-3.564622966223396361e-02
-3.355978697072714567e-02
-3.073181869694963098e-02
-2.651591785252094269e-02
-2.176949237764347345e-02
-1.937586239364463836e-02
-2.015249447140377015e-02
-2.421765202598180622e-02
-2.919389044109266251e-02
-3.093258419539779425e-02
-3.104678035015240312e-02
-3.186230242135934532e-02
-3.092954284511506557e-02
-2.748376027739141136e-02
-2.579967622295953333e-02
-2.730913183768279850e-02
-3.170595300616696477e-02
-3.569717955542728305e-02
-3.562037454685196280e-02
-3.263199323555454612e-02
-2.894025965360924602e-02
-2.534580562496557832e-02
-2.094885167025495321e-02
-1.627076562726870179e-02
-1.157413498731330037e-02
-7.899070624262094498e-03
-6.714827122777933255e-03
-9.437289008928928524e-03
-1.295300717174541205e-02
-1.367616459901910275e-02
-1.107669322664150968e-02
-8.992980838229414076e-03
-1.131959470512811095e-02
-1.795842035789974034e-02
-2.588603274489287287e-02
-3.035626650671474636e-02
-3.023157296411227435e-02
-2.974857306980993599e-02
-3.163913424941711128e-02
-3.303310950286686420e-02
-3.172472861479036510e-02
-2.880008469219319522e-02
-2.812217098835390061e-02
-3.004528662131633610e-02
-3.138200554531067610e-02
-3.010585169249679893e-02
-2.516786662454251200e-02
-1.780075035640038550e-02
-1.309652543568518013e-02
-1.342854375252500176e-02
-1.518560111435363069e-02
-1.498463461757637560e-02
-1.359269663225859404e-02
-1.284976588067365810e-02
-1.416848317603580654e-02
-1.591295040270779282e-02
-1.694391357887070626e-02
-1.720927321002818644e-02
-1.865472404460888356e-02
-2.188940561609342694e-02
-2.682869308046065271e-02
-3.105580617557279766e-02
-3.130842742393724620e-02
-2.915108598244842142e-02
-2.720444717851933092e-02
-2.735221642069518566e-02
-2.985537867061793804e-02
-2.931689414253924042e-02
-2.486688026692718267e-02
-1.934991996677126735e-02
-1.900183451652992517e-02
-2.245527139166370034e-02
-2.416244024061597884e-02
-2.308851617272011936e-02
-2.209798549301922321e-02
-2.270911863888613880e-02
-2.376206430199090391e-02
-2.430285530863329768e-02
-2.416874121990986168e-02
-2.468577804393135011e-02
-2.724983096413780004e-02
-3.068764999625273049e-02
-3.237934288335964084e-02
-3.171701246174052358e-02
-2.972390757349785417e-02
-2.914389733632560819e-02
-2.919895268860273063e-02
-2.819725341396406293e-02
-2.545110328355804086e-02
-2.414444679743610322e-02
-2.535360181354917586e-02
-2.866788054234348238e-02
-3.289671076345257461e-02
-3.453475437709130347e-02
-3.268705768277868629e-02
-2.923248393926769495e-02
-2.640551610966213048e-02
-2.379840589128434658e-02
-2.238449633296113461e-02
-2.526050593587569892e-02
-2.991164728882722557e-02
-3.257957359892316163e-02
-3.446526534389704466e-02
-3.665659824036993086e-02
-3.537458906066603959e-02
-3.013308014487847686e-02
-2.400163248239550740e-02
-1.945894837263040245e-02
-1.689396958681754768e-02
-1.655300911806989461e-02
-1.528134635009337217e-02
-1.194884771393844858e-02
-1.022666947392281145e-02
-1.146437989518744871e-02
-1.455812707717996091e-02
-1.919169699249323457e-02
-2.588247116364073008e-02
-3.261960955569520593e-02
-3.610959902289323509e-02
-3.740312968147918582e-02
-3.811361239058896899e-02
-3.896926136803813279e-02
-4.055981480632908642e-02
-4.105028710910119116e-02
-4.043984154122881591e-02
-3.904568438883870840e-02
-3.655258842627517879e-02
-3.360812115715816617e-02
-3.195922909071668983e-02
-3.056111017940565944e-02
-2.560784560046158731e-02
-1.722199885989539325e-02
-7.559810910606756806e-03
-2.364653937547700480e-03
-3.725652106822963106e-04
1.161937916549504735e-03
6.678575914520479273e-04
-2.074053327305591665e-03
-5.669489382853498682e-03
-1.031313331623096019e-02
-1.568759398651309311e-02
-1.989169322769157588e-02
-2.119488999596796930e-02
-2.157408198399934918e-02
-2.491259147063829005e-02
-3.134649887215346098e-02
-3.946491779061034322e-02
-4.494705353863537312e-02
-4.859829641645774245e-02
-5.292039350024424493e-02
-5.669446909450925887e-02
-5.926024823565967381e-02
-6.112345727160573006e-02
-6.130636029411107302e-02
-6.002275404171086848e-02
-5.707360833184793591e-02
-4.895336678600870073e-02
-3.666916381916962564e-02
-2.518990731914527714e-02
-1.716596125334035605e-02
-1.057479948940454051e-02
-8.611618795839603990e-03
-1.187118596135405824e-02
-1.658174551266711205e-02
-2.010676689678803086e-02
-1.906862416944932193e-02
-1.482320203649578616e-02
-1.320807587035233155e-02
-1.840695767896249890e-02
-2.858021071006078273e-02
-3.824622399406507611e-02
-4.510326471063308418e-02
-4.912441727356053889e-02
-5.339533890946768224e-02
-5.671253529726527631e-02
-5.628292274195700884e-02
-5.263507409836165607e-02
-4.458896364667452872e-02
-3.307917359052225947e-02
-2.121596844517625868e-02
-1.108987635234370828e-02
-2.812850539157807361e-04
1.191855699289590120e-02
2.239154491689987481e-02
3.140141416224651039e-02
4.305706897866912186e-02
5.537643301067873836e-02
6.392302748281508684e-02
6.638636114075779915e-02
5.850715024280361831e-02
4.028795592603273690e-02
2.029434836003929377e-02
2.680116494957474060e-03
-1.253948903467971832e-02
-2.586187838460318744e-02
-3.629906132118776441e-02
-4.232903665979392827e-02
-4.481810901779681444e-02
-4.472666114452295005e-02
-4.213671854813583195e-02
-3.855123577523045242e-02
-3.515482239890843630e-02
-3.201013169018551707e-02
-3.195315002813003957e-02
-3.309919702587649226e-02
-3.319471943541429937e-02
-3.245594780310057104e-02
-3.476755227893590927e-02
-3.908697181032039225e-02
-4.492562948144041002e-02
-5.327534745447337627e-02
-6.267616117838770151e-02
-6.860729627078399062e-02
-6.933699478395283222e-02
-6.930653762537986040e-02
-7.177620136644691229e-02
-7.305375766009092331e-02
-7.313641981454566121e-02
-7.124651892809197307e-02
-6.692983151879161596e-02
-6.275390478549525142e-02
-6.092743205954320729e-02
-5.939564289292320609e-02
-5.702689668396487832e-02
-5.151335790287703276e-02
-4.072373849339783192e-02
-2.728545769059564918e-02
-1.472842814109753817e-02
-5.990132194710895419e-03
2.575698374585044803e-04
3.898913291777716950e-03
3.283799514974816702e-03
-2.603447910587419756e-04
-5.239633992459857836e-03
-1.175472425529733300e-02
-1.989190604945179075e-02
-2.816600499500054866e-02
-3.412518344703130424e-02
-3.683900649775750935e-02
-3.912518877768889070e-02
-4.222540519549511373e-02
-4.381882536108605564e-02
-4.051719952258281410e-02
-3.720440145116299391e-02
-3.842217120109125972e-02
-4.109016299480572343e-02
-3.931070386897772551e-02
-3.034010114788543433e-02
-2.120838325936347246e-02
-1.681819048826582730e-02
-1.409585365763632581e-02
-1.103817612602142617e-02
-9.136353583016898483e-03
-1.068837536877254024e-02
-1.348284422419965267e-02
-1.240152687387308106e-02
-6.310664957709377632e-03
5.445383521873736754e-04
4.710126177087659016e-03
4.862850801146123558e-03
3.250299869250738993e-03
-5.738972959079546854e-04
-8.197522220143582672e-03
-1.952571983565576375e-02
-2.924741784227080643e-02
-3.377697066753171384e-02
-3.568610554793849587e-02
-3.964331699535250664e-02
-4.379799429443664849e-02
-4.546612035483121872e-02
-4.480218558455817401e-02
-4.217938112560659647e-02
-3.870710133924148977e-02
-3.353286228957585990e-02
-2.643707557581365108e-02
-1.955700827238615602e-02
-1.585568315931595862e-02
-1.433237503078998998e-02
-1.219036039401544258e-02
-8.043207344599068165e-03
-3.340080866109929048e-03
-2.781559942377498373e-04
2.579037754912860692e-03
3.930445473088184372e-03
9.618447620596271008e-04
-4.712075678980909288e-03
-1.116976818593684584e-02
-1.777888246579095721e-02
-2.602695712994318455e-02
-3.027841194125358015e-02
-2.986302206409163773e-02
-2.961881182272918522e-02
-3.204024687875062227e-02
-3.616425965446978807e-02
-3.923094482161104679e-02
-3.912406100425869226e-02
-3.265492705395445228e-02
-2.148195198969915509e-02
-8.764430276642087847e-03
3.628321792348288000e-03
9.824001608649268746e-03
6.885944458190351725e-03
-3.802066430580453016e-03
-1.764451008057221770e-02
-2.945397318399045616e-02
-3.510136230033822358e-02
-3.522691986290737987e-02
-3.271266541560180485e-02
-2.625996603455860168e-02
-1.438350045646075159e-02
2.750246949290158227e-03
1.651457205298356712e-02
1.978966975002549589e-02
1.566828359500505030e-02
1.141024495154852048e-02
9.169769327854737639e-03
5.336999947758158669e-03
-3.788905814872123301e-03
-1.630779661354608834e-02
-2.701557423279155046e-02
-3.430648212088271976e-02
-4.130266825086437166e-02
-4.447393439477309585e-02
-4.145865023019723594e-02
-3.914949411409907043e-02
-3.960105459555052221e-02
-4.060187347931787372e-02
-4.186290971119888127e-02
-4.121268648304976523e-02
-3.933780317311175168e-02
-3.823170482064597309e-02
-3.877779090544208884e-02
-3.947437653550878167e-02
-3.975554500357247889e-02
-3.888228457071818411e-02
-3.700573142850771546e-02
-3.569698674255050719e-02
-3.408520933589898050e-02
-3.095366992056369781e-02
-2.895805664593353868e-02
-2.969907291117124259e-02
-3.322371048852801323e-02
-3.589434709283523262e-02
-3.605637903092429042e-02
-3.637854752014391124e-02
-3.864697282551787794e-02
-3.944318086723797023e-02
-3.617081893025897443e-02
-3.201167419319972396e-02
-3.239112265873700380e-02
-3.519089659675955772e-02
-3.399281195015646517e-02
-2.984422098961658776e-02
-2.672135997272562236e-02
-2.536098872951697558e-02
-2.701980520214419812e-02
-3.025943442480638623e-02
-3.331182233523577452e-02
-3.507639848976396024e-02
-3.492358882795087993e-02
-3.188048140145838261e-02
-2.660864811332430691e-02
-2.181996387662366033e-02
-2.064448017335962504e-02
-2.046070221695117652e-02
-1.810456706152763218e-02
-1.340821654594037682e-02
-1.157771021098596975e-02
-1.591929867572616786e-02
-2.368609239056240767e-02
-2.996262992382980883e-02
-3.311089312774129212e-02
-3.491660390864126384e-02
-3.671653757919557393e-02
-3.538952296366915107e-02
-3.538067176123149693e-02
-4.127736247028224170e-02
-4.715505929198116064e-02
-4.687899854616262019e-02
-4.477527909330092371e-02
-4.204511060379445553e-02
-3.637616464402526617e-02
-3.115796425845474005e-02
-2.642131585162132978e-02
-1.782674917194526643e-02
-9.294115443481132388e-03
-6.433295311580877751e-03
-5.661212071572663262e-03
-7.868580951253534295e-04
9.188124749925918877e-03
1.513185361545765772e-02
1.097031054086983204e-02
5.625131052511278540e-03
4.970724603481357917e-03
5.755940492235822603e-03
1.881630396383116022e-03
-6.546843906107824296e-03
-1.480446735513396561e-02
-2.175816553062759340e-02
-2.646980465215165168e-02
-2.766604120552074164e-02
-2.740198760875500739e-02
-2.829545701388269663e-02
-2.836268686223775148e-02
-2.921234954555984586e-02
-3.155187732772901654e-02
-3.223429303034208715e-02
-3.104970528511330485e-02
-3.154980731778778136e-02
-3.209389251423999667e-02
-3.034082146768923849e-02
-2.863717054424341768e-02
-2.792475788737647235e-02
-2.496610795788001269e-02
-2.154838875867426395e-02
-2.112432230205740780e-02
-2.260367909912019968e-02
-2.408959153399337083e-02
-2.675778705452103168e-02
-2.925629269157070667e-02
-3.310565443825908005e-02
-3.798024044954217970e-02
-3.951013059122487903e-02
-3.894614565069787204e-02
-3.793917858274653554e-02
-3.547079541021957994e-02
-3.417331390664912760e-02
-3.537349039106629789e-02
-3.860368451569229364e-02
-4.190067920717410743e-02
-3.946031938539817929e-02
-3.081076283706352115e-02
-2.269805554533377290e-02
-1.919157875818200409e-02
-2.155498623324092478e-02
-2.744523044384550303e-02
-3.223970998078584671e-02
-3.313081106171011925e-02
-3.048250982828903943e-02
-2.636069257277995348e-02
-2.277789644722361118e-02
-2.062307066807989031e-02
-2.030857103818561882e-02
-2.079384285025298595e-02
-2.030018004006706178e-02
-1.997253093577455729e-02
-2.016132566495798528e-02
-2.184378536185249686e-02
-2.522716022212989628e-02
-2.647771179908886552e-02
-2.359054087719414383e-02
-1.964371040230616927e-02
-1.787474866432603449e-02
-1.950539081008173525e-02
-2.187528662034310400e-02
-2.403193138889037073e-02
-2.651161412359215319e-02
-2.702396886888891459e-02
-2.563667476351838559e-02
-2.480850525898858905e-02
-2.345064604014623910e-02
-2.275423685205169022e-02
-2.349453825445380062e-02
-2.619016595417633653e-02
-3.226483022444881499e-02
-3.901849049725569785e-02
-4.252324652043171227e-02
-4.115211777389049530e-02
-3.799865589826367795e-02
-3.890980224241502583e-02
-4.298392741475254297e-02
-4.582771362038329244e-02
-4.605331560014747083e-02
-4.483889642870053649e-02
-4.339359657024033368e-02
-4.318633727962151170e-02
-4.297097621019929647e-02
-4.068945418111979961e-02
-3.450757139944471419e-02
-2.493788269930519164e-02
-1.496417280577588826e-02
-8.078032806224655360e-03
-3.893771918228594586e-03
-1.332453962277213577e-03
-1.767519250961413491e-04
-1.310532525167218409e-03
-3.640825070760911331e-03
-6.864442639198387042e-03
-9.982337360270321369e-03
-1.254241942660883069e-02
-1.498111214459640905e-02
-1.809101559047121555e-02
-2.219465568487066776e-02
-2.527534525142982602e-02
-2.677048541954718530e-02
-2.728723666223231703e-02
-2.647763176355510950e-02
-2.730525739025324583e-02
-2.902293454098980874e-02
-2.824787770805414766e-02
-2.724599471548572183e-02
-2.685276012925896794e-02
-2.753385706455446780e-02
-2.751452302618417889e-02
-2.671034053491894156e-02
-2.532236794650088996e-02
-2.230331119790207595e-02
-1.814672759792301804e-02
-1.383696144330315292e-02
-9.778014828043524176e-03
-9.853829396888613701e-03
-1.307851016463246197e-02
-1.491993680247105658e-02
-1.477130717830732465e-02
-1.637370951357297599e-02
-1.939682442753110081e-02
-2.289307485625613481e-02
-2.663813211256638169e-02
-3.061324969166889787e-02
-3.417435073060914874e-02
-3.609069972299039364e-02
-3.443762398092076182e-02
-2.828867582138627768e-02
-2.180669616791419685e-02
-1.905414501379709691e-02
-1.761746352713089436e-02
-1.283267101825913414e-02
-1.121363857237156481e-02
-1.587800034030806273e-02
-2.352890078327618539e-02
-3.129489050479605794e-02
-3.668056888272985816e-02
-4.048962364322505891e-02
-4.412252383190207183e-02
-4.568290387396700680e-02
-4.633305798051878810e-02
-4.664796506403945386e-02
-4.649650145438499749e-02
-4.583577901939861476e-02
-4.562421599985100329e-02
-4.260856076143682003e-02
-3.694408587762154639e-02
-2.996323746629059315e-02
-2.418246367597021163e-02
-2.048069291049614549e-02
-1.834468821471091360e-02
-1.711392360448371619e-02
-1.637805326026864350e-02
-1.530641202407423407e-02
-1.437556147720897570e-02
-1.398641597916139290e-02
-1.487989993620431051e-02
-1.488543603045400232e-02
-1.257664280274184421e-02
-9.647509614296723157e-03
-8.416782293352298439e-03
-8.913248166209086776e-03
-1.145436453953152522e-02
-1.718090425129048526e-02
-2.289289841428399086e-02
-2.713371759455185384e-02
-2.940963349828962237e-02
-3.054526314372196794e-02
-3.169713454553857446e-02
-3.299417221569456160e-02
-3.071083119721151888e-02
-2.461747681081760675e-02
-1.899658127513248473e-02
-1.737744969432242215e-02
-1.825266008381731808e-02
-2.074656731565482914e-02
-2.238391789433080703e-02
-2.241931542812380940e-02
-2.230978680017869920e-02
-2.389823384874034673e-02
-2.751090505626052618e-02
-3.005103098985273391e-02
-3.096147702308371663e-02
-3.171165735693648458e-02
-3.127086529275402427e-02
-2.824109287757892162e-02
-2.517235407140105963e-02
-2.245211908302735537e-02
-2.018460327235516161e-02
-1.735074147291015834e-02
-1.250893365067895502e-02
-8.433060429524630308e-03
-7.411045771732460707e-03
-9.452589438296854496e-03
-1.490659178671194240e-02
-2.200361632276326418e-02
-2.670305184437893331e-02
-2.737901559157762676e-02
-2.654744457686319947e-02
-2.498255889804568142e-02
-2.476378540450241417e-02
-2.574246718722861260e-02
-2.774340100586414337e-02
-2.957899960165377706e-02
-3.088479570578783751e-02
-3.167629984091036022e-02
-3.058772199437953532e-02
-2.733990913839079440e-02
-2.523651164665352553e-02
-2.592368582554627210e-02
-2.696312185435090214e-02
-2.705916631384752691e-02
-2.744663106568623334e-02
-2.813980063365306705e-02
-2.596623744466342032e-02
-2.307633076270576566e-02
-2.402314203209243715e-02
-2.617370228108484298e-02
-2.625700108183082193e-02
-2.444102392473723739e-02
-2.317110374860931188e-02
-2.223915180366020650e-02
-2.082300306938122958e-02
-2.004845191549975425e-02
-1.994970625673886389e-02
-1.872292887128423899e-02
-1.483791402279166505e-02
-1.292729029955808073e-02
-1.625847289687953889e-02
-2.255732033518142998e-02
-2.840745219145901501e-02
-3.315517824376001954e-02
-3.634609311120584607e-02
-3.762055712286382914e-02
-3.848610140266828239e-02
-3.988761454820632935e-02
-3.979754546890035272e-02
-3.835162351606413722e-02
-3.527215449139475822e-02
-3.182581713190302253e-02
-3.096566069871187210e-02
-3.030833067896310240e-02
-2.851455974450800568e-02
-2.761922951322048903e-02
-2.863707049982622266e-02
-3.121864938293583691e-02
-3.342524723848327994e-02
-3.339142494951374829e-02
-3.278088115621358156e-02
-3.503347397781908512e-02
-3.880462463712319732e-02
-3.947265940951183438e-02
-3.705776907736435533e-02
-3.452488090260885656e-02
-3.326640944578684866e-02
-3.518342055031098425e-02
-3.879211362800560892e-02
-4.071711737196892500e-02
-3.929058584617450833e-02
-3.567834573914296925e-02
-2.992451663885731250e-02
-2.131736619048751891e-02
-1.198607333208201453e-02
-5.515527846000622958e-03
6.351601768983528018e-04
5.870753284398233518e-03
6.200712050485890359e-03
2.028523113040137105e-03
-4.680265192291699350e-03
-1.092283582693198696e-02
-1.472996154916472733e-02
-1.848264400905463845e-02
-2.387396125413943082e-02
-2.812331149470992386e-02
-2.831050005625002086e-02
-2.571041841292753816e-02
-2.298937579325865954e-02
-2.236983345937915146e-02
-2.163448152714408934e-02
-2.174483233829960227e-02
-2.278681677125860006e-02
-2.383374703640583903e-02
-2.421922181383706629e-02
-2.352747833356261253e-02
-2.278943429701030254e-02
-2.457408118061721325e-02
-2.797976776491850615e-02
-3.095426291110925376e-02
-3.257307980675250292e-02
-3.414371531107462943e-02
-3.736541111720725894e-02
-3.972374179284088314e-02
-3.651780571090057492e-02
-2.985358332807663828e-02
-2.520752241252921522e-02
-2.486274570401292294e-02
-2.488266545697115362e-02
-2.265894909214694053e-02
-2.046857844106853008e-02
-2.125432001776061952e-02
-2.260469045722857118e-02
-2.230559584859292954e-02
-1.989038173633161932e-02
-1.732057899062056094e-02
-1.554160553496330976e-02
-1.762805004545953125e-02
-2.218940426246263087e-02
-2.497108653187751770e-02
-2.458948983985465020e-02
-2.415078779449686408e-02
-2.378098361077718437e-02
-2.371443770243786275e-02
-2.202208634116686881e-02
-1.943488496181089431e-02
-1.800753852876368910e-02
-1.879175761132501066e-02
-2.089902227453421801e-02
-2.162605414923746139e-02
-2.099777157127391547e-02
-2.050654802587814629e-02
-2.121038960467558354e-02
-2.350891008973121643e-02
-2.465289799147285521e-02
-2.284346919623203576e-02
-2.052706076938193291e-02
-1.940702713909558952e-02
-1.903196061903145164e-02
-1.939782123372424394e-02
-2.057032361335586756e-02
-1.943224924616515636e-02
-1.610325671208556741e-02
-1.515170060883974656e-02
-1.844189682742580771e-02
-2.554896309447940439e-02
-3.296886279713362455e-02
-3.658054265542887151e-02
-3.698547152453102171e-02
-3.738875966519117355e-02
-3.931661194656044245e-02
-4.089644426130689681e-02
-4.137876021559350193e-02
-3.990986442659050226e-02
-3.661800292320549488e-02
-3.385275340406224132e-02
-3.249674045946449041e-02
-3.176148311467841268e-02
-3.211918374290689826e-02
-3.430288052186369896e-02
-3.576504605007357895e-02
-3.355957596795633435e-02
-2.992717418237589300e-02
-2.607572423585224897e-02
-2.268901334900874645e-02
-2.166471676900982857e-02
-2.142995253961998969e-02
-2.003457848331891000e-02
-1.815568793972488493e-02
-1.766042441886384040e-02
-1.885118217614945024e-02
-2.032008524111006409e-02
-2.055952063528820872e-02
-1.935627915372606367e-02
-1.724349567666649818e-02
-1.615677138033788651e-02
-1.685069219092838466e-02
-1.834182876336853951e-02
-2.075089832942467183e-02
-2.233018676633946598e-02
-2.286874223500490189e-02
-2.201892675657290965e-02
-2.109100205416325480e-02
-2.277913154102861881e-02
-2.749406849034130573e-02
-3.108927194261923432e-02
-3.163433575537055731e-02
-3.057375579373911023e-02
-2.779320675472263247e-02
-2.558572850830387324e-02
-2.350933937123045325e-02
-2.137116825906559825e-02
-1.983277070394251496e-02
-2.053521711786743253e-02
-2.243258677481207997e-02
-2.352877709199674428e-02
-2.450934516673441976e-02
-2.499799848010297865e-02
-2.315740130143240094e-02
-2.228360972367227077e-02
-2.149717329302802682e-02
-2.087798748107161373e-02
-2.253219463455025107e-02
-2.554736420279368758e-02
-2.716308881645090878e-02
-2.858191146515309811e-02
-3.088939774897880852e-02
-3.139926047879271209e-02
-3.034249493794050068e-02
-2.978093652927782387e-02
-2.851146928151138127e-02
-2.531290920160245150e-02
-2.297506944159977138e-02
-2.281735214637592435e-02
-2.392719034105539322e-02
-2.298746585438493639e-02
-1.985799644899088889e-02
-1.804608291422482580e-02
-2.070988921332173049e-02
-2.486591620254330337e-02
-2.655118260008748621e-02
-2.646469874889589846e-02
-2.477973430359270424e-02
-2.263717033201828599e-02
-2.014351775869727135e-02
-1.864204750745557249e-02
-1.646602140681352466e-02
-1.471141058573266491e-02
-1.533722934254910797e-02
-1.601672920514829457e-02
-1.854977926996070892e-02
-2.355364085815381259e-02
-2.712217792577575892e-02
-2.836866224242839962e-02
-2.913828029704745859e-02
-2.938417128461878747e-02
-2.963553924928419292e-02
-2.986919207614846528e-02
-2.970550485770218074e-02
-3.011554144904948771e-02
-3.208005000487901270e-02
-3.557992749847471714e-02
-3.801506682066246867e-02
-3.822495273198001087e-02
-3.627082332968711853e-02
-3.444472895353101194e-02
-3.447278868407011032e-02
-3.593088695197366178e-02
-3.700451998156495392e-02
-3.714078775374218822e-02
-3.551971894921734929e-02
-3.509680391289293766e-02
-3.507670044200494885e-02
-3.351168925291858613e-02
-2.968373519252054393e-02
-2.298007348144892603e-02
-1.561816316097974777e-02
-1.261147190234623849e-02
-1.470206007070373744e-02
-1.851643173722550273e-02
-2.115975075867027044e-02
-2.489020880602765828e-02
-3.081143586314283311e-02
-3.730868047568947077e-02
-4.200878902338445187e-02
-4.376119977678172290e-02
-4.480297866393812001e-02
-4.456219903659075499e-02
-4.324700785218738019e-02
-3.984612703789025545e-02
-3.642120645963586867e-02
-3.508804365992546082e-02
-3.499250669847242534e-02
-3.464151450316421688e-02
-3.324369754409417510e-02
-2.986286199302412570e-02
-2.713003959797788411e-02
-2.698019852687139064e-02
-2.841037894540932029e-02
-2.904741813836153597e-02
-2.989524546137545258e-02
-3.274435221101157367e-02
-3.436383485677652061e-02
-3.288143489044159651e-02
-3.263049438828602433e-02
-3.203744927304796875e-02
-2.775930261122994125e-02
-2.085829873976763338e-02
-1.504795181972440332e-02
-1.360424539598170668e-02
-1.522185903013451025e-02
-1.740654624882154167e-02
-2.051459523499943316e-02
-2.452715307299513370e-02
-3.013136119989212602e-02
-3.719693631865084171e-02
-4.078229903825558722e-02
-4.102148886886425316e-02
-3.989887773059308529e-02
-3.847392872557975352e-02
-3.627153273555450141e-02
-3.235139956814236939e-02
-2.670496905921027064e-02
-2.189160113630350679e-02
-2.125445280398707837e-02
-2.690129986149258912e-02
-3.388740879017859697e-02
-3.479654333204962313e-02
-3.065678538405336440e-02
-2.826189847837667912e-02
-2.800594302243553102e-02
-2.874272286135237664e-02
-2.892208976845722646e-02
-2.559905806265305728e-02
-2.011573997151572257e-02
-1.824236460379324853e-02
-2.101674181176349521e-02
-2.581215812824666500e-02
-3.055329943890683353e-02
-3.235171971027739346e-02
-3.162049688398838043e-02
-2.862482870114035904e-02
-2.415412927803117782e-02
-1.800749305402860045e-02
-1.214239091495983303e-02
-1.004716432362329215e-02
-1.039172002492705360e-02
-1.039671133185038343e-02
-1.128326584876049310e-02
-1.404442264174576849e-02
-1.727417111396789551e-02
-2.053448224614840001e-02
-2.314533412572927773e-02
-2.568216768850106746e-02
-2.898581624322105199e-02
-2.837764623109251261e-02
-2.771775143628474325e-02
-2.983963167935144156e-02
-3.276233110227622092e-02
-3.547901724232360721e-02
-3.649304562713950872e-02
-3.425530667300336063e-02
-2.981912257382646203e-02
-2.664101157279219478e-02
-2.600406696728896350e-02
-2.692065027076750994e-02
-2.604868495836853981e-02
-2.392936949036084116e-02
-2.161079464713111520e-02
-2.138440140697639436e-02
-2.121271427313331515e-02
-1.964945658983197063e-02
-1.868627623480278999e-02
-1.798235643946100026e-02
-1.780134334694594145e-02
-1.912626976263709366e-02
-2.038772254309151322e-02
-2.065344597212970257e-02
-2.149190731870476156e-02
-2.290154770889785141e-02
-2.265499460918363184e-02
-2.314716584805864841e-02
-2.534601662773638964e-02
-2.758568734861910343e-02
-2.776653309410903603e-02
-2.537070031394250691e-02
-2.232342376373708248e-02
-1.926600816659629345e-02
-1.706063630990684032e-02
-1.679006345511879772e-02
-1.768993388395756483e-02
-1.851239721872843802e-02
-1.832816269597969949e-02
-1.524193885416025296e-02
-1.123252059187507257e-02
-1.146964586951071396e-02
-1.722756678645964712e-02
-2.420876990072429180e-02
-2.846599454642273486e-02
-3.018715142388828099e-02
-3.085748539888300002e-02
-3.232240851502865553e-02
-3.348217069287784398e-02
-3.339058821438811719e-02
-3.257750358898192644e-02
-3.353870124556124210e-02
-3.621344148996286094e-02
-4.111383896088227630e-02
-4.448789695743471384e-02
-4.423080463311634958e-02
-4.124162296648137271e-02
-3.853514499496668577e-02
-3.496642602840438485e-02
-3.018489405803848058e-02
-2.733692963374778628e-02
-2.619299812067765743e-02
-2.484495053067803383e-02
-2.210810453107114881e-02
-1.899666676763445139e-02
-1.816356234485283494e-02
-1.909516868181526661e-02
-1.804113344405777752e-02
-1.548328509670682251e-02
-1.452831656933994964e-02
-1.493689524068031460e-02
-1.477307523600757122e-02
-1.409358901582891122e-02
-1.335587785433745012e-02
-1.271933797397650778e-02
-1.242194502992788330e-02
-1.383135986543493345e-02
-1.690969293122179806e-02
-1.876622627605684102e-02
-1.649145269766449928e-02
-1.225923824677010998e-02
-1.228389828611398116e-02
-1.783160041668452322e-02
-2.343630148970987648e-02
-2.520787711546290666e-02
-2.605103327368851751e-02
-2.713410867727361619e-02
-2.890779069275595248e-02
-3.064053089474327862e-02
-3.172032666043378413e-02
-3.168954935972578824e-02
-3.087180812144652009e-02
-3.131144694634713233e-02
-3.428670243010856211e-02
-3.674699473776854575e-02
-3.638699490693397820e-02
-3.599495903472416103e-02
-3.549839675542898476e-02
-3.569375985534861684e-02
-3.788356480072252452e-02
-4.050373900099657476e-02
-3.906272104359231889e-02
-3.273438778705894947e-02
-2.509923069737851620e-02
-1.986854294955264777e-02
-1.725548645481467247e-02
-1.571149005030747503e-02
-1.443819473934127018e-02
-1.251264893653569743e-02
-1.403231908625457436e-02
-1.721193257253617048e-02
-1.959318979061208665e-02
-2.062427847704384476e-02
-2.114314338541589677e-02
-2.115486677212174982e-02
-2.064784894173499197e-02
-1.986922870855778456e-02
-1.888927363324910402e-02
-1.836302544688805938e-02
-1.843911559262778610e-02
-1.895190507639199495e-02
-1.836893716244958341e-02
-1.564110971230547875e-02
-1.293539844482438639e-02
-1.234391675097867846e-02
-1.297382095799548551e-02
-1.546951898490078747e-02
-2.117274743795860559e-02
-2.839399712684098631e-02
-3.338509486638940871e-02
-3.317118535051122308e-02
-3.034333713003434241e-02
-2.971201138279866427e-02
-3.187351831002160907e-02
-3.441035369178280234e-02
-3.807299435720779002e-02
-4.237756365910172462e-02
-4.354400152806192636e-02
-4.209618782624602318e-02
-4.016403909190557897e-02
-3.881770317093469203e-02
-3.895183908753097057e-02
-3.925229248125106096e-02
-3.754260978894308209e-02
-3.502835897961631417e-02
-3.235848635085858405e-02
-3.085229036514647305e-02
-2.942385071946773678e-02
-2.698355092434212565e-02
-2.552810110501013696e-02
-2.428475818305741996e-02
-2.425481943646445870e-02
-2.490374572516884655e-02
-2.426003084110561758e-02
-2.463852797518484294e-02
-2.753200533334165812e-02
-3.241369267925620079e-02
-3.817120887106284499e-02
-4.161150354775600135e-02
-3.842214937321841717e-02
-3.110374018433503807e-02
-2.718703581194858998e-02
-2.618696089484728873e-02
-2.365596628806088120e-02
-2.136194598278962076e-02
-2.030625364568550140e-02
-2.080856393149588257e-02
-2.261342160636559129e-02
-2.418524309177882969e-02
-2.380872319918125868e-02
-2.177384885726496577e-02
-1.899380731629207730e-02
-1.638958929106593132e-02
-1.564155172673054039e-02
-1.513294500909978524e-02
-1.262837758986279368e-02
-9.020376637636218220e-03
-6.964768090256256983e-03
-5.969969606667291373e-03
-6.981290880503365770e-03
-9.383526048623025417e-03
-1.137183699029264972e-02
-1.151729247794719413e-02
-8.376373443752527237e-03
-7.826458386261947453e-03
-1.251373487320961431e-02
-1.933102976181544363e-02
-2.325546847714576870e-02
-2.400659468548838049e-02
-2.434499219816643745e-02
-2.473381391610018909e-02
-2.600733205326832831e-02
-2.543156188039574772e-02
-2.362507984798867255e-02
-2.374524956394452602e-02
-2.631296047184150666e-02
-2.856456012523267418e-02
-2.813910941767971963e-02
-2.683381171664223075e-02
-2.583139939815737307e-02
-2.583510831755120307e-02
-2.697052514122333378e-02
-2.838288855855353177e-02
-2.880839929275680333e-02
-2.998996751557569951e-02
-3.164738154737278819e-02
-3.273392576375044882e-02
-3.116709558526054025e-02
-2.825110095727723092e-02
-2.664835301402490586e-02
-2.614543700474314392e-02
-2.577740451670251787e-02
-2.490425504220183939e-02
-2.324417619092855603e-02
-2.175798363168723881e-02
-2.097835204040165991e-02
-2.076108285109512508e-02
-1.771995084709487855e-02
-1.635283297218848020e-02
-1.661911846895236522e-02
-1.673888436926063150e-02
-1.710299147816840559e-02
-1.815347604861017317e-02
-2.055387994914781302e-02
-2.343567211937624961e-02
-2.458934432070236653e-02
-2.439855961711145937e-02
-2.701470293686725199e-02
-2.962064536404795945e-02
-2.897382364608347416e-02
-2.725033118622377515e-02
-2.800004040182102472e-02
-2.911389674409292638e-02
-2.814530489558819681e-02
-2.803491770464461297e-02
-2.974170638481155038e-02
-3.179460691171698272e-02
-3.113292405032552779e-02
-2.731915628828573972e-02
-2.471234074619133025e-02
-2.562006193329580128e-02
-2.693620444915723056e-02
-2.635523014760110527e-02
-2.565601607784628868e-02
-2.539610795793123543e-02
-2.560431676101870835e-02
-2.505115662643220276e-02
-2.415098788333125412e-02
-2.420802957203704864e-02
-2.536488500481937081e-02
-2.661354847077745944e-02
-2.746767495409585536e-02
-2.769786078715696931e-02
-2.496826709830202162e-02
-1.987463110708631575e-02
-1.703893030935432762e-02
-1.873707878985442221e-02
-2.179526745749171823e-02
-2.287310780957341194e-02
-2.206405770266428590e-02
-2.120728277077432722e-02
-2.132024928869213909e-02
-2.174070323235355318e-02
-2.016589496633969247e-02
-1.854555557656567544e-02
-1.970683842955622822e-02
-2.135354407073464245e-02
-2.393026989011559635e-02
-2.837075226125307381e-02
-3.188511982443742454e-02
-3.239906800445169210e-02
-3.248979555792175233e-02
-3.321711483295075595e-02
-3.353581632836721838e-02
-3.263780672568827868e-02
-3.181342981406487525e-02
-3.224727697670459747e-02
-3.292514884378761053e-02
-3.307011866127140820e-02
-3.306247526779770851e-02
-3.211668081348761916e-02
-3.054722401429899037e-02
-3.054372064070776105e-02
-3.070812454097904265e-02
-3.064417251152917743e-02
-3.132047640974633396e-02
-3.019162795681040734e-02
-2.646963548613712192e-02
-2.278130705235525966e-02
-1.961050475074443966e-02
-1.636609522392973304e-02
-1.430279371561482549e-02
-1.487577355874236673e-02
-1.631339364394079894e-02
-1.633633473829831928e-02
-1.565724232932552695e-02
-1.694995262369047850e-02
-1.907294972625095397e-02
-2.075019619951490313e-02
-2.261560803162865341e-02
-2.238142951682675630e-02
-1.701677865639794618e-02
-1.168247308669378981e-02
-1.042281110130716115e-02
-1.249565139005426317e-02
-1.482312836742494255e-02
-1.606228215678129345e-02
-1.696300569165032357e-02
-1.875666384876240045e-02
-2.090288580802734941e-02
-1.995678394450806081e-02
-1.948347016877960414e-02
-2.147602026525419205e-02
-2.431029497529380023e-02
-2.601885353215038776e-02
-2.554387538111768663e-02
-2.558781125117093325e-02
-2.686911648197565228e-02
-2.896016849263105541e-02
-3.076807479374110699e-02
-3.135242513963021338e-02
-3.110093894065357745e-02
-3.120800829492509365e-02
-3.105225187027826905e-02
-3.012330671481322497e-02
-3.144083530060015619e-02
-3.422035661060363054e-02
-3.606358950491994619e-02
-3.593188012018799782e-02
-3.411221405258402228e-02
-3.212182855349965394e-02
-3.059165464947000146e-02
-2.937904355349019170e-02
-2.853858313756063581e-02
-2.864165617211256176e-02
-2.914612014137674123e-02
-2.904826578742358834e-02
-2.831564052030444145e-02
-2.697445961530320346e-02
-2.673203562153503299e-02
-2.795695036184042692e-02
-2.841982495738193393e-02
-2.793601743178442121e-02
-2.818673056026455015e-02
-2.837152351276017725e-02
-2.773002779576927423e-02
-2.630466588016133755e-02
-2.597236925794277340e-02
-2.744739867921452969e-02
-2.831227538990788162e-02
-2.736785609158687294e-02
-2.691763438633643091e-02
-2.524687442928552628e-02
-2.213663537986576557e-02
-2.071430390060413629e-02
-2.288024916197173297e-02
-2.590798430901486427e-02
-2.649583257152698934e-02
-2.562806912465021014e-02
-2.622860847623087466e-02
-2.744092307693790644e-02
-2.714235051826108247e-02
-2.346381916140671819e-02
-1.814726238080766052e-02
-1.455460915167350322e-02
-1.317719579674303532e-02
-1.601693838892970234e-02
-2.059267717413604259e-02
-2.656711149029433727e-02
-3.363065479788929224e-02
-3.840065983240492642e-02
-3.795391967287287116e-02
-3.497330180834978819e-02
-3.142870627925731242e-02
-2.804115501930937171e-02
-2.592790769995190203e-02
-2.521931128285359591e-02
-2.567440606071613729e-02
-2.594747638795524836e-02
-2.466121986799407750e-02
-2.225942625955212861e-02
-2.046243753284215927e-02
-1.945875010278541595e-02
-1.890635940071661025e-02
-1.820367651816923171e-02
-1.768706169968936592e-02
-1.818713644752278924e-02
-2.081145248666871339e-02
-2.438752017042133957e-02
-2.471015432092826813e-02
-2.242139453301206231e-02
-2.160193980671465397e-02
-2.026643596764188260e-02
-1.830338624131400138e-02
-1.797828372218646109e-02
-1.962556962098460644e-02
-2.194184344261884689e-02
-2.444881101837381721e-02
-2.578242492745630443e-02
-2.447201040922664106e-02
-2.202609357482288033e-02
-2.130677239620126784e-02
-2.246607800771016628e-02
-2.358215897402260453e-02
-2.334206692466977984e-02
-2.265141120005864650e-02
-2.276691884617321193e-02
-2.324662455066572875e-02
-2.260996734548825771e-02
-2.127250809280667454e-02
-2.050649163720663637e-02
-1.995361526496708393e-02
-1.865708327386528254e-02
-1.794933086785022169e-02
-1.896095818665344268e-02
-2.011206197494175285e-02
-2.032015436270739883e-02
-1.981648529181256890e-02
-1.980844353965949267e-02
-1.985348171729128808e-02
-2.239680725324433297e-02
-2.636262615851592273e-02
-2.937586214102339000e-02
-3.260316589148715138e-02
-3.538306191330775619e-02
-3.734351776074618101e-02
-3.916343848686665297e-02
-3.989053220720961690e-02
-3.891562300850637257e-02
-3.816749813267961144e-02
-3.873004970955662429e-02
-3.910070518031716347e-02
-3.801498678512871265e-02
-3.655333057395182550e-02
-3.490751623758114874e-02
-3.226783883292227983e-02
-2.964823761431034654e-02
-2.776389192149508744e-02
-2.599248000478837639e-02
-2.301923268532846123e-02
-1.853878529800567776e-02
-1.570161111885681748e-02
-1.555628296046052128e-02
-1.678998887655325234e-02
-1.760958002705592662e-02
-1.869109473773278296e-02
-2.091225724143441767e-02
-2.282632704009301960e-02
-2.152238084818236530e-02
-1.918127964017912745e-02
-1.858109317254275084e-02
-1.895338391477707773e-02
-1.879475894384086132e-02
-1.924913703987840563e-02
-2.082931860059034079e-02
-2.338528975087683648e-02
-2.544424205552786589e-02
-2.752533873717766255e-02
-3.038960676349233836e-02
-3.230349466321058571e-02
-3.116072184639051557e-02
-2.961938298540189862e-02
-2.968713670270517468e-02
-3.085804200964048505e-02
-3.084843774558976293e-02
-2.813367609633132815e-02
-2.571241202531382442e-02
-2.510480771888978779e-02
-2.482224772393237799e-02
-2.356693585170432925e-02
-2.245325777039397508e-02
-2.230706923000980169e-02
-2.304655572515912354e-02
-2.394746661593671888e-02
-2.377843884460162371e-02
-2.471363586664665490e-02
-2.670231151569169015e-02
-2.815968582581263036e-02
-3.067674697376787663e-02
-3.278641452197916806e-02
-3.320776522741653025e-02
-3.316738002467900515e-02
-3.416101753828115761e-02
-3.496464341878890991e-02
-3.633463347796350718e-02
-3.841804937110282481e-02
-4.087138222530484200e-02
-4.173173147137276828e-02
-4.110140434931963682e-02
-3.897757051163353026e-02
-3.624259989010170102e-02
-3.502985782688483596e-02
-3.664140967885032296e-02
-3.775471486733295023e-02
-3.599434057832695544e-02
-3.308440864202566445e-02
-3.213207310182042420e-02
-3.234597897971980274e-02
-3.111856130999512970e-02
-2.821248745021875948e-02
-2.406166640867013484e-02
-2.095946729241404682e-02
-1.737467391649261117e-02
-1.559317388455383480e-02
-1.630774204386398196e-02
-1.743149368849117309e-02
-1.689904820523224771e-02
-1.689453347353264689e-02
-1.754305958456825465e-02
-1.773549956851638854e-02
-1.766860805219039321e-02
-1.636654997128061950e-02
-1.629601320018991828e-02
-1.770315429894253612e-02
-1.890797284431755543e-02
-1.841248740674927831e-02
-1.850778971856925637e-02
-1.882797369034960866e-02
-1.790378519217483699e-02
-1.728486313368193805e-02
-1.942187736858613789e-02
-2.152466367988381535e-02
-2.101174868585076183e-02
-2.062880230369046330e-02
-2.155356742150615901e-02
-2.228311859653331339e-02
-2.229021083621773869e-02
-2.097052674798760563e-02
-2.105364546878263354e-02
-2.165216210414655507e-02
-2.311410389665979892e-02
-2.440056778141297400e-02
-2.485823824827093631e-02
-2.429279629723168910e-02
-2.380117075517773628e-02
-2.389247129030991346e-02
-2.427252002235036343e-02
-2.489848520781379193e-02
-2.563977795944083482e-02
-2.700948789424728602e-02
-2.732269786065444350e-02
-2.657857294252607971e-02
-2.610321098472923040e-02
-2.633933763718232512e-02
-2.692246926017105579e-02
-2.881430918932892382e-02
-3.023177850991487503e-02
-2.838623549905605614e-02
-2.569715979916509241e-02
-2.499613401596434414e-02
-2.529528865125030279e-02
-2.592717100924346596e-02
-2.828470678650774062e-02
-3.124606155324727297e-02
-3.255618867115117610e-02
-3.409224882489070296e-02
-3.593688234104774892e-02
-3.629893035395070910e-02
-3.562417623470537364e-02
-3.465883855824358761e-02
-3.367852332303300500e-02
-3.073789048357866704e-02
-2.726520142459776253e-02
-2.373811184952501208e-02
-2.129284621332772076e-02
-1.973091275431215763e-02
-1.981280547624919564e-02
-2.035066609096247703e-02
-2.128456617356278002e-02
-2.290904012625105679e-02
-2.217707151430658996e-02
-2.053792559308931231e-02
-1.914861422847025096e-02
-1.802523911464959383e-02
-1.809936838981229812e-02
-1.984599657589569688e-02
-2.090598172799218446e-02
-1.906211764435283840e-02
-1.774580596247687936e-02
-1.825882463890593499e-02
-1.830728069762699306e-02
-1.850679291237611324e-02
-2.056258199445437640e-02
-2.138391027983743697e-02
-1.998736843233928084e-02
-1.862352473835926503e-02
-1.944381801877170801e-02
-2.076617056445684284e-02
-2.168351056752726436e-02
-2.303961264260578901e-02
-2.467881495249457657e-02
-2.671197944437153637e-02
-2.734534791670739651e-02
-2.785007745842449367e-02
-2.692855559871532023e-02
-2.537834188842680305e-02
-2.468712227710057050e-02
-2.495779699529521167e-02
-2.569239950389601290e-02
-2.522376234992407262e-02
-2.503235737094655633e-02
-2.632416544656734914e-02
-2.748234510363545269e-02
-2.694030445127282292e-02
-2.560822576924692839e-02
-2.503482210158836097e-02
-2.582649540272541344e-02
-2.633520307426806539e-02
-2.617742211441509426e-02
-2.581997796369250864e-02
-2.493632200639694929e-02
-2.477254929544869810e-02
-2.461312396917492151e-02
-2.334718919883016497e-02
-2.229970232292544097e-02
-2.218698682554531842e-02
-2.210073944297619164e-02
-2.275579026900231838e-02
-2.471887091815005988e-02
-2.685797880985774100e-02
-2.770823084574658424e-02
-2.708773354243021458e-02
-2.821089219651184976e-02
-2.930714617832563818e-02
-2.991629298776388168e-02
-3.061842653551138937e-02
-3.031832966371439397e-02
-2.763175689324270934e-02
-2.543008122302126139e-02
-2.656120341271162033e-02
-2.860930362658109516e-02
-2.848480471584480256e-02
-2.748151200648862869e-02
-2.702781421248801053e-02
-2.634485463204327971e-02
-2.582108390924986452e-02
-2.531907375669106841e-02
-2.331568430236075073e-02
-2.260952533106319606e-02
-2.315511483175214380e-02
-2.276880150020588189e-02
-2.194463013438507915e-02
-2.144955396943259984e-02
-2.107378168147988617e-02
-2.072833012789487839e-02
-2.120712633768562227e-02
-2.039797254838049412e-02
-1.895922832773067057e-02
-1.849793443398084491e-02
-1.881301250250544399e-02
-1.897728725452907383e-02
-1.875858288258314133e-02
-1.836880801420193166e-02
-1.815479663491714746e-02
-1.780371167114935815e-02
-1.827568667067680508e-02
-1.953498576767742634e-02
-2.095434138027485460e-02
-2.269178912683855742e-02
-2.462131487845908850e-02
-2.743152072071097791e-02
-2.972105721710249782e-02
-3.055827983189374208e-02
-3.196906254743225873e-02
-3.249536166549660265e-02
-3.338487658766098320e-02
-3.530114918248727918e-02
-3.575314985937438905e-02
-3.570732587832026184e-02
-3.622324584284797311e-02
-3.549492612364701927e-02
-3.519565143506042659e-02
-3.654506872408092022e-02
-3.798647594521753490e-02
-3.778280006372369826e-02
-3.577446113922633231e-02
-3.394026498426683247e-02
-3.279379961895756423e-02
-3.155972808599472046e-02
-3.045573430426884443e-02
-3.020727672264911234e-02
-2.880678221117705107e-02
-2.360843973292503506e-02
-1.873438486654777080e-02
-1.664688898017629981e-02
-1.544827682664617896e-02
-1.558465373818762600e-02
-1.591986256244126707e-02
-1.493119907536311075e-02
-1.447532486054114997e-02
-1.672299913479946554e-02
-1.887704092951025814e-02
-1.987342875509057194e-02
-2.084154766635037959e-02
-2.246933581773191690e-02
-2.396898707957006991e-02
-2.546582254581153393e-02
-2.624097396619617939e-02
-2.584368667157832533e-02
-2.609526018204633147e-02
-2.821084672177676111e-02
-3.103453491348773241e-02
-3.092100450885482132e-02
-2.895326724683400244e-02
-2.836038220266345888e-02
-2.719006806728430092e-02
-2.627678986755199730e-02
-2.786357981676701456e-02
-3.059892333112657070e-02
-3.141490014968439937e-02
-3.111950354650616646e-02
-3.104096686001867056e-02
-3.188041955581866205e-02
-3.353666397742927074e-02
-3.439527063164860010e-02
-3.299881063867360353e-02
-3.139970431220717728e-02
-3.143789581372402608e-02
-3.190774441463872790e-02
-3.215987453586421907e-02
-3.037444184883497655e-02
-2.642452818690799177e-02
-2.314178709639236331e-02
-2.182851858378853649e-02
-2.178141221520490944e-02
-2.167950333387125283e-02
-2.080860394926276058e-02
-2.063220017589628696e-02
-2.099295852531213313e-02
-2.179285002057440579e-02
-2.147010127373505384e-02
-2.007517105084843934e-02
-1.911847357405349612e-02
-1.899001290439628065e-02
-2.202734322054311633e-02
-2.794255124172195792e-02
-3.112736521870829165e-02
-2.925629632954951376e-02
-2.585575566627085209e-02
-2.417638643237296492e-02
-2.371850678173359483e-02
-2.397445859969593585e-02
-2.650051283126231283e-02
-3.054537955904379487e-02
-3.341210685903206468e-02
-3.330528488731943071e-02
-3.307693259557709098e-02
-3.291952816653065383e-02
-3.258038486819714308e-02
-3.164133158861659467e-02
-2.979907367262057960e-02
-2.714378933887928724e-02
-2.440959906380157918e-02
-2.197030335082672536e-02
-2.104022496496327221e-02
-1.980195520445704460e-02
-1.825643630581907928e-02
-1.746759517118334770e-02
-1.625643744773697108e-02
-1.473352858738508075e-02
-1.489430815126979724e-02
-1.712464472802821547e-02
-1.915975371957756579e-02
-1.963013528438750654e-02
-1.830923247325699776e-02
-1.538451579108368605e-02
-1.297325252380687743e-02
-1.243014503415906802e-02
-1.291311491513624787e-02
-1.520773275842657313e-02
-1.857830829976592213e-02
-2.107978798449039459e-02
-2.215873973909765482e-02
-2.103287079080473632e-02
-1.961113230208866298e-02
-1.993776459130458534e-02
-2.278991451021283865e-02
-2.649901944096200168e-02
-2.794040665321517736e-02
-2.802143171720672399e-02
-2.832494283211417496e-02
-2.897734339057933539e-02
-3.005145481438376009e-02
-3.193931479472666979e-02
-3.289012602181173861e-02
-3.387251854292117059e-02
-3.427265983191318810e-02
-3.346093217260204256e-02
-3.200007267878390849e-02
-3.052049214602448046e-02
-3.025446858373470604e-02
-3.059258233406580985e-02
-3.072780236834660172e-02
-3.097750595770776272e-02
-2.987550578836817294e-02
-2.840526940417475998e-02
-2.665648935362696648e-02
-2.544388189562596381e-02
-2.648565532581415027e-02
-2.718591349548660219e-02
-2.792777195281814784e-02
-2.835590566974133253e-02
-2.813560786307789385e-02
-2.720251177379395813e-02
-2.564532223914284259e-02
-2.405699160590302199e-02
-2.445601785439066589e-02
-2.723014404182322323e-02
-2.863924783014226705e-02
-2.668442357389722019e-02
-2.365791624470148236e-02
-2.331637551833409816e-02
-2.330847564735449851e-02
-2.329767812625505030e-02
-2.343227060919161886e-02
-2.253720958833582699e-02
-2.191433122789021581e-02
-2.170864354411605746e-02
